0.0,-0.016991038361116848
0.004,-0.016954929465643104
0.008,-0.01698637449578935
0.012,-0.016933773787868873
0.016,-0.016989836333970585
0.02,-0.01701082372794434
0.024,-0.017009237052111274
0.028,-0.01699762546987837
0.032,-0.017006688754561197
0.036000000000000004,-0.01699296160455087
0.04,-0.016997505267163746
0.044,-0.0170002218485143
0.048,-0.01701693002584736
0.052000000000000005,-0.017020079336970566
0.056,-0.017018228215165323
0.06,-0.01703173900028932
0.064,-0.01702310844537915
0.068,-0.01702996000011285
0.07200000000000001,-0.017008611997995218
0.076,-0.017038590555023023
0.08,-0.01703104182454449
0.084,-0.017039696419997585
0.088,-0.017038758838823498
0.092,-0.01703678751430363
0.096,-0.017020560147829072
0.1,-0.017027195337676444
0.10400000000000001,-0.017040537838999968
0.108,-0.017023396931894252
0.112,-0.01703998490651269
0.116,-0.017032941027435584
0.12,-0.017043422704151
0.124,-0.016980941333088237
0.128,-0.01700584733555881
0.132,-0.01705575550267166
0.136,-0.01704986556965497
0.14,-0.01703880691990935
0.14400000000000002,-0.01705753450284813
0.148,-0.01704190814994671
0.152,-0.017045946961158152
0.156,-0.017045394028670873
0.16,-0.017051211840058787
0.164,-0.017045562312471348
0.168,-0.01703118606780204
0.17200000000000001,-0.017049793448026193
0.176,-0.017046716258531762
0.18,-0.017062631097948287
0.184,-0.017059337543567525
0.188,-0.017067799814677216
0.192,-0.017050346380513476
0.196,-0.017053183164578656
0.2,-0.01705763066501983
0.20400000000000001,-0.01706077997614304
0.20800000000000002,-0.017047918285678025
0.212,-0.017056452678416493
0.216,-0.017062727260119988
0.22,-0.017063785044008697
0.224,-0.017056717124388672
0.228,-0.017053111042949883
0.232,-0.01704976940748327
0.23600000000000002,-0.017038157825250366
0.24,-0.017066092936129523
0.244,-0.01701575203924402
0.248,-0.017033493959922864
0.252,-0.017062631097948287
0.256,-0.01706741516599041
0.26,-0.01704575463681475
0.264,-0.017059698151711402
0.268,-0.017053255286207433
0.272,-0.01705508236746975
0.276,-0.017061909881660526
0.28,-0.01706707859838946
0.28400000000000003,-0.017074555207239217
0.28800000000000003,-0.017078257450849708
0.292,-0.01706926628779566
0.296,-0.017064650503554008
0.3,-0.01708265687020503
0.304,-0.017073136815206624
0.308,-0.017090205600683563
0.312,-0.017091479749458603
0.316,-0.017094100168637456
0.32,-0.017075180261355273
0.324,-0.017074867734297245
0.328,-0.01706909800399518
0.332,-0.01707717562641807
0.336,-0.017062438773604884
0.34,-0.017070155787883894
0.34400000000000003,-0.017074507126153365
0.34800000000000003,-0.017076069761443508
0.352,-0.017068521030964973
0.356,-0.0170732089368354
0.36,-0.017141243673313895
0.364,-0.01714509016018194
0.368,-0.017117491616903735
0.372,-0.01712441529326621
0.376,-0.0172009123008544
0.38,-0.017179420055479216
0.384,-0.017168361405733593
0.388,-0.01716432259452215
0.392,-0.01716857777061992
0.396,-0.017171174149255848
0.4,-0.017172255973687486
0.404,-0.017170573135682717
0.40800000000000003,-0.017172328095316262
0.41200000000000003,-0.017158360539876683
0.41600000000000004,-0.017152831215003873
0.42,-0.017173337798119123
0.424,-0.01718141542054201
0.428,-0.017188795867220066
0.432,-0.01718821889418986
0.436,-0.017183627150491137
0.44,-0.017186319691298763
0.444,-0.017189613245679525
0.448,-0.01718675242107142
0.452,-0.017192450029744708
0.456,-0.01718278573148875
0.46,-0.017179828744708945
0.464,-0.017200191084566642
0.468,-0.0171988207736199
0.47200000000000003,-0.017192762556802736
0.47600000000000003,-0.017200575733253447
0.48,-0.017209711139565046
0.484,-0.01721343742371846
0.488,-0.01721266812634485
0.492,-0.017198147638417993
0.496,-0.017194253070464103
0.5,-0.017190478705224835
0.504,-0.01714299863294744
0.508,-0.01719360397580512
0.512,-0.017218077248503036
0.516,-0.01720983134227967
0.52,-0.017227525181872667
0.524,-0.0172375500882725
0.528,-0.017215144302266155
0.532,-0.01721557703203881
0.536,-0.01721959180270733
0.54,-0.01720694647712864
0.544,-0.0172101438693377
0.548,-0.0172078600177598
0.552,-0.017223149803060268
0.556,-0.017218245532303514
0.56,-0.017221178478540395
0.5640000000000001,-0.01722252474894421
0.5680000000000001,-0.01722074574876774
0.5720000000000001,-0.01723420845280589
0.5760000000000001,-0.017237886655873457
0.58,-0.017233895925747863
0.584,-0.017241973548170753
0.588,-0.01722201989754278
0.592,-0.01721269216688778
0.596,-0.017218702302619095
0.6,-0.017225553857352794
0.604,-0.01723105914168268
0.608,-0.017249353994848806
0.612,-0.01724334385911749
0.616,-0.01723990606147918
0.62,-0.01724990692733609
0.624,-0.017255748779266927
0.628,-0.017245579629609542
0.632,-0.017244305480834502
0.636,-0.017245146899836885
0.64,-0.01718571867772563
0.644,-0.017268490267017315
0.648,-0.017263009023230358
0.652,-0.01726769692910078
0.656,-0.017275197578493464
0.66,-0.01726897107787582
0.664,-0.01726969229416358
0.668,-0.017277817997672317
0.672,-0.017275341821751018
0.676,-0.017262648415086478
0.68,-0.017255508373837675
0.684,-0.017242045669799526
0.6880000000000001,-0.01727233675388536
0.6920000000000001,-0.017268802794075343
0.6960000000000001,-0.017275750510980747
0.7000000000000001,-0.017276399605639727
0.704,-0.017292338485599176
0.708,-0.017297026391469603
0.712,-0.01729344435057374
0.716,-0.017269307645476774
0.72,-0.017272264632256583
0.724,-0.0172762794029251
0.728,-0.017242237994142928
0.732,-0.01725207057619936
0.736,-0.01731029677116435
0.74,-0.01729065564759441
0.744,-0.01727563030826612
0.748,-0.017274836970349587
0.752,-0.01728147216019696
0.756,-0.01729094413410951
0.76,-0.017285559052494254
0.764,-0.01728878048524624
0.768,-0.01729166535039727
0.772,-0.01727863537613178
0.776,-0.01729592052649504
0.78,-0.017302603797428266
0.784,-0.017291641309854344
0.788,-0.017299454486305054
0.792,-0.0172990217565324
0.796,-0.01730536845986467
0.8,-0.017308397568273255
0.804,-0.017309142825103936
0.808,-0.017314527906719196
0.812,-0.017305849270723175
0.8160000000000001,-0.017303853905660378
0.8200000000000001,-0.017308325446644478
0.8240000000000001,-0.01733464984114764
0.8280000000000001,-0.017337967436071328
0.8320000000000001,-0.01733226982739804
0.836,-0.01733445751680424
0.84,-0.01733111588133763
0.844,-0.01732532211049264
0.848,-0.01733171689491076
0.852,-0.01732409604280345
0.856,-0.017325851002436995
0.86,-0.01732363927248787
0.864,-0.017281327916939405
0.868,-0.01734510747732013
0.872,-0.01737037408793458
0.876,-0.017359243316560184
0.88,-0.017345155558405982
0.884,-0.017342102409454472
0.888,-0.017344001612345568
0.892,-0.017356334410866227
0.896,-0.017354795816119012
0.9,-0.017354218843088805
0.904,-0.01734856931550137
0.908,-0.01734191008511107
0.912,-0.017355949762179423
0.916,-0.017364724560347145
0.92,-0.017358233613757323
0.924,-0.017360709789678627
0.928,-0.017361839695196113
0.932,-0.017370782777164313
0.936,-0.017362248384425842
0.9400000000000001,-0.017354916018833638
0.9440000000000001,-0.017360805951850328
0.9480000000000001,-0.017355733397293096
0.9520000000000001,-0.01735085316707927
0.9560000000000001,-0.017366407398351914
0.96,-0.01738912571141629
0.964,-0.017389390157388464
0.968,-0.017382129913425037
0.972,-0.017387394792325667
0.976,-0.017393789576743788
0.98,-0.017393140482084807
0.984,-0.017402516293825658
0.988,-0.017401771036994976
0.992,-0.01739282795502678
0.996,-0.017374004209916298
1.0,-0.017325346151035564
1.004,-0.017416748295237414
1.008,-0.017404559739974308
1.012,-0.017384413765002937
1.016,-0.017387010143638866
1.02,-0.01739891021238687
1.024,-0.017400833455820892
1.028,-0.01740347791554267
1.032,-0.0174108343216778
1.036,-0.017395280090405155
1.04,-0.01739064026562058
1.044,-0.017384053156859057
1.048,-0.017408261983584798
1.052,-0.017420306295590354
1.056,-0.0174110266460212
1.06,-0.017393164522627732
1.064,-0.01738922187358799
1.068,-0.017402011442424228
1.072,-0.017398814050215167
1.076,-0.01740850238901405
1.08,-0.01741667617360864
1.084,-0.017406098334721523
1.088,-0.017355997843265275
1.092,-0.01737616785877957
1.096,-0.017446462406293044
1.1,-0.017423671971599893
1.104,-0.017404872267032336
1.108,-0.01740987269996079
1.112,-0.017420763065905932
1.116,-0.017415834754606254
1.12,-0.01742001780907525
1.124,-0.017418575376499736
1.1280000000000001,-0.01741234887588209
1.1320000000000001,-0.01741206038936699
1.1360000000000001,-0.017421267917307366
1.1400000000000001,-0.017438504986584783
1.1440000000000001,-0.017434898905145994
1.1480000000000001,-0.017429970593846315
1.1520000000000001,-0.017431533229136455
1.156,-0.017443024608654732
1.16,-0.017432903540083197
1.164,-0.01743004271547509
1.168,-0.01743131686425013
1.172,-0.0174467028117223
1.176,-0.017432302526510065
1.18,-0.01742797522878351
1.184,-0.01744566906837651
1.188,-0.017424825917660303
1.192,-0.01743215828325251
1.196,-0.017447760595611008
1.2,-0.01745297739342579
1.204,-0.017448674136242168
1.208,-0.017461535826707186
1.212,-0.01745946834001561
1.216,-0.01744485168991705
1.22,-0.017438793473099887
1.224,-0.01738794772481295
1.228,-0.017454780434145185
1.232,-0.017478195922954392
1.236,-0.0174652621108606
1.24,-0.01744932323090115
1.244,-0.01745937217784391
1.248,-0.017462521488967122
1.252,-0.017464637056744545
1.256,-0.01746886819229939
1.26,-0.017470406787046606
1.264,-0.017475335098346284
1.268,-0.017463050380911477
1.272,-0.017471272246591917
1.276,-0.01746273785385345
1.28,-0.017473916706313694
1.284,-0.017479638355529906
1.288,-0.017477522787752484
1.292,-0.017472426192652327
1.296,-0.017468675867955988
1.3,-0.017477642990467113
1.304,-0.01747576782811894
1.308,-0.017474686003687304
1.312,-0.01747216174668015
1.316,-0.017478484409469495
1.32,-0.017493461667711933
1.324,-0.017486946680579186
1.328,-0.017483556964026727
1.332,-0.01748504747768809
1.336,-0.017481176950277125
1.34,-0.01747038274650368
1.344,-0.017481826044936106
1.348,-0.017477811274267587
1.352,-0.01747672944983595
1.356,-0.017468675867955988
1.36,-0.017416291524921836
1.364,-0.017514256737342287
1.368,-0.017501587371220675
1.372,-0.017499135235842296
1.3760000000000001,-0.017509304385499684
1.3800000000000001,-0.017509544790928935
1.3840000000000001,-0.017508703371926553
1.3880000000000001,-0.017502380709137205
1.3920000000000001,-0.017502597074023536
1.3960000000000001,-0.0175041837498566
1.4000000000000001,-0.017504929006687285
1.4040000000000001,-0.01748983154573022
1.408,-0.017510915101875676
1.412,-0.01750810235835342
1.416,-0.017498389979011614
1.42,-0.01750367889845517
1.424,-0.017523199819310484
1.428,-0.017516684832177738
1.432,-0.017508847615184103
1.436,-0.017503823141712723
1.44,-0.017513799967026705
1.444,-0.017513319156168203
1.448,-0.01747120012496314
1.452,-0.017510818939703975
1.456,-0.017549283808384396
1.46,-0.017534787361000462
1.464,-0.017534018063626852
1.468,-0.017529282076670576
1.472,-0.017524498008628448
1.476,-0.01751663675109189
1.48,-0.017517862818781076
1.484,-0.017520122629816053
1.488,-0.01752478649514355
1.492,-0.017513655723769155
1.496,-0.01751901676484149
1.5,-0.01753906657764116
1.504,-0.017535580698916996
1.508,-0.017538321320810474
1.512,-0.017536205753033052
1.516,-0.017521685265106193
1.52,-0.017530243698387588
1.524,-0.017535123928601414
1.528,-0.017541110023789806
1.532,-0.017541206185961507
1.536,-0.01752971480644323
1.54,-0.017535388374573593
1.544,-0.017553947673711896
1.548,-0.017550245430101405
1.552,-0.01753550857728822
1.556,-0.01754524499717295
1.56,-0.017556832538862928
1.564,-0.017556544052347824
1.568,-0.01755341878176754
1.572,-0.017546807632463093
1.576,-0.01753570090163162
1.58,-0.017527815603552134
1.584,-0.01747398882794247
1.588,-0.01754276882125165
1.592,-0.017561472363647503
1.596,-0.017558827903925725
1.6,-0.017562169539392335
1.604,-0.017554548687285027
1.608,-0.017565054404543368
1.612,-0.01757281949990823
1.616,-0.017562602269164992
1.62,-0.017561760850162606
1.624,-0.017575968811031437
1.6280000000000001,-0.01756921341846944
1.6320000000000001,-0.017580296108757984
1.6360000000000001,-0.01758012782495751
1.6400000000000001,-0.01757921428432635
1.6440000000000001,-0.017580440352015538
1.6480000000000001,-0.017587748677064818
1.6520000000000001,-0.017589551717784212
1.6560000000000001,-0.017579142162697573
1.6600000000000001,-0.017569285540098213
1.6640000000000001,-0.017576978513834298
1.668,-0.017585873514716646
1.672,-0.017582628041421737
1.676,-0.01758940747452666
1.68,-0.017600562286443983
1.684,-0.017601980678476573
1.688,-0.017604745340912976
1.692,-0.017608351422351766
1.696,-0.017609817895470208
1.7,-0.01759974490798452
1.704,-0.01760017763775718
1.708,-0.01759976894852745
1.712,-0.017603952002996442
1.716,-0.01759748509694955
1.72,-0.017594335785826337
1.724,-0.017622006450733318
1.728,-0.01760654838163237
1.732,-0.01760493766525638
1.736,-0.017616236720431253
1.74,-0.017614722166226962
1.744,-0.017623376761680055
1.748,-0.01761864077472378
1.752,-0.017606380097831897
1.756,-0.017604168367882773
1.76,-0.017604865543627606
1.764,-0.017542119726592666
1.768,-0.017610466990129192
1.772,-0.017645998912572732
1.776,-0.017628665681123618
1.78,-0.01761594823391615
1.784,-0.01761068335501552
1.788,-0.017595609934601377
1.792,-0.017586522609375627
1.796,-0.01759118647470313
1.8,-0.017607461922263534
1.804,-0.01761174113890423
1.808,-0.017552216754621278
1.812,-0.017594455988540966
1.816,-0.01762412201851074
1.82,-0.017607101314119654
1.824,-0.017608471625066395
1.828,-0.017604769381455904
1.832,-0.01760818313855129
1.836,-0.01760926496298293
1.84,-0.01760690898977625
1.844,-0.0176022932055346
1.848,-0.017605081908513932
1.852,-0.017592773150536197
1.856,-0.017603735638110116
1.86,-0.017622174734533792
1.864,-0.017627271329633952
1.868,-0.01761965047752664
1.872,-0.017616380963688807
1.8760000000000001,-0.01760479342199883
1.8800000000000001,-0.017619794720784194
1.8840000000000001,-0.01761965047752664
1.8880000000000001,-0.017619458153183238
1.8920000000000001,-0.017611548814560826
1.8960000000000001,-0.017590970109816802
1.9000000000000001,-0.017601043097302486
1.9040000000000001,-0.017620539977614876
1.9080000000000001,-0.017627872343207084
1.9120000000000001,-0.017628016586464634
1.9160000000000001,-0.017612486395734914
1.92,-0.017609625571126806
1.924,-0.017605154030142706
1.928,-0.017602148962277048
1.932,-0.017603134624536984
1.936,-0.017604168367882773
1.94,-0.017600033394499625
1.944,-0.017547048037892345
1.948,-0.0176249393969702
1.952,-0.017626526072803267
1.956,-0.017614746206769887
1.96,-0.01761727046377704
1.964,-0.01760625989511727
1.968,-0.017610442949586264
1.972,-0.01761315953093682
1.976,-0.017607293638463056
1.98,-0.017607269597920132
1.984,-0.017590801826016324
1.988,-0.017579839338442406
1.992,-0.017610082341442387
1.996,-0.0176180878422365
2.0,-0.017605779084258765
2.004,-0.017608880314296124
2.008,-0.017609697692755583
2.012,-0.017611548814560826
2.016,-0.017614361558083082
2.02,-0.017611909422704707
2.024,-0.017620131288385146
2.028,-0.017609024557553674
2.032,-0.017580897122331116
2.036,-0.0175906816233017
2.04,-0.017616525206946357
2.044,-0.017618256126036975
2.048,-0.017607413841177682
2.052,-0.017608111016922515
2.056,-0.0176069570708621
2.06,-0.01761301528767927
2.064,-0.017620251491099772
2.068,-0.017623809491452713
2.072,-0.017628136789179263
2.076,-0.017615178936542544
2.08,-0.0175951531642858
2.084,-0.017619337950468612
2.088,-0.01763412288436765
2.092,-0.017633690154594997
2.096,-0.017628377194608514
2.1,-0.017617558950292142
2.104,-0.017611644976732527
2.108,-0.017615876112287376
2.112,-0.01762258342376352
2.116,-0.017619890882955895
2.12,-0.017606091611316793
2.124,-0.01754308134830968
2.128,-0.01762116503173093
2.132,-0.01763539703314269
2.136,-0.01761849653146623
2.14,-0.017607534043892308
2.144,-0.017608567787238096
2.148,-0.017605514638286586
2.152,-0.017608687989952722
2.156,-0.017616693490746835
2.16,-0.0176136163012524
2.164,-0.017626189505202314
2.168,-0.017573204148595034
2.172,-0.01761645308531758
2.176,-0.017649797318354924
2.18,-0.017629699424469403
2.184,-0.01763462773576908
2.188,-0.017632584289620435
2.192,-0.017642729398734895
2.196,-0.017648763575009135
2.2,-0.017653090872735686
2.204,-0.017656745035260324
2.208,-0.017645253655742047
2.212,-0.017624458586111693
2.216,-0.017643330412308027
2.22,-0.017647801953292127
2.224,-0.0176387386686093
2.228,-0.017634579654683232
2.232,-0.017630348519128387
2.236,-0.017641815858103736
2.24,-0.017643498696108505
2.244,-0.017629939829898657
2.248,-0.017630492762385937
2.2520000000000002,-0.017613688422881177
2.2560000000000002,-0.017611717098361304
2.2600000000000002,-0.01763229580310533
2.2640000000000002,-0.01764941266966812
2.2680000000000002,-0.017645926790943955
2.2720000000000002,-0.017657081602861276
2.2760000000000002,-0.017649629034554446
2.2800000000000002,-0.017656095940601343
2.2840000000000003,-0.017668813387808808
2.2880000000000003,-0.017672611793591
2.2920000000000003,-0.017669342279753163
2.2960000000000003,-0.017658764440866045
2.3000000000000003,-0.017648258723607705
2.3040000000000003,-0.017593398204652253
2.308,-0.017689319970924055
2.312,-0.017701772972159344
2.316,-0.017694656971453466
2.32,-0.01769787840420545
2.324,-0.017689416133095756
2.328,-0.017694536768738837
2.332,-0.01770088347207111
2.336,-0.01769994589089702
2.34,-0.017695522430998773
2.344,-0.01770107579641451
2.348,-0.017692565444218968
2.352,-0.017724539366309567
2.356,-0.017731967894073473
2.36,-0.017717495487232466
2.364,-0.017716822352030558
2.368,-0.017708047553862835
2.372,-0.017708143716034536
2.376,-0.017700498823384304
2.38,-0.01770980251349638
2.384,-0.01771107666227142
2.388,-0.01772934747489462
2.392,-0.017718096500805598
2.396,-0.01773127071832864
2.4,-0.01774757020643197
2.404,-0.017744252611508284
2.408,-0.01774076673278412
2.412,-0.017732713150904158
2.416,-0.01773975702998126
2.42,-0.01773059758312673
2.424,-0.017743387151962973
2.428,-0.017754854490938325
2.432,-0.017754950653110026
2.436,-0.0177502627472396
2.44,-0.017741584111243578
2.444,-0.017761609883500323
2.448,-0.017764542829737204
2.452,-0.017771803073700635
2.456,-0.01775680177491527
2.46,-0.01775192154470144
2.464,-0.017750310828325448
2.468,-0.01775132053112831
2.472,-0.01775612863971336
2.476,-0.0177481712200051
2.48,-0.017733770934792868
2.484,-0.017672299266532968
2.488,-0.01776132139698522
2.492,-0.017780674034040055
2.496,-0.017765841019055168
2.5,-0.017760696342869163
2.504,-0.017768413357148172
2.508,-0.017763821613449447
2.512,-0.017749781936381093
2.516,-0.01775040699049715
2.52,-0.017749661733666468
2.524,-0.01775295528804723
2.528,-0.017696123444571905
2.532,-0.017737617421660908
2.536,-0.01779024217012431
2.54,-0.017770024073524165
2.544,-0.017770937614155324
2.548,-0.017775240871338947
2.552,-0.017767740221946264
2.556,-0.017763677370191897
2.56,-0.017759253910293645
2.564,-0.017761850288929574
2.568,-0.01775487853148125
2.572,-0.017734852759224505
2.576,-0.017745310395396993
2.58,-0.017751584977100488
2.584,-0.017759157748121947
2.588,-0.01775889330214977
2.592,-0.017746945152315913
2.596,-0.01774934920660844
2.6,-0.017760479977982836
2.604,-0.017767427694888236
2.608,-0.017768413357148172
2.612,-0.017759566437351677
2.616,-0.01776023957255358
2.62,-0.017765576573082992
2.624,-0.017774327330707787
2.628,-0.0177731974251903
2.632,-0.0177846166830798
2.636,-0.017791348035098874
2.64,-0.01778101060164101
2.644,-0.01778415991276422
2.648,-0.017783270412675984
2.652,-0.017801445063127485
2.656,-0.017804041441763414
2.66,-0.017792213494644184
2.664,-0.017714442338280956
2.668,-0.017802502847016195
2.672,-0.01781786475394544
2.676,-0.01780531559053845
2.68,-0.017814210591420798
2.684,-0.017812191185815077
2.688,-0.017813777861648145
2.692,-0.01780632529334131
2.696,-0.017801012333354828
2.7,-0.017800747887382652
2.704,-0.017793006832560715
2.708,-0.017776322695770584
2.712,-0.017800122833266593
2.716,-0.017817480105258635
2.72,-0.017832721809473255
2.724,-0.017832000593185494
2.728,-0.017826519349398537
2.732,-0.017827432890029696
2.736,-0.017831038971468486
2.74,-0.017830269674094876
2.744,-0.017822865186873895
2.748,-0.01782262478144464
2.7520000000000002,-0.01781324896970379
2.7560000000000002,-0.01783325070141761
2.7600000000000002,-0.017843419851074994
2.7640000000000002,-0.017849405946263386
2.7680000000000002,-0.017853372635846056
2.7720000000000002,-0.017838034769459738
2.7760000000000002,-0.017830678363324606
2.7800000000000002,-0.01783192847155672
2.7840000000000003,-0.01782712036297167
2.7880000000000003,-0.01782827430903208
2.7920000000000003,-0.0178301975524661
2.7960000000000003,-0.01781252775341603
2.8000000000000003,-0.017774135006364385
2.8040000000000003,-0.01786125793392554
2.8080000000000003,-0.017849766554407266
2.8120000000000003,-0.01784060710755274
2.816,-0.01784106387786832
2.82,-0.017861931069127448
2.824,-0.017863012893559085
2.828,-0.017865296745136986
2.832,-0.01786548906948039
2.836,-0.017851401311326183
2.84,-0.017840871553524918
2.844,-0.017839909931807906
2.848,-0.017855848811767355
2.852,-0.017865753515452564
2.856,-0.017876355394882606
2.86,-0.017859214487776894
2.864,-0.017846665324369907
2.868,-0.017845992189168
2.872,-0.017847675027172768
2.876,-0.017854887190050347
2.88,-0.017871403043040003
2.884,-0.017864743812649703
2.888,-0.017803368306561505
2.892,-0.017863565826046365
2.896,-0.017890202747607557
2.9,-0.017867123826399305
2.904,-0.017855848811767355
2.908,-0.017868373934631417
2.912,-0.01786791716431584
2.916,-0.01787628327325383
2.92,-0.017890371031408035
2.924,-0.017899145829575757
2.928,-0.017891236490953345
2.932,-0.017863325420617113
2.936,-0.017889914261092453
2.94,-0.017910973776694986
2.944,-0.01790505980313537
2.948,-0.01789537146433649
2.952,-0.01789419347773315
2.956,-0.01789830441057337
2.96,-0.017892606801900083
2.964,-0.017901285437896104
2.968,-0.017917152196226777
2.972,-0.017901742208211686
2.976,-0.01788806313928721
2.98,-0.01788811122037306
2.984,-0.017900708464865897
2.988,-0.01790135755952488
2.992,-0.017895708031937442
2.996,-0.017911983479497847
3.0,-0.017912247925470023
3.004,-0.01790729557362742
3.008,-0.017899963208035215
3.012,-0.017886524544539994
3.016,-0.01789654945093983
3.02,-0.017886620706711695
3.024,-0.017838299215431914
3.028,-0.017935975941337258
3.032,-0.017927417508055866
3.036,-0.017931480359810233
3.04,-0.0179487655101735
3.044,-0.017941673550010546
3.048,-0.017938740603773665
3.052,-0.017931263994923907
3.056,-0.017930759143522476
3.06,-0.017930013886691794
3.064,-0.017925494264621845
3.068,-0.017918426345001816
3.072,-0.01794256305009878
3.076,-0.017931937130125815
3.08,-0.017912512371442202
3.084,-0.017903256762415977
3.088,-0.017922633440013738
3.092,-0.017932850670756974
3.096,-0.017926503967424706
3.1,-0.017926359724167153
3.104,-0.017928787819002607
3.108,-0.017929821562348392
3.112,-0.017900804627037598
3.116,-0.017915445317679083
3.12,-0.017937418373912776
3.124,-0.017930590859722
3.128,-0.017914916425734728
3.132,-0.01791131034429594
3.136,-0.017918282101744266
3.14,-0.017930302373206898
3.144,-0.017933523805958883
3.148,-0.017928162764886547
3.152,-0.01791806573685794
3.156,-0.01791073337126573
3.16,-0.017925470224078918
3.164,-0.017940832131008163
3.168,-0.01793470179256222
3.172,-0.017932490062613098
3.176,-0.01794811641551452
3.18,-0.017942490928470004
3.184,-0.01794095233372279
3.188,-0.017938932928117067
3.192,-0.01794530367199226
3.196,-0.01794287557715681
3.2,-0.017925325980821367
3.204,-0.017921840102097204
3.208,-0.017946097009908794
3.212,-0.017947635604656013
3.216,-0.01794479882059083
3.22,-0.01794640953696682
3.224,-0.017951938861839635
3.228,-0.017946289334252196
3.232,-0.017952491794326914
3.236,-0.01794684226673948
3.24,-0.017964992876648052
3.244,-0.01797186847192468
3.248,-0.017894770450763358
3.2520000000000002,-0.01791090165506621
3.2560000000000002,-0.018022810382383313
3.2600000000000002,-0.01798965847368937
3.2640000000000002,-0.01797285413418461
3.2680000000000002,-0.017964007214388115
3.2720000000000002,-0.017956362321737883
3.2760000000000002,-0.017964824592847574
3.2800000000000002,-0.017966747836281598
3.2840000000000003,-0.017963454281900836
3.2880000000000003,-0.017961218511408784
3.2920000000000003,-0.017946048928822945
3.2960000000000003,-0.017966699755195745
3.3000000000000003,-0.017961675281724366
3.3040000000000003,-0.017965473687506558
3.3080000000000003,-0.017969800985233104
3.3120000000000003,-0.017970570282606714
3.3160000000000003,-0.017970858769121818
3.3200000000000003,-0.017974969701962037
3.3240000000000003,-0.01798480228401847
3.3280000000000003,-0.017980042256519266
3.332,-0.017973551309929444
3.336,-0.01795273219975617
3.34,-0.017961266592494637
3.344,-0.017983143486556625
3.348,-0.017987446743740247
3.352,-0.01799088454137856
3.356,-0.017993408798385714
3.36,-0.017996197501365045
3.364,-0.01800235188035391
3.368,-0.017991269190065363
3.372,-0.017992278892868224
3.376,-0.018003698150757724
3.38,-0.017991389392779993
3.384,-0.01798686977071004
3.388,-0.018008482218799853
3.392,-0.018004058758901605
3.396,-0.017993192433499387
3.4,-0.01799804862317029
3.404,-0.018005405029305418
3.408,-0.018005140583333242
3.412,-0.018000524799091592
3.416,-0.018017809949454854
3.42,-0.018006534934822908
3.424,-0.017999202569230703
3.428,-0.017985836027364255
3.432,-0.018013362449013682
3.436,-0.017996293663536743
3.44,-0.01799768801502641
3.444,-0.018006054123964402
3.448,-0.0180037702723865
3.452,-0.017995764771592388
3.456,-0.01799946701520288
3.46,-0.01799535608236266
3.464,-0.018003409664242624
3.468,-0.01800160662352323
3.472,-0.017977806486027217
3.476,-0.017999779542260907
3.48,-0.018017569544025603
3.484,-0.018006414732108282
3.488,-0.017998481352942942
3.492,-0.018002424001982688
3.496,-0.018013290327384905
3.5,-0.01801444427344532
3.504,-0.018020214003747387
3.508,-0.018020766936234667
3.512,-0.01801687236828077
3.516,-0.017989105541202092
3.52,-0.017942034158154426
3.524,-0.01805915968328631
3.528,-0.01804096099229189
3.532,-0.018029998504717967
3.536,-0.01802708959902401
3.54,-0.018027305963910337
3.544,-0.018020069760489834
3.548,-0.01802470958527441
3.552,-0.018028243545084425
3.556,-0.0180464903171647
3.56,-0.018032426599553418
3.564,-0.018018314800856285
3.568,-0.01804120139772114
3.572,-0.01803632116750731
3.576,-0.018026608788165505
3.58,-0.01802886859920048
3.584,-0.018028580112685377
3.588,-0.018022497855325285
3.592,-0.018029445572230688
3.596,-0.018032258315752944
3.6,-0.01802901284245803
3.604,-0.018031633261636888
3.608,-0.017971724228667125
3.612,-0.01802891668028633
3.616,-0.018067862359825257
3.62,-0.018050216601318114
3.624,-0.01805175519606533
3.628,-0.01804134564097869
3.632,-0.018035936518820506
3.636,-0.018030262950690146
3.64,-0.018026753031423058
3.644,-0.01803932623537297
3.648,-0.018044879600788707
3.652,-0.018020334206462013
3.656,-0.018038845424514467
3.66,-0.018041682208579646
3.664,-0.018040359978718758
3.668,-0.018048173155169468
3.672,-0.01805009639860349
3.676,-0.018040672505776786
3.68,-0.018031897707609063
3.684,-0.018042331303238627
3.688,-0.01805689987225134
3.692,-0.018056058453248952
3.696,-0.01805146670955023
3.7,-0.018054880466645617
3.704,-0.01806226091332367
3.708,-0.01805959241305897
3.712,-0.01805927988600094
3.716,-0.018050457006747365
3.72,-0.01804841356059872
3.724,-0.018046658600965177
3.728,-0.01804901457417185
3.732,-0.01805485642610269
3.736,-0.018054375615244186
3.74,-0.018035960559363434
3.744,-0.017992302933411152
3.748,-0.01809058067288963
3.7520000000000002,-0.018076012103876923
3.7560000000000002,-0.018056779669536713
3.7600000000000002,-0.018063919710785515
3.7640000000000002,-0.018074617752387258
3.7680000000000002,-0.018077502617538287
3.7720000000000002,-0.018072478144066907
3.7760000000000002,-0.018068583576113014
3.7800000000000002,-0.018074281184786302
3.7840000000000003,-0.018076829482336382
3.7880000000000003,-0.018053077425926222
3.7920000000000003,-0.01806440052164402
3.7960000000000003,-0.018070362576289484
3.8000000000000003,-0.018064160116214766
3.8040000000000003,-0.01806906438697152
3.8080000000000003,-0.018078392117626522
3.8120000000000003,-0.018076949685051007
3.8160000000000003,-0.018094379078671823
3.8200000000000003,-0.01809392230835624
3.8240000000000003,-0.018096638889706796
3.8280000000000003,-0.018099283349428577
3.8320000000000003,-0.018072646427867385
3.8360000000000003,-0.018090268145831603
3.84,-0.01808130102332048
3.844,-0.018075699576818892
3.848,-0.01808519559127437
3.852,-0.01807870464468455
3.856,-0.01806992984651683
3.86,-0.018076973725593932
3.864,-0.01808291173969647
3.868,-0.01807983455020204
3.872,-0.01807581977953352
3.876,-0.018087118834708392
3.88,-0.018091566335149568
3.884,-0.018088248740225882
3.888,-0.01808820065914003
3.892,-0.01808627741570601
3.896,-0.018076829482336382
3.9,-0.018070362576289484
3.904,-0.01810469247158676
3.908,-0.01810180760643573
3.912,-0.018097071619479453
3.916,-0.018089522889000918
3.92,-0.018053053385383294
3.924,-0.018073920576642425
3.928,-0.01812349217615432
3.932,-0.018107505215109017
3.936,-0.01809998052517341
3.94,-0.01810627914741983
3.944,-0.018089258443028743
3.948,-0.018105990660904726
3.952,-0.01809687929513605
3.956,-0.018103514484983423
3.96,-0.01809733606545163
3.964,-0.01807317531981174
3.968,-0.018039085829943718
3.972,-0.018146354732476243
3.976,-0.018135464366531098
3.98,-0.018133036271695647
3.984,-0.01812022266231648
3.988,-0.01809322513261141
3.992,-0.018100966187433346
3.996,-0.018103394282268797
4.0,-0.018108923607141607
4.0040000000000004,-0.018114717377986596
4.008,-0.018094523321929373
4.0120000000000005,-0.01808536387507485
4.016,-0.018114356769842715
4.0200000000000005,-0.01811154402632046
4.024,-0.018116808905221094
4.0280000000000005,-0.01812012650014478
4.032,-0.018106856120450033
4.0360000000000005,-0.01810341832281172
4.04,-0.018124309554613777
4.0440000000000005,-0.01812656936564875
4.048,-0.018121689135434924
4.0520000000000005,-0.01813072837957482
4.056,-0.018126136635876096
4.0600000000000005,-0.018154817003585934
4.064,-0.018144936340443653
4.0680000000000005,-0.018133589204182926
4.072,-0.018124429757328402
4.0760000000000005,-0.018116760824135242
4.08,-0.018116352134905513
4.0840000000000005,-0.01813306031223857
4.088,-0.01813909448851281
4.0920000000000005,-0.018137147204535867
4.096,-0.018124237432985
4.1,-0.01809089319994766
4.104,-0.01809829768716864
4.108,-0.018173736910868116
4.112,-0.0181536390169826
4.116,-0.018127747352252088
4.12,-0.018124309554613777
4.124,-0.01812769927116624
4.128,-0.018150441624773538
4.132,-0.018162918666551748
4.136,-0.018162798463837122
4.14,-0.01814346986732521
4.144,-0.018138565596568457
4.148,-0.01814433532687052
4.152,-0.01815448043598498
4.156,-0.01815936066619881
4.16,-0.018137291447793417
4.164,-0.018132483339208364
4.168,-0.01813291606898102
4.172,-0.01814159470497704
4.176,-0.018138325191139205
4.18,-0.018151307084318846
4.184,-0.018142147637464322
4.188,-0.018121737216520772
4.192,-0.01811423656712809
4.196,-0.018139334893942066
4.2,-0.018129574433514407
4.204,-0.018122506513894382
4.208,-0.018126761689992152
4.212,-0.018098898700741772
4.216,-0.018084931145302196
4.22,-0.018167967180566055
4.224,-0.018155994990189273
4.228,-0.018153182246667017
4.232,-0.018141738948234593
4.236,-0.018124718243843506
4.24,-0.018140296515659075
4.244,-0.018152773557437288
4.248,-0.018150129097715507
4.252,-0.01814991273282918
4.256,-0.01815113880051837
4.26,-0.0181427005699516
4.264,-0.018150345462601837
4.268,-0.018141979353663844
4.272,-0.01813291606898102
4.276,-0.018126617446734602
4.28,-0.01810945249908596
4.284,-0.01813229101486496
4.288,-0.0181492636381702
4.292,-0.018138806001997708
4.296,-0.018129045541570053
4.3,-0.018132387177036663
4.304,-0.018126857852163853
4.308,-0.018152893760151913
4.312,-0.01816854415359626
4.316,-0.01815916834185541
4.32,-0.01816606797767496
4.324,-0.018133348798753675
4.328,-0.018086061050819682
4.332,-0.018187968912279872
4.336,-0.01817753531665031
4.34,-0.01816337543686733
4.344,-0.01815772590927989
4.348,-0.018136498109876883
4.352,-0.018156115192903898
4.356,-0.018156788328105807
4.36,-0.0181630629098093
4.364,-0.018161211788004054
4.368,-0.018140200353487373
4.372,-0.018139839745343497
4.376,-0.018165683328988155
4.38,-0.01815443235489913
4.384,-0.018157293179507237
4.388,-0.018153422652096268
4.392,-0.018147701002880056
4.396,-0.018150249300430136
4.4,-0.018161548355605007
4.404,-0.01815967319325684
4.408,-0.018147773124508833
4.412,-0.018144407448499295
4.416,-0.018130151406544615
4.42,-0.01815077819237449
4.424,-0.01816246189623617
4.428,-0.018166332423647135
4.432,-0.018170251032143953
4.436,-0.018161812801577186
4.44,-0.01815351881426797
4.444,-0.01817462641095635
4.448,-0.01815784611199452
4.452,-0.01815647580104778
4.456,-0.01817378499195397
4.46,-0.018136810636934914
4.464,-0.018136642353134436
4.468,-0.018203595265181293
4.472,-0.018185661020159047
4.476,-0.018170803964631235
4.48,-0.018156547922676555
4.484,-0.018144575732299772
4.488,-0.018163760085554134
4.492,-0.01817077992408831
4.496,-0.018176020762446017
4.5,-0.01816864031576796
4.5040000000000004,-0.0181563075172473
4.508,-0.018170659721373682
4.5120000000000005,-0.018186237993189254
4.516,-0.018179025830311675
4.5200000000000005,-0.01815803843633792
4.524,-0.0181655390857306
4.5280000000000005,-0.0181540236656694
4.532,-0.018166885356134418
4.5360000000000005,-0.018168856680654287
4.54,-0.018183954141611353
4.5440000000000005,-0.018191214385574785
4.548,-0.018191454791004036
4.5520000000000005,-0.01817284741077988
4.556,-0.018184410911926935
4.5600000000000005,-0.01818873820965348
4.564,-0.01818982003408512
4.5680000000000005,-0.018186887087848234
4.572,-0.018162317652978616
4.5760000000000005,-0.018146595137905494
4.58,-0.018213884617553307
4.5840000000000005,-0.01819828230519481
4.588,-0.018184603236270337
4.5920000000000005,-0.018186935168934087
4.596,-0.018172462762093076
4.6000000000000005,-0.018187440020335517
4.604,-0.018179987452028687
4.6080000000000005,-0.01817484277584268
4.612,-0.018186646682418983
4.616,-0.018169794261828374
4.62,-0.018173833073039818
4.624,-0.018199027562025495
4.628,-0.018201191210888767
4.632,-0.018194892588642347
4.636,-0.01819417137235459
4.64,-0.018189219020511987
4.644,-0.01819299338575125
4.648,-0.018202441319120882
4.652,-0.018196791791533443
4.656,-0.01819210388566302
4.66,-0.018185733141787824
4.664,-0.018172222356663825
4.668,-0.018177919965337113
4.672,-0.01816904900499769
4.676,-0.01817854501945317
4.68,-0.018181502006232978
4.684,-0.018162942707094672
4.688,-0.018129478271342706
4.692,-0.018226842470190026
4.696,-0.018207802360193214
4.7,-0.018202513440749656
4.704,-0.018190204682771924
4.708,-0.01818118947917495
4.712,-0.018198498670081137
4.716,-0.01818585334450245
4.72,-0.018194363696697993
4.724,-0.01820123929197462
4.728,-0.018203595265181293
4.732,-0.01820518194101436
4.736,-0.018211600765975406
4.74,-0.018204364562554903
4.744,-0.018196936034790997
4.748,-0.018205758914044568
4.752,-0.018194219453440443
4.756,-0.018201022927088292
4.76,-0.018207489833135186
4.764,-0.018212778752578745
4.768,-0.018212706630949968
4.772,-0.018204893454499257
4.776,-0.018182728073922166
4.78,-0.018191623074804514
4.784,-0.018198979480939643
4.788,-0.018207153265534234
4.792,-0.018210687225344246
4.796,-0.018205927197845046
4.8,-0.018205157900471437
4.804,-0.018215663617729777
4.808,-0.01821773110442135
4.812,-0.01820960540091261
4.816,-0.01821124015783153
4.82,-0.018169601937484972
4.824,-0.0181813337224325
4.828,-0.01825523435138476
4.832,-0.018231001484116095
4.836,-0.018227972375707512
4.84,-0.01823645868736013
4.844,-0.018235016254784617
4.848,-0.01824006476879892
4.852,-0.018231410173345827
4.856,-0.01823905506599606
4.86,-0.01824590662072976
4.864,-0.01822828490276554
4.868,-0.01822311618603661
4.872,-0.01824073790400083
4.876,-0.018237901119935646
4.88,-0.018225664483586687
4.884,-0.0182267222674754
4.888,-0.018215254928500048
4.892,-0.018241675485174913
4.896,-0.018235929795415776
4.9,-0.018219389901883196
4.904,-0.018228573389280644
4.908,-0.01822585680793009
4.912,-0.018222539213006404
4.916,-0.018228068537879213
4.92,-0.018221817996718646
4.924,-0.018229607132626433
4.928,-0.018236578890074757
4.932,-0.01821838019908033
4.936,-0.018229751375883983
4.94,-0.01826518713615582
4.944,-0.01825307070252149
4.948,-0.018234727768269513
4.952,-0.018232467957234537
4.956,-0.018189627709741717
4.96,-0.018254537175639927
4.964,-0.018255378594642314
4.968,-0.01825107533745869
4.972,-0.01824403145838159
4.976,-0.018238502133508777
4.98,-0.018238478092965853
4.984,-0.018245882580186834
4.988,-0.018247733701992078
4.992,-0.01824138699865981
4.996,-0.018230809159772696
5.0,-0.018228501267651867
5.0040000000000004,-0.018251700391574747
5.008,-0.018244512269240093
5.0120000000000005,-0.018250786850943588
5.016,-0.018254465054011154
5.0200000000000005,-0.01824285347177825
5.024,-0.018242180336576343
5.0280000000000005,-0.018266677649817188
5.032,-0.018264201473895885
5.0360000000000005,-0.018258311540879195
5.04,-0.018248767445337866
5.0440000000000005,-0.018216384834017534
5.048,-0.01819955645396985
5.0520000000000005,-0.018274442745182046
5.056,-0.018254609297268704
5.0600000000000005,-0.018254128486410198
5.064,-0.018251700391574747
5.0680000000000005,-0.018243694890780635
5.072,-0.0182678315958776
5.0760000000000005,-0.018264009149552483
5.08,-0.018263143690007172
5.0840000000000005,-0.01825624405418762
5.088,-0.01825448909455408
5.0920000000000005,-0.018240305174228172
5.096,-0.01825975397345471
5.1000000000000005,-0.01826751906881957
5.104,-0.018280693286342617
5.1080000000000005,-0.01825994629779811
5.112,-0.0182337661465525
5.1160000000000005,-0.018240785985086678
5.12,-0.018252205242976178
5.124,-0.018261773379060434
5.128,-0.01826239843317649
5.132,-0.018249680985969026
5.136,-0.018242468823091447
5.14,-0.018259489527482534
5.144,-0.018256051729844222
5.148,-0.018255258391927688
5.152,-0.018257229716447557
5.156,-0.018244103580010364
5.16,-0.018246820161360918
5.164,-0.018252205242976178
5.168,-0.01825102725637284
5.172,-0.01825874427065185
5.176,-0.018261364689830705
5.18,-0.018208451454852198
5.184,-0.018234463322297334
5.188,-0.018294853166125596
5.192,-0.018274707191154226
5.196,-0.018275163961469804
5.2,-0.018273384961293337
5.204,-0.01826290328457792
5.208,-0.018269394231167742
5.212,-0.018261749338517506
5.216,-0.018270644339399855
5.22,-0.018279491259196354
5.224,-0.01825896063553818
5.228,-0.01826677381198889
5.232,-0.01829177597663116
5.236,-0.01829271355780525
5.24,-0.018303411599406988
5.244,-0.018287857368134344
5.248,-0.018265716028100176
5.252,-0.018281077935029418
5.256,-0.01828578988144277
5.26,-0.018288362219535774
5.264,-0.01829783419344833
5.268,-0.01830269038311923
5.272,-0.018290045057540543
5.276,-0.018300069963940378
5.28,-0.01829569458512798
5.284,-0.018292208706403815
5.288,-0.01828701594913196
5.292,-0.018263744703580304
5.296,-0.018262254189918937
5.3,-0.01832634627735769
5.304,-0.018298675612450712
5.308,-0.018288794949308428
5.312,-0.018282111678375207
5.316,-0.018273793650523066
5.32,-0.01830309907234896
5.324,-0.018303339477778215
5.328,-0.018295021449926074
5.332,-0.018290069098083468
5.336,-0.018266220879501607
5.34,-0.01826422551443881
5.344,-0.018296872571731317
5.348,-0.018298266923220983
5.352,-0.018274010015409393
5.356,-0.01826422551443881
5.36,-0.018261653176345805
5.364,-0.018296127314900636
5.368,-0.01830401261298012
5.372,-0.01829345881463593
5.376,-0.018289636368310814
5.38,-0.01828386663800875
5.384,-0.01826924998791019
5.388,-0.018292256787489667
5.392,-0.018282784813577112
5.396,-0.01828016439439826
5.4,-0.018280573083627988
5.404,-0.018252830297092234
5.408,-0.018240545579657427
5.412,-0.018337092400045284
5.416,-0.01832223534451747
5.42,-0.018332765102318734
5.424,-0.018333366115891866
5.428,-0.01830511847795468
5.432,-0.0183202640199976
5.436,-0.018319422600995214
5.44,-0.018326827088216195
5.444,-0.01832786083156198
5.448,-0.01832091311465658
5.452,-0.018310743964999196
5.456,-0.01832863012893559
5.46,-0.018334832589010308
5.464,-0.01834543446844035
5.468,-0.018339111805651006
5.472,-0.018333462278063567
5.476,-0.018331755399515873
5.48,-0.01833629906212875
5.484,-0.0183294955884809
5.488,-0.018334087332179626
5.492,-0.018350170455396626
5.496,-0.018329279223594574
5.5,-0.018344833454867218
5.5040000000000004,-0.01835279087457548
5.508,-0.01835055510408343
5.5120000000000005,-0.018344593049437963
5.516,-0.018335914413441946
5.5200000000000005,-0.01834584315767008
5.524,-0.018357334537188356
5.5280000000000005,-0.01834709326590219
5.532,-0.01833944837325196
5.5360000000000005,-0.01834000130573924
5.54,-0.01828898727365183
5.5440000000000005,-0.018315912681728126
5.548,-0.018359113537364823
5.5520000000000005,-0.01835868080759217
5.556,-0.018355098766696304
5.5600000000000005,-0.01835348805032031
5.564,-0.018342188995145437
5.5680000000000005,-0.018360075159081835
5.572,-0.018365147713639066
5.5760000000000005,-0.01835598826678454
5.58,-0.01835644503710012
5.5840000000000005,-0.018345554671154975
5.588,-0.018353103401633507
5.5920000000000005,-0.018361541632200277
5.596,-0.01835288703674718
5.6000000000000005,-0.018365147713639066
5.604,-0.018355651699183587
5.6080000000000005,-0.018333173791548463
5.612,-0.01836274365934654
5.6160000000000005,-0.018354641996380726
5.62,-0.01835146864471459
5.6240000000000006,-0.01836644590295703
5.628,-0.01836086849699837
5.632,-0.018372047349458617
5.636,-0.018402650960602476
5.64,-0.018397289919530144
5.644,-0.018399718014365594
5.648,-0.018395390716639048
5.652,-0.018349713685081048
5.656,-0.01835137248254289
5.66,-0.018421066016483228
5.664,-0.01838654379684255
5.668,-0.018380774066540487
5.672,-0.01838522156698166
5.676,-0.01838151932337117
5.68,-0.018403660663405336
5.684,-0.018404117433720918
5.688,-0.01839947760893634
5.692,-0.018398684271019806
5.696,-0.01837572555252618
5.7,-0.01838892381059215
5.704,-0.018421402584084184
5.708,-0.018412483542658908
5.712,-0.018389500783622358
5.716,-0.018389380580907732
5.72,-0.018367070957073087
5.724,-0.018389620986336983
5.728,-0.018387433296930784
5.732,-0.018390318162081816
5.736,-0.01839755436550232
5.74,-0.018396664865414084
5.744,-0.01838060578274001
5.748,-0.01838618318869867
5.752,-0.01839755436550232
5.756,-0.018396833149214562
5.76,-0.018407362907015827
5.764,-0.018375028376781347
5.768,-0.018358488483248767
5.772,-0.01843731742350071
5.776,-0.01841334900220422
5.78,-0.018412844150802788
5.784,-0.01840161721725669
5.788,-0.018395655162611223
5.792,-0.01841558477269627
5.796,-0.018409863123480055
5.8,-0.018415753056496745
5.804,-0.018421402584084184
5.808,-0.018408637055790867
5.812,-0.01839688123030041
5.816,-0.018410920907368768
5.82,-0.018418109029703422
5.824,-0.018401136406398184
5.828,-0.01840176146051424
5.832,-0.01839243372985924
5.836,-0.018403372176890233
5.84,-0.01841089686682584
5.844,-0.01841294031297449
5.848,-0.01842435957086399
5.852,-0.01841726761070104
5.856,-0.018410776664111214
5.86,-0.018431187085054767
5.864,-0.018432413152743955
5.868,-0.018423494111318682
5.872,-0.0184300812200802
5.876,-0.018408372609818688
5.88,-0.018427941611759854
5.884,-0.018436307720697848
5.888,-0.018434095990748724
5.892,-0.018426523219727264
5.896,-0.018427677165787675
5.9,-0.018356204631670866
5.904,-0.018396688905957012
5.908,-0.018451140735682735
5.912,-0.018435057612465732
5.916,-0.01844193320774236
5.92,-0.018429047476734416
5.924,-0.01841690700255716
5.928,-0.01843650004504125
5.932,-0.01843782227490214
5.936,-0.018426715544070667
5.94,-0.018412483542658908
5.944,-0.018412699907545235
5.948,-0.018427893530674005
5.952,-0.01844116391036875
5.956,-0.018442389978057937
5.96,-0.018441596640141403
5.964,-0.01844243805914379
5.968,-0.01842928788216367
5.972,-0.01844892900573361
5.976,-0.018443664126832977
5.98,-0.01844948193822089
5.984,-0.018446116262211355
5.988,-0.01844303907271692
5.992,-0.01844513059995142
5.996,-0.018448592438132655
6.0,-0.01844431322149196
6.0040000000000004,-0.01843714913970023
6.008,-0.018432869923059533
6.0120000000000005,-0.018393323229947474
6.016,-0.018405487744667656
6.0200000000000005,-0.018477897859958552
6.024,-0.01847486875154997
6.0280000000000005,-0.01845085224916763
6.032,-0.018450010830165245
6.0360000000000005,-0.018434432558349676
6.04,-0.018447077883928364
6.0440000000000005,-0.018450131032879874
6.048,-0.018445034437779718
6.0520000000000005,-0.01845715087141405
6.056,-0.018446404748726455
6.0600000000000005,-0.018457343195757453
6.064,-0.018472921467573022
6.0680000000000005,-0.01847369076494663
6.072,-0.018455996925353636
6.0760000000000005,-0.018454818938750298
6.08,-0.01843806268033139
6.0840000000000005,-0.018469147102333754
6.088,-0.01847013276459369
6.0920000000000005,-0.01846857012930355
6.096,-0.018466358399354427
6.1000000000000005,-0.018451381141111986
6.104,-0.018453208222374305
6.1080000000000005,-0.018468906696904503
6.112,-0.01846284848008734
6.1160000000000005,-0.018455564195580983
6.12,-0.018458929871590517
6.1240000000000006,-0.018436764491013426
6.128,-0.018435394180066688
6.132000000000001,-0.018515881917780468
6.136,-0.01848861994210322
6.140000000000001,-0.018485398509351235
6.144,-0.018486239928353618
6.148,-0.018474988954264596
6.152,-0.018489076712418798
6.156,-0.018483619509174765
6.16,-0.018495279172493516
6.164,-0.018494461794034057
6.168,-0.018484268603833745
6.172,-0.018481191414339314
6.176,-0.018498236159273325
6.18,-0.01849972667293469
6.184,-0.018496962010498285
6.188,-0.018489437320562678
6.192,-0.018477897859958552
6.196,-0.01848410032003327
6.2,-0.018502347092113545
6.204,-0.018508381268387785
6.208,-0.018501938402883816
6.212,-0.01849652928072563
6.216,-0.018477152603127867
6.22,-0.018486552455411646
6.224,-0.018488403577216893
6.228,-0.01849902949718986
6.232,-0.018491384604539623
6.236,-0.018474123494719285
