0.0,0.02106319380559847
0.004,0.02106066954859132
0.008,0.021062929359626295
0.012,0.021064660278716913
0.016,0.021065309373375897
0.02,0.021065718062605626
0.024,0.021064395832744734
0.028,0.021062977440712144
0.032,0.021062352386596088
0.036000000000000004,0.021063338048856024
0.04,0.02106487664360324
0.044,0.021064708359802765
0.048,0.02106427563003011
0.052000000000000005,0.021064540076002287
0.056,0.021064708359802765
0.06,0.021065261292290045
0.064,0.021065934427491953
0.068,0.02106619887346413
0.07200000000000001,0.021066102711292427
0.076,0.021065189170661268
0.08,0.021066102711292427
0.084,0.021065621900433925
0.088,0.02106478048143154
0.092,0.021063939062429156
0.096,0.02106268895419704
0.1,0.021062015818995136
0.10400000000000001,0.021063939062429156
0.108,0.021063842900257455
0.112,0.021061414805422004
0.116,0.021060885913477646
0.12,0.021062376427139012
0.124,0.021064203508401335
0.128,0.021063794819171602
0.132,0.021064948765232017
0.136,0.02106716049518114
0.14,0.021068242319612778
0.14400000000000002,0.021068194238526926
0.148,0.021067376860067467
0.152,0.021067040292466515
0.156,0.0210657901842344
0.16,0.02106427563003011
0.164,0.021063073602883845
0.168,0.02106355441374235
0.17200000000000001,0.02106381885971453
0.176,0.02106422754894426
0.18,0.02106345825157065
0.184,0.021063265927227248
0.188,0.021063939062429156
0.192,0.02106405926514378
0.196,0.021064516035459363
0.2,0.021065093008489567
0.20400000000000001,0.021064131386772558
0.20800000000000002,0.021061967737909283
0.212,0.021063073602883845
0.216,0.021063578454285276
0.22,0.021064035224600857
0.224,0.02106655948160801
0.228,0.02106670372486556
0.232,0.02106747302223917
0.23600000000000002,0.021066823927580188
0.24,0.021066487359979232
0.244,0.021064756440888614
0.248,0.021065068967946642
0.252,0.021065093008489567
0.256,0.021066222914007057
0.26,0.021066439278893383
0.264,0.021065982508577802
0.268,0.02106615079237828
0.272,0.021066631603236786
0.276,0.02106716049518114
0.28,0.021067136454638216
0.28400000000000003,0.021066319076178758
0.28800000000000003,0.021065501697719296
0.292,0.021066174832921204
0.296,0.021064612197631064
0.3,0.02106295340016922
0.304,0.021063434211027725
0.308,0.02106179945410881
0.312,0.021062737035282893
0.316,0.02106396310297208
0.32,0.021065429576090523
0.324,0.021065621900433925
0.328,0.021066631603236786
0.332,0.021067232616809917
0.336,0.021067184535724065
0.34,0.021066872008666037
0.34400000000000003,0.021065261292290045
0.34800000000000003,0.021064996846317866
0.352,0.021064924724689092
0.356,0.02106336208939895
0.36,0.021062376427139012
0.364,0.021060429143162068
0.368,0.021059010751129478
0.372,0.021058818426786075
0.376,0.021058626102442673
0.38,0.021059275197101653
0.384,0.021061054197278124
0.388,0.0210612224810786
0.392,0.021061294602707375
0.396,0.021061342683793227
0.4,0.021060813791848872
0.404,0.021061462886507853
0.40800000000000003,0.021062063900080984
0.41200000000000003,0.021061150359449825
0.41600000000000004,0.02105975600796016
0.42,0.021060813791848872
0.424,0.021062111981166837
0.428,0.021062424508224865
0.432,0.021062376427139012
0.436,0.021063025521797996
0.44,0.021063386129941873
0.444,0.02106259279202534
0.448,0.02106026085936159
0.452,0.02105860206189975
0.456,0.021058914588957776
0.46,0.021057496196925186
0.464,0.021056726899551577
0.468,0.021057448115839334
0.47200000000000003,0.02105833761592757
0.47600000000000003,0.021058650142985597
0.48,0.021058505899728047
0.484,0.021060453183704992
0.488,0.02106127056216445
0.492,0.02106290531908337
0.496,0.021061102278363976
0.5,0.021060429143162068
0.504,0.02105980408904601
0.508,0.021060549345876693
0.512,0.021060284899904514
0.516,0.021058049129412466
0.52,0.021058217413212944
0.524,0.021058265494298792
0.528,0.021059419440359207
0.532,0.021061102278363976
0.536,0.021062160062252686
0.54,0.02106264087311119
0.544,0.02106386694080038
0.548,0.021065309373375897
0.552,0.021065501697719296
0.556,0.021066126751835355
0.56,0.021067040292466515
0.5640000000000001,0.02106716049518114
0.5680000000000001,0.021066102711292427
0.5720000000000001,0.021064588157088136
0.5760000000000001,0.021063482292113574
0.58,0.02106437179220181
0.584,0.02106497280577494
0.588,0.021064107346229634
0.592,0.021063434211027725
0.596,0.021063338048856024
0.6,0.021062737035282893
0.604,0.021063434211027725
0.608,0.021063626535371128
0.612,0.021063001481255072
0.616,0.021063770778628678
0.62,0.02106259279202534
0.624,0.02106355441374235
0.628,0.0210636986569999
0.632,0.021061486927050777
0.636,0.021062232183881462
0.64,0.02106391502188623
0.644,0.021065213211204196
0.648,0.021063770778628678
0.652,0.02106254471093949
0.656,0.02106319380559847
0.66,0.021063386129941873
0.664,0.021062472589310714
0.668,0.021062063900080984
0.672,0.021062472589310714
0.676,0.021062761075825817
0.68,0.02106280915691167
0.684,0.021063578454285276
0.6880000000000001,0.021063386129941873
0.6920000000000001,0.021063338048856024
0.6960000000000001,0.021063939062429156
0.7000000000000001,0.021065405535547598
0.704,0.02106473240034569
0.708,0.021064756440888614
0.712,0.021064155427315483
0.716,0.021066222914007057
0.72,0.021068001914183523
0.724,0.0210680740358123
0.728,0.0210680740358123
0.732,0.021068675049385432
0.736,0.021069131819701013
0.74,0.021069684752188293
0.744,0.021067953833097675
0.748,0.021066270995092905
0.752,0.02106574210314855
0.756,0.021064540076002287
0.76,0.021065117049032495
0.764,0.02106639119780753
0.768,0.02106675180595141
0.772,0.021067785549297197
0.776,0.021068049995269376
0.78,0.021068122116898153
0.784,0.021068001914183523
0.788,0.021066992211380663
0.792,0.02106615079237828
0.796,0.021065718062605626
0.8,0.021064540076002287
0.804,0.02106271299473997
0.808,0.021063289967770172
0.812,0.02106422754894426
0.8160000000000001,0.021063386129941873
0.8200000000000001,0.0210633140083131
0.8240000000000001,0.021064804521974467
0.8280000000000001,0.0210657901842344
0.8320000000000001,0.02106547765717637
0.836,0.021064900684146164
0.84,0.021065020886860793
0.844,0.021066222914007057
0.848,0.02106706433300944
0.852,0.021068098076355225
0.856,0.02106783363038305
0.86,0.02106591038694903
0.864,0.021065068967946642
0.868,0.021063890981343304
0.872,0.021063674616456977
0.876,0.021062328346053164
0.88,0.0210611263189069
0.884,0.02106218410279561
0.888,0.02106345825157065
0.892,0.02106278511636874
0.896,0.02106482856251739
0.9,0.021064155427315483
0.904,0.021063530373199427
0.908,0.021064684319259838
0.912,0.021065093008489567
0.916,0.02106473240034569
0.92,0.021065068967946642
0.924,0.021065165130118343
0.928,0.021064083305686706
0.932,0.02106386694080038
0.936,0.02106345825157065
0.9400000000000001,0.02106290531908337
0.9440000000000001,0.021062232183881462
0.9480000000000001,0.02106177541356588
0.9520000000000001,0.021061607129765406
0.9560000000000001,0.021060381062076215
0.96,0.021061198440535677
0.964,0.021061318643250303
0.968,0.021060284899904514
0.972,0.021060429143162068
0.976,0.021062496629853638
0.98,0.021062111981166837
0.984,0.021060958035106422
0.988,0.021061462886507853
0.992,0.021061054197278124
0.996,0.02106213602170976
1.0,0.02106290531908337
1.004,0.021062977440712144
1.008,0.021064395832744734
1.012,0.021065213211204196
1.016,0.021064251589487184
1.02,0.021064203508401335
1.024,0.021063434211027725
1.028,0.021063530373199427
1.032,0.02106304956234092
1.036,0.02106254471093949
1.04,0.021062352386596088
1.044,0.021062833197454594
1.048,0.021063289967770172
1.052,0.021063530373199427
1.056,0.021064948765232017
1.06,0.021064900684146164
1.064,0.021065189170661268
1.068,0.02106463623817399
1.072,0.021062737035282893
1.076,0.021063794819171602
1.08,0.02106422754894426
1.084,0.021065117049032495
1.088,0.021066631603236786
1.092,0.021067040292466515
1.096,0.021067545143867945
1.1,0.021066319076178758
1.104,0.021066631603236786
1.108,0.021065982508577802
1.112,0.021065213211204196
1.116,0.021064948765232017
1.12,0.021064660278716913
1.124,0.021063987143515005
1.1280000000000001,0.021065934427491953
1.1320000000000001,0.021068266360155703
1.1360000000000001,0.021067737468211348
1.1400000000000001,0.021068122116898153
1.1440000000000001,0.02106908373861516
1.1480000000000001,0.021069107779158085
1.1520000000000001,0.021069035657529312
1.156,0.021070478090104827
1.16,0.021071103144220883
1.164,0.02106975687381707
1.168,0.021068386562870328
1.172,0.021068362522327404
1.176,0.02106884333318591
1.18,0.021069564549473667
1.184,0.02106944434675904
1.188,0.02106889141427176
1.192,0.02106898757644346
1.196,0.021067448981696244
1.2,0.02106639119780753
1.204,0.021065814224777327
1.208,0.021066102711292427
1.212,0.021066463319436308
1.216,0.021065213211204196
1.22,0.021065838265320252
1.224,0.02106670372486556
1.228,0.021066319076178758
1.232,0.02106533341391882
1.236,0.021064035224600857
1.24,0.02106218410279561
1.244,0.021062616832568267
1.248,0.021062328346053164
1.252,0.02106153500813663
1.256,0.02106345825157065
1.26,0.02106381885971453
1.264,0.021062833197454594
1.268,0.021062424508224865
1.272,0.021062256224424387
1.276,0.021061823494651733
1.28,0.021060813791848872
1.284,0.02106153500813663
1.288,0.021061655210851255
1.292,0.021061967737909283
1.296,0.021060982075649347
1.3,0.021060405102619143
1.304,0.021061967737909283
1.308,0.021062352386596088
1.312,0.021061895616280506
1.316,0.02106345825157065
1.32,0.021064443913830586
1.324,0.021063987143515005
1.328,0.02106228026496731
1.332,0.021061462886507853
1.336,0.021061991778452208
1.34,0.02106285723799752
1.344,0.021064395832744734
1.348,0.021064588157088136
1.352,0.02106497280577494
1.356,0.021064708359802765
1.36,0.021066270995092905
1.364,0.021067232616809917
1.368,0.02106732877898162
1.372,0.021067593224953794
1.3760000000000001,0.021066102711292427
1.3800000000000001,0.02106591038694903
1.3840000000000001,0.02106482856251739
1.3880000000000001,0.0210636986569999
1.3920000000000001,0.02106422754894426
1.3960000000000001,0.021064804521974467
1.4000000000000001,0.021064347751658885
1.4040000000000001,0.021064540076002287
1.408,0.021065044927403718
1.412,0.02106497280577494
1.416,0.021064299670573033
1.42,0.02106278511636874
1.424,0.021062737035282893
1.428,0.021062881278540443
1.432,0.021063674616456977
1.436,0.021064708359802765
1.44,0.021066727765408487
1.444,0.021067280697895766
1.448,0.021067280697895766
1.452,0.021066270995092905
1.456,0.021067040292466515
1.46,0.02106706433300944
1.464,0.021066583522150933
1.468,0.02106848272504203
1.472,0.021068506765584954
1.476,0.021069155860243938
1.48,0.02107136759019306
1.484,0.021071607995622313
1.488,0.021071151225306735
1.492,0.02107071849553408
1.496,0.021069540508930742
1.5,0.021068458684499105
1.504,0.021068675049385432
1.508,0.021069011616986388
1.512,0.021068314441241555
1.516,0.02106716049518114
1.52,0.02106655948160801
1.524,0.021067232616809917
1.528,0.021068602927756655
1.532,0.021070478090104827
1.536,0.021071728198336942
1.54,0.02107136759019306
1.544,0.021070069400875097
1.548,0.021068194238526926
1.552,0.02106655948160801
1.556,0.021064756440888614
1.56,0.02106487664360324
1.564,0.021065453616633447
1.568,0.021066030589663654
1.572,0.021068194238526926
1.576,0.02106716049518114
1.58,0.021066078670749503
1.584,0.021064708359802765
1.588,0.02106446795437351
1.592,0.02106574210314855
1.596,0.021066968170837738
1.6,0.02106730473843869
1.604,0.02106655948160801
1.608,0.021066872008666037
1.612,0.02106783363038305
1.616,0.02106848272504203
1.62,0.021070141522503874
1.624,0.021070069400875097
1.6280000000000001,0.02106985303598877
1.6320000000000001,0.021070454049561902
1.6360000000000001,0.021069203941329787
1.6400000000000001,0.021066944130294814
1.6440000000000001,0.021066439278893383
1.6480000000000001,0.02106670372486556
1.6520000000000001,0.021066030589663654
1.6560000000000001,0.02106487664360324
1.6600000000000001,0.021064540076002287
1.6640000000000001,0.02106285723799752
1.668,0.021062520670396566
1.672,0.02106422754894426
1.676,0.021064756440888614
1.68,0.021065213211204196
1.684,0.02106651140052216
1.688,0.02106766534658257
1.692,0.021066367157264607
1.696,0.021064299670573033
1.7,0.021063746738085753
1.704,0.021065068967946642
1.708,0.02106564594097685
1.712,0.021066343116721682
1.716,0.021067232616809917
1.72,0.021068266360155703
1.724,0.021068651008842507
1.728,0.02106701625192359
1.732,0.02106482856251739
1.736,0.021064491994916435
1.74,0.021064612197631064
1.744,0.021062160062252686
1.748,0.02106240046768194
1.752,0.021061751373022956
1.756,0.021060693589134243
1.76,0.021061102278363976
1.764,0.021061607129765406
1.768,0.021061823494651733
1.772,0.021062472589310714
1.776,0.021063386129941873
1.78,0.02106345825157065
1.784,0.021063145724512622
1.788,0.021063145724512622
1.792,0.021063265927227248
1.796,0.021065453616633447
1.8,0.021067280697895766
1.804,0.02106716049518114
1.808,0.021067593224953794
1.812,0.021067545143867945
1.816,0.02106848272504203
1.82,0.021068819292642985
1.824,0.02106925202241564
1.828,0.021068386562870328
1.832,0.021067352819524543
1.836,0.021065501697719296
1.84,0.021068362522327404
1.844,0.02106884333318591
1.848,0.021066679684322635
1.852,0.02106641523835046
1.856,0.02106655948160801
1.86,0.02106711241409529
1.864,0.021067232616809917
1.868,0.021065213211204196
1.872,0.02106381885971453
1.8760000000000001,0.02106290531908337
1.8800000000000001,0.02106268895419704
1.8840000000000001,0.021063338048856024
1.8880000000000001,0.02106319380559847
1.8920000000000001,0.021064924724689092
1.8960000000000001,0.021066319076178758
1.9000000000000001,0.021067040292466515
1.9040000000000001,0.021065621900433925
1.9080000000000001,0.021064395832744734
1.9120000000000001,0.021065044927403718
1.9160000000000001,0.021064852603060315
1.92,0.021063770778628678
1.924,0.021061150359449825
1.928,0.021061607129765406
1.932,0.021061823494651733
1.936,0.02106271299473997
1.94,0.021064347751658885
1.944,0.02106463623817399
1.948,0.021065669981519774
1.952,0.02106528533283297
1.956,0.021064179467858407
1.96,0.021063386129941873
1.964,0.02106482856251739
1.968,0.02106665564377971
1.972,0.02106675180595141
1.976,0.021065838265320252
1.98,0.021066487359979232
1.984,0.02106619887346413
1.988,0.02106523725174712
1.992,0.02106437179220181
1.996,0.02106386694080038
2.0,0.021064299670573033
2.004,0.021065020886860793
2.008,0.021064083305686706
2.012,0.021064203508401335
2.016,0.02106629503563583
2.02,0.02106706433300944
2.024,0.02106619887346413
2.028,0.021067088373552364
2.032,0.02106939626567319
2.036,0.021069203941329787
2.04,0.021067953833097675
2.044,0.021067400900610392
2.048,0.021067593224953794
2.052,0.02106701625192359
2.056,0.02106766534658257
2.06,0.021065718062605626
2.064,0.02106651140052216
2.068,0.021068146157441077
2.072,0.021069227981872714
2.076,0.02106874717101421
2.08,0.021067040292466515
2.084,0.021067136454638216
2.088,0.021067953833097675
2.092,0.021068386562870328
2.096,0.021068506765584954
2.1,0.021068626968299583
2.104,0.02106898757644346
2.108,0.02107030980630435
2.112,0.021069203941329787
2.116,0.021067881711468898
2.12,0.021065597859890997
2.124,0.021064756440888614
2.128,0.021065718062605626
2.132,0.021065165130118343
2.136,0.02106446795437351
2.14,0.021066030589663654
2.144,0.021067761508754272
2.148,0.02106802595472645
2.152,0.02106802595472645
2.156,0.02106908373861516
2.16,0.021069468387301966
2.164,0.02106874717101421
2.168,0.02106853080612788
2.172,0.021068242319612778
2.176,0.021068795252100057
2.18,0.02106848272504203
2.184,0.021068626968299583
2.188,0.021069131819701013
2.192,0.021068266360155703
2.196,0.0210680740358123
2.2,0.02106711241409529
2.204,0.021065549778805148
2.208,0.021065357454461746
2.212,0.021066078670749503
2.216,0.021065357454461746
2.22,0.02106422754894426
2.224,0.0210632178461414
2.228,0.021063746738085753
2.232,0.021063674616456977
2.236,0.021061991778452208
2.24,0.02106026085936159
2.244,0.02106254471093949
2.248,0.021062232183881462
2.2520000000000002,0.021062616832568267
2.2560000000000002,0.021062472589310714
2.2600000000000002,0.021060573386419618
2.2640000000000002,0.02105985217013186
2.2680000000000002,0.021059924291760637
2.2720000000000002,0.02105970792687431
2.2760000000000002,0.02106052530533377
2.2800000000000002,0.021061150359449825
2.2840000000000003,0.021061871575737582
2.2880000000000003,0.0210633140083131
2.2920000000000003,0.021062664913654116
2.2960000000000003,0.021063987143515005
2.3000000000000003,0.0210656940220627
2.3040000000000003,0.02106639119780753
2.308,0.02106629503563583
2.312,0.021066944130294814
2.316,0.021066439278893383
2.32,0.02106615079237828
2.324,0.021064588157088136
2.328,0.021063073602883845
2.332,0.021065165130118343
2.336,0.021066078670749503
2.34,0.021064419873287662
2.344,0.02106405926514378
2.348,0.021065189170661268
2.352,0.021063482292113574
2.356,0.02106473240034569
2.36,0.021065525738262224
2.364,0.021066679684322635
2.368,0.021066535441065085
2.372,0.02106655948160801
2.376,0.021066872008666037
2.38,0.02106600654912073
2.384,0.021065501697719296
2.388,0.021065093008489567
2.392,0.021065309373375897
2.396,0.02106514108957542
2.4,0.021067352819524543
2.404,0.02106843464395618
2.408,0.021068723130471284
2.412,0.02106848272504203
2.416,0.02106651140052216
2.42,0.021065261292290045
2.424,0.021066631603236786
2.428,0.02106624695454998
2.432,0.021064516035459363
2.436,0.0210657901842344
2.44,0.02106701625192359
2.444,0.021067040292466515
2.448,0.02106783363038305
2.452,0.02106898757644346
2.456,0.02106893949535761
2.46,0.021068122116898153
2.464,0.021066078670749503
2.468,0.02106679988703726
2.472,0.021068314441241555
2.476,0.021066631603236786
2.48,0.02106523725174712
2.484,0.021064804521974467
2.488,0.02106432371111596
2.492,0.021064107346229634
2.496,0.021064564116545212
2.5,0.02106619887346413
2.504,0.021068218279069854
2.508,0.02106742494115332
2.512,0.021067400900610392
2.516,0.02106792979255475
2.52,0.021067785549297197
2.524,0.02106591038694903
2.528,0.021064203508401335
2.532,0.02106319380559847
2.536,0.021062833197454594
2.54,0.02106163117030833
2.544,0.021062977440712144
2.548,0.021063939062429156
2.552,0.021063939062429156
2.556,0.021064948765232017
2.56,0.02106547765717637
2.564,0.021064419873287662
2.568,0.021064011184057933
2.572,0.02106295340016922
2.576,0.02106523725174712
2.58,0.021066968170837738
2.584,0.021066078670749503
2.588,0.021066487359979232
2.592,0.02106651140052216
2.596,0.02106670372486556
2.6,0.021066439278893383
2.604,0.021068001914183523
2.608,0.021067641306039647
2.612,0.02106716049518114
2.616,0.021068242319612778
2.62,0.02106934818458734
2.624,0.021068723130471284
2.628,0.02106792979255475
2.632,0.02106833848178448
2.636,0.021068266360155703
2.64,0.02106605463020658
2.644,0.021062616832568267
2.648,0.021058457818642195
2.652,0.021054419007430752
2.656,0.0210519909125953
2.66,0.021051966872052373
2.664,0.021053601628971293
2.668,0.021054899818289258
2.672,0.021056222048150147
2.676,0.021056270129235995
2.68,0.021055717196748716
2.684,0.021056462453579398
2.688,0.021058241453755868
2.692,0.021062664913654116
2.696,0.021063578454285276
2.7,0.021064395832744734
2.704,0.02106473240034569
2.708,0.021063482292113574
2.712,0.021064564116545212
2.716,0.021065814224777327
2.72,0.02106564594097685
2.724,0.021063939062429156
2.728,0.021064299670573033
2.732,0.021065068967946642
2.736,0.021066030589663654
2.74,0.021066102711292427
2.744,0.02106898757644346
2.748,0.02107030980630435
2.7520000000000002,0.021070237684675575
2.7560000000000002,0.021069276062958563
2.7600000000000002,0.021067881711468898
2.7640000000000002,0.02106478048143154
2.7680000000000002,0.021060308940447442
2.7720000000000002,0.02105802508886954
2.7760000000000002,0.02105816933212709
2.7800000000000002,0.021059828129588936
2.7840000000000003,0.02106117439999275
2.7880000000000003,0.021063626535371128
2.7920000000000003,0.02106422754894426
2.7960000000000003,0.021064419873287662
2.8000000000000003,0.021067400900610392
2.8040000000000003,0.021068122116898153
2.8080000000000003,0.02106843464395618
2.8120000000000003,0.021069179900786862
2.816,0.021069684752188293
2.82,0.02106848272504203
2.824,0.021066030589663654
2.828,0.021066463319436308
2.832,0.02106605463020658
2.836,0.02106574210314855
2.84,0.021065213211204196
2.844,0.021068146157441077
2.848,0.021070646373905304
2.852,0.021069804954902918
2.856,0.021068915454814686
2.86,0.02106944434675904
2.864,0.021067953833097675
2.868,0.02106523725174712
2.872,0.021063794819171602
2.876,0.02106405926514378
2.88,0.021062496629853638
2.884,0.02106117439999275
2.888,0.02106167925139418
2.892,0.021062232183881462
2.896,0.021062472589310714
2.9,0.02106268895419704
2.904,0.021063506332656502
2.908,0.021063386129941873
2.912,0.021061895616280506
2.916,0.021062376427139012
2.92,0.021063602494828203
2.924,0.0210636986569999
2.928,0.021063746738085753
2.932,0.021065453616633447
2.936,0.021065117049032495
2.94,0.02106528533283297
2.944,0.021065117049032495
2.948,0.021065958468034877
2.952,0.021064540076002287
2.956,0.02106295340016922
2.96,0.021063578454285276
2.964,0.02106304956234092
2.968,0.021061991778452208
2.972,0.021061198440535677
2.976,0.02106158308922248
2.98,0.02106179945410881
2.984,0.02106271299473997
2.988,0.021063001481255072
2.992,0.021062063900080984
2.996,0.021062761075825817
3.0,0.021062015818995136
3.004,0.02106117439999275
3.008,0.02106478048143154
3.012,0.021066463319436308
3.016,0.021068314441241555
3.02,0.021069468387301966
3.024,0.021068626968299583
3.028,0.021067641306039647
3.032,0.02106742494115332
3.036,0.02106898757644346
3.04,0.02106990111707462
3.044,0.021070069400875097
3.048,0.02106783363038305
3.052,0.02106792979255475
3.056,0.02106874717101421
3.06,0.021067881711468898
3.064,0.021067376860067467
3.068,0.021067497062782093
3.072,0.021067809589840125
3.076,0.02106944434675904
3.08,0.021069564549473667
3.084,0.021069324144044416
3.088,0.02106893949535761
3.092,0.021067545143867945
3.096,0.02107011748196095
3.1,0.021070478090104827
3.104,0.021069804954902918
3.108,0.021070838698248707
3.112,0.021072761941682727
3.116,0.021072906184940277
3.12,0.02107360336068511
3.124,0.021073170630912456
3.128,0.02107136759019306
3.132,0.021069684752188293
3.136,0.02106889141427176
3.14,0.021072930225483205
3.144,0.02107422841480117
3.148,0.021073531239056337
3.152,0.02107360336068511
3.156,0.021073435076884636
3.16,0.021071391630735986
3.164,0.02107030980630435
3.168,0.021071800319965715
3.172,0.021071055063135034
3.176,0.021071487792907687
3.18,0.02107163203616524
3.184,0.021071848401051568
3.188,0.021073411036341708
3.192,0.0210724494146247
3.196,0.021071487792907687
3.2,0.02107086273879163
3.204,0.021070069400875097
3.208,0.021068795252100057
3.212,0.02106898757644346
3.216,0.021069131819701013
3.22,0.021069035657529312
3.224,0.02106999727924632
3.228,0.021072834063311504
3.232,0.02107555064466206
3.236,0.021076680550179545
3.24,0.02107797873949751
3.244,0.021077041158323425
3.248,0.021077497928639003
3.2520000000000002,0.021076319942035664
3.2560000000000002,0.021074492860773345
3.2600000000000002,0.021074997712174776
3.2640000000000002,0.021079276928815473
3.2680000000000002,0.02108370038871372
3.2720000000000002,0.021084806253688283
3.2760000000000002,0.02108858061892755
3.2800000000000002,0.02109127315973518
3.2840000000000003,0.021090287497475244
3.2880000000000003,0.021088917186528503
3.2920000000000003,0.021087643037753467
3.2960000000000003,0.021087090105266184
3.3000000000000003,0.021087354551238363
3.3040000000000003,0.021086585253864754
3.3080000000000003,0.021087017983637407
3.3120000000000003,0.021087546875581765
3.3160000000000003,0.021086633334950602
3.3200000000000003,0.02108603232137747
3.3240000000000003,0.021085190902375088
3.3280000000000003,0.02108656121332183
3.332,0.021086416970064276
3.336,0.021083940794142976
3.34,0.021084349483372705
3.344,0.021084734132059507
3.348,0.021085335145632638
3.352,0.021086416970064276
3.356,0.021085864037576996
3.36,0.02108487837531706
3.364,0.021084854334774136
3.368,0.021083844631971275
3.372,0.021083147456226442
3.376,0.021082209875052355
3.38,0.02108031067216126
3.384,0.021079877942388605
3.388,0.021079156726100848
3.392,0.02107872399632819
3.396,0.021078098942212135
3.4,0.021077858536782883
3.404,0.021078411469270163
3.408,0.02107857975307064
3.412,0.02107797873949751
3.416,0.02107547852303328
3.42,0.021073290833627082
3.424,0.021071295468564285
3.428,0.021070430009018978
3.432,0.021069564549473667
3.436,0.021067905752011822
3.44,0.02106985303598877
3.444,0.021071319509107213
3.448,0.021071872441594492
3.452,0.02107076657661993
3.456,0.021069276062958563
3.46,0.021067448981696244
3.464,0.021067881711468898
3.468,0.02106747302223917
3.472,0.02106547765717637
3.476,0.021065309373375897
3.48,0.021065718062605626
3.484,0.021066102711292427
3.488,0.021066030589663654
3.492,0.021065597859890997
3.496,0.021063434211027725
3.5,0.021061414805422004
3.504,0.02106062146750547
3.508,0.021060933994563498
3.512,0.021062376427139012
3.516,0.021062111981166837
3.52,0.021062063900080984
3.524,0.021061390764879076
3.528,0.021061823494651733
3.532,0.02106259279202534
3.536,0.02106290531908337
3.54,0.02106213602170976
3.544,0.021062063900080984
3.548,0.02106345825157065
3.552,0.021065838265320252
3.556,0.021067280697895766
3.56,0.021069059698072237
3.564,0.021072160928109596
3.568,0.02107360336068511
3.572,0.021075863171720086
3.576,0.02108016642890371
3.58,0.021083339780569844
3.584,0.021083940794142976
3.588,0.021085984240291622
3.592,0.02108639292952135
3.596,0.021087691118839316
3.6,0.021089782646073814
3.604,0.021091032754305926
3.608,0.02109228286253804
3.612,0.021093773376199408
3.616,0.02109355701131308
3.62,0.021093581051856006
3.624,0.021094350349229612
3.628,0.021094662876287643
3.632,0.02109588894397683
3.636,0.021096129349406082
3.64,0.021096153389949007
3.644,0.02109605722777731
3.648,0.021096754403522138
3.652,0.021098052592840102
3.656,0.021098461282069835
3.66,0.02109899017401419
3.664,0.02110108170124869
3.668,0.021103125147397334
3.672,0.021106779309921976
3.676,0.02111105852656267
3.68,0.021117477351523715
3.684,0.021122814352053126
3.688,0.02112709356869382
3.692,0.021128608122898112
3.696,0.02113079581230431
3.7,0.0211317333934784
3.704,0.021135002907316233
3.708,0.02113791181301019
3.712,0.021137142515636583
3.716,0.021136613623692225
3.72,0.021134353812657252
3.724,0.02113348835311194
3.728,0.021134041285599224
3.732,0.021132935420624662
3.736,0.021129858231130227
3.74,0.021124809717115924
3.744,0.021121804649250266
3.748,0.02112014585178842
3.7520000000000002,0.021120770905904477
3.7560000000000002,0.02112492991983055
3.7600000000000002,0.021128824487784442
3.7640000000000002,0.021131517028592072
3.7680000000000002,0.02113582028577569
3.7720000000000002,0.021141926583678708
3.7760000000000002,0.021145893273261378
3.7800000000000002,0.02115060521967473
3.7840000000000003,0.021154932517401276
3.7880000000000003,0.021157817382552308
3.7920000000000003,0.021159115571870273
3.7960000000000003,0.02116019739630191
3.8000000000000003,0.021163106301995867
3.8040000000000003,0.021165342072487915
3.8080000000000003,0.021162913977652464
3.8120000000000003,0.021158442436668364
3.8160000000000003,0.02115800970689571
3.8200000000000003,0.02115673555812067
3.8240000000000003,0.02115187936844977
3.8280000000000003,0.021146013475976003
3.8320000000000003,0.021142719921595242
3.8360000000000003,0.021138296461696994
3.84,0.021133873001798746
3.844,0.021129257217557096
3.848,0.021128824487784442
3.852,0.02112877640669859
3.856,0.02112750225792355
3.86,0.021128031149867908
3.864,0.02112800710932498
3.868,0.021127983068782056
3.872,0.021128896609413216
3.876,0.02113197379890765
3.88,0.021133584515283643
3.884,0.021135195231659635
3.888,0.021136060691204946
3.892,0.021136781907492703
3.896,0.021137647367038014
3.9,0.02113598856957617
3.904,0.02113507502894501
3.908,0.0211322142043369
3.912,0.021132863298995885
3.916,0.021135868366861543
3.92,0.021137839691381416
3.924,0.021138200299525293
3.928,0.021137575245409237
3.932,0.021136829988578555
3.936,0.021135147150573786
3.94,0.021134546137000654
3.944,0.021132959461167587
3.948,0.021129930352759004
3.952,0.021128824487784442
3.956,0.02112750225792355
3.96,0.021127333974123075
3.964,0.021126973365979195
3.968,0.02112649255512069
3.972,0.02112812731203961
3.976,0.021127526298466478
3.98,0.02112658871729239
3.984,0.02112759842009525
3.988,0.02112800710932498
3.992,0.021126131946976812
3.996,0.021124328906257418
4.0,0.021123319203454557
4.0040000000000004,0.021121275757305907
4.008,0.021118246648897325
4.0120000000000005,0.02111526562157459
4.016,0.02111315005379717
4.0200000000000005,0.021111948026650906
4.024,0.021112116310451384
4.0280000000000005,0.021110794080590495
4.032,0.021106659107207347
4.0360000000000005,0.021106226377434693
4.04,0.021106875472093677
4.0440000000000005,0.021105817688204964
4.048,0.021102860701425155
4.0520000000000005,0.021100192201160453
4.056,0.02109973543084487
4.0600000000000005,0.021098966133471266
4.064,0.021098196836097656
4.0680000000000005,0.021097788146867927
4.072,0.02109831703881228
4.0760000000000005,0.02109838916044106
4.08,0.021098196836097656
4.0840000000000005,0.02109853340369861
4.088,0.021098942092928338
4.0920000000000005,0.021099927755188274
4.096,0.021099446944329768
4.1,0.021098845930756636
4.104,0.021099302701072218
4.108,0.021099014214557114
4.112,0.021095720660176353
4.116,0.021093076200454575
4.12,0.02109040770018987
4.124,0.021088436375669997
4.128,0.021088436375669997
4.132,0.02108831617295537
4.136,0.02108543130780434
4.14,0.021085311105089714
4.144,0.021084325442829777
4.148,0.02108305129405474
4.152,0.021082257956138207
4.156,0.02108127229387827
4.16,0.021081200172249494
4.164,0.02108245028048161
4.168,0.021083532104913243
4.172,0.021083676348170797
4.176,0.021083652307627872
4.18,0.02108194542908018
4.184,0.02108086360464854
4.188,0.02108026259107541
4.192,0.021079781780216904
4.196,0.021079733699131055
4.2,0.021079805820759828
4.204,0.02108117613170657
4.208,0.021084686050973658
4.212,0.021085839997034072
4.216,0.02108461392934488
4.22,0.02108228199668113
4.224,0.021079421172073023
4.228,0.021078531671984792
4.232,0.02107908460447207
4.236,0.021077690252982405
4.24,0.021078964401757445
4.244,0.02108117613170657
4.248,0.021082810888625486
4.252,0.021084854334774136
4.256,0.021083387861655693
4.26,0.02108194542908018
4.264,0.02108242623993868
4.268,0.0210817771452797
4.272,0.021081656942565075
4.276,0.021082017550708952
4.28,0.02108026259107541
4.284,0.021079661577502278
4.288,0.02107872399632819
4.292,0.021078796117956967
4.296,0.021077017117780497
4.3,0.021075214077061102
4.304,0.02107451690131627
4.308,0.021074396698601644
4.312,0.021074685185116748
4.316,0.021074396698601644
4.32,0.02107319467145538
4.324,0.021071247387478436
4.328,0.021069804954902918
4.332,0.02107208880648082
4.336,0.021073747603942664
4.34,0.021075935293348863
4.344,0.021075767009548385
4.348,0.021074757306745524
4.352,0.021074901550003074
4.356,0.021075526604119134
4.36,0.021074084171543616
4.364,0.02107372356339974
4.368,0.021073314874170006
4.372,0.02107259365788225
4.376,0.02107204072539497
4.38,0.02107011748196095
4.384,0.021069420306216117
4.388,0.02106994919816047
4.392,0.021071487792907687
4.396,0.021073026387654906
4.4,0.021074036090457767
4.404,0.021073531239056337
4.408,0.021073435076884636
4.412,0.02107285810385443
4.416,0.021071848401051568
4.42,0.021071079103677958
4.424,0.021069828995445846
4.428,0.021068554846670806
4.432,0.021069564549473667
4.436,0.02106802595472645
4.44,0.021066823927580188
4.444,0.02106848272504203
4.448,0.021069828995445846
4.452,0.02107067041444823
4.456,0.021071055063135034
4.46,0.021071848401051568
4.464,0.02107396396882899
4.468,0.021073988009371915
4.472,0.021072425374081775
4.476,0.021071896482137416
4.48,0.021072401333538847
4.484,0.02107052617119068
4.488,0.021069155860243938
4.492,0.021068915454814686
4.496,0.021069179900786862
4.5,0.021070237684675575
4.5040000000000004,0.021070478090104827
4.508,0.021070069400875097
4.5120000000000005,0.021070598292819452
4.516,0.021070189603589723
4.5200000000000005,0.02107067041444823
4.524,0.021071391630735986
4.5280000000000005,0.021071199306392584
4.532,0.021071415671278914
4.5360000000000005,0.021072497495710548
4.54,0.021071487792907687
4.5440000000000005,0.021072377292995922
4.548,0.02107401204991484
4.5520000000000005,0.0210747332662026
4.556,0.021073435076884636
4.5600000000000005,0.021074757306745524
4.564,0.021075165995975254
4.5680000000000005,0.021073891847200214
4.572,0.021072978306569054
4.5760000000000005,0.021074036090457767
4.58,0.021072497495710548
4.5840000000000005,0.02106961263055952
4.588,0.021069155860243938
4.5920000000000005,0.02106934818458734
4.596,0.02106934818458734
4.6000000000000005,0.021068386562870328
4.604,0.021068049995269376
4.6080000000000005,0.021069684752188293
4.612,0.021071992644309118
4.616,0.021072473455167624
4.62,0.02107151183345061
4.624,0.02107163203616524
4.628,0.02107021364413265
4.632,0.021070598292819452
4.636,0.02106949242784489
4.64,0.02106908373861516
4.644,0.021071704157794014
4.648,0.021072473455167624
4.652,0.02107076657661993
4.656,0.021069708792731217
4.66,0.02106783363038305
4.664,0.021067593224953794
4.668,0.021068458684499105
4.672,0.021069107779158085
4.676,0.021068314441241555
4.68,0.021068602927756655
4.684,0.021068867373728834
4.688,0.021068506765584954
4.692,0.02106802595472645
4.696,0.021068602927756655
4.7,0.021069732833274145
4.704,0.0210703578873902
4.708,0.021070430009018978
4.712,0.021070838698248707
4.716,0.021071559914536464
4.72,0.02107151183345061
4.724,0.02107278598222565
4.728,0.021072305171367146
4.732,0.021073026387654906
4.736,0.0210746371040309
4.74,0.021073988009371915
4.744,0.021073675482313887
4.748,0.021074396698601644
4.752,0.02107422841480117
4.756,0.02107528619868988
4.76,0.02107588721226301
4.764,0.021076319942035664
4.768,0.021075165995975254
4.772,0.0210746371040309
4.776,0.02107461306348797
4.78,0.021073435076884636
4.784,0.021071607995622313
4.788,0.021071559914536464
4.792,0.02107052617119068
4.796,0.021067953833097675
4.8,0.02106848272504203
4.804,0.021068675049385432
4.808,0.021067881711468898
4.812,0.021068723130471284
4.816,0.021068554846670806
4.82,0.021067857670925973
4.824,0.021069516468387818
4.828,0.021070381927933125
4.832,0.02107163203616524
4.836,0.021071704157794014
4.84,0.021070790617162855
4.844,0.02107067041444823
4.848,0.021072112847023743
4.852,0.021071992644309118
4.856,0.021072906184940277
4.86,0.02107406013100069
4.864,0.021073122549826608
4.868,0.02107177627942279
4.872,0.021070598292819452
4.876,0.0210703578873902
4.88,0.02107021364413265
4.884,0.0210703578873902
4.888,0.02107052617119068
4.892,0.021070430009018978
4.896,0.021070285765761424
4.9,0.021070478090104827
4.904,0.021072834063311504
4.908,0.021073651441770962
4.912,0.02107401204991484
4.916,0.02107569488791961
4.92,0.0210771132799522
4.924,0.021076584388007844
4.928,0.021076079536606413
4.932,0.021073771644485588
4.936,0.021072906184940277
4.94,0.021071391630735986
4.944,0.0210701655630468
4.948,0.021068626968299583
4.952,0.02106670372486556
4.956,0.021065958468034877
4.96,0.021066078670749503
4.964,0.02106514108957542
4.968,0.021065838265320252
4.972,0.021067497062782093
4.976,0.02106783363038305
4.98,0.021067905752011822
4.984,0.02106874717101421
4.988,0.0210680740358123
4.992,0.02106843464395618
4.996,0.021067905752011822
5.0,0.021067785549297197
5.0040000000000004,0.02106925202241564
5.008,0.021068362522327404
5.0120000000000005,0.021067593224953794
5.016,0.021068266360155703
5.0200000000000005,0.021068194238526926
5.024,0.021066631603236786
5.0280000000000005,0.02106523725174712
5.032,0.02106487664360324
5.0360000000000005,0.02106487664360324
5.04,0.021064347751658885
5.0440000000000005,0.02106482856251739
5.048,0.021065862305863176
5.0520000000000005,0.021066319076178758
5.056,0.02106660756269386
5.0600000000000005,0.021067208576266993
5.064,0.02106747302223917
5.0680000000000005,0.021066727765408487
5.072,0.02106619887346413
5.0760000000000005,0.02106600654912073
5.08,0.02106427563003011
5.0840000000000005,0.02106386694080038
5.088,0.021063602494828203
5.0920000000000005,0.021064395832744734
5.096,0.021063794819171602
5.1000000000000005,0.02106203985953806
5.104,0.021064083305686706
5.1080000000000005,0.021066439278893383
5.112,0.02106619887346413
5.1160000000000005,0.021066487359979232
5.12,0.021065934427491953
5.124,0.021064924724689092
5.128,0.021064660278716913
5.132,0.021064011184057933
5.136,0.02106463623817399
5.14,0.02106665564377971
5.144,0.021068602927756655
5.148,0.021068651008842507
5.152,0.021069372225130265
5.156,0.021069636671102444
5.16,0.02106994919816047
5.164,0.02107040596847605
5.168,0.021070574252276528
5.172,0.021070982941506257
5.176,0.021071800319965715
5.18,0.021071319509107213
5.184,0.021072425374081775
5.188,0.021070430009018978
5.192,0.021068242319612778
5.196,0.021069564549473667
5.2,0.021068795252100057
5.204,0.021067593224953794
5.208,0.02106716049518114
5.212,0.021067761508754272
5.216,0.021068001914183523
5.22,0.021069203941329787
5.224,0.02107067041444823
5.228,0.021072521536253476
5.232,0.021073411036341708
5.236,0.021072401333538847
5.24,0.021072569617339325
5.244,0.021071752238879866
5.248,0.021071920522680344
5.252,0.021073771644485588
5.256,0.021073771644485588
5.26,0.021073771644485588
5.264,0.02107413225262947
5.268,0.021073242752541233
5.272,0.02107345911742756
5.276,0.021072329211910074
5.28,0.021071848401051568
5.284,0.021071704157794014
5.288,0.021070550211733603
5.292,0.021069155860243938
5.296,0.021070814657705782
5.3,0.021070285765761424
5.304,0.02106893949535761
5.308,0.021069540508930742
5.312,0.02106985303598877
5.316,0.021070237684675575
5.32,0.021070598292819452
5.324,0.02107112718476381
5.328,0.021072305171367146
5.332,0.021072160928109596
5.336,0.021072233049738372
5.34,0.021074589022945046
5.344,0.021075093874346477
5.348,0.021075574685204983
5.352,0.02107639206366444
5.356,0.02107528619868988
5.36,0.021073074468740755
5.364,0.021072834063311504
5.368,0.02107285810385443
5.372,0.02107151183345061
5.376,0.02107136759019306
5.38,0.021071559914536464
5.384,0.021070598292819452
5.388,0.021071079103677958
5.392,0.02107067041444823
5.396,0.021069732833274145
5.4,0.02106843464395618
5.404,0.021069035657529312
5.408,0.021070958900963332
5.412,0.02107091081987748
5.416,0.021071343549650137
5.42,0.021073843766114365
5.424,0.021074396698601644
5.428,0.021074949631088927
5.432,0.02107523811760403
5.436,0.02107432457697287
5.44,0.021072401333538847
5.444,0.021070838698248707
5.448,0.021070814657705782
5.452,0.021071391630735986
5.456,0.021072112847023743
5.46,0.021070454049561902
5.464,0.02107112718476381
5.468,0.02107136759019306
5.472,0.02106990111707462
5.476,0.021069828995445846
5.48,0.021069011616986388
5.484,0.02106898757644346
5.488,0.02106999727924632
5.492,0.021069564549473667
5.496,0.021069540508930742
5.5,0.021069708792731217
5.5040000000000004,0.02106961263055952
5.508,0.02107011748196095
5.5120000000000005,0.02107009344141802
5.516,0.02106985303598877
5.5200000000000005,0.021072305171367146
5.524,0.02107432457697287
5.5280000000000005,0.021076103577149338
5.532,0.0210772094421239
5.5360000000000005,0.02107716136103805
5.54,0.02107624782040689
5.5440000000000005,0.02107514195543233
5.548,0.021074901550003074
5.5520000000000005,0.021075069833803552
5.556,0.0210725455767964
5.5600000000000005,0.021069035657529312
5.564,0.02106857888721373
5.5680000000000005,0.021069420306216117
5.572,0.02106843464395618
5.5760000000000005,0.021069516468387818
5.58,0.02107076657661993
5.5840000000000005,0.021070069400875097
5.588,0.021070045360332173
5.5920000000000005,0.02107100698204918
5.596,0.02107040596847605
5.6000000000000005,0.021068915454814686
5.604,0.021067400900610392
5.6080000000000005,0.021067737468211348
5.612,0.021068651008842507
5.6160000000000005,0.02107076657661993
5.62,0.021071319509107213
5.6240000000000006,0.02107151183345061
5.628,0.021072305171367146
5.632,0.021073771644485588
5.636,0.021074348617515795
5.64,0.021074420739144572
5.644,0.021074540941859198
5.648,0.02107372356339974
5.652,0.021071487792907687
5.656,0.02107067041444823
5.66,0.021070045360332173
5.664,0.021070958900963332
5.668,0.02107127142802136
5.672,0.021069227981872714
5.676,0.021068723130471284
5.68,0.021068795252100057
5.684,0.021069780914359994
5.688,0.021070285765761424
5.692,0.021069877076531695
5.696,0.021068458684499105
5.7,0.021066847968123113
5.704,0.02106665564377971
5.708,0.02106675180595141
5.712,0.021067184535724065
5.716,0.02106949242784489
5.72,0.021070478090104827
5.724,0.021069420306216117
5.728,0.021067352819524543
5.732,0.02106766534658257
5.736,0.02106716049518114
5.74,0.021066439278893383
5.744,0.021067040292466515
5.748,0.021067088373552364
5.752,0.021066679684322635
5.756,0.021066583522150933
5.76,0.021065669981519774
5.764,0.02106591038694903
5.768,0.021068146157441077
5.772,0.02106730473843869
5.776,0.021066222914007057
5.78,0.021066030589663654
5.784,0.021066992211380663
5.788,0.021068194238526926
5.792,0.021068963535900535
5.796,0.02106898757644346
5.8,0.02106884333318591
5.804,0.021069035657529312
5.808,0.02106889141427176
5.812,0.021068146157441077
5.816,0.021067545143867945
5.82,0.021067761508754272
5.824,0.021067400900610392
5.828,0.02106893949535761
5.832,0.021069636671102444
5.836,0.0210680740358123
5.84,0.021066992211380663
5.844,0.021067088373552364
5.848,0.021066078670749503
5.852,0.021066319076178758
5.856,0.02106874717101421
5.86,0.021070814657705782
5.864,0.02107091081987748
5.868,0.021071920522680344
5.872,0.021072713860596875
5.876,0.021073843766114365
5.88,0.021074564982402122
5.884,0.02107268982005395
5.888,0.021071607995622313
5.892,0.021071872441594492
5.896,0.021070838698248707
5.9,0.021070742536077006
5.904,0.02107062233336238
5.908,0.021069684752188293
5.912,0.021070045360332173
5.916,0.021069877076531695
5.92,0.0210703578873902
5.924,0.021071487792907687
5.928,0.021071607995622313
5.932,0.021071848401051568
5.936,0.021072233049738372
5.94,0.021072569617339325
5.944,0.02107300234711198
5.948,0.02107451690131627
5.952,0.021075093874346477
5.956,0.021075622766290835
5.96,0.02107547852303328
5.964,0.02107555064466206
5.968,0.021074564982402122
5.972,0.021073651441770962
5.976,0.02107021364413265
5.98,0.021069227981872714
5.984,0.02107021364413265
5.988,0.021070045360332173
5.992,0.021071079103677958
5.996,0.021070430009018978
6.0,0.021069540508930742
6.0040000000000004,0.021070598292819452
6.008,0.021071656076708165
6.0120000000000005,0.021071872441594492
6.016,0.021071656076708165
6.0200000000000005,0.021071199306392584
6.024,0.0210702617252185
6.0280000000000005,0.021069780914359994
6.032,0.021068506765584954
6.0360000000000005,0.0210679778736406
6.04,0.02106884333318591
6.0440000000000005,0.021068675049385432
6.048,0.021068386562870328
6.0520000000000005,0.02106692008975189
6.056,0.021064419873287662
6.0600000000000005,0.021065934427491953
6.064,0.021066319076178758
6.0680000000000005,0.021067280697895766
6.072,0.021069324144044416
6.0760000000000005,0.02106766534658257
6.08,0.02106802595472645
6.0840000000000005,0.02107117526584966
6.088,0.021071704157794014
6.0920000000000005,0.021071968603766193
6.096,0.021072401333538847
6.1000000000000005,0.02107040596847605
6.104,0.0210680740358123
6.1080000000000005,0.021067497062782093
6.112,0.021066679684322635
6.1160000000000005,0.021066944130294814
6.12,0.0210680740358123
6.1240000000000006,0.021069925157617547
6.128,0.021071800319965715
6.132000000000001,0.021072810022768576
6.136,0.021072209009195444
6.140000000000001,0.021071463752364763
6.144,0.02107103102259211
6.148,0.02106994919816047
6.152,0.02107011748196095
6.156,0.02107030980630435
6.16,0.021071103144220883
6.164,0.0210724494146247
6.168,0.021071848401051568
6.172,0.02107163203616524
6.176,0.021071343549650137
6.18,0.021071343549650137
6.184,0.021071391630735986
6.188,0.021071487792907687
6.192,0.021073122549826608
6.196,0.02107497367163185
6.2,0.021075526604119134
6.204,0.021076175698778114
6.208,0.02107680075289417
6.212,0.021076079536606413
6.216,0.02107629590149274
6.22,0.021076536306921995
6.224,0.021078964401757445
6.228,0.021079733699131055
6.232,0.021078603793613565
6.236,0.021077546009724855
6.24,0.0210772094421239
6.244,0.021075935293348863
6.248,0.021074444779687496
6.252,0.02107386780665729
6.256,0.02107406013100069
6.26,0.021074348617515795
6.264,0.02107386780665729
6.268,0.021074420739144572
6.272,0.0210748294283743
6.276,0.02107461306348797
6.28,0.02107369952285681
6.284,0.0210726417389681
6.288,0.021070478090104827
6.292,0.021068963535900535
6.296,0.021068458684499105
6.3,0.021068963535900535
6.304,0.021071343549650137
6.308,0.02107163203616524
6.312,0.021071391630735986
6.316,0.021072329211910074
6.32,0.021072160928109596
6.324,0.021070333846847276
6.328,0.021070694454991153
6.332,0.021071728198336942
6.336,0.021071704157794014
6.34,0.02107067041444823
6.344,0.02106884333318591
6.348,0.021066775846494336
6.352,0.021068795252100057
6.356,0.021070550211733603
6.36,0.02107228113082422
6.364,0.02107523811760403
6.368,0.021075959333891787
6.372,0.02107547852303328
6.376,0.02107401204991484
6.38,0.02107151183345061
6.384,0.021071463752364763
6.388,0.021070430009018978
6.392,0.021069780914359994
6.396,0.021069636671102444
6.4,0.02106934818458734
6.404,0.021068867373728834
6.408,0.021068915454814686
6.412,0.02106848272504203
6.416,0.021069107779158085
6.42,0.021070454049561902
6.424,0.02106934818458734
6.428,0.02106934818458734
6.432,0.021067400900610392
6.436,0.021066944130294814
6.44,0.02107076657661993
6.444,0.021073843766114365
6.448,0.021074901550003074
6.452,0.021075454482490357
6.456,0.021073988009371915
6.46,0.0210725455767964
6.464,0.02107413225262947
6.468,0.02107624782040689
6.472,0.021076416104207366
6.476,0.02107564680683376
6.48,0.02107372356339974
6.484,0.021072521536253476
6.488,0.021071896482137416
6.492,0.021071247387478436
6.496,0.021071319509107213
6.5,0.021073435076884636
6.5040000000000004,0.021073290833627082
6.508,0.02107228113082422
6.5120000000000005,0.021072761941682727
6.516,0.02107360336068511
6.5200000000000005,0.021074252455344094
6.524,0.021072209009195444
