2.654332244134313e-07,2.927904975349423e-07,1.9663590788782285e-07,1.5075894339153967e-05
2.6664638637564857e-07,2.943560616127213e-07,1.959133048922411e-07,1.508120281764704e-05
2.6782870258470567e-07,2.959827003366907e-07,1.9536266593212149e-07,1.5091693350585428e-05
2.689749480696825e-07,2.976740061707486e-07,1.949903501440198e-07,1.5109869447057568e-05
2.700824667165403e-07,2.9943374188859626e-07,1.9480001041686087e-07,1.5138058748811249e-05
2.7115116392280044e-07,3.012693146379469e-07,1.9479170902036203e-07,1.5178337764249625e-05
2.721840585103185e-07,3.0319303589738265e-07,1.94961784572624e-07,1.5232477362227615e-05
2.7318852102604606e-07,3.052198306161532e-07,1.953032284447765e-07,1.5301899698086385e-05
2.741753064927225e-07,3.0736497188775226e-07,1.95806136260899e-07,1.5387643557499362e-05
2.751553385860494e-07,3.0964302676820285e-07,1.9645839654204323e-07,1.549033367012814e-05
2.761375045186417e-07,3.120671804404579e-07,1.9724701191587122e-07,1.5610150757960113e-05
2.77129572111134e-07,3.146489223663136e-07,1.9816025265674497e-07,1.574682698817766e-05
2.7814016871274143e-07,3.173975251776008e-07,1.9919068061362678e-07,1.5899703571005856e-05
2.791784270573212e-07,3.20318718241232e-07,2.003370377187841e-07,1.6067855799067653e-05
2.8025225197927236e-07,3.2341309946288066e-07,2.0160195423865841e-07,1.6250255870900394e-05
2.8136713460251906e-07,3.2667507299478157e-07,2.029873964897601e-07,1.6445916010438558e-05
2.8252522346799445e-07,3.3009305809766485e-07,2.044928049709065e-07,1.6653947412021798e-05
2.83725579251219e-07,3.336515311937224e-07,2.0611598146432163e-07,1.687353443459928e-05
2.84965848647326e-07,3.373336749829676e-07,2.078534586641892e-07,1.7103901161677258e-05
2.8624297374060393e-07,3.411225216733248e-07,2.096995025118586e-07,1.7344314790144125e-05
2.8755245000578544e-07,3.450011595482364e-07,2.11645138477122e-07,1.7594084874554665e-05
2.888879746530203e-07,3.489547320038457e-07,2.1367823566696962e-07,1.7852524632041353e-05
2.902416869794668e-07,3.529737520449428e-07,2.1578453298328362e-07,1.811889366188447e-05
2.9160435971695926e-07,3.5705500880886675e-07,2.1794872850935888e-07,1.839233395892496e-05
2.929657343571643e-07,3.6119902183274633e-07,2.201548298312427e-07,1.867179526333184e-05
2.9431486273629297e-07,3.6540607029665315e-07,2.2238599629584685e-07,1.895597872529605e-05
2.956407088864818e-07,3.69673066078604e-07,2.2462474162119102e-07,1.924333915905731e-05
2.969337861969002e-07,3.7399271803138854e-07,2.2685406696549268e-07,1.953214421589917e-05
2.981884345900368e-07,3.783550287500926e-07,2.2905940171535774e-07,1.9820554279467413e-05
2.994039925946056e-07,3.827500696044046e-07,2.312301904202651e-07,2.0106679856298747e-05
3.005829647891393e-07,3.871696822052024e-07,2.333596331338812e-07,2.0388597075087392e-05
3.01727290102897e-07,3.9160605560977603e-07,2.3544289829990162e-07,2.0664348084373788e-05
3.028361867599466e-07,3.9604859182783635e-07,2.374758359782667e-07,2.093196182846941e-05
3.03906198892613e-07,4.0048268899528797e-07,2.3945537255845004e-07,2.1189496554160545e-05
3.049323800896527e-07,4.0489134808709313e-07,2.413815040154029e-07,2.1435085595071023e-05
3.059102052925065e-07,4.0925673348487857e-07,2.4325896150959404e-07,2.166697502440478e-05
3.068364195701775e-07,4.135600896998792e-07,2.4509565602939327e-07,2.188355447161745e-05
3.077081736285916e-07,4.1778141684317924e-07,2.4689876194432826e-07,2.2083395525243093e-05
3.085223143134562e-07,4.2190008060106936e-07,2.4867247680175e-07,2.2265287028760427e-05
3.0927512907025136e-07,4.2589639575011493e-07,2.504192894539913e-07,2.242820975711312e-05
3.0996221190986657e-07,4.2975309677869227e-07,2.521423548495533e-07,2.257125359232537e-05
3.105792682576477e-07,4.33455539409879e-07,2.538455723413678e-07,2.2693584493448685e-05
3.111230222977304e-07,4.369912846130757e-07,2.5553170761991844e-07,2.2794510463163708e-05
3.115909497028276e-07,4.4035029465506887e-07,2.572011890263896e-07,2.2873561382662185e-05
3.1198082894950737e-07,4.4352524149087936e-07,2.5885191221248305e-07,2.293050095712472e-05
3.122907023381161e-07,4.4651044058643225e-07,2.604793084983457e-07,2.296527904447889e-05
3.125183658079177e-07,4.4930023517682293e-07,2.6207722365081783e-07,2.2977973331640425e-05
3.1266063180433604e-07,4.5188886941959665e-07,2.636393585590118e-07,2.2968781989012648e-05
3.127133613083877e-07,4.542714099771905e-07,2.651597903415636e-07,2.293808983953132e-05
3.1267228477529395e-07,4.564439642168211e-07,2.6663240019592817e-07,2.288650291393388e-05
3.125338049441696e-07,4.5840257271354933e-07,2.680510612669765e-07,2.281474903981288e-05
3.1229507907771437e-07,4.601416199771196e-07,2.6941199631087604e-07,2.272353099815404e-05
3.119535563592897e-07,4.616529100366126e-07,2.707158884040486e-07,2.2613481752835603e-05
3.1150652830140727e-07,4.62925631777427e-07,2.7196678978201853e-07,2.2485273081266143e-05
3.109510152682073e-07,4.6394751100678976e-07,2.731696865126235e-07,2.2339844626978364e-05
3.102841590070428e-07,4.647077754545603e-07,2.743302880733231e-07,2.2178614845462812e-05
3.0950382718753555e-07,4.652009823398713e-07,2.754574760173168e-07,2.200350370843501e-05
3.0860908155421557e-07,4.654290589802538e-07,2.7656500744485285e-07,2.1816766662578626e-05
3.076007721479805e-07,4.654002653639945e-07,2.776690073197727e-07,2.162077360402812e-05
3.064821837541842e-07,4.6512757757375315e-07,2.787833532495565e-07,2.141782135629287e-05
3.052589497247083e-07,4.646282408220928e-07,2.799178921698685e-07,2.121000570995729e-05
3.039379195956476e-07,4.639217518220525e-07,2.8107973279352107e-07,2.0999160212110248e-05
3.0252572775977395e-07,4.6302573167550534e-07,2.822742613220112e-07,2.0786840990616018e-05
3.010281023903693e-07,4.6195315840487434e-07,2.83505024701586e-07,2.0574319097388666e-05
2.9945066397311806e-07,4.607120923629674e-07,2.847738580335178e-07,2.036257042863814e-05
2.978009028637401e-07,4.593066904754825e-07,2.8608098932315e-07,2.0152285687061857e-05
2.9608915129158674e-07,4.5773881706498576e-07,2.8742434296280175e-07,1.994391992933124e-05
2.9432758994242866e-07,4.560105777373643e-07,2.887991843908862e-07,1.9737779129976164e-05
2.925288639687339e-07,4.541270683571151e-07,2.9019883224622786e-07,1.9534107704278005e-05
2.907051072118862e-07,4.520965313110467e-07,2.916155324148828e-07,1.9333146393867168e-05
2.888672599041868e-07,4.499281148651181e-07,2.9304152242385957e-07,1.9135184048685545e-05
2.8702485664186624e-07,4.4763032649381704e-07,2.9447041705748447e-07,1.8940623745246925e-05
2.851863300406918e-07,4.4521069261154786e-07,2.958972335744023e-07,1.8750020590240977e-05
2.8335936231304896e-07,4.4267590796912535e-07,2.9731659573078514e-07,1.8564048707751747e-05
2.81550854537666e-07,4.4003205450124476e-07,2.987210986750941e-07,1.8383430619046053e-05
2.797670909302013e-07,4.372841774043333e-07,3.0010108752740445e-07,1.8208886601411224e-05
2.7801455553644925e-07,4.3443560818955276e-07,3.0144546672083103e-07,1.804109838566274e-05
2.763004149074131e-07,4.314878962548705e-07,3.027428672021337e-07,1.788065067766876e-05
2.746321395429395e-07,4.284414752755447e-07,3.039825620723729e-07,1.7727954767716285e-05
2.730173305856449e-07,4.252967632345432e-07,3.0515444578705924e-07,1.7583194279158713e-05
2.71463431503754e-07,4.220548591203406e-07,3.062483550122819e-07,1.7446340516204137e-05
2.699761800466608e-07,4.187172173695212e-07,3.072540439453964e-07,1.731724499607969e-05
2.6855806513648447e-07,4.152853844573064e-07,3.081618199821641e-07,1.7195732097792122e-05
2.6720854784249427e-07,4.117616204561363e-07,3.0896315853264947e-07,1.708161781191401e-05
2.659259366802137e-07,4.0814898458253477e-07,3.0965157125622594e-07,1.6974690173989317e-05
2.6470898774366425e-07,4.0445021811338367e-07,3.102227769567498e-07,1.6874719099488575e-05
2.6355661617642105e-07,4.00667017171337e-07,3.106733444027323e-07,1.6781489774892705e-05
2.624667607720041e-07,3.9680076375898813e-07,3.109997243276467e-07,1.6694805465928052e-05
2.614361230020679e-07,3.9285363782602895e-07,3.1119836902305877e-07,1.661443092712156e-05
2.604608998425589e-07,3.8882897830916636e-07,3.112654751535075e-07,1.6540020176387648e-05
2.5953810355079107e-07,3.847314131262944e-07,3.111964387938637e-07,1.6471098357040732e-05
2.586672681702261e-07,3.805668379845292e-07,3.1098607628845e-07,1.6407106675582817e-05
2.5785100360692397e-07,3.7634163535453294e-07,3.1062959403404605e-07,1.6347473832291367e-05
2.5709312029918397e-07,3.720617318328841e-07,3.101234088599481e-07,1.6291700645214146e-05
2.563962885121924e-07,3.677323189506415e-07,3.0946552439423734e-07,1.6239455889316774e-05
2.5576126737185514e-07,3.63358656023615e-07,3.08655812039955e-07,1.6190625731194753e-05
2.551872374268476e-07,3.5894808631181137e-07,3.0769586640927184e-07,1.614525008738288e-05
2.546724415646996e-07,3.5451149235715867e-07,3.065882491309468e-07,1.6103385050601072e-05
2.542155290620223e-07,3.500619350060287e-07,3.053355991502268e-07,1.606500999843911e-05
2.538176087589231e-07,3.456116889771993e-07,3.039403691828579e-07,1.6030034702889102e-05
2.534829347281381e-07,3.411709369172798e-07,3.024061526403577e-07,1.5998345335104142e-05
2.5321749545135004e-07,3.367487980332635e-07,3.007397723655625e-07,1.5969811706193622e-05
2.5302739935896105e-07,3.323543862739744e-07,2.9895179776100094e-07,1.5944260315614678e-05
2.5291796181109554e-07,3.279963240422781e-07,2.9705523888206885e-07,1.5921503841923622e-05
2.528934509829297e-07,3.2368236094027035e-07,2.950636346579156e-07,1.5901467366677344e-05
2.5295711515000284e-07,3.1942099466003125e-07,2.929893393131701e-07,1.5884276605164272e-05
2.5311075287883575e-07,3.1522329175773695e-07,2.908432251029561e-07,1.58701886294217e-05
2.533543287329536e-07,3.111019379477467e-07,2.8863574821311e-07,1.585944053580988e-05
2.536862295580697e-07,3.07068289921664e-07,2.863771693480199e-07,1.585213117446087e-05
2.5410352323376924e-07,3.031308033869925e-07,2.8407654862027e-07,1.5848204602385488e-05
2.546019582108903e-07,2.9929581276084553e-07,2.8174191332112537e-07,1.584759961130475e-05
2.5517583252660997e-07,2.9556840770848423e-07,2.7938194617387926e-07,1.5850490980051855e-05
2.558176392201514e-07,2.919520792545844e-07,2.770064836051308e-07,1.5857396987541087e-05
2.565183360931282e-07,2.884485843695547e-07,2.7462517337157544e-07,1.5869071019848568e-05
2.572688759426169e-07,2.850590317932578e-07,2.7224621077092506e-07,1.5886310426165062e-05
2.5806148927164185e-07,2.817846522978536e-07,2.698759101382885e-07,1.5909798097888063e-05
2.588892780037189e-07,2.786262726192858e-07,2.6751912152938854e-07,1.5939997596993122e-05
2.5974503539822626e-07,2.7558414327411604e-07,2.6518018034858737e-07,1.597709559392103e-05
2.606206132703829e-07,2.7265841198293664e-07,2.6286292439805464e-07,1.6020980714995534e-05
2.6150701351099145e-07,2.6984849827552944e-07,2.605697123490143e-07,1.6071253398385353e-05
2.623950112459604e-07,2.671519709856306e-07,2.583014068445166e-07,1.6127263747139827e-05
2.6327580894414713e-07,2.645648496685233e-07,2.560588562795852e-07,1.6188160325510417e-05
2.641414176477992e-07,2.620829725653697e-07,2.5384423185292697e-07,1.6252930448138017e-05
2.649848946009202e-07,2.5970247759392364e-07,2.516607156839427e-07,1.632043514027732e-05
2.658005297170645e-07,2.5741890661185344e-07,2.4951096242274145e-07,1.6389455105366446e-05
2.665838928227776e-07,2.55226902714915e-07,2.473962463268323e-07,1.6458740680586977e-05
2.673314726737052e-07,2.531217791694723e-07,2.453173778639297e-07,1.6527048788336326e-05
2.6804066033969284e-07,2.511010660015696e-07,2.4327678396151307e-07,1.6593178272438314e-05
2.687101290047859e-07,2.491641608172542e-07,2.4127986411943327e-07,1.6656010495330348e-05
2.693393999398157e-07,2.4731089669379413e-07,2.393339953503069e-07,1.6714531530662908e-05
2.699289357008172e-07,2.4554020893668585e-07,2.3744686233252449e-07,1.6767828268402537e-05
2.704816727499271e-07,2.438495063622177e-07,2.3562715025404372e-07,1.6815075122039473e-05
2.710036282389911e-07,2.422352315176537e-07,2.3388653340670023e-07,1.685551607226056e-05
2.7150262213771554e-07,2.4069401970403344e-07,2.322394109142941e-07,1.6888439909702027e-05
2.719861949772431e-07,2.39223129880516e-07,2.3070017831086478e-07,1.6913157415143402e-05
2.7245993597249777e-07,2.3781971397101746e-07,2.292808662220049e-07,1.6928998968757e-05
2.7292779495789727e-07,2.364802413157505e-07,2.279905930893197e-07,1.693536043793914e-05
2.733947025287847e-07,2.3520106898704162e-07,2.2683618426488122e-07,1.6931797455447693e-05
2.738691940489729e-07,2.3397916903253942e-07,2.258229221289674e-07,1.691809671801566e-05
2.743632078649508e-07,2.3281269742177357e-07,2.2495460536013608e-07,1.689425513758183e-05
2.7488931449110827e-07,2.3170164586427113e-07,2.2423326674484878e-07,1.686039657845092e-05
2.7545784639574234e-07,2.3064741428485488e-07,2.2365949576900282e-07,1.6816699554345166e-05
2.760751822490046e-07,2.296512737424097e-07,2.2323288893196697e-07,1.6763361595431744e-05
2.767435565740612e-07,2.2871318900207247e-07,2.2295175384416407e-07,1.6700583615295623e-05
2.7746207824576425e-07,2.2783159374910287e-07,2.228125117469171e-07,1.6628563320352137e-05
2.782275946195893e-07,2.270041977186124e-07,2.2280953383503229e-07,1.654752073491825e-05
2.7903506677483486e-07,2.2622966609320021e-07,2.229352900081905e-07,1.6457783567849235e-05
2.798785861695134e-07,2.2550869389541193e-07,2.2318063745903301e-07,1.6359907382227038e-05
2.8075281598970264e-07,2.2484323540547023e-07,2.2353611581341767e-07,1.625474887593923e-05
2.816534238042084e-07,2.24234924342385e-07,2.2399422668805165e-07,1.6143437361837906e-05
2.825768483961946e-07,2.2368408811625014e-07,2.245503207064841e-07,1.602728110825281e-05
2.8351989594258147e-07,2.231895672719656e-07,2.2520139426810012e-07,1.5907668562079974e-05
2.8447881176766574e-07,2.22748979854316e-07,2.2594487195043678e-07,1.5785970054829607e-05
2.8544943100230235e-07,2.223589374459812e-07,2.267777592609316e-07,1.5663434979690568e-05
2.8642937363895476e-07,2.220151922421865e-07,2.2769538118225235e-07,1.5541130720148067e-05
2.874190112279615e-07,2.217129078476307e-07,2.286908684178474e-07,1.5419955381661067e-05
2.884191418452186e-07,2.214473894577228e-07,2.2975626434029952e-07,1.5300674830773265e-05
2.8942838565433865e-07,2.2121626867684535e-07,2.3088357545371734e-07,1.5183933577812314e-05
2.904428902139004e-07,2.2102175676947432e-07,2.320647311993794e-07,1.5070246274492154e-05
2.9145744704125966e-07,2.208700042617289e-07,2.332919108955266e-07,1.4960024850738154e-05
2.924660030526129e-07,2.2076921166552023e-07,2.34558917235575e-07,1.4853700268384801e-05
2.934611782906535e-07,2.2072856898736816e-07,2.3586253216695352e-07,1.4751853291405472e-05
2.9443414438931516e-07,2.2075640568610387e-07,2.3720282988005251e-07,1.4655196443288309e-05
2.953752152004673e-07,2.2085816392187653e-07,2.3858159641357715e-07,1.4564481840112924e-05
2.962746768271507e-07,2.2103633925073423e-07,2.4000009465696267e-07,1.4480507239944987e-05
2.9712398768070396e-07,2.2129197367736907e-07,2.4145914191013907e-07,1.4404155984688944e-05
2.979167963687114e-07,2.2162591297115284e-07,2.4296026072900085e-07,1.4336358424782656e-05
2.986485736126316e-07,2.220385327362113e-07,2.445048497981479e-07,1.4278024668105576e-05
2.993151107788803e-07,2.225287046899938e-07,2.460934132876941e-07,1.422998514269134e-05
2.9991127334302664e-07,2.2309365737138186e-07,2.4772700666572285e-07,1.419291352780746e-05
3.004306337619676e-07,2.237298579751554e-07,2.494080066909857e-07,1.4167254776689148e-05
3.0086600365260085e-07,2.2443458740333408e-07,2.5113862724832894e-07,1.4153199102980859e-05
3.012108989696359e-07,2.2520795637136287e-07,2.529203004257693e-07,1.4150698105387314e-05
3.014614668621622e-07,2.260544646322452e-07,2.547550547530067e-07,1.4159491466113699e-05
3.0161752578254906e-07,2.269842224495412e-07,2.566459159454369e-07,1.417912208997644e-05
3.016819806133345e-07,2.280149081885489e-07,2.5859534663461927e-07,1.4208946299432974e-05
3.01659947612385e-07,2.2917393329160566e-07,2.606038186126289e-07,1.4248161059980726e-05
3.0155887255433806e-07,2.304976803839239e-07,2.626693346442587e-07,1.429584887172946e-05
3.013888886415094e-07,2.320254498271009e-07,2.647873925027988e-07,1.435100959783832e-05
3.011623036774432e-07,2.337918594387055e-07,2.6695151037421467e-07,1.4412562025484793e-05
3.008920887570414e-07,2.358234747943645e-07,2.6915396871297076e-07,1.4479347641532804e-05
3.005897881702057e-07,2.3813927563333112e-07,2.713861612478662e-07,1.455015475059556e-05
3.002640841859898e-07,2.407512287103283e-07,2.736390234365393e-07,1.4623733364558466e-05
2.999213544882235e-07,2.436641670987772e-07,2.7590351462886057e-07,1.4698805920337478e-05
2.995674209250937e-07,2.468763392856186e-07,2.781705765583473e-07,1.4774099752630765e-05
2.9920847679438627e-07,2.503810656851192e-07,2.8043121665948444e-07,1.4848380067305106e-05
2.9885110065890696e-07,2.541685939183116e-07,2.826773083247292e-07,1.4920472527698584e-05
2.985025944842751e-07,2.582273120208476e-07,2.8490232921227286e-07,1.498930384636313e-05
2.981713762926205e-07,2.6254459372948987e-07,2.871014295474748e-07,1.505395643271116e-05
2.978659956148754e-07,2.6710802964199016e-07,2.892707139932342e-07,1.5113692030898614e-05
2.9759308167670395e-07,2.719065387917009e-07,2.914055224559102e-07,1.5167920601646136e-05
2.973566092354524e-07,2.769303144054699e-07,2.934992558126817e-07,1.5216129571470245e-05
2.971594089272212e-07,2.821704291325486e-07,2.9554478409812697e-07,1.5257818100741915e-05
2.970050547253563e-07,2.8761894042666193e-07,2.975367397042741e-07,1.5292500232506525e-05
2.9689871719832156e-07,2.9326831700179927e-07,2.9947116856149557e-07,1.5319778341082758e-05
2.9684744687599514e-07,2.991097832691525e-07,3.013431280330733e-07,1.533938789886084e-05
2.968599115825245e-07,3.051312824673294e-07,3.031457361651984e-07,1.5351152909418725e-05
2.969448987771297e-07,3.1131572366417024e-07,3.048708607306735e-07,1.5354919054235285e-05
2.971094270448556e-07,3.1764115444973345e-07,3.065094804365475e-07,1.5350532434007565e-05
2.973576387477805e-07,3.240829838268792e-07,3.0805190847373774e-07,1.533784700199732e-05
2.9769042555447996e-07,3.306156366023324e-07,3.094890270378081e-07,1.5316743607754057e-05
2.9810586190592533e-07,3.372125570056872e-07,3.1081381580059297e-07,1.528715653740844e-05
2.985996545088562e-07,3.438462920719318e-07,3.120218827229838e-07,1.5249073478571923e-05
2.9916483590833013e-07,3.504894199479046e-07,3.131120809287496e-07,1.5202502699724374e-05
2.9979224976416514e-07,3.571148028243547e-07,3.140873244701287e-07,1.5147449539958856e-05
3.0047226963481844e-07,3.636946834980268e-07,3.1495299994303923e-07,1.5083940439751972e-05
3.011962075772117e-07,3.7020035519883435e-07,3.157136954193086e-07,1.5012100540557313e-05
3.019568192173985e-07,3.7660288862983625e-07,3.163716927143351e-07,1.4932229178951118e-05
3.027474436048832e-07,3.828735781076989e-07,3.1692774970610727e-07,1.4844788759514872e-05
3.0356030715882906e-07,3.889838979490386e-07,3.173829077638908e-07,1.4750314714020892e-05
3.043866034966802e-07,3.949058315270438e-07,3.177402503244182e-07,1.4649340378312063e-05
3.052185097085323e-07,4.006129884367893e-07,3.180053290711882e-07,1.4542374694806412e-05
3.060503043759516e-07,4.060814515109821e-07,3.181849497916252e-07,1.4429890086121406e-05
3.068774085125188e-07,4.112894449680071e-07,3.1828546467999375e-07,1.431230370064156e-05
3.0769474225741603e-07,4.162175833082575e-07,3.1831196383601736e-07,1.4189988171626057e-05
3.0849606412633825e-07,4.2085117210486726e-07,3.182686330873989e-07,1.406334427125466e-05
3.092740308194293e-07,4.2518313887058e-07,3.181589365122471e-07,1.3932938943172477e-05
3.1002026107172645e-07,4.292142687446704e-07,3.179848718418764e-07,1.3799625617206516e-05
3.1072680572052215e-07,4.329491370300048e-07,3.1774665836805265e-07,1.366452294954794e-05
3.113891522144478e-07,4.3639144554018076e-07,3.1744442899778717e-07,1.3528870838988977e-05
3.120070228579098e-07,4.395426136783863e-07,3.1708115297251e-07,1.3393873431558064e-05
3.125817424342969e-07,4.424026342732131e-07,3.1666418732308714e-07,1.326060262749617e-05
3.1311410966203016e-07,4.4497131656555225e-07,3.162046538245822e-07,1.3130054206406267e-05
3.1360427573996946e-07,4.4724900812206993e-07,3.157152688265613e-07,1.300336851936153e-05
3.140521426351142e-07,4.4923587628331784e-07,3.1520746758110716e-07,1.2882008807431744e-05
3.1445830656247394e-07,4.509305171325032e-07,3.1469019224995236e-07,1.2767719550817133e-05
3.1482483123903345e-07,4.5232989347257176e-07,3.141704277720981e-07,1.2662356798322995e-05
3.1515480314375665e-07,4.5343099063815134e-07,3.1365298566967286e-07,1.2567747716325647e-05
3.1545150568108394e-07,4.5423270078974706e-07,3.13139831538658e-07,1.2485600586448836e-05
3.157175468095076e-07,4.5473647962533064e-07,3.1263033742623393e-07,1.2417435946144826e-05
3.159541135136184e-07,4.54945278512611e-07,3.1212217435578197e-07,1.2364534131143026e-05
3.161617639491497e-07,4.548615102423154e-07,3.116124950003373e-07,1.2327907829265213e-05
3.163425241126667e-07,4.5448646302990897e-07,3.1109903001477215e-07,1.2308303994729605e-05
3.165017929250921e-07,4.538222774880632e-07,3.10580658477e-07,1.2306211250137919e-05
3.166499519709372e-07,4.528733758843216e-07,3.100577835300981e-07,1.2321838937980733e-05
3.168025490737327e-07,4.5164506811060207e-07,3.0953270413728573e-07,1.2355076796288502e-05
3.1697758938075546e-07,4.5014191450971043e-07,3.090091540633844e-07,1.2405486259667515e-05
3.1719171982595764e-07,4.4836799590133286e-07,3.0849065085887643e-07,1.2472354175885228e-05
3.1745770292890447e-07,4.4632855861789763e-07,3.0797899505508556e-07,1.2554795056183369e-05
3.1778365217730543e-07,4.440326568952487e-07,3.07473833082325e-07,1.2651875028725545e-05
3.1817372817165797e-07,4.4149506579955947e-07,3.069726293946742e-07,1.2762720851534525e-05
3.186296897075385e-07,4.387350231477848e-07,3.064706637210039e-07,1.2886567944642055e-05
3.191527813197603e-07,4.357734324285575e-07,3.0596120843203287e-07,1.3022743760393782e-05
3.197454610516175e-07,4.326314430255396e-07,3.054359973868486e-07,1.3170636687882272e-05
3.204115623772509e-07,4.2932962632980976e-07,3.0488611632549403e-07,1.3329682815649212e-05
3.21154637428993e-07,4.2588640968528963e-07,3.043027065204567e-07,1.3499344898287245e-05
3.219766890345214e-07,4.223167209588916e-07,3.036771363984848e-07,1.367905171871902e-05
3.228784018927264e-07,4.1863220175507357e-07,3.030015530154868e-07,1.3868115259078901e-05
3.238604235389615e-07,4.1484358614981314e-07,3.022700675398095e-07,1.406567055776679e-05
3.249249379703153e-07,4.109636032618038e-07,3.014802830190877e-07,1.427066255156648e-05
3.260758177177355e-07,4.070072261965896e-07,3.0063442714131715e-07,1.4481875655500335e-05
3.273172557404587e-07,4.0298994350860537e-07,2.9973876989525685e-07,1.4697980442191422e-05
3.2865214540011986e-07,3.989272697767108e-07,2.9880213786947733e-07,1.4917575568780262e-05
3.3008032131163676e-07,3.9483510676890616e-07,2.978351826497514e-07,1.5139223450060155e-05
3.315975098357695e-07,3.9072904692796137e-07,2.9685010242054065e-07,1.536147500612212e-05
3.331958903248865e-07,3.866231913037573e-07,2.958596341084813e-07,1.558288672269781e-05
3.348651921818963e-07,3.8252987431210363e-07,2.948752325402503e-07,1.5802032532959727e-05
3.365934949812754e-07,3.7845997267517607e-07,2.939058304766288e-07,1.601748872412e-05
3.3836840318338127e-07,3.744226378530747e-07,2.9295768013411157e-07,1.6227803305655226e-05
3.4017886935405045e-07,3.7042464969976243e-07,2.920343486740429e-07,1.6431497442285086e-05
3.420158345947041e-07,3.664703997080885e-07,2.9113644539150987e-07,1.662711493837194e-05
3.4387028197315725e-07,3.625626853384828e-07,2.9026159634204426e-07,1.6813300720335487e-05
3.457309027397609e-07,3.587032618649863e-07,2.8940537790768125e-07,1.698888138843725e-05
3.4758368367875965e-07,3.5489234110172637e-07,2.885631858624749e-07,1.7152908082809673e-05
3.494126761427245e-07,3.5112822226104434e-07,2.877327027395516e-07,1.730462066337632e-05
3.512007940856433e-07,3.4740832391630713e-07,2.869157580915634e-07,1.744335734094525e-05
3.5293060679604813e-07,3.437305313697995e-07,2.8611729927800433e-07,1.7568496849285935e-05
3.5458510922617134e-07,3.400937114532988e-07,2.853420505495588e-07,1.7679471992163393e-05
3.561485630221807e-07,3.364986241912934e-07,2.845922156121375e-07,1.7775806704786144e-05
3.5760779493199785e-07,3.329492894904908e-07,2.838675360935075e-07,1.7857124691704328e-05
3.589528588699893e-07,3.2945249114415586e-07,2.831663120257409e-07,1.7923127727775806e-05
3.601756006117432e-07,3.260156848581657e-07,2.824859314383981e-07,1.7973590841348912e-05
3.612680402769791e-07,3.2264566275698e-07,2.818228540549341e-07,1.800844728873098e-05
3.6222317081107384e-07,3.1934879160528934e-07,2.811728076299789e-07,1.8027932584977726e-05
3.630363463910909e-07,3.161318853401681e-07,2.805317401430888e-07,1.8032626718942926e-05
3.6370450093222887e-07,3.130018552152166e-07,2.798967724042359e-07,1.8023345508733498e-05
3.642244233771932e-07,3.09964220012925e-07,2.79266210441966e-07,1.8000999719781117e-05
3.6459233097178776e-07,3.070222862751432e-07,2.786401620896421e-07,1.7966500482205843e-05
3.6480425735224063e-07,3.041770664473701e-07,2.780224501799221e-07,1.7920739011055914e-05
3.6485583279611173e-07,3.014272425915206e-07,2.7742097059613684e-07,1.786469223724306e-05
3.6474218574852636e-07,2.9876929116642407e-07,2.7684594714543e-07,1.7799589170640592e-05
3.644590908215442e-07,2.961979429450758e-07,2.763088959080221e-07,1.7726949770626434e-05
3.6400384440460503e-07,2.9370726368995924e-07,2.7582224064875944e-07,1.7648457729815135e-05
3.6337481006826274e-07,2.9129191902947477e-07,2.753974783796032e-07,1.7565797776268805e-05
3.625710735250445e-07,2.8894744634535344e-07,2.750428109617101e-07,1.748053352699402e-05
3.6159278716062455e-07,2.866702048109205e-07,2.7476248670708974e-07,1.7394021842651094e-05
3.604422595759108e-07,2.844580832354348e-07,2.7455818931597965e-07,1.7307361806354196e-05
3.591256678027764e-07,2.8231078285538503e-07,2.7443126149663466e-07,1.7221384836033046e-05
3.5765303264192817e-07,2.8022913766099826e-07,2.743835670048197e-07,1.7136685673130995e-05
3.5603557623689717e-07,2.782144594018193e-07,2.7441646652105823e-07,1.7053674792218838e-05
3.542832405250374e-07,2.7626775306313484e-07,2.7453082476872394e-07,1.6972606592432178e-05
3.524039599797351e-07,2.743887114979079e-07,2.747293536863112e-07,1.689356258130742e-05
3.5040376187131585e-07,2.7257552946348584e-07,2.750180329166007e-07,1.6816432068632252e-05
3.482875136931569e-07,2.708255046011259e-07,2.7540427186738405e-07,1.674092588908967e-05
3.460603146430923e-07,2.6913586845486906e-07,2.7589364689451016e-07,1.6666609347325886e-05
3.437283618634231e-07,2.675048242944119e-07,2.764876916818423e-07,1.659294822247803e-05
3.4129894202963307e-07,2.659316082639877e-07,2.7718360563891685e-07,1.6519374419878408e-05
3.387804344508753e-07,2.644149251274173e-07,2.779752389221186e-07,1.644533909748172e-05
3.361827951351734e-07,2.629518626764926e-07,2.788539159056573e-07,1.637031685116358e-05
3.335177043712861e-07,2.615390897360628e-07,2.798088967127916e-07,1.6293784629448848e-05
3.3079758254050696e-07,2.601749094373385e-07,2.8082824880017297e-07,1.6215214984216877e-05
3.280339822507369e-07,2.588591994739093e-07,2.818998760157875e-07,1.6134075424268768e-05
3.25236391893868e-07,2.575913185959035e-07,2.8301203102754705e-07,1.6049819297652262e-05
3.2241215352833173e-07,2.563690343327276e-07,2.841533129837316e-07,1.596189129114728e-05
3.195670301778637e-07,2.551892621770691e-07,2.853126427648729e-07,1.5869764997542828e-05
3.1670569045408093e-07,2.5404886435503586e-07,2.864795978799469e-07,1.5773009402844107e-05
3.1383235036796514e-07,2.529445056594704e-07,2.8764425326978e-07,1.567137411219938e-05
3.109515844261845e-07,2.51872131659018e-07,2.8879593285534875e-07,1.5564839039453213e-05
3.0806878158785056e-07,2.5082713502157077e-07,2.899225886780347e-07,1.5453574876830522e-05
3.05189919272232e-07,2.498047998644393e-07,2.9101205284232375e-07,1.5337854351537272e-05
3.023209897713402e-07,2.4880017495090195e-07,2.920540671946054e-07,1.5217990584400131e-05
2.994676382802815e-07,2.478080311219863e-07,2.930414324490541e-07,1.5094309832649506e-05
2.9663480299556645e-07,2.468230508867347e-07,2.939693836569613e-07,1.4967140675674432e-05
2.938261913950417e-07,2.458395830236475e-07,2.948341839419117e-07,1.4836874061124744e-05
2.9104399760279643e-07,2.448517749467784e-07,2.956323595846131e-07,1.4704108773149606e-05
2.882890185135032e-07,2.4385531617536914e-07,2.963602520933753e-07,1.4569752983558002e-05
2.8556113521690286e-07,2.428493389894681e-07,2.970137444185673e-07,1.4435007480128265e-05
2.82860725098569e-07,2.4183561734623137e-07,2.97588394598811e-07,1.4301290773706708e-05
2.8019156634494897e-07,2.408160350559001e-07,2.980791598827276e-07,1.4170155073558566e-05
2.7756312838842943e-07,2.397915976346702e-07,2.9848009125650786e-07,1.4043217491517779e-05
2.749890149665896e-07,2.387625893615768e-07,2.987859609164149e-07,1.3922118457853327e-05
2.724828342997905e-07,2.3772803388395557e-07,2.9899555030392926e-07,1.3808458051136902e-05
2.700555746768243e-07,2.3668508883844213e-07,2.991130980266228e-07,1.3703668727686896e-05
2.677152060603855e-07,2.3562927340864282e-07,2.991462704259112e-07,1.3608902673178347e-05
2.654668434095682e-07,2.3455537467331605e-07,2.991034916226953e-07,1.352503445315143e-05
2.633134634128145e-07,2.3345890475319085e-07,2.989928999392652e-07,1.3452737553241584e-05
2.6125799768310273e-07,2.3233747854515963e-07,2.988221141951761e-07,1.3392528051625493e-05
2.5930557914307807e-07,2.3119129927197317e-07,2.985978057331907e-07,1.3344761061179707e-05
2.57463418542782e-07,2.3002339925656452e-07,2.9832505312407646e-07,1.3309648616020515e-05
2.5573840730802245e-07,2.2884001370216106e-07,2.980071454441157e-07,1.3287325118959698e-05
2.541353450480788e-07,2.2765006979365078e-07,2.9764649189666124e-07,1.3277907547611718e-05
2.526575583357191e-07,2.264641293292376e-07,2.9724570283486745e-07,1.3281516305324088e-05
2.513086581850673e-07,2.2529435410054002e-07,2.968071750484809e-07,1.3298263494131469e-05
2.5009259864030237e-07,2.2415498680007097e-07,2.963315628473393e-07,1.3328216700957302e-05
2.490120121291048e-07,2.2306107193897494e-07,2.958168952319972e-07,1.3371354538738233e-05
2.480678790694419e-07,2.220256259847733e-07,2.952589423983025e-07,1.3427529724989758e-05
2.472609264867089e-07,2.2105786624663628e-07,2.946523778244553e-07,1.3496451418087214e-05
2.465929863625017e-07,2.2016307687796158e-07,2.9399170128833603e-07,1.3577691443525177e-05
2.4606757191299427e-07,2.193430157245585e-07,2.932710357889433e-07,1.3670689765882482e-05
2.456887236966586e-07,2.185971975596179e-07,2.924837471225213e-07,1.3774735710169641e-05
2.45458622598134e-07,2.1792611928345055e-07,2.916238137767859e-07,1.388894110925476e-05
2.4537619769972355e-07,2.1733494258511896e-07,2.906888445768363e-07,1.4012230380987833e-05
2.454373053354944e-07,2.168341757995649e-07,2.8968154912592695e-07,1.4143349476266233e-05
2.45636094591708e-07,2.164371972461141e-07,2.8860791925291854e-07,1.428088505310668e-05
2.4596672362123016e-07,2.161577288476253e-07,2.874749901403249e-07,1.4423293316724164e-05
2.464241551269279e-07,2.1600848276987032e-07,2.8628984669663126e-07,1.4568943731395995e-05
2.4700410341613843e-07,2.1600028905499763e-07,2.850583999355235e-07,1.471616468789072e-05
2.477025393115902e-07,2.1614170439571623e-07,2.8378435260675567e-07,1.486326876025714e-05
2.485151515982725e-07,2.164390641803923e-07,2.8246945595310286e-07,1.5008560398203708e-05
2.494370586295742e-07,2.168965737591105e-07,2.8111400332212586e-07,1.5150343632356107e-05
2.504624421929081e-07,2.17516527118504e-07,2.7971696630739013e-07,1.5286937539946514e-05
2.515854541173318e-07,2.182991608048346e-07,2.782766370709542e-07,1.5416697149620326e-05
2.528025362459311e-07,2.1924187431968235e-07,2.767914692971661e-07,1.553803209513842e-05
2.5411270509723e-07,2.203390145086751e-07,2.752601768122723e-07,1.564942068608726e-05
2.5551550922517917e-07,2.2158229793649998e-07,2.7368240375673943e-07,1.5749431802822432e-05
2.5700973467115633e-07,2.229608769975512e-07,2.7206070498289754e-07,1.583676768137807e-05
2.5859287510098574e-07,2.2446164176483717e-07,2.704010725174731e-07,1.5910313396643626e-05
2.602600986423265e-07,2.260706870860207e-07,2.687111006790965e-07,1.596915600880471e-05
2.6200383208383e-07,2.2777486092409053e-07,2.66998378181406e-07,1.6012559355628485e-05
2.6381523781481125e-07,2.2956237098561192e-07,2.652698284553243e-07,1.6039923790085453e-05
2.656866098893151e-07,2.3142397735033822e-07,2.6353156316144785e-07,1.6050764355053132e-05
2.676125136640872e-07,2.333547574918397e-07,2.617899254838291e-07,1.604471754286819e-05
2.6958882662312196e-07,2.353538399960179e-07,2.6005283692333714e-07,1.6021565049821204e-05
2.716109804202887e-07,2.374228505081264e-07,2.5832972978961765e-07,1.5981239262564766e-05
2.736729118585102e-07,2.395650894961165e-07,2.566305255303081e-07,1.5923804185369822e-05
2.757667139886444e-07,2.417841373192532e-07,2.5496448540530057e-07,1.5849439843293427e-05
2.778824832549615e-07,2.440817425853145e-07,2.533390305231211e-07,1.5758421816744674e-05
2.8000908059117434e-07,2.464570101404759e-07,2.517593503216184e-07,1.5651106087589434e-05
2.821360439609105e-07,2.489067861468138e-07,2.5022925536004357e-07,1.5527965172187336e-05
2.842546418994205e-07,2.514264139808065e-07,2.487523047396184e-07,1.5389644387704266e-05
2.8635718389822177e-07,2.540109494439532e-07,2.473316302671133e-07,1.5236961615260706e-05
2.884361501197893e-07,2.566563103289113e-07,2.459684965110813e-07,1.5070845561292465e-05
2.9048385667104714e-07,2.5935920803554987e-07,2.446616405339253e-07,1.4892271966751153e-05
2.924923094197737e-07,2.621154560983485e-07,2.43407809002676e-07,1.4702251451994766e-05
2.944528900757971e-07,2.649179408577577e-07,2.422022817708621e-07,1.4501888607766919e-05
2.963557455504384e-07,2.67755807266759e-07,2.410394021701343e-07,1.429248176251982e-05
2.981896050488702e-07,2.706157147408348e-07,2.399131839333428e-07,1.4075569290252026e-05
2.999422332700904e-07,2.7348510010441826e-07,2.3881770170312987e-07,1.3852850856488709e-05
3.0160090823862534e-07,2.763549251927176e-07,2.3774783182054357e-07,1.3626027793348845e-05
3.031528787873912e-07,2.792200416975644e-07,2.3669998563039693e-07,1.3396663742720947e-05
3.045859173925692e-07,2.8207895123350237e-07,2.356714894260189e-07,1.3166126608577745e-05
3.05888703506732e-07,2.84933364440667e-07,2.34659230689536e-07,1.2935598823421722e-05
3.070506946959707e-07,2.8778600433087147e-07,2.3365948602728683e-07,1.2706107051194025e-05
3.08062051796984e-07,2.906380135466284e-07,2.326689333273449e-07,1.2478571015364646e-05
3.0891474333620647e-07,2.9348798095966164e-07,2.316852241653831e-07,1.2253918264729401e-05
3.096039479672239e-07,2.963326276795784e-07,2.3070694795159913e-07,1.2033247275489725e-05
3.1012790815262657e-07,2.991688485379552e-07,2.2973428552407817e-07,1.1817908086540725e-05
3.1048705407055713e-07,3.019959047253769e-07,2.2876998333837428e-07,1.1609408220883866e-05
3.106838194474855e-07,3.048156173787666e-07,2.2781957712053966e-07,1.1409216128088095e-05
3.107223581579492e-07,3.076300332875764e-07,2.268911869280406e-07,1.1218593782829961e-05
3.106080777517525e-07,3.104385237430061e-07,2.25994574954638e-07,1.1038564364920945e-05
3.103475640640302e-07,3.13236491345742e-07,2.2513929615744924e-07,1.0870080845763068e-05
3.0994807712445175e-07,3.160162052603775e-07,2.2433335275038295e-07,1.07142954401894e-05
3.0941702457655466e-07,3.187691086490224e-07,2.2358280508767175e-07,1.0572696000911152e-05
3.087623524724927e-07,3.214877823598708e-07,2.22891723258216e-07,1.0447033845493223e-05
3.079926317597799e-07,3.2416638789064217e-07,2.222623608552002e-07,1.0339173187935524e-05
3.071165176408832e-07,3.2680094309703225e-07,2.2169535293302713e-07,1.025095944126973e-05
3.0614302673214487e-07,3.29389795024626e-07,2.2118964709955893e-07,1.0184099871629829e-05
3.050822543902216e-07,3.319330132762844e-07,2.2074242461685448e-07,1.0140047139031373e-05
3.0394498548694906e-07,3.344312980037122e-07,2.2034933800786538e-07,1.0119912669512943e-05
3.027417498266283e-07,3.3688591766072896e-07,2.2000484482212659e-07,1.012443012493816e-05
3.014827802021683e-07,3.3929946540170685e-07,2.1970250752619728e-07,1.0153953398940193e-05
3.001778287279392e-07,3.416764451713985e-07,2.1943564162069373e-07,1.0208459654796486e-05
2.9883472581483497e-07,3.44023676091016e-07,2.19197957699684e-07,1.0287545113383755e-05
2.974584907851545e-07,3.463497508070919e-07,2.1898351571874328e-07,1.0390433417565227e-05
2.9605188822172816e-07,3.4866242058409485e-07,2.1878623025388645e-07,1.0516019743938573e-05
2.946163343517929e-07,3.5096598970585514e-07,2.18599503596275e-07,1.0662941154675556e-05
2.931527970158405e-07,3.53261412740822e-07,2.184165630359766e-07,1.082965694661716e-05
2.9166220561120125e-07,3.555479185881164e-07,2.1823129932714481e-07,1.1014538262361442e-05
2.901458366808629e-07,3.5782344773624355e-07,2.1803853235142707e-07,1.1215958221796793e-05
2.88607324414672e-07,3.600837665300592e-07,2.1783370310931468e-07,1.1432360207497635e-05
2.870545894796175e-07,3.6232200142391393e-07,2.1761294384504772e-07,1.1662290660412918e-05
2.854999988664592e-07,3.64529314702044e-07,2.1737325534427963e-07,1.1904397320595509e-05
2.8396067684740874e-07,3.666961525385529e-07,2.1711181876092445e-07,1.2157389087081516e-05
2.824591434989868e-07,3.6881327687442007e-07,2.1682498179797788e-07,1.241995837819268e-05
2.8102232576920584e-07,3.7087218779779786e-07,2.165084403685336e-07,1.2690701427374471e-05
2.796781207820185e-07,3.7286555731745546e-07,2.1615880922340088e-07,1.296807862210757e-05
2.7845129341966077e-07,3.7478786695140813e-07,2.1577474544810096e-07,1.3250434931084268e-05
2.77361784269344e-07,3.7663527174515094e-07,2.1535636091182326e-07,1.3536086318686208e-05
2.764251147343128e-07,3.7840538422549637e-07,2.1490413588561592e-07,1.3823427159106333e-05
2.7565267196216586e-07,3.800987060645805e-07,2.1441853945992307e-07,1.4110975673583066e-05
2.750518116514637e-07,3.817204026671761e-07,2.1390004486419736e-07,1.4397342119062615e-05
2.746260149730507e-07,3.832790689366603e-07,2.1334902795259682e-07,1.4681182632790271e-05
2.7437454019773724e-07,3.847827879623354e-07,2.127659109975054e-07,1.4961189490176654e-05
2.742924708906691e-07,3.862368781488485e-07,2.1215202880467453e-07,1.5236101727922306e-05
2.743729549934841e-07,3.8764497628131493e-07,2.11510021643326e-07,1.5504688494625433e-05
2.746103423449497e-07,3.890110328470275e-07,2.1084321055126701e-07,1.5765708544982268e-05
2.750005209177067e-07,3.903408363148112e-07,2.1015559231583923e-07,1.6017892735144143e-05
2.755385741514257e-07,3.91642528517456e-07,2.094520498322611e-07,1.6259963180552688e-05
2.762178145715145e-07,3.9292488382311674e-07,2.0873713803980178e-07,1.649067060656095e-05
2.770313888751009e-07,3.941943136285579e-07,2.080138494541861e-07,1.6708851684241232e-05
2.779737330975537e-07,3.954538497777861e-07,2.0728399110179852e-07,1.691352028296541e-05
2.790407617700779e-07,3.967051409310344e-07,2.0654891356416712e-07,1.7103956900153172e-05
2.80229555558327e-07,3.9795004226291117e-07,2.058093199162422e-07,1.7279726052128638e-05
2.815371174860177e-07,3.991893919097347e-07,2.0506496274603e-07,1.7440602318584906e-05
2.829590649120233e-07,4.004212782206481e-07,2.043152965744977e-07,1.758644569660275e-05
2.844902061260909e-07,4.016407153786911e-07,2.035608144647344e-07,1.771708924488083e-05
2.861259605556543e-07,4.0284115416485064e-07,2.0280389076438261e-07,1.7832290571802745e-05
2.878626470085604e-07,4.0401751293086593e-07,2.0204891931225481e-07,1.793174061126388e-05
2.896962819679145e-07,4.0516758991103366e-07,2.0130250300823426e-07,1.801510094022067e-05
2.916206799128961e-07,4.06290878550706e-07,2.005730900134564e-07,1.808211187947057e-05
2.936267635360449e-07,4.073869838873272e-07,1.998697091972244e-07,1.813280170586666e-05
2.957042564140851e-07,4.0845362520217094e-07,1.992010368329796e-07,1.816765667372529e-05
2.9784465949638024e-07,4.094847442856133e-07,1.9857473929288369e-07,1.818759334195894e-05
3.000428484435704e-07,4.104706763742657e-07,1.979970876602869e-07,1.8193787470385293e-05
3.022955586303326e-07,4.113995767042304e-07,1.974738630996937e-07,1.8187498591789333e-05
3.0459833553015645e-07,4.122584435150869e-07,1.9701118574385266e-07,1.8169956657628032e-05
3.0694386289643567e-07,4.130340594675601e-07,1.966146295493057e-07,1.814237755373097e-05
3.0932240505073506e-07,4.137141057116787e-07,1.962878697208277e-07,1.810612681724378e-05
3.117227785772296e-07,4.1428759833601274e-07,1.9603220631088015e-07,1.80628743712776e-05
3.141329949623083e-07,4.1474456632066826e-07,1.958470157349945e-07,1.8014578990928563e-05
3.165410779185581e-07,4.1507538292487296e-07,1.9573063503862398e-07,1.7963339809689966e-05
3.18935776070874e-07,4.1527017075080383e-07,1.9568094324262054e-07,1.7911222566128418e-05
3.2130645102077105e-07,4.1531937127870326e-07,1.956959141153068e-07,1.7860102004423403e-05
3.236426196115932e-07,4.1521509632960893e-07,1.95774262096688e-07,1.7811550862568084e-05
3.2593425101885386e-07,4.1495143669566325e-07,1.9591548378562501e-07,1.776681146792528e-05
3.281718804676145e-07,4.1452405146305863e-07,1.9612012733419327e-07,1.7726839144383608e-05
3.303458212461687e-07,4.1393086798047634e-07,1.9639063780928173e-07,1.7692366940947794e-05
3.324471210015477e-07,4.131732047978169e-07,1.9673084597558733e-07,1.7663947760711583e-05
3.34470409198209e-07,4.122547377780245e-07,1.971442227888948e-07,1.764195868135121e-05
3.3641445790661716e-07,4.111788914449099e-07,1.9763328913914718e-07,1.762657554656972e-05
3.3827942638296325e-07,4.099475842281777e-07,1.982001007326345e-07,1.7617736853767544e-05
3.4006391406480067e-07,4.085616880338196e-07,1.988460952251705e-07,1.7615127779651026e-05
3.41763608203092e-07,4.0702201684159453e-07,1.9957163192752132e-07,1.761821566490818e-05
3.433710070567635e-07,4.053302818411571e-07,2.003765757356236e-07,1.7626331800129212e-05
3.4487571447174e-07,4.0348956954106076e-07,2.0126126038617405e-07,1.763875126114905e-05
3.4626533733010284e-07,4.0150441420567544e-07,2.0222600738896817e-07,1.7654724456071898e-05
3.4752714683647967e-07,3.993808911398145e-07,2.0326987456163431e-07,1.767346930567648e-05
3.486500155428661e-07,3.9712661483727863e-07,2.0439080500736688e-07,1.7694175504016793e-05
3.496252140396116e-07,3.947505304487227e-07,2.055868473033705e-07,1.7716034727872102e-05
3.504457366459422e-07,3.9226296301148507e-07,2.0685703080338157e-07,1.7738260463707353e-05
3.5110576692456464e-07,3.896755429515876e-07,2.082017760537912e-07,1.7760081818682833e-05
3.516013711482214e-07,3.869998726403272e-07,2.0962285275260216e-07,1.7780729158174435e-05
3.519314185373765e-07,3.8424582131026134e-07,2.1112309654271818e-07,1.7799424749444086e-05
3.520983052763928e-07,3.8142147001057565e-07,2.127060252240929e-07,1.7815388763776686e-05
3.521095521382897e-07,3.785346257782368e-07,2.143748035635615e-07,1.7827863758733084e-05
3.5197883843793845e-07,3.755942431469946e-07,2.1613098826198282e-07,1.7836130993711948e-05
3.517247463444513e-07,3.72610330931373e-07,2.1797443086566443e-07,1.7839499717202944e-05
3.513696509138569e-07,3.6959230405230345e-07,2.199042295121407e-07,1.7837294839146257e-05
3.5093959234009643e-07,3.6654781538045546e-07,2.219186902574553e-07,1.782887384704725e-05
3.504621288549358e-07,3.634835524770827e-07,2.240141911797677e-07,1.7813655757629327e-05
3.4996311533401856e-07,3.6040653880129436e-07,2.2618545117599434e-07,1.7791121354612384e-05
3.4946649570466265e-07,3.5732443159419007e-07,2.2842685196234717e-07,1.7760808276625815e-05
3.489957112595387e-07,3.5424575196528725e-07,2.307323971880695e-07,1.7722349408136475e-05
3.485732905587471e-07,3.511807018850549e-07,2.3309477193119359e-07,1.7675528337521715e-05
3.4822004141478237e-07,3.481413002608512e-07,2.355049605458048e-07,1.7620310391272418e-05
3.4795444702537e-07,3.4514026092349463e-07,2.379528675353888e-07,1.7556859249264763e-05
3.4779068414029667e-07,3.421893389381917e-07,2.4042893389556675e-07,1.7485560195956788e-05
3.47737303824015e-07,3.39297643371038e-07,2.4292541379005463e-07,1.740703164660219e-05
3.4779841158746556e-07,3.3647067461801446e-07,2.4543632044177315e-07,1.732207107441984e-05
3.479748027361788e-07,3.3371089097218835e-07,2.4795659037590864e-07,1.7231529022922008e-05
3.482638094125576e-07,3.31019196859073e-07,2.5048125381670964e-07,1.7136193950525274e-05
3.4866046804788256e-07,3.283960997977877e-07,2.530051296748139e-07,1.7036750410460527e-05
3.4916007436576364e-07,3.258418568551735e-07,2.5552254177653705e-07,1.6933778566453077e-05
3.497599647089798e-07,3.233557058307461e-07,2.5802677360646356e-07,1.6827758074284153e-05
3.504618283061184e-07,3.2093515481749147e-07,2.605101192906073e-07,1.671907535033782e-05
3.512742371810938e-07,3.185763147060933e-07,2.629645418888455e-07,1.6608053594699402e-05
3.5221084019096716e-07,3.162751120388395e-07,2.6538218607309005e-07,1.6495058518816905e-05
3.532842977728145e-07,3.140283047325843e-07,2.677556408007341e-07,1.6380625426928965e-05
3.5450182075581485e-07,3.118339111115173e-07,2.7007787687187083e-07,1.6265433140207028e-05
3.558651481099486e-07,3.096914472686297e-07,2.723416839440895e-07,1.6150131160418023e-05
3.5737193335156457e-07,3.07601790971375e-07,2.745390561433265e-07,1.6035207674307985e-05
3.59015746455124e-07,3.0556702494145426e-07,2.766608832605073e-07,1.5921002980048468e-05
3.6078593596996217e-07,3.035910731176579e-07,2.786968861201265e-07,1.5807879951517677e-05
3.626686168553713e-07,3.016802817493636e-07,2.806356774507315e-07,1.5696485723018152e-05
3.646476543906365e-07,2.998429751144063e-07,2.8246514563754876e-07,1.558791513687988e-05
3.667049724139608e-07,2.980878418417011e-07,2.8417365672980264e-07,1.5483647602437158e-05
3.688207966462368e-07,2.964215626066796e-07,2.857516164552717e-07,1.5385348320696477e-05
3.709748382401783e-07,2.948475668895977e-07,2.871920806532653e-07,1.529468774906126e-05
3.7314841609938396e-07,2.933669510987172e-07,2.884898511281941e-07,1.5213228395900235e-05
3.753250535825587e-07,2.919807786488686e-07,2.8964033161196624e-07,1.514235064985438e-05
3.774892256684075e-07,2.90692345399149e-07,2.9064035500301605e-07,1.508318663361203e-05
3.7962726423910607e-07,2.895072813758668e-07,2.914901487415195e-07,1.5036555129352786e-05
3.8173061837401903e-07,2.884315856737063e-07,2.921931579259623e-07,1.500291012787076e-05
3.837970404651157e-07,2.8746999521225073e-07,2.927547159002206e-07,1.498232850529633e-05
3.85830078425608e-07,2.866258351119943e-07,2.931826232912885e-07,1.497455593314893e-05
3.8783965347690594e-07,2.859023964749464e-07,2.93487824109188e-07,1.4979093362458347e-05
3.898407308367345e-07,2.8530442793141735e-07,2.936827264742599e-07,1.499528310323166e-05
3.9184804909334326e-07,2.8483766012938305e-07,2.9377887411600235e-07,1.5022372605529545e-05
3.938719078555001e-07,2.845069018851866e-07,2.937862235767812e-07,1.505956589791916e-05
3.959186053097832e-07,2.843150480465768e-07,2.937139663768949e-07,1.5106088211791627e-05
3.9799277943842775e-07,2.8426448360185237e-07,2.935711820671053e-07,1.5161262381835215e-05
4.000978770921619e-07,2.8436006439806753e-07,2.933662566202437e-07,1.5224554526346256e-05
4.0223496782524704e-07,2.846107251721036e-07,2.931059409763385e-07,1.5295574754695055e-05
4.044026269955945e-07,2.850281531732979e-07,2.9279476363616927e-07,1.537406527790345e-05
4.0659780657994047e-07,2.856244255071963e-07,2.924347472649703e-07,1.5459877295846224e-05
4.088162501220681e-07,2.8641041835482397e-07,2.9202590765768644e-07,1.5552910125984013e-05
4.110530002960158e-07,2.87395696238062e-07,2.915674233884956e-07,1.5653020562979763e-05
4.1330301619868133e-07,2.885905595842713e-07,2.910590212038093e-07,1.5759927950261735e-05
4.1556234095417453e-07,2.900078511625555e-07,2.9050282814713725e-07,1.5873149592244786e-05
4.17830142232235e-07,2.916616087100035e-07,2.899047288248945e-07,1.5992028354606442e-05
4.2010845421109826e-07,2.9356361513725573e-07,2.892737609773281e-07,1.6115845993679777e-05
4.2239879632844523e-07,2.9572011432067253e-07,2.8862023553158364e-07,1.6243903409336546e-05
4.246998268903635e-07,2.981306171092546e-07,2.879541390874266e-07,1.637550570244819e-05
4.2700753608373547e-07,3.007894285485432e-07,2.8728437904196065e-07,1.6509922393312674e-05
4.293162028205957e-07,3.036877669791677e-07,2.8661865010338676e-07,1.664638922388455e-05
4.316199675255684e-07,3.0681494863530513e-07,2.859631252409155e-07,1.6784141663767733e-05
4.339146130050995e-07,3.10158927127233e-07,2.853214972175001e-07,1.6922429389008262e-05
4.361981220555785e-07,3.137064232972344e-07,2.846941253072516e-07,1.7060473174508123e-05
4.384697364140042e-07,3.17443664940594e-07,2.840779589883614e-07,1.719739790719591e-05
4.4072751681203777e-07,3.213580068431668e-07,2.8346704796303386e-07,1.7332206772777936e-05
4.4296599923759575e-07,3.2543852106298104e-07,2.828533892012095e-07,1.7463800490912605e-05
4.451766232040878e-07,3.296746064635684e-07,2.8222835735263906e-07,1.7591025974254382e-05
4.473497767161993e-07,3.340540075046077e-07,2.8158475608385574e-07,1.7712767694030625e-05
4.4947504516210956e-07,3.385622640980879e-07,2.809188177215217e-07,1.7828048164355868e-05
4.5153997896990186e-07,3.431843959731894e-07,2.8023237114501605e-07,1.7936048489528398e-05
4.5353061778343933e-07,3.4790767949666555e-07,2.795340459517361e-07,1.8036041010075515e-05
4.5543457941560877e-07,3.527232983914957e-07,2.788363992725791e-07,1.812734900602733e-05
4.572445456298851e-07,3.57625200213519e-07,2.7815094762657344e-07,1.820939835606019e-05
4.5895990997802804e-07,3.6260682520925924e-07,2.774862474927631e-07,1.8281781464794927e-05
4.605858695567147e-07,3.676584720763389e-07,2.768488872867152e-07,1.834425345135286e-05
4.6213115522274095e-07,3.727665893102738e-07,2.7624401208216054e-07,1.839666701296169e-05
4.636056434725655e-07,3.7791405313351543e-07,2.75674953570674e-07,1.843891146208815e-05
4.6501841977682477e-07,3.8308062270743815e-07,2.751439187725612e-07,1.8470968025826982e-05
4.6637756600377886e-07,3.8824313449616646e-07,2.74653270937867e-07,1.8493073011950256e-05
4.6769113182218333e-07,3.933760109157925e-07,2.7420528782961416e-07,1.85057880238936e-05
4.6896631352256963e-07,3.984525740778904e-07,2.7380116340187337e-07,1.850989552467241e-05
4.702068280767339e-07,4.0344594743887174e-07,2.734409662935421e-07,1.850625298720756e-05
4.714112462191186e-07,4.083296312569146e-07,2.7312441479024317e-07,1.8495686690849912e-05
4.725730658704901e-07,4.1307925563925406e-07,2.72852675455161e-07,1.8478939379324485e-05
4.736821076625665e-07,4.176748967111368e-07,2.7263066283157237e-07,1.8456733472510573e-05
4.747269251036691e-07,4.2210144205562327e-07,2.724666978020237e-07,1.8429908021305907e-05
4.7569702042052157e-07,4.263461113282612e-07,2.7236887467821694e-07,1.8399459028788448e-05
4.7658358532519424e-07,4.3039561498740903e-07,2.723421553500818e-07,1.836644372585057e-05
4.773791447253517e-07,4.34235231777129e-07,2.723883456815497e-07,1.8331852454613606e-05
4.780773966275016e-07,4.3784963705603676e-07,2.725072178962381e-07,1.8296506020956093e-05
4.786725282903033e-07,4.4122474358811645e-07,2.726976270526618e-07,1.826098770197842e-05
4.791572281146531e-07,4.4434883855882866e-07,2.729581521549127e-07,1.822561982418794e-05
4.795215660697282e-07,4.472120663120944e-07,2.7328704530663705e-07,1.8190474958175214e-05
4.797539926098728e-07,4.4980632759812347e-07,2.7368236208989417e-07,1.8155404281119186e-05
4.798430780622079e-07,4.5212594460682247e-07,2.741416776356429e-07,1.8120087992950172e-05
4.797790580686992e-07,4.541666334963333e-07,2.746606676886886e-07,1.808410261206784e-05
4.79554693675813e-07,4.5592324789888e-07,2.752322797528985e-07,1.80469692694673e-05
4.791648682931798e-07,4.5738905472285003e-07,2.7584765978921173e-07,1.80081640096563e-05
4.786054093224365e-07,4.58556628309373e-07,2.764982631661864e-07,1.7967105990775096e-05
4.77871776203224e-07,4.59419164449391e-07,2.771782479909158e-07,1.792315206056845e-05
4.769582284782746e-07,4.5997262321024045e-07,2.778857885287905e-07,1.7875623155671928e-05
4.75858655919839e-07,4.602187492076943e-07,2.786227090600615e-07,1.782386769409372e-05
4.7456810083298796e-07,4.601671592594475e-07,2.7939334289570925e-07,1.7767337060947032e-05
4.7308245214846105e-07,4.598352554298809e-07,2.8020278515347445e-07,1.7705639665251984e-05
4.7139711913863926e-07,4.5924634899359477e-07,2.810543689234789e-07,1.763857061204028e-05
4.695071449606896e-07,4.584259439081087e-07,2.8194770848582046e-07,1.7566127927737618e-05
4.674084255924204e-07,4.573971107767629e-07,2.828786842839117e-07,1.748849564576377e-05
4.650994205439303e-07,4.5617798139248646e-07,2.838408212981239e-07,1.7405974783252106e-05
4.625831205464333e-07,4.547821720094381e-07,2.8482626413961484e-07,1.7318884337492147e-05
4.598668728602677e-07,4.53220019932723e-07,2.858258674063829e-07,1.722748143767266e-05
4.569602777357587e-07,4.5149941168150203e-07,2.868294037863614e-07,1.7131955606851187e-05
4.538742259038418e-07,4.496271412752463e-07,2.87826331070037e-07,1.7032501800069784e-05
4.506203428308122e-07,4.476117406246996e-07,2.88806421272902e-07,1.6929390994336277e-05
4.472096703583681e-07,4.454656529084852e-07,2.89759477399439e-07,1.6822972747787477e-05
4.436524814618093e-07,4.43204587701009e-07,2.906748395302144e-07,1.6713640911669006e-05
4.3995892819767256e-07,4.4084642064302063e-07,2.9154150631417906e-07,1.660181515888059e-05
4.3613838455095083e-07,4.3841073939700535e-07,2.923481638516657e-07,1.6487941925130206e-05
4.321982557820137e-07,4.3591672336263045e-07,2.930831690085712e-07,1.637247695946608e-05
4.2814385394266744e-07,4.333814121859498e-07,2.937356671510503e-07,1.625581713596355e-05
4.239788888526211e-07,4.308223414133303e-07,2.942972943718288e-07,1.6138220807976308e-05
4.1970623861795003e-07,4.282620950396893e-07,2.947626074124072e-07,1.601978532271572e-05
4.153296547601319e-07,4.257295295813239e-07,2.951279290323316e-07,1.5900473734476737e-05
4.108564804503492e-07,4.232572142445834e-07,2.953899577678268e-07,1.5780145774042154e-05
4.063001449612581e-07,4.208776612018115e-07,2.95545189084924e-07,1.565860291631633e-05
4.016809152305997e-07,4.1861965674148936e-07,2.9558996584756927e-07,1.5535665349932182e-05
3.97024884917696e-07,4.1650610130829247e-07,2.955206409638205e-07,1.5411234520979465e-05
3.9236215456125995e-07,4.1455448288540065e-07,2.9533391685167014e-07,1.528528665135153e-05
3.8772481073347655e-07,4.127788453972798e-07,2.950274044744858e-07,1.5157816131782764e-05
3.831447544408038e-07,4.11191962088324e-07,2.945998617299189e-07,1.5028796269672175e-05
3.786516438124552e-07,4.0980610729595257e-07,2.9405138730836983e-07,1.4898179674547024e-05
3.742718756445217e-07,4.086310179902308e-07,2.9338423237834764e-07,1.4765900167529865e-05
3.7002860404260613e-07,4.076718417929599e-07,2.926029741077754e-07,1.4631860549903266e-05
3.659415644301565e-07,4.0693019071625795e-07,2.917137831365628e-07,1.4495960494603284e-05
3.620263946065293e-07,4.064058985155592e-07,2.907246485405709e-07,1.4358240614279612e-05
3.5829467847807534e-07,4.06096207091212e-07,2.89646090053213e-07,1.4219088453817444e-05
3.547548181413468e-07,4.059941021443245e-07,2.8849095247765477e-07,1.4079311917246106e-05
3.5141202336771694e-07,4.0608869230679626e-07,2.8727368957441523e-07,1.394001933555928e-05
3.4826764548593673e-07,4.063665997794861e-07,2.8600904366090024e-07,1.380244650055137e-05
3.453199477947685e-07,4.068131139111385e-07,2.847100499787268e-07,1.3667820269994272e-05
3.425658487826592e-07,4.074135027430661e-07,2.833868161483854e-07,1.3537267444140475e-05
3.400015492709023e-07,4.081531968828988e-07,2.820466736067679e-07,1.3411848976599116e-05
3.3762210162246733e-07,4.090166978164313e-07,2.8069522284119117e-07,1.3292721458622474e-05
3.354213561819665e-07,4.099871784404493e-07,2.793387316466402e-07,1.3181229984139674e-05
3.3339246174450737e-07,4.110465642617534e-07,2.779875215038457e-07,1.3078836200742446e-05
3.3152832877849695e-07,4.1217529587769407e-07,2.7665764973475517e-07,1.2986988776083345e-05
3.2982257810722554e-07,4.133526739258793e-07,2.7536942112001226e-07,1.2907017107103493e-05
3.2827098346877237e-07,4.1455871710585046e-07,2.7414417639566285e-07,1.2840052597093248e-05
3.268720093100086e-07,4.157773275539072e-07,2.730009044723753e-07,1.2786974926961238e-05
3.2562626234840697e-07,4.169981569569789e-07,2.71954080915728e-07,1.2748392730734773e-05
3.245353802835594e-07,4.182144190326871e-07,2.71013938706185e-07,1.2724673562566435e-05
3.236003038546516e-07,4.194189668684261e-07,2.701875557244491e-07,1.271601069742441e-05
3.2282055618865036e-07,4.206031499271132e-07,2.6947855063400224e-07,1.2722482385106572e-05
3.2219603023060907e-07,4.2175817159596187e-07,2.688863546161299e-07,1.274406903459244e-05
3.21728367023422e-07,4.2287589751113243e-07,2.68406588524625e-07,1.2780630227504345e-05
3.214188489955626e-07,4.2394893911197256e-07,2.6803195525853245e-07,1.2831854647844826e-05
3.2126591745700024e-07,4.2497116238956274e-07,2.677532264426463e-07,1.2897208242383493e-05
3.2126721666549783e-07,4.259374737806436e-07,2.675608893967108e-07,1.2975944612720896e-05
3.214239706632e-07,4.2684198140538077e-07,2.67446535031322e-07,1.3067203599659905e-05
3.2174117692027827e-07,4.2767650418160476e-07,2.674033504188185e-07,1.3170120196546714e-05
3.2222377820531176e-07,4.2843083058416297e-07,2.674273283364156e-07,1.3283873816455315e-05
3.2287434017058825e-07,4.2909393022245007e-07,2.675182274475193e-07,1.3407702576693147e-05
3.236933000917746e-07,4.296551146498825e-07,2.6767759226485e-07,1.3540919210932762e-05
3.246790466084896e-07,4.301041377424033e-07,2.679057956653229e-07,1.3682918858695425e-05
3.258272240020957e-07,4.3043006008400145e-07,2.682014119359025e-07,1.3833153205042734e-05
3.271308685357573e-07,4.3062037935443535e-07,2.6856194317244127e-07,1.39910657739429e-05
3.2858209594236695e-07,4.30661514035843e-07,2.689839951300391e-07,1.415601643763827e-05
3.3017358687970786e-07,4.305397229559368e-07,2.694636516673491e-07,1.432722663908786e-05
3.3189801388452304e-07,4.302416375795853e-07,2.699970856732131e-07,1.4503770113764029e-05
3.3374664681514374e-07,4.2975520129559773e-07,2.705804778827599e-07,1.4684613174295486e-05
3.357092106664726e-07,4.29070463541311e-07,2.7121047069256957e-07,1.4868659617193716e-05
3.377745195739261e-07,4.2817866632373466e-07,2.718852039724864e-07,1.5054773827592872e-05
3.399302775899356e-07,4.2707107201899037e-07,2.7260414369575184e-07,1.5241812548352142e-05
3.4216187367296355e-07,4.257396278523052e-07,2.7336703690098425e-07,1.5428679870464927e-05
3.4445192716519185e-07,4.241781762031021e-07,2.741728197637988e-07,1.5614359226376693e-05
3.4678166824300306e-07,4.2238211187221e-07,2.7501872310364524e-07,1.5797880985531425e-05
3.491323548837911e-07,4.2034720881406824e-07,2.759006785573101e-07,1.5978285606642874e-05
3.5148515893162585e-07,4.1806947213068117e-07,2.768147925647436e-07,1.615464484662593e-05
3.538207525992777e-07,4.1554580646740323e-07,2.7775768740949807e-07,1.6326084811401875e-05
3.5611989788553794e-07,4.1277439300860793e-07,2.78725113391729e-07,1.6491764641592013e-05
3.583640545331424e-07,4.097552465931167e-07,2.797107398525049e-07,1.6650842749255938e-05
3.6053493261228206e-07,4.0649132833752594e-07,2.8070629339826174e-07,1.6802453549393977e-05
3.6261434371441217e-07,4.0298919172147727e-07,2.81702051061443e-07,1.694569581794436e-05
3.64585566869764e-07,3.9925889825613203e-07,2.826871717559218e-07,1.707963329075296e-05
3.664350822899239e-07,3.9531337382203713e-07,2.836507465234385e-07,1.7203319545268085e-05
3.6815299406019676e-07,3.9116731904781257e-07,2.845829257056468e-07,1.7315851308584993e-05
3.6973213817211354e-07,3.868366466431631e-07,2.85474468835708e-07,1.7416405575426275e-05
3.711681085764008e-07,3.823385872091851e-07,2.8631571096521865e-07,1.750422285236602e-05
3.724603180455155e-07,3.776921735111611e-07,2.870969762472076e-07,1.7578571879964e-05
3.7361166188930525e-07,3.729191165962132e-07,2.878096210052941e-07,1.763877183690812e-05
3.746280979567151e-07,3.6804382467602796e-07,2.884458145650802e-07,1.7684331886962478e-05
3.7551972544535396e-07,3.630923139031743e-07,2.8899759548809423e-07,1.7715144055900068e-05
3.763002873712338e-07,3.580919618715172e-07,2.8945662638103225e-07,1.7731532396833844e-05
3.76983761452578e-07,3.53072235323303e-07,2.8981440258226025e-07,1.7734109525501597e-05
3.7758142092281406e-07,3.48064393225889e-07,2.900622496084711e-07,1.7723607637466168e-05
3.781018486026865e-07,3.4310003208823426e-07,2.901912542666395e-07,1.7700778198076068e-05
3.785521230810345e-07,3.38210341997155e-07,2.901924991441179e-07,1.766634238418996e-05
3.789383518161906e-07,3.33426154668778e-07,2.900578598128543e-07,1.762097687907256e-05
3.792667351838112e-07,3.287766390546288e-07,2.8978105404149885e-07,1.7565303318849586e-05
3.795448336426868e-07,3.242876072625828e-07,2.8935816992216177e-07,1.7499864434297197e-05
3.7978094559944185e-07,3.199829565016305e-07,2.887872589374083e-07,1.742511513488307e-05
3.799824510705751e-07,3.158872302005653e-07,2.8806748574884684e-07,1.7341439525817206e-05
3.801551372185586e-07,3.1202459466082657e-07,2.871990655774333e-07,1.7249164785797794e-05
3.803033836406008e-07,3.084159483441892e-07,2.861841928794698e-07,1.714856154883471e-05
3.80430052025721e-07,3.050784345237152e-07,2.850279551380939e-07,1.703986049710611e-05
3.805355526744122e-07,3.0202761871594073e-07,2.837383305603164e-07,1.6923297640281478e-05
3.806171358948482e-07,2.992807231126541e-07,2.823250171954698e-07,1.6799161996391168e-05
3.806695713120196e-07,2.968599699452439e-07,2.807981750423596e-07,1.6667821871467887e-05
3.806867030027148e-07,2.947955768450862e-07,2.791679164262245e-07,1.6529717059845692e-05
3.806637649017802e-07,2.931271721603858e-07,2.774447092086199e-07,1.6385306670808092e-05
3.80600444753225e-07,2.9190129882295287e-07,2.756408599642981e-07,1.6234998813500987e-05
3.8050186122693683e-07,2.9116476708647137e-07,2.7377116994978964e-07,1.6079115445720088e-05
3.803756503761933e-07,2.9095824556294285e-07,2.7185181590462606e-07,1.5917902751938975e-05
3.802287857366544e-07,2.913145815402693e-07,2.698995442224855e-07,1.575155069725696e-05
3.800675304864807e-07,2.922597519340342e-07,2.679309613870562e-07,1.5580197579712245e-05
3.7989850269367866e-07,2.938117312794776e-07,2.659606335524098e-07,1.5403927679827895e-05
3.7972831126036526e-07,2.959784786977527e-07,2.6400003614463184e-07,1.5222778021520518e-05
3.7956327379709634e-07,2.98759336018122e-07,2.620588606370329e-07,1.5036764272007453e-05
3.794113556324172e-07,3.0214845420143856e-07,2.601467257583094e-07,1.4845918757456925e-05
3.7928545763074e-07,3.061357585140862e-07,2.582736034565276e-07,1.4650307440890658e-05
3.7920560220468773e-07,3.10706892519704e-07,2.564493183721341e-07,1.445001022056455e-05
3.791975923919518e-07,3.158446011191616e-07,2.546828966707203e-07,1.4245097841324435e-05
3.792880233893285e-07,3.2152851478762137e-07,2.5298225567496647e-07,1.4035631994345953e-05
3.794994761208357e-07,3.277327787542447e-07,2.513543093422051e-07,1.3821686220986285e-05
3.7984841929551e-07,3.344253264439456e-07,2.498055389618664e-07,1.3603399174154653e-05
3.8034439288723385e-07,3.415692639356157e-07,2.4834294271775067e-07,1.3381036582499236e-05
3.809897329530807e-07,3.491244285241372e-07,2.4697513250061196e-07,1.3154990181500392e-05
3.817806182667581e-07,3.570493177156041e-07,2.457131581991467e-07,1.292572252200204e-05
3.82709081219269e-07,3.653033816843347e-07,2.445696795474707e-07,1.2693719206117755e-05
3.83764673264137e-07,3.738471436482453e-07,2.4355642363194453e-07,1.2459460254905655e-05
3.8493568607508007e-07,3.826395542050556e-07,2.426821485715755e-07,1.2223418544943402e-05
3.862111498352702e-07,3.9163628822637523e-07,2.419523381174781e-07,1.1986076629839042e-05
3.8758276480419225e-07,4.007906608440485e-07,2.413699173385329e-07,1.1747923291366052e-05
3.890442448882626e-07,4.10054333351656e-07,2.4093579444771327e-07,1.1509453779647384e-05
3.905886992158462e-07,4.19376945858659e-07,2.406488669729353e-07,1.1271221329586216e-05
3.922080191122274e-07,4.2870689859234407e-07,2.405058981239811e-07,1.1033912325662222e-05
3.938969033708495e-07,4.3799332148095886e-07,2.405014073087787e-07,1.0798410661350004e-05
3.956582374984608e-07,4.4718698555617077e-07,2.406277509685204e-07,1.0565858406843684e-05
3.975032759526716e-07,4.562394933474488e-07,2.408752343124533e-07,1.0337672541094878e-05
3.994457868914189e-07,4.651026675465836e-07,2.41231980431042e-07,1.0115452558228712e-05
4.014957825314654e-07,4.7373042231181076e-07,2.4168410268465497e-07,9.900805563609e-06
4.036578041345614e-07,4.820830548740489e-07,2.422166360864344e-07,9.695185819437594e-06
4.0593430989748344e-07,4.901303010044165e-07,2.4281520394216106e-07,9.499811169587358e-06
4.083299524812851e-07,4.978495852972633e-07,2.43467347767177e-07,9.315651440927157e-06
4.1085169101570563e-07,5.052215501158736e-07,2.441621132519103e-07,9.14345376660044e-06
4.1350535796832097e-07,5.12227330870355e-07,2.4488885958690485e-07,8.983775955484012e-06
4.1629324565403045e-07,5.188477315961815e-07,2.456368095797466e-07,8.837043942274804e-06
4.192140236494656e-07,5.250627999698129e-07,2.463949143660156e-07,8.703649013133832e-06
4.2226372890354354e-07,5.308525456542807e-07,2.471518008508101e-07,8.583993747715184e-06
4.254372042570882e-07,5.36198388385215e-07,2.4789600013800664e-07,8.478420850856962e-06
4.287284103459032e-07,5.410829779959868e-07,2.486158377292284e-07,8.387141594994122e-06
4.321290158159672e-07,5.454886945390914e-07,2.4929920171199414e-07,8.310276138191918e-06
4.356271155636492e-07,5.493974536044746e-07,2.499344524558148e-07,8.24797661927576e-06
4.392071643769122e-07,5.52792264126259e-07,2.5051235220862897e-07,8.200598448125974e-06
4.428511093454012e-07,5.556587494081264e-07,2.510269871065185e-07,8.168875067017888e-06
4.4653994100081386e-07,5.579853502846907e-07,2.514749312876573e-07,8.153961370840747e-06
4.502544011898408e-07,5.597623777548753e-07,2.518549169160868e-07,8.157293903869686e-06
4.539749827534797e-07,5.609811856904161e-07,2.521687714124494e-07,8.180377742405099e-06
4.5768236744654615e-07,5.616346815454369e-07,2.524213375252221e-07,8.224589415895782e-06
4.61358103458024e-07,5.617192815838888e-07,2.526194850251998e-07,8.291008149757996e-06
4.649839985840161e-07,5.612368417211175e-07,2.527718196132256e-07,8.380290054361881e-06
4.6854046573920346e-07,5.601941996941832e-07,2.5288800098621696e-07,8.492612937182215e-06
4.7200583388035594e-07,5.586006885191352e-07,2.5297720174063967e-07,8.627694274234066e-06
4.753574508472394e-07,5.564666591413344e-07,2.5304706158744804e-07,8.784854761223038e-06
4.785739764077583e-07,5.538039895937222e-07,2.53103642915909e-07,8.963106822449532e-06
4.816373322571457e-07,5.506274226374619e-07,2.5315211463400004e-07,9.161261744544032e-06
4.845329693467935e-07,5.469550085488212e-07,2.5319682636090543e-07,9.378036211516569e-06
4.872487103762093e-07,5.428067610380416e-07,2.5324048743806117e-07,9.612131326992736e-06
4.897728947613369e-07,5.382037059402611e-07,2.532848984972939e-07,9.862284256549002e-06
4.920930429250515e-07,5.331688829571676e-07,2.5333327896029484e-07,1.0127308503801344e-05
4.941962108421462e-07,5.277280883001484e-07,2.533909501730257e-07,1.0406115083772356e-05
4.960700538153568e-07,5.219086682099503e-07,2.534635780141435e-07,1.0697695404823594e-05
4.977030451089719e-07,5.157375235180376e-07,2.535551803675799e-07,1.1001069858072252e-05
4.990842651987849e-07,5.092398454745848e-07,2.536675742398581e-07,1.1315234778044307e-05
5.002040010145526e-07,5.024390707446716e-07,2.538010446709619e-07,1.1639132698766138e-05
5.010547787726704e-07,4.953578779773689e-07,2.5395495019048535e-07,1.197162651753995e-05
5.016322523596665e-07,4.880195392704791e-07,2.541283379626196e-07,1.2311452911675315e-05
5.019365408621849e-07,4.804491746411538e-07,2.54321508507933e-07,1.2657181979664686e-05
5.019729795249345e-07,4.7267536431325903e-07,2.545366985656842e-07,1.3007224765421604e-05
5.017501246880449e-07,4.64731573405754e-07,2.547762137837851e-07,1.3359890830801438e-05
5.012759260220234e-07,4.5665528072761183e-07,2.550404620359356e-07,1.3713482086817854e-05
5.005556336974387e-07,4.484850480319846e-07,2.553279331998957e-07,1.4066389018689936e-05
4.995931499793232e-07,4.4025902463649254e-07,2.5563624912061885e-07,1.4417127160709872e-05
4.983936994799129e-07,4.320160592520565e-07,2.559629304207141e-07,1.4764308407006518e-05
4.969645110096017e-07,4.237977259817498e-07,2.563058325744373e-07,1.510661005611257e-05
4.953135954504357e-07,4.156507737703288e-07,2.566646967574065e-07,1.5442779791609274e-05
4.934501141479973e-07,4.0762877864590007e-07,2.5704271578194697e-07,1.5771650557915747e-05
4.913864005050367e-07,3.997914972414733e-07,2.574453102381311e-07,1.609211394078688e-05
4.891373521877567e-07,3.922028022987552e-07,2.578779965730907e-07,1.640306097861591e-05
4.867170849059089e-07,3.849279575181811e-07,2.5834603313209875e-07,1.6703360914353863e-05
4.841368362747437e-07,3.780303694835914e-07,2.5885406877059744e-07,1.6991905922773278e-05
4.814048343638545e-07,3.7156851219878787e-07,2.59405061155346e-07,1.726768120857102e-05
4.785267553119403e-07,3.6559448721079993e-07,2.6000069124616516e-07,1.7529818165250208e-05
4.755065884800368e-07,3.601551623269213e-07,2.6064248643242377e-07,1.777763599830902e-05
4.72347795342195e-07,3.5529321900510346e-07,2.6133119273025745e-07,1.8010676507893303e-05
4.6905462742128103e-07,3.510451310786461e-07,2.620657851244089e-07,1.8228675987024663e-05
4.656335218225916e-07,3.474391542941699e-07,2.628437405279888e-07,1.843145183513692e-05
4.620938109715204e-07,3.444978665407408e-07,2.6366121618708537e-07,1.861879047527013e-05
4.584470965866284e-07,3.422428527437027e-07,2.645124564511232e-07,1.879040996912673e-05
4.5470615567475365e-07,3.406961071916852e-07,2.6538932113865574e-07,1.894597344367385e-05
4.508846725099013e-07,3.3987703944853216e-07,2.662814076373365e-07,1.9085104084834465e-05
4.469974453943387e-07,3.397973598747777e-07,2.671763555072475e-07,1.920739482900408e-05
4.4306009916149227e-07,3.4045705849908927e-07,2.6806010078836853e-07,1.931247676812884e-05
4.390885277749689e-07,3.418439621081592e-07,2.689178433004469e-07,1.940019786790617e-05
4.35098994793135e-07,3.439364351190619e-07,2.697357868666805e-07,1.9470784011555623e-05
4.3110931291862056e-07,3.467068589206561e-07,2.7050220003877487e-07,1.9524800277521648e-05
4.271400990980923e-07,3.501240628243927e-07,2.71207603482989e-07,1.9562957293432933e-05
4.2321384260693606e-07,3.5415368896122116e-07,2.7184521242333853e-07,1.958593490590416e-05
4.193516595601855e-07,3.5875679528907253e-07,2.724109359378244e-07,1.959431550787695e-05
4.1557081417465507e-07,3.638890699345173e-07,2.72901800328657e-07,1.958868942663175e-05
4.118846722896529e-07,3.6950256087603773e-07,2.733139949110369e-07,1.956990836981058e-05
4.0830389936263146e-07,3.7554930044300157e-07,2.736420974113169e-07,1.953926852976708e-05
4.0483769331068466e-07,3.8198615906986813e-07,2.738797058336439e-07,1.9498462489996853e-05
4.0149459975781114e-07,3.8878180067947504e-07,2.740209044286357e-07,1.944938918220212e-05
3.982825853556348e-07,3.959241191825592e-07,2.740610761301507e-07,1.939395640572406e-05
3.95208582111071e-07,4.0342207392149026e-07,2.739968896842029e-07,1.9333928902093678e-05
3.922783455757649e-07,4.112984349597649e-07,2.738272574932853e-07,1.927084816924859e-05
3.894966163328135e-07,4.195779370253313e-07,2.735543425191525e-07,1.920600943862464e-05
3.868667741932813e-07,4.282782061739352e-07,2.73182547408027e-07,1.9140454723173466e-05
3.843904086521503e-07,4.374072579949864e-07,2.7271689786713467e-07,1.9074974997502054e-05
3.820676656852254e-07,4.469667844124557e-07,2.721620828811155e-07,1.9010128753603512e-05
3.7989763824862425e-07,4.569576433566371e-07,2.71521734234734e-07,1.8946255686728532e-05
3.778776945736185e-07,4.673841778603082e-07,2.7079888865413925e-07,1.888346973132523e-05
3.760021529922553e-07,4.782552746247207e-07,2.699976352271814e-07,1.8821660044074984e-05
3.742616006739769e-07,4.895805944902122e-07,2.691234946730101e-07,1.8760530430126146e-05
3.726440507360531e-07,5.013631608586808e-07,2.681820368085297e-07,1.869967740272808e-05
3.7113868200670655e-07,5.135930031065991e-07,2.671780152705621e-07,1.863869484869824e-05
3.6974034462129724e-07,5.262451771284283e-07,2.661160131856961e-07,1.8577271894617408e-05
3.6845099744617155e-07,5.392811148696417e-07,2.650012807329373e-07,1.851523939752433e-05
3.672775357833315e-07,5.526510562026479e-07,2.638396035298193e-07,1.8452566862459508e-05
3.662293270528772e-07,5.662977363481393e-07,2.6263691749098944e-07,1.838933641685854e-05
3.653174529715387e-07,5.801613680933108e-07,2.614001573389432e-07,1.832568923209187e-05
3.6455431343932533e-07,5.941823144521581e-07,2.601389837214361e-07,1.826175615938837e-05
3.639520936052639e-07,6.082994452605182e-07,2.588663920040713e-07,1.8197614870976565e-05
3.635209702633193e-07,6.2244784348193e-07,2.575979684335304e-07,1.8133268325318308e-05
3.6326822517602855e-07,6.365590252150902e-07,2.563513965878007e-07,1.8068622376950765e-05
3.631975671756282e-07,6.505632828544019e-07,2.55146501124716e-07,1.8003501913709725e-05
3.6330817776227607e-07,6.643934351108623e-07,2.540046330668853e-07,1.7937722202463466e-05
3.6359460396742344e-07,6.779888434488516e-07,2.529467207583426e-07,1.787113336869133e-05
3.64047460434298e-07,6.912970481914057e-07,2.519906301744613e-07,1.7803581022794173e-05
3.6465376930029847e-07,7.042717202074263e-07,2.511496292437477e-07,1.7734843833358182e-05
3.653973975361482e-07,7.168691572122685e-07,2.504332508446794e-07,1.766463093976167e-05
3.6626023023140356e-07,7.290456639766716e-07,2.498488281166673e-07,1.759263143012512e-05
3.6722343091106756e-07,7.407560404058042e-07,2.4940142657092036e-07,1.7518539379830934e-05
3.6826830843443066e-07,7.519538149716942e-07,2.490932224953371e-07,1.7442028793243397e-05
3.693766993995187e-07,7.625931848921402e-07,2.4892448055884124e-07,1.736273217717996e-05
3.705314701643688e-07,7.72630143112198e-07,2.488959739064307e-07,1.7280262113666208e-05
3.717187253543521e-07,7.820216675302795e-07,2.4901045497543566e-07,1.7194258674388944e-05
3.729302026373547e-07,7.907248162996294e-07,2.492718600592089e-07,1.71044411773231e-05
3.741618328979723e-07,7.98697110915505e-07,2.4968340263951364e-07,1.7010674157793963e-05
3.754102070946594e-07,8.058976742245119e-07,2.50246252462908e-07,1.691302007691457e-05
3.7667130879257786e-07,8.122881674322698e-07,2.50960005755936e-07,1.6811696736058356e-05
3.779402862272449e-07,8.178331129150324e-07,2.518239705828676e-07,1.670695711136835e-05
3.7921068858130286e-07,8.224997330807977e-07,2.5283708592613714e-07,1.659902847928988e-05
3.804747860508393e-07,8.262577849862266e-07,2.539966392444302e-07,1.6488157725823706e-05
3.8172507150914476e-07,8.290805615278848e-07,2.552973091035846e-07,1.6374670899931475e-05
3.8295544498035045e-07,8.309480747018241e-07,2.567310318674255e-07,1.6258982884533087e-05
3.8416150975742283e-07,8.31849576113963e-07,2.582879696678988e-07,1.6141561044687688e-05
3.8534095346656454e-07,8.317818361775129e-07,2.5995853356953e-07,1.6022881300902925e-05
3.864943483588982e-07,8.307454542946609e-07,2.6173433909317735e-07,1.5903478986060542e-05
3.87624009861094e-07,8.287430883961752e-07,2.63606776706013e-07,1.5784088529151878e-05
3.887307366892157e-07,8.257800462250889e-07,2.6556514960923374e-07,1.5665673304195882e-05
3.8981213858134533e-07,8.218654132358609e-07,2.6759651335155445e-07,1.554927841745476e-05
3.9086367080643357e-07,8.170120191819066e-07,2.696873356226813e-07,1.5435852567449094e-05
3.918805238476702e-07,8.112359382462944e-07,2.718249030572142e-07,1.5326152257203412e-05
3.928589984048979e-07,8.045566066570397e-07,2.7399675125455215e-07,1.5220789718308402e-05
3.9379679271844297e-07,7.969980656713559e-07,2.761893094946081e-07,1.5120439570943576e-05
3.9469352051270646e-07,7.885931590215928e-07,2.7838720429491704e-07,1.5026033533033456e-05
3.955527987320593e-07,7.793886631648098e-07,2.805732723274285e-07,1.4938739894286625e-05
3.9638437824602364e-07,7.694443309594052e-07,2.8272935409898785e-07,1.4859777728798581e-05
3.972041141966996e-07,7.588254564542207e-07,2.848378550549561e-07,1.4790234384162741e-05
3.980313342267596e-07,7.475970855701953e-07,2.868832584167557e-07,1.4730944678035788e-05
3.9888507481331184e-07,7.358241288666873e-07,2.888525589026789e-07,1.4682428090439033e-05
3.997809084992569e-07,7.235744752263238e-07,2.9073448022643754e-07,1.4644878353133136e-05
4.007288938477161e-07,7.109223550472451e-07,2.925181330759024e-07,1.4618194751524286e-05
4.0173264662066477e-07,6.979514927257661e-07,2.941920596699937e-07,1.4602052930480005e-05
4.027892507418189e-07,6.847558544083481e-07,2.957443400141769e-07,1.4595996249540051e-05
4.0388985242210997e-07,6.714348871645011e-07,2.971632441625335e-07,1.4599490115817089e-05
4.050212412225184e-07,6.580867287627263e-07,2.984374501675852e-07,1.4611908787575675e-05
4.061679520369267e-07,6.448068332742352e-07,2.9955566281736843e-07,1.4632492975635351e-05
4.073132354591642e-07,6.31692179978059e-07,3.005063579494813e-07,1.4660331194319669e-05
4.084388452207175e-07,6.188456214121423e-07,3.0127845647885506e-07,1.4694397398068107e-05
4.0952572898795975e-07,6.063759154285291e-07,3.0186230659632076e-07,1.4733642185623053e-05
4.1055563518083093e-07,5.94392634614235e-07,3.022498791708724e-07,1.47770829047335e-05
4.1151218816630614e-07,5.830020054589654e-07,3.024347416588593e-07,1.482383572523216e-05
4.123811732613795e-07,5.723074367019999e-07,3.024127449005063e-07,1.4873098217908498e-05
4.1315034507719726e-07,5.624082105798973e-07,3.021834967096107e-07,1.4924135699589914e-05
4.1380945954658975e-07,5.533926398069512e-07,3.017516847937323e-07,1.4976286293379834e-05
4.1435001068427523e-07,5.453316062635684e-07,3.011265977637562e-07,1.502895004606347e-05
4.1476407942982323e-07,5.382783848987719e-07,3.0031978585309854e-07,1.5081549064676187e-05
4.150442857587899e-07,5.322743322306568e-07,2.993427084235845e-07,1.5133490053353793e-05
4.151853292501024e-07,5.273552048553534e-07,2.9820617672518844e-07,1.5184147955174106e-05
4.151840709515368e-07,5.235540645255721e-07,2.969214120316385e-07,1.5232859839547372e-05
4.1503774705489067e-07,5.209006751553886e-07,2.9550053846297996e-07,1.5278940355734732e-05
4.147437673052817e-07,5.194190281406933e-07,2.939560004739929e-07,1.5321722528981233e-05
4.1430120879528547e-07,5.191245636625989e-07,2.923008489307885e-07,1.536057763808028e-05
4.1371090691557726e-07,5.200215578608442e-07,2.905497644998789e-07,1.5394899665742006e-05
4.129749743979279e-07,5.221017286159365e-07,2.8871845640376723e-07,1.5424102175178918e-05
4.120982660713553e-07,5.253448115402832e-07,2.8682193971827104e-07,1.5447652056809094e-05
4.110897072675677e-07,5.297191502271813e-07,2.848738409508081e-07,1.5465097212184773e-05
4.0996140416690505e-07,5.351830912390951e-07,2.8288656970735733e-07,1.547605503449355e-05
4.087276473455561e-07,5.416894586522296e-07,2.808717989540613e-07,1.5480202473088985e-05
4.074043944966578e-07,5.491898838463463e-07,2.7884086866479227e-07,1.5477300560542062e-05
4.060080492951741e-07,5.576356414646987e-07,2.7680445604137826e-07,1.5467220629834937e-05
4.0455417763188527e-07,5.669752744386756e-07,2.74772225831047e-07,1.5449955196942112e-05
4.030564764295371e-07,5.771503598159364e-07,2.727532558457526e-07,1.542565471015733e-05
4.01526303852991e-07,5.880925708086234e-07,2.707568393814948e-07,1.5394684821300306e-05
3.9997433899663883e-07,5.997238493470379e-07,2.687924907421299e-07,1.5357607710085737e-05
3.984137730434504e-07,6.119580696352571e-07,2.6686844824790393e-07,1.5315055865753072e-05
3.968608951754616e-07,6.247031323569132e-07,2.649903698652707e-07,1.526760924012563e-05
3.95331355486449e-07,6.37862806514192e-07,2.631620837415634e-07,1.521576992775842e-05
3.9383638056362534e-07,6.513382190987589e-07,2.613871857381944e-07,1.5159999343278924e-05
3.923825624505911e-07,6.650317813245511e-07,2.596692364802972e-07,1.5100744732106607e-05
3.909739779344351e-07,6.788540885618149e-07,2.580107263713065e-07,1.5038432331154547e-05
3.896139655749182e-07,6.927296988443868e-07,2.56412733207933e-07,1.497345486956669e-05
3.883052923559187e-07,7.065986289940505e-07,2.548755382970819e-07,1.4906221573334708e-05
3.870500830938589e-07,7.204126400080307e-07,2.533991470489523e-07,1.4837273084004185e-05
3.858518172398218e-07,7.341277099910069e-07,2.5198376417402965e-07,1.4767322984124744e-05
3.847179275903471e-07,7.476974163872315e-07,2.506300803649844e-07,1.4697145979142686e-05
3.8365900356433503e-07,7.610703742790663e-07,2.493391776499897e-07,1.4627420696587088e-05
3.826849846199413e-07,7.741903025121013e-07,2.4811282415727987e-07,1.4558653180973215e-05
3.818021767424718e-07,7.869965179111248e-07,2.469539978601087e-07,1.4491233306889347e-05
3.8101240613108585e-07,7.994255054561934e-07,2.458670431676663e-07,1.4425627770804795e-05
3.8031357933463176e-07,8.114156710601142e-07,2.4485712342429535e-07,1.4362585584146766e-05
3.797006188694709e-07,8.229135191100931e-07,2.439287687279648e-07,1.4303171301220975e-05
3.7916601545433606e-07,8.338765149605085e-07,2.4308510696465265e-07,1.4248625801378372e-05
3.7870059245441496e-07,8.442712122230899e-07,2.423291162400173e-07,1.4200201447663697e-05
3.78294953043001e-07,8.540685906030466e-07,2.4166478821180854e-07,1.4159046039249649e-05
3.7794162335953787e-07,8.632396490614781e-07,2.4109637427320946e-07,1.4126126243644367e-05
3.776395104723809e-07,8.717535095502084e-07,2.4062761620667237e-07,1.4102174633013387e-05
3.7740116114802997e-07,8.795776365303566e-07,2.402620301707913e-07,1.4087652071877743e-05
3.772586301124628e-07,8.866796201061955e-07,2.4000298778267805e-07,1.4082732744196863e-05
3.7726468357889945e-07,8.930297673402952e-07,2.3985416609673327e-07,1.408732466893037e-05
3.7749191708561136e-07,8.986025017641937e-07,2.3982134647211144e-07,1.4101105894746842e-05
3.780322682261195e-07,9.033762782528435e-07,2.399142062714431e-07,1.4123542512627371e-05
3.789943733091709e-07,9.073326004749916e-07,2.4014625632020674e-07,1.4153897268578945e-05
3.8049555923627797e-07,9.104546798427864e-07,2.405327504259021e-07,1.4191262070012252e-05
3.8264991075398457e-07,9.127272506756479e-07,2.410877789510287e-07,1.4234621574502414e-05
3.855576493960541e-07,9.141375250473179e-07,2.4182174813679965e-07,1.4282931057891392e-05
3.892993657709029e-07,9.146767297200606e-07,2.427404661519176e-07,1.4335190768324154e-05
3.939345294824623e-07,9.14343776583606e-07,2.438461474920301e-07,1.4390501503506836e-05
3.9950276089698243e-07,9.131497062215929e-07,2.4513946018191545e-07,1.4448088995598032e-05
4.0602656716917326e-07,9.111178226364271e-07,2.466222693904646e-07,1.450730484400725e-05
4.1351443292282036e-07,9.082792944402227e-07,2.482996819234688e-07,1.4567623676847049e-05
4.219654056454808e-07,9.046691905815737e-07,2.5017875650378176e-07,1.4628633440959866e-05
4.313772966284915e-07,9.003258048917791e-07,2.522648056816149e-07,1.4690003259351041e-05
4.4175770706843947e-07,8.95291550858837e-07,2.545591897396379e-07,1.4751430798014976e-05
4.531328427871168e-07,8.896116732378884e-07,2.570593311537022e-07,1.481258174626182e-05
4.655488899637425e-07,8.833303152724013e-07,2.597588372948575e-07,1.4873044669887985e-05
4.790661768490899e-07,8.764880052497507e-07,2.626475537307508e-07,1.4932341716856397e-05
4.937511445480597e-07,8.691224993631844e-07,2.657133520040207e-07,1.4989991493761008e-05
5.096705310458411e-07,8.612695526835289e-07,2.689454551661922e-07,1.5045557286788406e-05
5.268870530003088e-07,8.529618407114202e-07,2.7233590528469337e-07,1.5098650574375632e-05
5.45453186083416e-07,8.442288043364281e-07,2.758773213904525e-07,1.5148927028746195e-05
5.654037832473535e-07,8.350983057072451e-07,2.7955998741236354e-07,1.5196101466999174e-05
5.867501837479901e-07,8.255982065363724e-07,2.833716965000872e-07,1.523995639027606e-05
6.094761632925616e-07,8.157565697171238e-07,2.87299302426068e-07,1.5280332990391933e-05
6.335371703788705e-07,8.056008170184768e-07,2.9132950915232577e-07,1.5317141778828365e-05
6.588638066462427e-07,7.951573204710854e-07,2.954487069628955e-07,1.535038577997126e-05
6.853673339018992e-07,7.844509111683966e-07,2.9964230364498646e-07,1.5380151598467065e-05
7.129456092940692e-07,7.735033969926873e-07,3.038938356396057e-07,1.5406572870770997e-05
7.414880707733845e-07,7.623331618522153e-07,3.0818440760893733e-07,1.542979218579047e-05
7.708799079985964e-07,7.509569961527113e-07,3.124927553613676e-07,1.54499299253305e-05
8.010088096921997e-07,7.393921777851565e-07,3.1679626702236124e-07,1.546705149272471e-05
8.317719051017801e-07,7.276572793397268e-07,3.2107295695560693e-07,1.548113513989794e-05
8.630758417556818e-07,7.157730494406705e-07,3.253033151156382e-07,1.5492091115943187e-05
8.948303618134176e-07,7.037659844036355e-07,3.294707715857461e-07,1.5499847034828672e-05
9.26941881790093e-07,6.916748069258268e-07,3.335605253740697e-07,1.5504406585602852e-05
9.593110577062201e-07,6.79555017899574e-07,3.3755766856562014e-07,1.550581679255318e-05
9.918324081770958e-07,6.674760802068124e-07,3.4144614569727156e-07,1.5504095407956508e-05
1.0243934120190664e-06,6.555134103292922e-07,3.4520919363577265e-07,1.5499198720155482e-05
1.05687448025694e-06,6.43740906981306e-07,3.488301635136932e-07,1.549108813372785e-05
1.089150290898735e-06,6.322254443967614e-07,3.5229283634312336e-07,1.547986134330917e-05
1.121091397853185e-06,6.210238279994025e-07,3.5558140916787726e-07,1.5465809496323893e-05
1.1525672480369863e-06,6.101837157814049e-07,3.5868078417100724e-07,1.544936607079059e-05
1.1834501751235598e-06,5.997462793230584e-07,3.615783225752938e-07,1.5431032260288094e-05
1.2136159886211444e-06,5.897461765202803e-07,3.6426652256942346e-07,1.541130747836042e-05
1.2429403967407619e-06,5.80209347571845e-07,3.667437077403954e-07,1.539062720917851e-05
1.2712964847028999e-06,5.711523395078092e-07,3.6901128082634383e-07,1.5369330023770205e-05
1.298556152440413e-06,5.62583673111786e-07,3.7107018282135146e-07,1.534764842177586e-05
1.324594174078415e-06,5.545059469486597e-07,3.72920475719628e-07,1.5325697807586816e-05
1.3492926939598895e-06,5.469186816468765e-07,3.74563484032091e-07,1.5303461481542015e-05
1.3725441406517417e-06,5.398228382381965e-07,3.7600216280221573e-07,1.5280794109987036e-05
1.3942521681081094e-06,5.332272837864186e-07,3.772390050410043e-07,1.5257438203185352e-05
1.4143310543553044e-06,5.271545564021991e-07,3.782749832460154e-07,1.5233027981414752e-05
1.4327046347637429e-06,5.216411450178098e-07,3.7911030172687824e-07,1.5207090635139044e-05
1.4493069805679057e-06,5.167316428394272e-07,3.7974496842288634e-07,1.5179063896955415e-05
1.4640839443870687e-06,5.124725761147443e-07,3.801797223831878e-07,1.514832157112567e-05
1.4769925151539311e-06,5.089096612283705e-07,3.804184942673438e-07,1.5114201276227667e-05
1.4879985454421725e-06,5.06085022264162e-07,3.804698979446714e-07,1.5076037061740686e-05
1.4970751585779972e-06,5.040325987387019e-07,3.8034538282889423e-07,1.5033190752338904e-05
1.5042028108928532e-06,5.027767462737117e-07,3.8005636968398343e-07,1.4985071249410099e-05
1.509370383301137e-06,5.02335894978486e-07,3.7961339132598403e-07,1.4931139249186947e-05
1.5125751661443497e-06,5.027263224443144e-07,3.790265007150147e-07,1.48709140541604e-05
1.513821738357934e-06,5.039632590029235e-07,3.783048469972525e-07,1.4803992371296764e-05
1.5131217785680438e-06,5.060606683268118e-07,3.774557078083158e-07,1.4730060092015936e-05
1.5104947237405814e-06,5.090298551008691e-07,3.764848549795037e-07,1.4648882432600216e-05
1.505967920885587e-06,5.128759556975114e-07,3.7539844641627155e-07,1.4560284126571054e-05
1.4995766745659104e-06,5.175933347252374e-07,3.7420491244263187e-07,1.446413824156448e-05
1.4913647922301291e-06,5.231622413263517e-07,3.7291553471717034e-07,1.4360368594988412e-05
1.4813838680958442e-06,5.295480221955891e-07,3.71543447134732e-07,1.4248952154030396e-05
1.4696907431423692e-06,5.367029345381131e-07,3.7010246570928406e-07,1.4129904106388654e-05
1.4563456908573162e-06,5.445696200182446e-07,3.6860742971564824e-07,1.4003250819747766e-05
1.441412271142395e-06,5.530839035356304e-07,3.6707489066949634e-07,1.3869020376480335e-05
1.4249573516618719e-06,5.621758450845071e-07,3.655215977371451e-07,1.3727281788166153e-05
1.4070504555424124e-06,5.717704405213642e-07,3.639618982654194e-07,1.3578216644009182e-05
1.3877626990208806e-06,5.817880449159937e-07,3.624077258863505e-07,1.3422142637815807e-05
1.3671659700940126e-06,5.921447713916472e-07,3.6087135217718575e-07,1.325945684022356e-05
1.3453331302818044e-06,6.027559053047706e-07,3.5936766147791405e-07,1.3090563460684427e-05
1.3223399166385491e-06,6.135415871761552e-07,3.57914091021986e-07,1.291584177254323e-05
1.2982669138959689e-06,6.244291381098402e-07,3.5652893613630537e-07,1.2735679764530146e-05
1.2731984497671087e-06,6.35350861208851e-07,3.552293838408682e-07,1.255057151557214e-05
1.2472198360509618e-06,6.462410062975654e-07,3.5402997320457186e-07,1.2361195615483985e-05
1.2204165694055266e-06,6.570337869615284e-07,3.5294150348158205e-07,1.2168390251214767e-05
1.1928749702352643e-06,6.676635808335339e-07,3.5197061220381814e-07,1.1973050374329252e-05
1.164683223292009e-06,6.780677085180304e-07,3.5112017416517786e-07,1.177602900890659e-05
1.1359329067067509e-06,6.881881915828046e-07,3.503899020884298e-07,1.1578103825286798e-05
1.1067194641369072e-06,6.979706912629743e-07,3.497767419253582e-07,1.1380037091566161e-05
1.077140411329453e-06,7.073639059803613e-07,3.492749647106025e-07,1.118268588159746e-05
1.0472917428362231e-06,7.163199716307277e-07,3.4887588043175347e-07,1.0987058135459634e-05
1.017264516286661e-06,7.247935283377301e-07,3.485678303853713e-07,1.0794262071018148e-05
9.871435902790537e-07,7.327406066852688e-07,3.483369981923872e-07,1.0605393817993852e-05
9.57008288621084e-07,7.401188692118381e-07,3.481689356972567e-07,1.0421434745161971e-05
9.269340210693407e-07,7.468881037406588e-07,3.480501434389462e-07,1.024320037904274e-05
8.96994113810549e-07,7.530105474824662e-07,3.4796849582647345e-07,1.0071335759617752e-05
8.672616689234102e-07,7.584515732831992e-07,3.479126552445392e-07,9.906322884042436e-06
8.378110412157493e-07,7.631816872760919e-07,3.4787161584854536e-07,9.748504172345288e-06
