9.10834262932074e-07,4.491815749365004e-07,2.8033145714151545e-07,8.112705859745937e-06
9.056884206380951e-07,4.50726640979936e-07,2.7951358966060284e-07,8.179023167381409e-06
9.011898597876056e-07,4.525064237863906e-07,2.786412044374293e-07,8.263832485639077e-06
8.974933470112519e-07,4.5449693389328824e-07,2.777137020926681e-07,8.367218828802733e-06
8.947311023168006e-07,4.566699551917205e-07,2.7672990974027927e-07,8.488933352088817e-06
8.93014652116455e-07,4.5899415288698647e-07,2.756878654939743e-07,8.628403943133536e-06
8.924396135726074e-07,4.614362130970376e-07,2.745856038815504e-07,8.784783352491537e-06
8.930891741615225e-07,4.6396126295914184e-07,2.7342185093921926e-07,8.957021078937706e-06
8.950344175359062e-07,4.665342585189643e-07,2.7219660834751405e-07,9.143925175582214e-06
8.983342930423571e-07,4.691234746417857e-07,2.709126045725544e-07,9.344180017193337e-06
9.030381508440062e-07,4.717033493552744e-07,2.6957669996942465e-07,9.556339183412623e-06
9.091897122759803e-07,4.7425445167472077e-07,2.6819927492564284e-07,9.778852898881066e-06
9.168281727950599e-07,4.767624309886236e-07,2.667921784801736e-07,1.0010161861610743e-05
9.259847163934113e-07,4.792170287336816e-07,2.653668825904926e-07,1.024881580632474e-05
9.366768751465409e-07,4.816098041091191e-07,2.639330725429047e-07,1.049353497264316e-05
9.489044959745344e-07,4.839318614418718e-07,2.6249794678338296e-07,1.0743185177895655e-05
9.626525341137151e-07,4.861740106585786e-07,2.610665516206814e-07,1.0996721359451452e-05
9.779022653903611e-07,4.883279750494275e-07,2.596425541525971e-07,1.1253147533299852e-05
9.946390375147335e-07,4.90386597938254e-07,2.582292526343428e-07,1.1511468346822256e-05
1.012844597251892e-06,4.92343983741399e-07,2.568313010522892e-07,1.1770616038430804e-05
1.032481591954852e-06,4.941962474444748e-07,2.554564963421809e-07,1.2029401131169745e-05
1.0534845202918208e-06,4.959421499574839e-07,2.541158809530123e-07,1.2286519077132667e-05
1.0757612546474572e-06,4.975829496963857e-07,2.528217275112329e-07,1.2540596336442422e-05
1.0992018637456334e-06,4.991206595326425e-07,2.51584965782718e-07,1.2790256812796927e-05
1.1236875374314067e-06,5.005553546269086e-07,2.504136325790352e-07,1.3034173840148656e-05
1.1490926758357493e-06,5.018837409230279e-07,2.493128156028197e-07,1.3271070923775134e-05
1.175280689672537e-06,5.030994363753083e-07,2.4828620488723605e-07,1.3499694958852126e-05
1.2021006214846523e-06,5.041943117567712e-07,2.473386934060469e-07,1.3718812620127098e-05
1.22938941957822e-06,5.051614974761076e-07,2.4647741626212876e-07,1.3927245766087647e-05
1.2569772564863168e-06,5.059981379768819e-07,2.457096956102959e-07,1.4123914844855804e-05
1.2846939652181158e-06,5.067041763738529e-07,2.450406923300189e-07,1.4307846944445334e-05
1.312380514108594e-06,5.07278877904126e-07,2.4447294091193763e-07,1.4478163191637727e-05
1.3399025772708936e-06,5.07719236437351e-07,2.4400652143026447e-07,1.4634089700238517e-05
1.3671550378216792e-06,5.080204179561739e-07,2.4363909720663404e-07,1.4774991328028153e-05
1.3940542821052187e-06,5.08176584692889e-07,2.433660599811254e-07,1.4900409983095453e-05
1.420525417847491e-06,5.081815571449638e-07,2.43180761070986e-07,1.5010108917967978e-05
1.4464920756540253e-06,5.080292493821702e-07,2.430748966043071e-07,1.5104117992564524e-05
1.4718713135216373e-06,5.077138174850532e-07,2.4303926615914745e-07,1.5182739213209241e-05
1.4965742236416628e-06,5.072302501979884e-07,2.430650794057638e-07,1.5246475467155938e-05
1.5205155638395953e-06,5.065763253647685e-07,2.431450353146216e-07,1.5295905816268373e-05
1.5436283367994646e-06,5.057550710302705e-07,2.4327336236823693e-07,1.5331571023500033e-05
1.565868364161823e-06,5.047752202000991e-07,2.4344526702784304e-07,1.5353921123650682e-05
1.5872034335043904e-06,5.036491157169338e-07,2.436560872546461e-07,1.5363329717651204e-05
1.6075981316124643e-06,5.023908974688287e-07,2.4390053459858197e-07,1.536013470442287e-05
1.6270055798513118e-06,5.010173826875357e-07,2.44172560073732e-07,1.5344672314450823e-05
1.6453680005939655e-06,4.99551899826691e-07,2.4446524038796344e-07,1.531733053728521e-05
1.6626208430957925e-06,4.980276042392147e-07,2.4477038239735194e-07,1.5278660018973122e-05
1.6786949509279862e-06,4.964850195321521e-07,2.45078300976341e-07,1.5229459308619998e-05
1.6935174122700934e-06,4.949655992861538e-07,2.453777992713177e-07,1.5170710250620325e-05
1.7070134599780494e-06,4.935069353381311e-07,2.456563993313932e-07,1.5103415275897235e-05
1.7191085518796475e-06,4.921406204543377e-07,2.459011680142723e-07,1.5028488149851002e-05
1.7297305372125744e-06,4.908914993773992e-07,2.4610011827119816e-07,1.4946802688401778e-05
1.738813072869166e-06,4.897773967752521e-07,2.462432133475413e-07,1.4859423706657767e-05
1.7463000009075267e-06,4.888087258771715e-07,2.463221000850088e-07,1.4767865035036494e-05
1.7521512893552146e-06,4.879885524665444e-07,2.463293387281052e-07,1.4674155971654275e-05
1.756349777861134e-06,4.87314133884399e-07,2.4625808863357263e-07,1.4580704395706552e-05
1.7589035190128514e-06,4.86779190054922e-07,2.4610225254839304e-07,1.4490083048339166e-05
1.7598427922108787e-06,4.863755478323517e-07,2.458570033845692e-07,1.4404811841388802e-05
1.7592169271001908e-06,4.860942472755862e-07,2.455190119440473e-07,1.4327169377662204e-05
1.7570924412463916e-06,4.859262881766257e-07,2.450860825327752e-07,1.425906655971427e-05
1.7535513026178425e-06,4.858626839775336e-07,2.445573182421369e-07,1.4201986430709854e-05
1.7486885627324485e-06,4.858938513946338e-07,2.439336990626589e-07,1.4156967712622164e-05
1.7426059813334096e-06,4.860096749226481e-07,2.4321796031532743e-07,1.4124617207607626e-05
1.73540148027209e-06,4.862008195691996e-07,2.424140029100434e-07,1.4105148776958506e-05
1.7271635422457559e-06,4.864590288862298e-07,2.415263096076021e-07,1.4098448023757438e-05
1.717979002217739e-06,4.867755758093574e-07,2.405593199736176e-07,1.4104152776602774e-05
1.7079507998529034e-06,4.871397287783146e-07,2.3951753863076525e-07,1.4121727553856021e-05
1.6972129488802885e-06,4.875382286199675e-07,2.3840678905138541e-07,1.4150535936965781e-05
1.6859307569940546e-06,4.879555340088521e-07,2.372345160010613e-07,1.4189936000044706e-05
1.6742849393880092e-06,4.883744339540971e-07,2.360082751107901e-07,1.4239380769963586e-05
1.6624505166951026e-06,4.88776790959398e-07,2.347349941669805e-07,1.4298475967981399e-05
1.6505827424816848e-06,4.891438540752271e-07,2.334216774968702e-07,1.4366980624050253e-05
1.63881359092274e-06,4.894556259243404e-07,2.320758069737381e-07,1.4444768717892608e-05
1.6272544037660697e-06,4.896906005136929e-07,2.307051853766113e-07,1.4531774231832434e-05
1.615997880812973e-06,4.898276400031514e-07,2.293176141070618e-07,1.4627935618967156e-05
1.605116439527091e-06,4.898482497793542e-07,2.279205191991088e-07,1.4733151695321966e-05
1.5946606015370725e-06,4.897363556173869e-07,2.2652062223880077e-07,1.4847260747551653e-05
1.5846616233637804e-06,4.894770495640596e-07,2.2512351541606892e-07,1.4970029738648907e-05
1.5751370883086643e-06,4.890565354246584e-07,2.2373380067118787e-07,1.5101122454493052e-05
1.566095815669613e-06,4.884626129423782e-07,2.2235631824537287e-07,1.5240069784648602e-05
1.5575420623643083e-06,4.87685637831435e-07,2.209971334455873e-07,1.53862956696563e-05
1.5494819898306498e-06,4.867196318259438e-07,2.1966353416717228e-07,1.5539168366026143e-05
1.5419308927622662e-06,4.855621975283668e-07,2.1836393814593615e-07,1.5698006042466713e-05
1.5349147890964414e-06,4.842140873183615e-07,2.171074778643777e-07,1.586204480454865e-05
1.5284653391446487e-06,4.826786899905317e-07,2.1590267753650727e-07,1.603041747257003e-05
1.5226132019978927e-06,4.809601074548948e-07,2.1475627084878908e-07,1.6202148464896577e-05
1.5173816593010024e-06,4.790613009757057e-07,2.136730546871768e-07,1.6376142977923585e-05
1.5127792874895375e-06,4.769843813940065e-07,2.1265658116780007e-07,1.6551172534428864e-05
1.508794267228548e-06,4.747319381187704e-07,2.1171027656211703e-07,1.6725885638018234e-05
1.505394769885241e-06,4.7230750881597356e-07,2.1083863658901e-07,1.6898870263923902e-05
1.502534431456205e-06,4.697151596103655e-07,2.1004785378561782e-07,1.7068767785038296e-05
1.500157530338642e-06,4.6695949868644257e-07,2.0934480855025933e-07,1.7234376090957223e-05
1.4982019301576524e-06,4.6404630626815043e-07,2.0873521153474775e-07,1.7394650374303742e-05
1.4966025407856166e-06,4.60982264257764e-07,2.08223386317278e-07,1.7548610975412226e-05
1.4952967855524554e-06,4.5777458009825523e-07,2.078134457737864e-07,1.7695289309351e-05
1.494230075764945e-06,4.544326452125768e-07,2.075095174353443e-07,1.7833797148319478e-05
1.4933582597125737e-06,4.5096989232832696e-07,2.0731503029478023e-07,1.7963458615215968e-05
1.4926449751292982e-06,4.4740414973068907e-07,2.07232456196081e-07,1.808388749246596e-05
1.4920545732771351e-06,4.4375717976336296e-07,2.0726305521913003e-07,1.8194961023429237e-05
1.4915443906566556e-06,4.400529424154705e-07,2.0740636120932557e-07,1.829673884933487e-05
1.4910607525251688e-06,4.363160396755546e-07,2.076606527883284e-07,1.838937817709605e-05
1.490540157982045e-06,4.325720963977318e-07,2.0802371013944398e-07,1.8473072565269536e-05
1.4899125477242149e-06,4.288478005530917e-07,2.084922572650038e-07,1.8548085163340616e-05
1.4891029488984806e-06,4.25168818940077e-07,2.0906092422812094e-07,1.861484658594623e-05
1.4880318686127288e-06,4.215571693833693e-07,2.097223980911587e-07,1.867394365260399e-05
1.4866173267651503e-06,4.180304654280696e-07,2.1046894959487024e-07,1.8725981915865546e-05
1.484778725941571e-06,4.1460363107688725e-07,2.1129364504684772e-07,1.8771507224093168e-05
1.4824389291605092e-06,4.112909519735975e-07,2.121899480255201e-07,1.881110765290215e-05
1.479523839058621e-06,4.081060721258968e-07,2.1315072262275482e-07,1.8845587959310972e-05
1.4759639519533389e-06,4.050605026519148e-07,2.1416786650138033e-07,1.8875990390859013e-05
1.4716990738533081e-06,4.0216310436626857e-07,2.15232660191962e-07,1.890342320402537e-05
1.4666811975728382e-06,3.9942080188387476e-07,2.163364538741624e-07,1.8928853526963668e-05
1.4608727377467355e-06,3.968392176091557e-07,2.1747094193681907e-07,1.89529742981822e-05
1.454244666184916e-06,3.9442389109924276e-07,2.1862787124470763e-07,1.897617225207092e-05
1.4467793033250005e-06,3.921818568238684e-07,2.1979950887614408e-07,1.8998576064855574e-05
1.438476692096589e-06,3.9012170452076813e-07,2.2098000786620626e-07,1.902012395646748e-05
1.4293621407901614e-06,3.882532620817029e-07,2.2216546366725859e-07,1.9040614916152727e-05
1.4194917656905125e-06,3.865881786564856e-07,2.233522547516293e-07,1.905973459388761e-05
1.4089490464074131e-06,3.851396064690311e-07,2.245358707634749e-07,1.9077050948026682e-05
1.397830667231754e-06,3.839201845854324e-07,2.257116703085761e-07,1.909200291167995e-05
1.3862311322282311e-06,3.8293965827870395e-07,2.2687714496625534e-07,1.910391364972299e-05
1.374234332461012e-06,3.8220321923846725e-07,2.280333240996117e-07,1.9112027086823333e-05
1.361912721026119e-06,3.8171127254573174e-07,2.291833891509693e-07,1.9115552628717512e-05
1.3493321749449912e-06,3.8146042491282065e-07,2.303299115212345e-07,1.9113727877734853e-05
1.3365576344925354e-06,3.8144397228789614e-07,2.3147298799498486e-07,1.9105898364779385e-05
1.3236545780813921e-06,3.8165193738594603e-07,2.3261020334481587e-07,1.909155885552408e-05
1.310686436856499e-06,3.820723998930818e-07,2.3373832199477873e-07,1.9070322255308757e-05
1.2977112761880613e-06,3.8269357392560096e-07,2.3485532983441978e-07,1.904186265072633e-05
1.2847804820513572e-06,3.8350580736221814e-07,2.3596213493673105e-07,1.9005881871672026e-05
1.271939404074292e-06,3.845030831137442e-07,2.370638194761348e-07,1.8962097606903282e-05
1.2592281461413143e-06,3.856814382168564e-07,2.381692408029954e-07,1.8910233289134657e-05
1.2466814117094143e-06,3.870344605184354e-07,2.392892919826581e-07,1.8849998659577094e-05
1.2343289138283505e-06,3.8855064695856975e-07,2.404356511495629e-07,1.878107103074488e-05
1.222198004141542e-06,3.902142332683725e-07,2.416205272945707e-07,1.8703109525532185e-05
1.2103159047671007e-06,3.9200676174729204e-07,2.428561598737563e-07,1.8615824799919566e-05
1.198708747176776e-06,3.939081147940327e-07,2.441530917387711e-07,1.851908757869857e-05
1.187400758101469e-06,3.958969149485316e-07,2.4551843054640456e-07,1.841300953345808e-05
1.1764203273514543e-06,3.9795012780505116e-07,2.4695555723255164e-07,1.829792553974299e-05
1.1658122104567805e-06,4.0004361933393594e-07,2.4846510639602325e-07,1.8174293678613392e-05
1.1556422383053172e-06,4.021549786237778e-07,2.500463081024388e-07,1.8042590893081566e-05
1.145984738768306e-06,4.0426686521300064e-07,2.5169780706637265e-07,1.7903242245569312e-05
1.136903991024768e-06,4.063683228186078e-07,2.534173847180289e-07,1.7756586524026268e-05
1.1284471355471793e-06,4.084530248172717e-07,2.552008233923304e-07,1.7602883992595746e-05
1.1206493976590245e-06,4.105162149568279e-07,2.570414153832409e-07,1.7442364683657784e-05
1.113541102236022e-06,4.1255366809889347e-07,2.5893184507461945e-07,1.7275313191819612e-05
1.1071505490053472e-06,4.1456242689721434e-07,2.608670815204653e-07,1.710217438955284e-05
1.1015032970439531e-06,4.16540425211415e-07,2.628445153138765e-07,1.6923619500867773e-05
1.096619297834785e-06,4.184852447839011e-07,2.648616128719304e-07,1.6740519454480158e-05
1.0925095702787347e-06,4.203929695024577e-07,2.669147282379713e-07,1.6553847854552078e-05
1.0891750082030364e-06,4.2225683684495494e-07,2.689996697296993e-07,1.6364573559893313e-05
1.0866076866151736e-06,4.24067585822255e-07,2.711120980165345e-07,1.617358070413036e-05
1.0847936684569144e-06,4.2581748329446493e-07,2.7324702951258195e-07,1.5981635029264926e-05
1.083717674211235e-06,4.275053701710115e-07,2.753980219061788e-07,1.5789413696514146e-05
1.0833690561051986e-06,4.291373782224453e-07,2.775567286813081e-07,1.5597569063075528e-05
1.0837474799228467e-06,4.307231998875002e-07,2.7971334053897066e-07,1.5406751870948356e-05
1.0848680352010826e-06,4.322732140266767e-07,2.818572451555768e-07,1.5217572939092554e-05
1.0867656214942668e-06,4.337987692877863e-07,2.839766624108681e-07,1.5030557931810876e-05
1.0894955757611485e-06,4.35314839861236e-07,2.860579093214149e-07,1.4846191117346814e-05
1.093126012713995e-06,4.368427598313656e-07,2.880859400671728e-07,1.466508659208779e-05
1.0977229701100679e-06,4.384084278286822e-07,2.900462646441361e-07,1.4488112547504566e-05
1.1033366215083666e-06,4.400368132835638e-07,2.919268557924666e-07,1.4316304059884363e-05
1.1099936920218216e-06,4.4174893165308287e-07,2.937186744553889e-07,1.4150739663560967e-05
1.1176946802431631e-06,4.435614954684412e-07,2.954145591964095e-07,1.3992557517272085e-05
1.1264175775664629e-06,4.4548583753511935e-07,2.9700789091707416e-07,1.3842968201561676e-05
1.1361292557009883e-06,4.47527542952801e-07,2.984925836373468e-07,1.3703162943155087e-05
1.1467951942930644e-06,4.4968818870310547e-07,2.998641689907021e-07,1.3574208021419776e-05
1.1583800121700877e-06,4.5196666013080904e-07,3.011204500159514e-07,1.345697254346357e-05
1.1708453586230195e-06,4.543595608919613e-07,3.0226048754732646e-07,1.3352076715624901e-05
1.1841543017307243e-06,4.568625329415929e-07,3.03283555523909e-07,1.3259865501194685e-05
1.1982808721007998e-06,4.594717177133954e-07,3.041909350384645e-07,1.3180419317955562e-05
1.2132144521037537e-06,4.621831287710437e-07,3.0498883140541816e-07,1.3113592304025725e-05
1.2289516091688316e-06,4.6499015557357865e-07,3.0568827672529e-07,1.305904417917892e-05
1.2454830643562605e-06,4.678820343539586e-07,3.0630231959904624e-07,1.3016249385383404e-05
1.262789810932685e-06,4.708451057777485e-07,3.06844174283148e-07,1.2984509287753752e-05
1.2808471428346478e-06,4.738658073841343e-07,3.0732720723377344e-07,1.2962994110022646e-05
1.2996256548641016e-06,4.769325120939212e-07,3.077646976573073e-07,1.2950794052951155e-05
1.3190882236974498e-06,4.800341560421873e-07,3.0816928573246405e-07,1.2946939407779687e-05
1.3391866602097854e-06,4.831577191408546e-07,3.085532472932489e-07,1.2950396837517833e-05
1.3598577897539122e-06,4.862879693247071e-07,3.0892861446494004e-07,1.2960087504847707e-05
1.3810232481366368e-06,4.894091494299775e-07,3.093058758716188e-07,1.297493685632754e-05
1.402599613796151e-06,4.925060837771293e-07,3.096921961608653e-07,1.2993920857935385e-05
1.4245117508606354e-06,4.955637850496374e-07,3.100911437483011e-07,1.3016086244772183e-05
1.4466939292783316e-06,4.985661746487747e-07,3.105044210275179e-07,1.304055257613584e-05
1.4690801178817552e-06,5.014947596620451e-07,3.109337746694757e-07,1.3066514644587942e-05
1.4916007737677396e-06,5.043282408625381e-07,3.113817110649038e-07,1.309325370924028e-05
1.514192944712014e-06,5.070432970857971e-07,3.118524172805788e-07,1.3120146929097127e-05
1.536812927663923e-06,5.096155453749829e-07,3.1235279168368e-07,1.3146660515471573e-05
1.5594402891144712e-06,5.120197328059221e-07,3.128907852589868e-07,1.3172317972789673e-05
1.582072523591706e-06,5.142299228179275e-07,3.134717425668545e-07,1.319664947603452e-05
1.604712970635499e-06,5.162211117190876e-07,3.140962598614391e-07,1.3219155375502515e-05
1.6273549191185655e-06,5.179711215112221e-07,3.147606970614788e-07,1.3239329531025148e-05
1.6499707513664669e-06,5.194603917993557e-07,3.154590236097239e-07,1.3256757262440679e-05
1.6725122097487375e-06,5.206702692525045e-07,3.1618413462621424e-07,1.3271215661013687e-05
1.6949171250083903e-06,5.215821608569136e-07,3.1692823817799093e-07,1.3282662035951534e-05
1.717117018362409e-06,5.221780754027034e-07,3.176833028490925e-07,1.3291116071260375e-05
1.739045016291264e-06,5.224415849457718e-07,3.184415376920071e-07,1.329655840601095e-05
1.760644980898806e-06,5.223596264099789e-07,3.191956916392843e-07,1.3298908284272301e-05
1.7818808774432422e-06,5.219260349829661e-07,3.199399390555235e-07,1.3298064024081173e-05
1.8027416105203843e-06,5.211450083618912e-07,3.206710158541913e-07,1.3293973534582415e-05
1.8232377335677399e-06,5.200319376033141e-07,3.21388229643436e-07,1.3286664550066448e-05
1.8433942246586632e-06,5.186107795816981e-07,3.220918885832365e-07,1.3276193747908064e-05
1.8632440936085758e-06,5.169092057864479e-07,3.2278121235194694e-07,1.326257755727775e-05
1.882820146248896e-06,5.149544685629528e-07,3.234535989959049e-07,1.3245782263619427e-05
1.9021434374712151e-06,5.127712866254202e-07,3.2410526492772785e-07,1.3225782163463471e-05
1.921213020632716e-06,5.103811010034407e-07,3.2473141036776985e-07,1.3202659161488288e-05
1.9400007788632593e-06,5.07802243160385e-07,3.2532555499921606e-07,1.3176692664737034e-05
1.95845316978904e-06,5.050505035194908e-07,3.25879208028956e-07,1.314835100606264e-05
1.9765000001943763e-06,5.021404427719321e-07,3.263827180310372e-07,1.3118165690270525e-05
1.994066601898366e-06,4.990875095768724e-07,3.26826968443802e-07,1.3086588753404952e-05
2e-07,4.959090158956045e-07,3.272043361780273e-07,1.3053916080867876e-05
2e-07,4.926234857501796e-07,3.2750814444563853e-07,1.3020281733281775e-05
2e-07,4.892509789223239e-07,3.277317961669616e-07,1.2985704753894678e-05
2e-07,4.858160596637612e-07,3.278687630914842e-07,1.295015189830246e-05
2e-07,4.823510820605617e-07,3.279133022552972e-07,1.2913600088882179e-05
2e-07,4.78896093266885e-07,3.2786090340345716e-07,1.287614610801285e-05
2e-07,4.7549610127812605e-07,3.2770785864174305e-07,1.2838131594123774e-05
2e-07,4.72199462888311e-07,3.274507594299733e-07,1.2800137455612635e-05
2e-07,4.690564058997445e-07,3.2708668784454606e-07,1.276283089910523e-05
2e-07,4.6611436696122103e-07,3.2661385201533827e-07,1.272679957857724e-05
2e-07,4.63412483175477e-07,3.260319859612178e-07,1.2692474901968812e-05
2e-07,4.609797519595853e-07,3.253422155228607e-07,1.2660216000651387e-05
2e-07,4.5883633638796904e-07,3.245473168854828e-07,1.2630562244113754e-05
2e-07,4.569947073633916e-07,3.236521713719327e-07,1.2604466379869372e-05
2e-07,4.5545976085295885e-07,3.226627275332396e-07,1.2583299918141405e-05
2e-07,4.542294510135215e-07,3.2158406952811926e-07,1.2568678301643385e-05
2e-07,4.532969856537024e-07,3.204195729549821e-07,1.2562276011357993e-05
2e-07,4.526530423470897e-07,3.1917139079087374e-07,1.2565683841168705e-05
2e-07,4.522867679262666e-07,3.1784122809247826e-07,1.258028278545999e-05
2e-07,4.5218696153618315e-07,3.164307177258978e-07,1.26071353980258e-05
2e-07,4.523425014617368e-07,3.1494195904958107e-07,1.2646924894620305e-05
2e-07,4.527399259622918e-07,3.1337860669711197e-07,1.2699962326374125e-05
2e-07,4.5336100381398613e-07,3.117460185526125e-07,1.2766235317702315e-05
2e-07,4.541838463786246e-07,3.1004968504647677e-07,1.2845444260226434e-05
2e-07,4.5518591810573423e-07,3.0829362846462123e-07,1.2937027229939752e-05
2e-07,4.5634463381094944e-07,3.0648033144786164e-07,1.3040223927029785e-05
2e-07,4.576349493198038e-07,3.0461216362257084e-07,1.3154170993837746e-05
2e-07,4.5902773175916644e-07,3.026930589119894e-07,1.3277979207446842e-05
2e-07,4.6049068955562066e-07,3.007293478316485e-07,1.3410792318094262e-05
2e-07,4.619904210420454e-07,2.9872935836184933e-07,1.3551844623556164e-05
2e-07,4.634947749089016e-07,2.96701773886902e-07,1.3700490245804412e-05
2e-07,4.6497447844908284e-07,2.9465464604745717e-07,1.3856181379115695e-05
2e-07,4.6640303257354574e-07,2.925963691064332e-07,1.4018425578337186e-05
2e-07,4.6775679063630497e-07,2.905359978113045e-07,1.4186745376137451e-05
2e-07,4.6901644740874774e-07,2.884818177988543e-07,1.4360620132609051e-05
2e-07,4.701676377439821e-07,2.864409945068708e-07,1.4539408145946674e-05
2e-07,4.711996048731001e-07,2.844207284575046e-07,1.4722289568729965e-05
2e-07,4.721039832625657e-07,2.824289308467889e-07,1.4908254162248856e-05
2e-07,4.728744329244625e-07,2.8047422971865786e-07,1.5096129513912027e-05
2e-07,4.73506290291605e-07,2.785653416515004e-07,1.528465682295923e-05
2e-07,4.739965770502575e-07,2.767097490788107e-07,1.547259604701071e-05
2e-07,4.743445257961175e-07,2.7491314252338466e-07,1.5658807215698457e-05
2e-07,4.745519003874196e-07,2.7317983668647897e-07,1.5842292087485433e-05
2e-07,4.7462249797644026e-07,2.715125826030035e-07,1.6022202430652614e-05
2e-07,4.7456067681827364e-07,2.699118699351227e-07,1.6197807615830468e-05
2e-07,4.743701755045603e-07,2.683759390887597e-07,1.6368427677295593e-05
2e-07,4.7405443700376034e-07,2.6690160841969545e-07,1.6533361175966653e-05
2e-07,4.736169836759682e-07,2.65485560970494e-07,1.669185432885637e-05
2e-07,4.7306094754930295e-07,2.641256596964346e-07,1.6843139164397092e-05
2e-07,4.7238996530154287e-07,2.628215254270193e-07,1.6986512085369422e-05
2e-07,4.7161085663808576e-07,2.615742153045062e-07,1.7121402058348495e-05
2e-07,4.7073489140636224e-07,2.6038572858555057e-07,1.7247410346724773e-05
2e-07,4.697752751132927e-07,2.592584447496133e-07,1.736431984166016e-05
2e-07,4.6874364425958006e-07,2.5819425901886745e-07,1.7472047770827077e-05
2e-07,4.6765123651368617e-07,2.571943655999331e-07,1.7570544570438558e-05
2e-07,4.665131403260438e-07,2.5625975688183267e-07,1.765971387286379e-05
2e-07,4.653486678348981e-07,2.55391259990118e-07,1.7739411240462352e-05
2e-07,4.641798641235254e-07,2.5458907448234946e-07,1.7809491204346446e-05
2e-07,4.630333888126362e-07,2.5385204486005355e-07,1.7869835505316487e-05
2e-07,4.6194106311544864e-07,2.531769662033842e-07,1.7920331566605468e-05
2e-07,4.6093533344587667e-07,2.525589920433163e-07,1.7960846966370936e-05
2e-07,4.6004453088597047e-07,2.519928750685224e-07,1.7991301443736608e-05
2e-07,4.592906866426696e-07,2.5147321218598087e-07,1.8011834992740757e-05
2e-07,4.586886390545656e-07,2.5099359914874373e-07,1.8022900389554528e-05
2e-07,4.582464188998304e-07,2.505468127630033e-07,1.8025178324135214e-05
2e-07,4.5796634501135304e-07,2.501267368076702e-07,1.80194132451852e-05
2e-07,4.5784587445141933e-07,2.4972978813248164e-07,1.8006286807928484e-05
2e-07,4.578790913425691e-07,2.4935441370006925e-07,1.7986399730623653e-05
2e-07,4.5805782303543346e-07,2.490006012233461e-07,1.7960421436218426e-05
2e-07,4.5837058210136405e-07,2.486707779233704e-07,1.7929306999292433e-05
1.9907159784500252e-06,4.588020698614423e-07,2.483706581861523e-07,1.7894357790739915e-05
1.9788435216878062e-06,4.593358506289076e-07,2.481087937837493e-07,1.7857095250262845e-05
1.966030625243795e-06,4.5995697723056993e-07,2.478948025424162e-07,1.7819087107828658e-05
1.952221243102416e-06,4.6065181674528725e-07,2.477370584754651e-07,1.7781785939910786e-05
1.937363225416576e-06,4.614089679124218e-07,2.476414256989089e-07,1.774638900089285e-05
1.9214089187913637e-06,4.622232441456111e-07,2.476113576871345e-07,1.771376169320693e-05
1.90431640845186e-06,4.630972836856625e-07,2.4764864514935005e-07,1.7684445957967246e-05
1.8860519646312041e-06,4.6403854146205633e-07,2.47754655941721e-07,1.76587246717433e-05
1.8665921797197732e-06,4.6505601584002884e-07,2.479309091679478e-07,1.7636700606634975e-05
1.8459241408378182e-06,4.661588791453042e-07,2.481783729885791e-07,1.7618358867402367e-05
1.824043774498777e-06,4.673554727586403e-07,2.484976459410322e-07,1.7603587862188572e-05
1.8009542094676609e-06,4.686520935812642e-07,2.488908074395767e-07,1.7592157127411018e-05
1.7766672500134793e-06,4.700517561012861e-07,2.4936229174615577e-07,1.758368573692045e-05
1.7512093858438012e-06,4.7155341812352093e-07,2.499171685100044e-07,1.7577644005909203e-05
1.7246288188997518e-06,4.7315357860929354e-07,2.505587653664062e-07,1.7573400962562617e-05
1.6969964026703053e-06,4.748494496007267e-07,2.512881215800569e-07,1.757028646768416e-05
1.6683974574889809e-06,4.7663995286276674e-07,2.5210502902268197e-07,1.7567629897096654e-05
1.6389218220365531e-06,4.785236867436835e-07,2.5300880926489164e-07,1.7564772787747704e-05
1.608660404402919e-06,4.804962041519057e-07,2.539988640841104e-07,1.756108430383909e-05
1.5777057843184797e-06,4.825488113531197e-07,2.550758715355232e-07,1.7555999596365188e-05
1.546151919664136e-06,4.846686164624064e-07,2.5624211289895465e-07,1.7549058637340678e-05
1.514095131747203e-06,4.868387620773708e-07,2.5750027429994523e-07,1.753990857333403e-05
1.4816375388426353e-06,4.890399518826889e-07,2.58852812532423e-07,1.7528274586521735e-05
1.4488870957993703e-06,4.912529378136053e-07,2.603020515006464e-07,1.7513924007753852e-05
1.4159518017146341e-06,4.934590143219384e-07,2.618493069827109e-07,1.7496625808935875e-05
1.3829335496950877e-06,4.956382787082287e-07,2.634935669144288e-07,1.7476116684102928e-05
1.3499256885964105e-06,4.977681775179669e-07,2.6523143355950863e-07,1.745208871602812e-05
1.317015106585461e-06,4.998242144088587e-07,2.6705801706562554e-07,1.7424182215729096e-05
1.2842890466199233e-06,5.017823674823196e-07,2.6896740625028105e-07,1.7391984135539534e-05
1.2518431403366505e-06,5.036206005619135e-07,2.709521483944525e-07,1.7355059644420512e-05
1.2197858623782541e-06,5.05318938814031e-07,2.73002476168357e-07,1.731300299318626e-05
1.1882376692322804e-06,5.068598066764746e-07,2.751069063899176e-07,1.7265461776297035e-05
1.1573245646305087e-06,5.08228258080931e-07,2.772537015578808e-07,1.7212137727708646e-05
1.1271684803589107e-06,5.09411222008285e-07,2.7943099174497464e-07,1.71528025710603e-05
1.0978798621218365e-06,5.10396747938985e-07,2.81625627044281e-07,1.7087323446070235e-05
1.0695551350560578e-06,5.111740368860514e-07,2.838223965912149e-07,1.7015680895416478e-05
1.042277652809204e-06,5.117333581417607e-07,2.8600463186406827e-07,1.6938002340601623e-05
1.0161207241600862e-06,5.120654282390739e-07,2.8815596660651285e-07,1.685461505558128e-05
9.911508669916335e-07,5.121615035529901e-07,2.902614815602299e-07,1.6766062894745793e-05
9.674271778475448e-07,5.12014717578747e-07,2.9230718084075266e-07,1.6673038678419237e-05
9.449963729845036e-07,5.116219755311122e-07,2.942792076236273e-07,1.65762624208248e-05
9.238900235087206e-07,5.109856113236867e-07,2.961640131967453e-07,1.6476386838165328e-05
9.041277410407238e-07,5.101131231201311e-07,2.9794857566169405e-07,1.6373994271391697e-05
8.857217931158392e-07,5.090141210733751e-07,2.996201947591481e-07,1.6269668706093485e-05
8.686778523180403e-07,5.076976360669318e-07,3.011667949749127e-07,1.6164051331040472e-05
8.529920536228322e-07,5.061725644569767e-07,3.0257757129793487e-07,1.6057828289540348e-05
8.386488707783613e-07,5.04449549505551e-07,3.038429778071361e-07,1.595168190423265e-05
8.256219723297956e-07,5.025422131555594e-07,3.0495419366379807e-07,1.5846275429972863e-05
8.138753387659553e-07,5.004667175895114e-07,3.059029884573261e-07,1.5742327879687698e-05
8.033634509791334e-07,4.982398571613517e-07,3.066824175557153e-07,1.564068970698462e-05
7.940327393158869e-07,4.958784671694411e-07,3.0728775779923065e-07,1.5542264430962686e-05
7.858257759208088e-07,4.934006790858668e-07,3.0771665017974217e-07,1.5447840024334485e-05
7.786866279016477e-07,4.908259459880382e-07,3.0796818175804186e-07,1.535804123892709e-05
7.725638599267651e-07,4.881731191760538e-07,3.080420671000257e-07,1.5273491991699375e-05
7.674103940371614e-07,4.854583042619822e-07,3.079387009041256e-07,1.5195073785515073e-05
7.631825540722373e-07,4.826935644775649e-07,3.07659143116245e-07,1.5124047499849344e-05
7.59838827549964e-07,4.798875769907672e-07,3.072048931197674e-07,1.5061942860190881e-05
7.573370512423319e-07,4.770484644886325e-07,3.065789421523622e-07,1.5010359770654517e-05
7.556318738342556e-07,4.7418607722124776e-07,3.057880719670372e-07,1.4970818319943006e-05
7.546770724932751e-07,4.713111907964154e-07,3.0484375944000826e-07,1.4944651418374887e-05
7.544331253398195e-07,4.6843335818969136e-07,3.0376032630443124e-07,1.4932917322867584e-05
7.548735713658607e-07,4.6556031165610506e-07,3.025527744379515e-07,1.4936351429978546e-05
7.559834049164149e-07,4.626981864737976e-07,3.012371706794139e-07,1.4955351127810592e-05
7.577512438349016e-07,4.598508568792506e-07,2.99833516367922e-07,1.4989960199929516e-05
7.601636514576808e-07,4.570195926268443e-07,2.983674596079798e-07,1.5039857480184408e-05
7.632045477031274e-07,4.5420454741450654e-07,2.9686795279639977e-07,1.5104381637429806e-05
7.668548202014607e-07,4.5140646503594245e-07,2.953648704097627e-07,1.5182607160657224e-05
7.710909141104499e-07,4.486264117599677e-07,2.938902467624513e-07,1.5273461683689852e-05
7.758868262847436e-07,4.4586457933655074e-07,2.924788198218389e-07,1.537584513308939e-05
7.812182762812761e-07,4.431200148976445e-07,2.911648602472766e-07,1.5488711518354043e-05
7.870640587433522e-07,4.403911299760318e-07,2.8997851587729486e-07,1.5611109751173566e-05
7.934069280386114e-07,4.376765349609368e-07,2.889439880636055e-07,1.5742192418848707e-05
8.002366496453377e-07,4.34975204948604e-07,2.880790614362855e-07,1.5881195781400382e-05
8.075511528898616e-07,4.3228501614797347e-07,2.873965248771257e-07,1.6027410888766432e-05
8.153554110827621e-07,4.296015128605461e-07,2.869077489239497e-07,1.618017790560493e-05
8.236614743494529e-07,4.2691877058155816e-07,2.8662548453197856e-07,1.633890489967116e-05
8.324880432274137e-07,4.242312149091408e-07,2.865634863456539e-07,1.650307766437724e-05
8.418575473442914e-07,4.215349721355913e-07,2.867340339083458e-07,1.6672242148846533e-05
8.51791837729826e-07,4.188281728261962e-07,2.871453299216517e-07,1.6845969585992493e-05
8.62306151100323e-07,4.161098651541647e-07,2.878010312043628e-07,1.702380373130944e-05
8.734021034427903e-07,4.133790519974013e-07,2.887026091904283e-07,1.7205197268156832e-05
8.850650508595455e-07,4.1063578847835603e-07,2.898514291597771e-07,1.7389495674611798e-05
8.97270365982068e-07,4.078828877711194e-07,2.912490388110093e-07,1.7575989564905662e-05
9.099983950443777e-07,4.051259671774785e-07,2.928977486048217e-07,1.7763958226746756e-05
9.232560470055496e-07,4.0237326971515926e-07,2.948013932159311e-07,1.7952658827095804e-05
9.37099308408111e-07,3.996362648062275e-07,2.969641498234808e-07,1.8141293559702895e-05
9.516450452149694e-07,3.9692847998067456e-07,2.993877349710745e-07,1.832896943195841e-05
9.670668559144605e-07,3.9426246421278243e-07,3.020690190428984e-07,1.8514654002581507e-05
9.835803325128552e-07,3.9164806169756715e-07,3.049992403050904e-07,1.8697162846498348e-05
1.001421196475439e-06,3.890925080841025e-07,3.0816500609504104e-07,1.8875209478940072e-05
1.0208175824230852e-06,3.8660074815526563e-07,3.115505516386943e-07,1.9047503538650926e-05
1.0419629919438654e-06,3.841756317845441e-07,3.151402049143855e-07,1.921284308003984e-05
1.0649983929924626e-06,3.81818349680025e-07,3.189199944011349e-07,1.9370148271734977e-05
1.0900058375949725e-06,3.7953008218137394e-07,3.228774672903168e-07,1.951843279583781e-05
1.1170087646922954e-06,3.773144667895684e-07,3.269996474332933e-07,1.9656748092760668e-05
1.1459753164448218e-06,3.751775738607503e-07,3.312714708839813e-07,1.9784136484756547e-05
1.1768264556981142e-06,3.7312598983597717e-07,3.356774063916544e-07,1.989963606640705e-05
1.209450074028669e-06,3.711675074540279e-07,3.4020458792607817e-07,2.0002372114235722e-05
1.2437191374366465e-06,3.6931289931556345e-07,3.4484309926204227e-07,2.009170019821833e-05
1.2795104149075808e-06,3.675746445406983e-07,3.495827365104574e-07,2.0167307883056267e-05
1.316718594366552e-06,3.659638736027115e-07,3.544098997383833e-07,2.022922079781073e-05
1.3552630191081457e-06,3.64488908496102e-07,3.5930699465496024e-07,2.0277738402468303e-05
1.3950895555045535e-06,3.63157312755853e-07,3.6425319452833e-07,2.031333550240195e-05
1.4361682896528548e-06,3.619801163417512e-07,3.6922549413695225e-07,2.03365754684936e-05
1.4784831306536224e-06,3.609739382154996e-07,3.7419994350885224e-07,2.0348118136883704e-05
1.5220145840120556e-06,3.6015978148510314e-07,3.7915235819187285e-07,2.034877574956752e-05
1.5667242962314899e-06,3.595617429907748e-07,3.840580798741782e-07,2.033947945109504e-05
1.612545070783514e-06,3.5920622997705973e-07,3.888917281623528e-07,2.032120273068417e-05
1.6593737125139464e-06,3.591189573037806e-07,3.9362823442909176e-07,2.029492314221528e-05
1.7070681699217967e-06,3.593211321785312e-07,3.9824425249415046e-07,2.026156079163758e-05
1.7554514419653115e-06,3.59828416470138e-07,4.0271907440302603e-07,2.022188878338531e-05
1.8043180525940442e-06,3.6065148134378157e-07,4.0703654673984203e-07,2.0176478366735683e-05
1.8534386833214718e-06,3.6179545951411476e-07,4.111868336793626e-07,2.01256816118388e-05
1.9025645162509175e-06,3.6325919620654e-07,4.1516478897539097e-07,2.006964598267905e-05
1.951434540628891e-06,3.650359381143612e-07,4.1896586602047547e-07,2.000836769605506e-05
1.999784730893604e-06,3.6711560778612156e-07,4.2258313393182825e-07,1.9941753445485063e-05
2e-07,3.694879888558362e-07,4.2600715932246497e-07,1.986964532361568e-05
2e-07,3.721450954124607e-07,4.2922786947630503e-07,1.9791814015535107e-05
2e-07,3.7508227761650774e-07,4.322359187675394e-07,1.970796231518152e-05
2e-07,3.782977643400221e-07,4.350223143452426e-07,1.9617748374930177e-05
2e-07,3.8178928332053344e-07,4.375773245807461e-07,1.952081729496229e-05
2e-07,3.8555047715346103e-07,4.39889687913579e-07,1.941683503131856e-05
2e-07,3.8957127553213207e-07,4.4194657912289526e-07,1.9305499643144613e-05
2e-07,3.938412971245865e-07,4.4373457522890254e-07,1.918652781141788e-05
2e-07,3.983521273748966e-07,4.4524058085849216e-07,1.9059654115329808e-05
2e-07,4.0309683074910407e-07,4.464522581397995e-07,1.8924643107772792e-05
2e-07,4.080692396442306e-07,4.473597292177905e-07,1.878129089840164e-05
2e-07,4.132637990119514e-07,4.479577605656538e-07,1.8629429621011974e-05
2e-07,4.18673571713486e-07,4.4824495738986923e-07,1.846895018792179e-05
2e-07,4.242875156322493e-07,4.482212600814642e-07,1.829983639050376e-05
2e-07,4.3009020480746746e-07,4.4788807733669145e-07,1.812220502792524e-05
2e-07,4.360634489370339e-07,4.472501251257328e-07,1.7936340791152648e-05
2e-07,4.421880971526848e-07,4.463152438046317e-07,1.7742703405082028e-05
2e-07,4.484454728582115e-07,4.450932000620265e-07,1.754190159567105e-05
2e-07,4.5481840339517144e-07,4.435958151543032e-07,1.733464218438172e-05
2e-07,4.6129215451732924e-07,4.4183654542088454e-07,1.7121658183900852e-05
2e-07,4.6785327928953315e-07,4.3982822704971524e-07,1.690365604645168e-05
2e-07,4.744852255026111e-07,4.375815326461562e-07,1.6681348461960254e-05
2e-07,4.811645724395761e-07,4.3510545770475997e-07,1.6455534437919525e-05
2e-07,4.878607839324858e-07,4.3240802698941117e-07,1.6227091682921467e-05
2e-07,4.945384553002031e-07,4.2949616678694564e-07,1.5996863466844877e-05
2e-07,5.011603412849049e-07,4.2637553466397773e-07,1.576557486894429e-05
2e-07,5.076897942518018e-07,4.2305067990094384e-07,1.5533869246042447e-05
2e-07,5.140921016289019e-07,4.195255631420256e-07,1.5302433927240792e-05
2e-07,5.203343615093549e-07,4.158051312807437e-07,1.5072119196342774e-05
2e-07,5.263842338656291e-07,4.1189769334633284e-07,1.4843956503399346e-05
2e-07,5.322098404340221e-07,4.078157194773354e-07,1.4619066717188862e-05
2e-07,5.377811835667246e-07,4.035742127129905e-07,1.4398537613103214e-05
2e-07,5.430710662956349e-07,3.9918915602750176e-07,1.4183373128989655e-05
2e-07,5.480554634119911e-07,3.946770889078488e-07,1.3974557025606301e-05
2e-07,5.527145622182967e-07,3.9005485992612033e-07,1.3773135935369638e-05
2e-07,5.570337219070513e-07,3.853392772886735e-07,1.3580202546682115e-05
1.9986679362539453e-06,5.610024241093594e-07,3.8054636207149994e-07,1.3396794021041929e-05
1.949778018080907e-06,5.646122096085843e-07,3.7569127936427523e-07,1.3223786080105654e-05
1.899900077081237e-06,5.678563489731996e-07,3.707905445915956e-07,1.3061833482503876e-05
1.8491965373264072e-06,5.707306326280103e-07,3.6586413284228133e-07,1.2911367578186819e-05
1.797830567491576e-06,5.732336252613072e-07,3.609339277554111e-07,1.2772622509023586e-05
1.745966494378645e-06,5.753671057734614e-07,3.560201089658507e-07,1.2645672461662074e-05
1.6937707603617832e-06,5.771366122717921e-07,3.511400666795078e-07,1.2530486640185575e-05
1.6414172591434337e-06,5.785512312527605e-07,3.4631022984158676e-07,1.2427024924839947e-05
1.5890906732666156e-06,5.796232637230735e-07,3.415467072867162e-07,1.2335391714664572e-05
1.5369828680361837e-06,5.803667695461694e-07,3.368636285719917e-07,1.2255937018266064e-05
1.48528802817085e-06,5.807942051392539e-07,3.3227251745912645e-07,1.2189162439022121e-05
1.4342004829997022e-06,5.809141046665025e-07,3.277830550831567e-07,1.2135517976139238e-05
1.3839108792433187e-06,5.80731024396276e-07,3.2340305209460744e-07,1.209530383161754e-05
1.3345986430486264e-06,5.802466590649861e-07,3.19138497404015e-07,1.2068785173198074e-05
1.2864256055431005e-06,5.794625521747529e-07,3.149947337242304e-07,1.2056438924363424e-05
1.2395342291704808e-06,5.783830592992796e-07,3.109774051140019e-07,1.2059099845572659e-05
1.1940499828894426e-06,5.770152188710897e-07,3.070928390427625e-07,1.2077877482914846e-05
1.1500870544662472e-06,5.75365870179991e-07,3.033483604331191e-07,1.2113946788429575e-05
1.1077554769678936e-06,5.73439589209698e-07,2.997514139821506e-07,1.2168348438545211e-05
1.0671658710767966e-06,5.712395866950779e-07,2.963075534455525e-07,1.2241845510785887e-05
1.0284288610412217e-06,5.687711807865318e-07,2.930194557028184e-07,1.233483907596227e-05
9.916495381766151e-07,5.660450360176395e-07,2.898874849629548e-07,1.2447340656571238e-05
9.569191464379507e-07,5.630771623897304e-07,2.869108231412666e-07,1.2578981902024755e-05
9.243072760639421e-07,5.598859326717467e-07,2.84089400864585e-07,1.2729028865818708e-05
8.938583622985972e-07,5.564893583963224e-07,2.8142599223530985e-07,1.2896402236150929e-05
8.655925217888822e-07,5.529050883679924e-07,2.789255334294936e-07,1.3079726075129553e-05
8.395079664845238e-07,5.491512722623654e-07,2.7659208316101445e-07,1.3277405108208028e-05
8.15583451643715e-07,5.452462755254093e-07,2.7442735475325606e-07,1.348770469992358e-05
7.937808455129283e-07,5.412084330925121e-07,2.724317737431764e-07,1.3708802457593412e-05
7.740489823405998e-07,5.370556373166645e-07,2.7060559664370324e-07,1.393882544917384e-05
7.563283568850013e-07,5.328042791713733e-07,2.689486574074198e-07,1.4175917858463388e-05
7.405550017100547e-07,5.284692412537299e-07,2.6746089220928976e-07,1.4418326015842184e-05
7.266634166809759e-07,5.240653389308615e-07,2.661446952856223e-07,1.4664442252973945e-05
7.145877814120875e-07,5.196080407101036e-07,2.6500563528912e-07,1.4912787695639301e-05
7.042612136357121e-07,5.151119796620658e-07,2.6405039374221377e-07,1.516196952046914e-05
6.956158573785148e-07,5.105893660747564e-07,2.632853976078081e-07,1.5410661965530944e-05
6.885850738999862e-07,5.060502102473021e-07,2.6271718018395353e-07,1.5657616382726966e-05
6.831052723621099e-07,5.015031806784661e-07,2.6235268939051684e-07,1.5901651670063116e-05
6.791142025585956e-07,4.969563260887937e-07,2.62199260836324e-07,1.614159866130329e-05
6.765457276664108e-07,4.924181346981586e-07,2.622640877480621e-07,1.6376236662655013e-05
6.753262713959871e-07,4.879000616248554e-07,2.625527334456716e-07,1.660427612891509e-05
6.753767204184147e-07,4.834209128162497e-07,2.6306797047858736e-07,1.682441728546722e-05
6.76615856725558e-07,4.790094210919715e-07,2.6380961855002124e-07,1.7035455694276152e-05
6.789605615970397e-07,4.747011664459609e-07,2.647750239058131e-07,1.7236349151869867e-05
6.823245996371116e-07,4.7053274863823216e-07,2.65961735304372e-07,1.7426205659263273e-05
6.866199146801639e-07,4.665389493383665e-07,2.6737140814920805e-07,1.7604231330484248e-05
6.917606949595143e-07,4.6275234490020286e-07,2.690097626552965e-07,1.7769684350836083e-05
6.976681545339897e-07,4.5920115966333935e-07,2.708824270383209e-07,1.7921852318225353e-05
7.042729443495231e-07,4.5590655494269627e-07,2.7299145212308785e-07,1.806004942419045e-05
7.115123003520677e-07,4.528831441804332e-07,2.753341450356951e-07,1.8183638186682528e-05
7.193238479267495e-07,4.50141322677484e-07,2.779031357874072e-07,1.829208070087304e-05
7.276408379690638e-07,4.4768854534029715e-07,2.80686628794153e-07,1.8385002624284576e-05
7.363908323474984e-07,4.4553041858988674e-07,2.836685532109034e-07,1.846226624360902e-05
7.454970816324417e-07,4.43672182937636e-07,2.868294481308211e-07,1.8524032689586648e-05
7.548801735717176e-07,4.4211890757676104e-07,2.901485014835026e-07,1.8570733949387672e-05
7.644580393078218e-07,4.408740588522521e-07,2.936055962565004e-07,1.8602925673035188e-05
7.741452531847578e-07,4.399392146516405e-07,2.971818350442698e-07,1.862112673236024e-05
7.838536262043445e-07,4.393170975473504e-07,3.008591781993033e-07,1.862576983529904e-05
7.934948889911879e-07,4.390146659566551e-07,3.046205998910665e-07,1.8617259121485172e-05
8.029845890696132e-07,4.3904166136613167e-07,3.084502011918829e-07,1.8596035231583675e-05
8.122446751657769e-07,4.3940586079385776e-07,3.1233276415787144e-07,1.856259431995293e-05
8.212039791365682e-07,4.401096369943694e-07,3.1625276894000394e-07,1.851748339639643e-05
8.298005881325203e-07,4.4114933456381723e-07,3.201930472273055e-07,1.846128160819334e-05
8.379889206338431e-07,4.4251657145254257e-07,3.241343637376884e-07,1.8394570683653187e-05
8.457474864257802e-07,4.442024549579253e-07,3.2805666564173716e-07,1.831795596744896e-05
8.530812769461476e-07,4.4620457319121523e-07,3.319409698621545e-07,1.823212598261252e-05
8.600177441534478e-07,4.4853047657894743e-07,3.35769797817229e-07,1.8137820298190186e-05
8.665994973813034e-07,4.51192870420095e-07,3.395257581810168e-07,1.8035715700027427e-05
8.728756746291218e-07,4.5420141326015327e-07,3.431906428476652e-07,1.792641068270869e-05
8.788933184954193e-07,4.575577102677817e-07,3.467457258974725e-07,1.7810604101938768e-05
8.846913736180405e-07,4.6125406469590025e-07,3.501720481511384e-07,1.7689354287933276e-05
8.902987331437469e-07,4.6527398448757687e-07,3.534513362619251e-07,1.756418357046432e-05
8.957347569068516e-07,4.6959388180144776e-07,3.5656797393329174e-07,1.7436941834356633e-05
9.010088397678244e-07,4.7418673960705175e-07,3.595097276459479e-07,1.7309580137273564e-05
9.061187811515492e-07,4.790261759341216e-07,3.622659642315553e-07,1.7183971322860568e-05
9.110513614563887e-07,4.840871420865285e-07,3.6482555851584407e-07,1.70617843035298e-05
9.157852871235508e-07,4.893437463141488e-07,3.6717618033241633e-07,1.694438913039249e-05
9.202945692788796e-07,4.947682767085914e-07,3.693044769426449e-07,1.683280038847639e-05
9.245532471780998e-07,5.0033261428279e-07,3.711967774891106e-07,1.6727682708749425e-05
9.285411875818435e-07,5.060095880245834e-07,3.728400673240947e-07,1.6629398953230054e-05
9.322497216293243e-07,5.117720490154582e-07,3.742230625044349e-07,1.653805441649368e-05
9.356894919789636e-07,5.17591089321932e-07,3.7533768718663227e-07,1.645353086295494e-05
9.388991907924684e-07,5.234360882422489e-07,3.7618081855238425e-07,1.6375518548426395e-05
9.419476856113424e-07,5.292760485517303e-07,3.767557349441213e-07,1.6303550721790575e-05
9.449269142356483e-07,5.350802630992617e-07,3.7707244140004994e-07,1.623705517267877e-05
9.479384962983187e-07,5.408179757757737e-07,3.771463599687143e-07,1.6175429778735912e-05
9.51078213984718e-07,5.46457943667209e-07,3.7699723335253206e-07,1.6118139380809236e-05
9.544256875084324e-07,5.519685283289076e-07,3.7664977421898364e-07,1.6064800157954673e-05
9.580430307119807e-07,5.573180765871779e-07,3.761333426291076e-07,1.601519856707008e-05
9.6197637291451e-07,5.624758551711831e-07,3.754787743745297e-07,1.5969253815236968e-05
9.662545613163041e-07,5.674136667556245e-07,3.747150978778396e-07,1.5926981214156732e-05
9.708876239743068e-07,5.721066679011352e-07,3.7386819401362533e-07,1.5888480665880075e-05
9.75868267338432e-07,5.765323092125243e-07,3.729604751916997e-07,1.585393015821511e-05
9.811750540772079e-07,5.806681370152943e-07,3.720116736541922e-07,1.5823557608483622e-05
9.867753086542601e-07,5.8449017642734e-07,3.7104204349590345e-07,1.5797590956819553e-05
9.926269925216172e-07,5.879734368548033e-07,3.7007540905052966e-07,1.577619537832918e-05
9.986796599744943e-07,5.910944416030933e-07,3.691373878471212e-07,1.5759407094250453e-05
1.004877038924998e-06,5.938335800372728e-07,3.682503608285024e-07,1.5747114179313882e-05
1.0111629495496756e-06,5.961755681650921e-07,3.6743072173781866e-07,1.5739110885522274e-05
1.017486799436436e-06,5.981088014975246e-07,3.666891780779315e-07,1.5735157305276106e-05
1.0238050544702536e-06,5.996248441607051e-07,3.660322399821581e-07,1.5734990298719532e-05
1.0300803178776942e-06,6.007181728169009e-07,3.6546433610294743e-07,1.5738306444394587e-05
1.0362786114566445e-06,6.013861408867158e-07,3.649888778902372e-07,1.5744737841033985e-05
1.0423641414711034e-06,6.016289293333523e-07,3.6460776854968297e-07,1.5753836405118586e-05
1.0482949161825985e-06,6.014488421611885e-07,3.6432210318044954e-07,1.5765088694812734e-05
1.0540218711139202e-06,6.008501027191512e-07,3.6413454044742887e-07,1.5777937239024727e-05
1.0594901854704352e-06,5.998404892325671e-07,3.640505277430278e-07,1.579178551883179e-05
1.0646425283840185e-06,5.984326651856383e-07,3.6407691287815e-07,1.580604791635703e-05
1.0694252742091871e-06,5.966428755904224e-07,3.64219107691932e-07,1.5820259105713902e-05
1.0737961846108816e-06,5.944887505757247e-07,3.644788094800664e-07,1.583412116363551e-05
1.0777310726328377e-06,5.919896114535442e-07,3.648530861301157e-07,1.5847437954575176e-05
1.0812294804211868e-06,5.891684564180882e-07,3.65335188864471e-07,1.5860031724152287e-05
1.0843191503773576e-06,5.860519158472499e-07,3.659171835226394e-07,1.587169811846214e-05
1.0870549586298097e-06,5.826697825957981e-07,3.6659180307709596e-07,1.5882180104224792e-05
1.0895100688437945e-06,5.790579293499063e-07,3.673517514311991e-07,1.5891156081937886e-05
1.0917644753753113e-06,5.752608798155074e-07,3.6818896033442137e-07,1.5898253655483593e-05
1.0938964683135584e-06,5.713285740246328e-07,3.69095876921213e-07,1.5903080285531505e-05
1.0959783405020235e-06,5.673095590062869e-07,3.7006718618576607e-07,1.5905246019942585e-05
1.0980747886317213e-06,5.632455141361485e-07,3.7109965002526777e-07,1.59043630613644e-05
1.1002411821389693e-06,5.591689972309567e-07,3.7219033200451864e-07,1.5900060478807292e-05
1.1025212755023242e-06,5.551042429988504e-07,3.7333500643572e-07,1.589209531194807e-05
1.1049452974239416e-06,5.510695051656651e-07,3.745276432758008e-07,1.588051568299203e-05
1.1075281829567611e-06,5.470798403876872e-07,3.757604601210032e-07,1.5865676947912963e-05
1.1102694525492722e-06,5.431495615345673e-07,3.770236954289748e-07,1.5848090624849382e-05
1.1131567995062846e-06,5.392921514314868e-07,3.7830512515258886e-07,1.5828358621342514e-05
1.1161711095200991e-06,5.355179043062891e-07,3.7959013014228e-07,1.580726920191243e-05
1.1192889033984774e-06,5.318331173003211e-07,3.808632534541161e-07,1.5785843042216164e-05
1.1224837772182804e-06,5.282417440623973e-07,3.821102151721215e-07,1.576525228346981e-05
1.1257322008005406e-06,5.247462670918489e-07,3.8331835914100435e-07,1.5746710839626136e-05
1.1290224966464236e-06,5.213461746727732e-07,3.8447653289146314e-07,1.5731374581665564e-05
1.1323595488045337e-06,5.180364679924727e-07,3.855753672978981e-07,1.5720256790566775e-05
1.1357622039911586e-06,5.148083645318418e-07,3.866061956688456e-07,1.571417371293907e-05
1.1392569339668136e-06,5.116506130323196e-07,3.875591128533345e-07,1.571371144037583e-05
1.142872716647549e-06,5.085495357359736e-07,3.8842276066601575e-07,1.5719197520973322e-05
1.146640156233882e-06,5.054893110216792e-07,3.891857415647324e-07,1.5730681088088075e-05
1.1505942111375729e-06,5.024545896621948e-07,3.8983843338483315e-07,1.574794513134446e-05
1.154778655601605e-06,4.994338133299652e-07,3.903745179024365e-07,1.5770549768150956e-05
1.1592512208303186e-06,4.964191927986985e-07,3.907908379648583e-07,1.5797868790840513e-05
1.164084716930053e-06,4.934039746804176e-07,3.9108592454225067e-07,1.582910416288109e-05
1.169358562321053e-06,4.903826956360739e-07,3.91259059325316e-07,1.5863301799892386e-05
1.1751448159060195e-06,4.873544983039524e-07,3.9130957283989273e-07,1.5899387762014973e-05
1.1814991886550742e-06,4.843233023857872e-07,3.912358553701923e-07,1.5936221649712993e-05
1.1884594530853709e-06,4.812942594329878e-07,3.910358186042699e-07,1.5972648335428996e-05
1.1960448276230386e-06,4.782713291437608e-07,3.907097341656528e-07,1.6007529056941415e-05
1.2042538880616586e-06,4.752569124833089e-07,3.902627365220121e-07,1.6039746912277304e-05
1.2130637103466185e-06,4.722513487054117e-07,3.897044810140806e-07,1.6068202700825247e-05
1.222430188015089e-06,4.6925233459034643e-07,3.890473697621796e-07,1.6091827147360434e-05
1.2322890141691398e-06,4.6625612604974394e-07,3.883045467580626e-07,1.610960213453869e-05
1.2425600462728902e-06,4.632600580767888e-07,3.8748720562548773e-07,1.6120563824653796e-05
1.2531561959183838e-06,4.6026361522844315e-07,3.866025486351249e-07,1.6123798730661528e-05
1.2639925383732607e-06,4.5726748578546715e-07,3.856539582998159e-07,1.611844948913052e-05
1.2749919668405755e-06,4.5427212267817833e-07,3.8464254522323257e-07,1.610371934572888e-05
1.286090260982841e-06,4.5127684197523544e-07,3.835681957995986e-07,1.6078895438354864e-05
1.2972435175405384e-06,4.4828009358249207e-07,3.824295601437483e-07,1.604343655825369e-05
1.3084353192040665e-06,4.4528074293529565e-07,3.812239553652132e-07,1.5997088338961278e-05
1.3196781107285142e-06,4.422807599716153e-07,3.7994800900259625e-07,1.5939909516925323e-05
1.3310044662153591e-06,4.392894550906255e-07,3.7859909085438773e-07,1.5872173661808132e-05
1.3424509279113408e-06,4.3632611548012324e-07,3.771768197391324e-07,1.5794253238570635e-05
1.354043642255281e-06,4.334201158681743e-07,3.7568340438778963e-07,1.5706573099374287e-05
1.3657910784872571e-06,4.306101328398486e-07,3.741222153014393e-07,1.560958902469431e-05
1.3776823608735774e-06,4.2793990103696274e-07,3.7249554865796453e-07,1.5503745383817803e-05
1.389690453781086e-06,4.254500122687285e-07,3.7080329304398186e-07,1.5389446991119917e-05
1.4017799883820564e-06,4.2317158387839606e-07,3.690435559938184e-07,1.5267077235384878e-05
1.413915062397383e-06,4.2112553855793343e-07,3.672148394573401e-07,1.5137063346404361e-05
1.426060636417253e-06,4.193260568824384e-07,3.653172365141685e-07,1.4999963740558059e-05
1.4381765437591541e-06,4.1778428647630527e-07,3.6335158243009136e-07,1.4856530557752073e-05
1.450210756034544e-06,4.165088692361634e-07,3.613189633686103e-07,1.4707743937424637e-05
1.4620985256835981e-06,4.155040425413356e-07,3.592209962539913e-07,1.4554838238956547e-05
1.4737670465229125e-06,4.147683756137996e-07,3.570595226479129e-07,1.4399274154471484e-05
1.4851405356217747e-06,4.142951421408956e-07,3.548365177922734e-07,1.4242605868607288e-05
1.4961411213428513e-06,4.1407364983105283e-07,3.525543703575415e-07,1.4086296829826801e-05
1.5066866113731868e-06,4.140909648055501e-07,3.502153267881277e-07,1.3931589071848284e-05
1.5166899222412613e-06,4.143339378509938e-07,3.478206589833321e-07,1.3779464351314175e-05
1.526061347575455e-06,4.14790665742026e-07,3.453707243145743e-07,1.3630662711974644e-05
1.5347120175561847e-06,4.154518042911386e-07,3.4286520105093067e-07,1.3485731585922748e-05
1.5425583355242236e-06,4.1631404105310287e-07,3.4030297804474266e-07,1.3345110050091647e-05
1.5495290486936345e-06,4.1738343343371036e-07,3.376828784292914e-07,1.3209263153699174e-05
1.5555753588334763e-06,4.186740583259244e-07,3.350054934021772e-07,1.3078834149045968e-05
1.5606783220361618e-06,4.202026274704187e-07,3.3227546290230477e-07,1.2954687346920352e-05
1.564845660065321e-06,4.219828668046711e-07,3.295032729215964e-07,1.2837776875793938e-05
1.5680992072380369e-06,4.240222419054485e-07,3.267046655099096e-07,1.2728958545201667e-05
1.5704623178616606e-06,4.2632098175286314e-07,3.238975258001892e-07,1.2628879414484495e-05
1.5719527162537911e-06,4.288723019665824e-07,3.210989007853992e-07,1.2538014377686446e-05
1.572579958881252e-06,4.316634947825588e-07,3.183246395468873e-07,1.2456886325018232e-05
1.5723468983725766e-06,4.3467821839585573e-07,3.155911692373131e-07,1.2386344028732227e-05
1.5712534192267001e-06,4.379004260150758e-07,3.129162657038444e-07,1.2327651960012973e-05
1.5692972232767243e-06,4.4131739504876566e-07,3.103174826394182e-07,1.228234667506298e-05
1.5664709755903945e-06,4.4491765564918834e-07,3.078099053876336e-07,1.225202182536604e-05
1.56276137072047e-06,4.486858019987542e-07,3.054051450123273e-07,1.2238154320241866e-05
1.5581529311725525e-06,4.526000760570079e-07,3.031119078703179e-07,1.2241991098631524e-05
1.552634577725674e-06,4.566335864616615e-07,3.009365640555909e-07,1.2264483477878936e-05
1.5462069130482285e-06,4.6075635260955477e-07,2.9888329107735784e-07,1.23062481267294e-05
1.5388881209628656e-06,4.6493631851314343e-07,2.9695531055754373e-07,1.2367557651268284e-05
1.530715328132014e-06,4.6913936908292073e-07,2.951565897838148e-07,1.2448367779317094e-05
1.5217401036486342e-06,4.7332992581546774e-07,2.934915010532336e-07,1.2548351660512644e-05
1.5120208387785026e-06,4.774730539448038e-07,2.919625378305812e-07,1.2666903017815871e-05
1.5016177484146016e-06,4.815376823516325e-07,2.905688378700995e-07,1.2803121616247564e-05
1.4905925463697862e-06,4.854991804761957e-07,2.893067124390218e-07,1.2955826764582848e-05
1.4790082746106713e-06,4.893389104528396e-07,2.8817072628819947e-07,1.312360492226275e-05
1.4669277184893244e-06,4.930414820312033e-07,2.871539079302109e-07,1.3304877205401543e-05
1.45441532591065e-06,4.965928000581712e-07,2.8624723464947065e-07,1.349798881211228e-05
1.441543285008076e-06,4.999797642744804e-07,2.854397807300086e-07,1.3701289997962684e-05
1.428393875050016e-06,5.031909521736798e-07,2.847205685010398e-07,1.3913164634920443e-05
1.4150533077795332e-06,5.062177168693749e-07,2.840805459394714e-07,1.4132024273406726e-05
1.401602448227294e-06,5.090541916155299e-07,2.835122204725908e-07,1.43563078495582e-05
1.3881115807596953e-06,5.116957802487209e-07,2.830076810438699e-07,1.4584488147750936e-05
1.3746403844390105e-06,5.141370833442716e-07,2.825574017019205e-07,1.4815061178182721e-05
1.361240251906172e-06,5.163696859876578e-07,2.821502770521673e-07,1.5046505021902005e-05
1.347956389698809e-06,5.183810310738755e-07,2.817740277709545e-07,1.5277239628885087e-05
1.3348276912704495e-06,5.201551739362128e-07,2.8141546525374397e-07,1.5505640487846314e-05
1.321883643517312e-06,5.21674517963268e-07,2.8106112246942894e-07,1.5730105458585183e-05
1.3091409139471594e-06,5.22921798703267e-07,2.806989194029385e-07,1.5949107969596272e-05
1.296602873274036e-06,5.238817514770914e-07,2.803194231735214e-07,1.61611897090903e-05
1.284262258654724e-06,5.245422495705779e-07,2.799147984214489e-07,1.636493334449475e-05
1.2721053990369392e-06,5.24894754365939e-07,2.7947678669417447e-07,1.6558970173264713e-05
1.2601175164230223e-06,5.249337928182167e-07,2.789959017527921e-07,1.6742007975693334e-05
1.2482891384148388e-06,5.246568863908681e-07,2.784620377723793e-07,1.6912843073710555e-05
1.2366223664686328e-06,5.240656484341343e-07,2.7786602696897093e-07,1.707036759524975e-05
1.2251350005658672e-06,5.231662271010283e-07,2.772006096669549e-07,1.7213604490798027e-05
1.2138607896463153e-06,5.219678454184024e-07,2.7645967346324704e-07,1.7341762578942632e-05
1.2028445676762014e-06,5.204800688191929e-07,2.7563728410657246e-07,1.745428986071748e-05
1.1921329224574918e-06,5.187110069457395e-07,2.7472780142664514e-07,1.7550939998391255e-05
1.1817653100857828e-06,5.16668268762158e-07,2.737267987383972e-07,1.7631837426981595e-05
1.1717702219750474e-06,5.143610461365083e-07,2.726317915254105e-07,1.7697457486413834e-05
1.1621649622832985e-06,5.118005062010139e-07,2.714417704046895e-07,1.7748485119326458e-05
1.1529560719313828e-06,5.089997127610286e-07,2.701562594991617e-07,1.7785634748899072e-05
1.144139948008665e-06,5.059756213943175e-07,2.687752884487121e-07,1.7809537078086413e-05
1.1357057266204159e-06,5.02750192058134e-07,2.673001012066914e-07,1.782072461554042e-05
1.127644258968572e-06,4.993473018472904e-07,2.657335246839393e-07,1.7819678368279105e-05
1.1199612253207753e-06,4.957889162865558e-07,2.6408008165197613e-07,1.7806881670114357e-05
1.1126833392036707e-06,4.920939892088028e-07,2.623462540151739e-07,1.7782848176757565e-05
1.1058505877997197e-06,4.882796543088236e-07,2.6053980357511864e-07,1.77481153443499e-05
1.0995014964764759e-06,4.843648128406807e-07,2.586682206802837e-07,1.770325920498714e-05
1.0936632961231449e-06,4.803742299541241e-07,2.56738100897201e-07,1.7649010997696172e-05
1.088351678330786e-06,4.763384087048265e-07,2.547559761744329e-07,1.758637872179876e-05
1.0835764514604506e-06,4.7228918167198294e-07,2.5272996856786736e-07,1.7516594382624397e-05
1.0793481287870743e-06,4.6825529596786973e-07,2.506708626847125e-07,1.7440933298106833e-05
1.075683489330249e-06,4.6426000898005246e-07,2.485916090650752e-07,1.7360585580898956e-05
1.0726056763386372e-06,4.6032095319847183e-07,2.4650593484142296e-07,1.7276696902777408e-05
1.0701354454289636e-06,4.5645271230499076e-07,2.44426605518727e-07,1.7190554561406304e-05
1.0682820746380585e-06,4.526701822291889e-07,2.4236413791859016e-07,1.7103714801206522e-05
1.067042614826882e-06,4.4898890824085065e-07,2.403269634136144e-07,1.7017943966178837e-05
1.0664043008406082e-06,4.454222853994747e-07,2.383225370118387e-07,1.6935068809748714e-05
1.0663439456795094e-06,4.419792942485406e-07,2.3635863743684336e-07,1.6856836445562067e-05
1.0668270919439672e-06,4.386647171174943e-07,2.344440070122169e-07,1.6784804326935195e-05
1.067809317840545e-06,4.354809635045181e-07,2.3258767539242192e-07,1.6720261972068708e-05
1.069237560658502e-06,4.3242926413280666e-07,2.3079790828792843e-07,1.6664178564533394e-05
1.0710507108300742e-06,4.295091040197465e-07,2.2908151396677923e-07,1.661717268601185e-05
1.0731813909837923e-06,4.2671777162991316e-07,2.2744331083945605e-07,1.6579512070085348e-05
1.0755591873847903e-06,4.240512535870702e-07,2.2588593694228826e-07,1.6551161516330537e-05
1.078114012698688e-06,4.2150550362972777e-07,2.244102564732288e-07,1.6531870790470497e-05
1.0807784503440572e-06,4.190777783704016e-07,2.2301635871203852e-07,1.6521237463668436e-05
1.0834873938604406e-06,4.167672064144711e-07,2.2170476629017878e-07,1.6518703258288938e-05
1.0861760238978018e-06,4.145731456505747e-07,2.2047688736024924e-07,1.6523538778725076e-05
1.0887790514960348e-06,4.124929649696539e-07,2.1933445602234373e-07,1.653488644044618e-05
1.091231112297075e-06,4.105210559524244e-07,2.182785889235837e-07,1.6551851446838407e-05
1.0934686220837314e-06,4.086488810270554e-07,2.173088998967889e-07,1.657358335009437e-05
1.0954336415049971e-06,4.0686666281070964e-07,2.164232519714984e-07,1.6599325751110336e-05
1.0970766270513108e-06,4.0516564591780895e-07,2.1561802263947096e-07,1.6628450998534973e-05
1.0983570381737565e-06,4.0353888122765455e-07,2.148887282117485e-07,1.6660481701719612e-05
1.09924572082074e-06,4.01981166539199e-07,2.142318531862578e-07,1.669508089714787e-05
1.099730965125195e-06,4.004886752028175e-07,2.1364646949013288e-07,1.673200106596338e-05
1.0998238184465706e-06,3.990582645681046e-07,2.131334433793543e-07,1.6771005852776213e-05
1.099556353250082e-06,3.976873240164189e-07,2.1269367482192077e-07,1.6811799275841488e-05
1.098973214114925e-06,3.963739652311685e-07,2.123279834076482e-07,1.6853979521886605e-05
1.0981229040517122e-06,3.951166827452026e-07,2.1203849695194238e-07,1.6897023664107076e-05
1.0970515563612319e-06,3.9391373065734774e-07,2.1182927032911093e-07,1.6940333350492247e-05
1.095798108278368e-06,3.927630125810524e-07,2.117057433499086e-07,1.6983323711079494e-05
1.094393242976823e-06,3.916630753061089e-07,2.1167526022893017e-07,1.70254715360942e-05
1.092865630966227e-06,3.906149867086368e-07,2.1174832720565906e-07,1.706630195350333e-05
1.0912523927052237e-06,3.8962369891462457e-07,2.1193761186210454e-07,1.710535959084275e-05
1.089604875820624e-06,3.8869780636871965e-07,2.1225522486585893e-07,1.7142169866412907e-05
1.0879855993921385e-06,3.8784787124862977e-07,2.1271087148707022e-07,1.71761909942634e-05
1.0864607170635552e-06,3.870853387772779e-07,2.133109949569964e-07,1.720679456177531e-05
1.085092139003611e-06,3.864236083282828e-07,2.1405885184956704e-07,1.7233291369007378e-05
1.083929972148537e-06,3.858784860770417e-07,2.1495550975489308e-07,1.725500507607745e-05
1.0830070632870238e-06,3.854657285241479e-07,2.160007472092937e-07,1.727137814782028e-05
1.0823376820494202e-06,3.8519776255397846e-07,2.171931041762841e-07,1.7282036889756994e-05
1.081920717874356e-06,3.850813889707809e-07,2.185290974927251e-07,1.728677301910075e-05
1.081746803706881e-06,3.851170816300082e-07,2.2000346112487306e-07,1.728547857736546e-05
1.0818044104742252e-06,3.853005694148797e-07,2.216116425652587e-07,1.7278067509945845e-05
1.0820786227165536e-06,3.8562543143928594e-07,2.2335205001740197e-07,1.7264408297646838e-05
1.0825460959974188e-06,3.8608412419420057e-07,2.2522542591886755e-07,1.7244324460037098e-05
1.0831751918848163e-06,3.8666756445273425e-07,2.2723204935491128e-07,1.721768315796661e-05
1.083931648300257e-06,3.8736730205834105e-07,2.293694418224913e-07,1.7184491871254515e-05
1.0847843949431489e-06,3.881825951983933e-07,2.3163226353347482e-07,1.7144921342649554e-05
1.0857095547455484e-06,3.89127393531596e-07,2.3401332953632784e-07,1.7099263390882157e-05
1.0866909332301977e-06,3.9023048092708456e-07,2.3650453405060266e-07,1.7047862975057328e-05
1.087715359832185e-06,3.915290945129945e-07,2.3909782515666014e-07,1.6991082410016196e-05
1.088767802238241e-06,3.9306167379784345e-07,2.417852266878911e-07,1.6929381961629365e-05
1.0898315561432767e-06,3.9486374872562673e-07,2.4455770729527643e-07,1.6863435789128593e-05
1.0908924011883334e-06,3.969668500701825e-07,2.4740491809676764e-07,1.679409367172942e-05
1.0919449978825784e-06,3.9939919398441727e-07,2.503162840180936e-07,1.6722270280734605e-05
1.0929985633930044e-06,4.021874833769278e-07,2.532818816797628e-07,1.664893455657243e-05
1.0940765693965237e-06,4.053570590772025e-07,2.562923212742044e-07,1.6575104119439815e-05
1.0952117469152108e-06,4.089280672612929e-07,2.5933859764893236e-07,1.65017590585659e-05
1.096441936181455e-06,4.1291090875539523e-07,2.624128723182024e-07,1.6429755994228473e-05
1.097806810244732e-06,4.1730514216750154e-07,2.655094761081233e-07,1.635977384853216e-05
1.0993429022947344e-06,4.221007899377511e-07,2.686244244048997e-07,1.629227696721186e-05
1.1010774024997548e-06,4.2727992322597826e-07,2.717536286398908e-07,1.6227507800669165e-05
1.1030228365250492e-06,4.3281932876801174e-07,2.7489225591211533e-07,1.6165509877686918e-05
1.1051748406379543e-06,4.386943808094348e-07,2.78036094973244e-07,1.6106169047379662e-05
1.1075139039606551e-06,4.448827949243865e-07,2.8118323198632805e-07,1.604925730417439e-05
1.1100088314221406e-06,4.513670621064561e-07,2.843338264216977e-07,1.5994458865421954e-05
1.1126190037865043e-06,4.581338899209204e-07,2.874874603920785e-07,1.5941372408171973e-05
1.11529577956906e-06,4.65170581195733e-07,2.9064090231956446e-07,1.5889511727716015e-05
1.1179850706318658e-06,4.7246064978137853e-07,2.9378902375658866e-07,1.5838334411092845e-05
1.1206317902882936e-06,4.799810894913785e-07,2.9692702656845933e-07,1.5787279649790744e-05
1.123186490155751e-06,4.877029907623388e-07,3.000504230633439e-07,1.5735768745396334e-05
1.1256118147993623e-06,4.955945700084379e-07,3.0315303931295826e-07,1.5683181582425046e-05
1.1278829199852876e-06,5.036225348226829e-07,3.0622589177724763e-07,1.5628850611026907e-05
1.1299827652842522e-06,5.117502004464361e-07,3.092574189497053e-07,1.5572072469457524e-05
1.1319005183225477e-06,5.199356793535109e-07,3.122339229308764e-07,1.5512128663106194e-05
1.1336332664098231e-06,5.281323548022774e-07,3.151404360346269e-07,1.5448316328084696e-05
1.1351835214396535e-06,5.362902550121378e-07,3.179620208427103e-07,1.5379975444720802e-05
1.1365517853200065e-06,5.443581557637295e-07,3.2068408947614014e-07,1.5306506062935283e-05
1.1377316938160906e-06,5.522874823160816e-07,3.232915265353585e-07,1.5227391487549416e-05
1.1387136245139911e-06,5.60035059736538e-07,3.2576813592495944e-07,1.5142223135651349e-05
1.1394925529566337e-06,5.675615227570399e-07,3.2809700711577313e-07,1.5050697332761008e-05
1.1400712455903952e-06,5.748286442845116e-07,3.302615455369237e-07,1.4952580625128562e-05
1.1404592111478971e-06,5.817992402935549e-07,3.3224688707676105e-07,1.4847671176962912e-05
1.1406757898118772e-06,5.884381629970629e-07,3.340403457149555e-07,1.4735792611763144e-05
1.14076112592161e-06,5.947130872643553e-07,3.3563088662684714e-07,1.4616849885944293e-05
1.1407874812417048e-06,6.005956955633562e-07,3.370100756744961e-07,1.4490908576277869e-05
1.1408586832652235e-06,6.06061969389001e-07,3.3817433532752664e-07,1.4358205150290588e-05
1.1410960373359342e-06,6.110903931976314e-07,3.391254352505969e-07,1.4219084809407273e-05
1.141621605725543e-06,6.156600558326001e-07,3.3986873119732537e-07,1.4073946353464572e-05
1.1425496469680635e-06,6.197503425163027e-07,3.404119396762279e-07,1.392320901591723e-05
1.1439870603961832e-06,6.233413113580993e-07,3.407657546851314e-07,1.3767285899060386e-05
1.1460351049748428e-06,6.264138120115722e-07,3.409439787874752e-07,1.3606588653677433e-05
1.1487853897792531e-06,6.289497212635383e-07,3.409617428632615e-07,1.3441539370720924e-05
1.1523122064127121e-06,6.309325528794415e-07,3.4083346969973217e-07,1.3272543759897016e-05
1.1566736442856815e-06,6.323476978738163e-07,3.405718961878221e-07,1.309996772622161e-05
1.161930201468464e-06,6.331821139693471e-07,3.4018876834321077e-07,1.2924165797637186e-05
1.168168696149864e-06,6.334246490204227e-07,3.396969914760043e-07,1.2745538690483783e-05
1.175510113275871e-06,6.330680290036952e-07,3.391112424737616e-07,1.2564601559887936e-05
1.1840969690074746e-06,6.321112417542755e-07,3.384457450919976e-07,1.2382043555527311e-05
1.1940724612638729e-06,6.305603394728006e-07,3.377124464482835e-07,1.2198707993697346e-05
1.2055631602014788e-06,6.284293320197886e-07,3.3692119092818167e-07,1.2015483191100254e-05
1.2186696087975228e-06,6.25742774381484e-07,3.360808889600675e-07,1.1833213852293418e-05
1.2334645275959473e-06,6.225363349040147e-07,3.352015632125456e-07,1.1652692864635807e-05
1.2499966095460584e-06,6.188519645075461e-07,3.342959536704473e-07,1.1474663164529256e-05
1.2682960181403571e-06,6.147315157334261e-07,3.3337884284800986e-07,1.1299779319366225e-05
1.2883762275811784e-06,6.102151768296063e-07,3.324654821204424e-07,1.1128565556069323e-05
1.3102289714383736e-06,6.05343916251923e-07,3.315713597123889e-07,1.0961423667968603e-05
1.333815305109267e-06,6.001609210312127e-07,3.307121069605942e-07,1.0798724606252147e-05
1.3590600669126738e-06,5.947112960285508e-07,3.299016082144392e-07,1.0640920656680098e-05
1.3858544617434182e-06,5.890410399828264e-07,3.2915017156470516e-07,1.0488536793323316e-05
1.4140672764344197e-06,5.831947284779932e-07,3.284646322076637e-07,1.0342049643428945e-05
1.443561193321707e-06,5.772128758029302e-07,3.2784890010051337e-07,1.020180579436714e-05
1.4742075615537419e-06,5.711311733380656e-07,3.273044346807631e-07,1.0068041848512414e-05
1.5058945843489266e-06,5.649821624261732e-07,3.2683151038644485e-07,9.94100272007957e-06
1.5385268752585415e-06,5.587983838399894e-07,3.2643049334999463e-07,9.82115003773786e-06
1.5720169017861058e-06,5.526146060040284e-07,3.261032036083195e-07,9.709320212924367e-06
1.606271921972641e-06,5.464670187894734e-07,3.2585474219230964e-07,9.606672870560123e-06
1.6411839370099824e-06,5.403905773882088e-07,3.2569383187577e-07,9.514488083167598e-06
1.6766298595164544e-06,5.344170567118759e-07,3.256308727655235e-07,9.433962914288828e-06
1.7124772148856336e-06,5.28573991269945e-07,3.2567501424333224e-07,9.366067013330293e-06
1.7485842986204894e-06,5.228834729037563e-07,3.2583167092991726e-07,9.311471994001764e-06
1.7847959097002922e-06,5.17362307501146e-07,3.2610153449004307e-07,9.27055799266473e-06
1.8209422985728267e-06,5.120255899522621e-07,3.264809317039273e-07,9.243463547847811e-06
1.8568411450216e-06,5.068911473846632e-07,3.269628282385733e-07,9.23012367778042e-06
1.892299946176479e-06,5.019806424113871e-07,3.275377261339348e-07,9.230273856006063e-06
1.9271191224005698e-06,4.973182447821348e-07,3.281938425276007e-07,9.243457416963682e-06
1.961095414340384e-06,4.929298234048e-07,3.2891722955054533e-07,9.26906882360871e-06
1.9940244643608023e-06,4.888421388178004e-07,3.2969262983043924e-07,9.306410583547134e-06
2e-07,4.850815684995018e-07,3.305044561831834e-07,9.354740269729551e-06
2e-07,4.816733051595779e-07,3.313372877076786e-07,9.413314366591699e-06
2e-07,4.786395899136064e-07,3.3217614341370877e-07,9.481437059206627e-06
2e-07,4.759959979006954e-07,3.330064399896431e-07,9.558498007771722e-06
2e-07,4.737486884419779e-07,3.3381367235678216e-07,9.643964318183393e-06
2e-07,4.7189593343811816e-07,3.345834592334941e-07,9.73733068899173e-06
2e-07,4.704337090854922e-07,3.3530197310796536e-07,9.838082766028228e-06
2e-07,4.6936080752305696e-07,3.359565190898827e-07,9.945689097411906e-06
2e-07,4.686798791075741e-07,3.36535717148731e-07,1.0059579302402384e-05
2e-07,4.683977742328229e-07,3.370288998012057e-07,1.0179104616146036e-05
2e-07,4.685293202123533e-07,3.374262504903165e-07,1.0303518734716356e-05
2e-07,4.6910103347916815e-07,3.3772004429511087e-07,1.0431986830686886e-05
2e-07,4.7014945817114354e-07,3.379046934168177e-07,1.0563622160121789e-05
2e-07,4.7171558798477096e-07,3.379757764798857e-07,1.0697549826694654e-05
2e-07,4.7383985848994607e-07,3.3793049439266727e-07,1.083295254403164e-05
2e-07,4.765586678535074e-07,3.377692014742332e-07,1.0969060971723758e-05
2e-07,4.799007746484947e-07,3.374955974208809e-07,1.1105120146220026e-05
2e-07,4.838831149498498e-07,3.3711479585651745e-07,1.1240388746359213e-05
2e-07,4.885082755654196e-07,3.366311873335201e-07,1.1374185862664951e-05
2e-07,4.937659397887236e-07,3.3604804282399867e-07,1.1505929754703482e-05
2e-07,4.996372342572458e-07,3.353679789136081e-07,1.1635127681100874e-05
2e-07,5.060984884347843e-07,3.3459299952202027e-07,1.1761380524480967e-05
2e-07,5.131230791816432e-07,3.337250984390036e-07,1.1884436555042363e-05
2e-07,5.206838455733455e-07,3.327675246343213e-07,1.2004209677127083e-05
2e-07,5.287563416076779e-07,3.3172476930281327e-07,1.2120720726969914e-05
2e-07,5.373194256195721e-07,3.306013899597713e-07,1.2234008886104133e-05
2e-07,5.463541808851075e-07,3.294010489818868e-07,1.2344049303875951e-05
2e-07,5.558456101858572e-07,3.281260322009741e-07,1.2450706051091576e-05
2e-07,5.657869976509196e-07,3.267780016761003e-07,1.255374211946552e-05
2e-07,5.761828984256177e-07,3.253596854778386e-07,1.2652864039616895e-05
1.976325850360905e-06,5.870467663214169e-07,3.238754130958449e-07,1.2747766044986625e-05
1.949074634177833e-06,5.983928923488768e-07,3.223299835230128e-07,1.2838157162453544e-05
1.9214962939139788e-06,6.102272609355917e-07,3.207272487159242e-07,1.2923762852225213e-05
1.8937601174147984e-06,6.225429852833312e-07,3.19069356289375e-07,1.3004301169244662e-05
1.8660370792313445e-06,6.35323392455587e-07,3.1735655305877643e-07,1.3079490699298545e-05
1.8384921865024242e-06,6.485501640886172e-07,3.155878794142452e-07,1.314919286280558e-05
1.8112735524168568e-06,6.622092461464233e-07,3.13763623394738e-07,1.3213607114936673e-05
1.7845046660234124e-06,6.762905704793511e-07,3.118884565683852e-07,1.327326495516791e-05
1.7582839524392852e-06,6.907833422311612e-07,3.0997355959211823e-07,1.3328847372905071e-05
1.732688207323535e-06,7.05670301437109e-07,3.080379684494069e-07,1.338107202684026e-05
1.7077751847839868e-06,7.209238369095551e-07,3.061081680257514e-07,1.3430665720841866e-05
1.6835843642982103e-06,7.365051694669689e-07,3.04214901646317e-07,1.3478327774681273e-05
1.6601367761145138e-06,7.523667941873009e-07,3.023898857871255e-07,1.3524697664402435e-05
1.6374350584597778e-06,7.684560902158027e-07,3.006639703756248e-07,1.3570337691683846e-05
1.615465290406549e-06,7.847158217374187e-07,2.990651986113319e-07,1.3615712781579649e-05
1.5942021110758684e-06,8.010817883098681e-07,2.976172818271637e-07,1.3661177973149273e-05
1.5736149462401763e-06,8.174816487655663e-07,2.9634031488057926e-07,1.3706988265994307e-05
1.5536709031203082e-06,8.338355825198961e-07,2.952530403035548e-07,1.3753310005179581e-05
1.534334413722294e-06,8.500577121728795e-07,2.943749128422506e-07,1.3800212900426907e-05
1.5155665092402472e-06,8.660592155047581e-07,2.937268431296661e-07,1.3847664726085705e-05
1.4973261013560013e-06,8.817535195188495e-07,2.9332941913075976e-07,1.3895553875479322e-05
1.4795750812060964e-06,8.970610392114502e-07,2.931994246718419e-07,1.3943734056967907e-05
1.4622835395582697e-06,9.119104274994652e-07,2.9334864899578965e-07,1.3992070223610593e-05
1.4454294895528725e-06,9.262364355631657e-07,2.937871500938485e-07,1.4040445171572214e-05
1.428995915321114e-06,9.399776967945477e-07,2.9452773612195286e-07,1.4088700569681942e-05
1.4129689505495364e-06,9.53076922528844e-07,2.955863052827465e-07,1.413657253835224e-05
1.397335638168054e-06,9.654827198385099e-07,2.9697694060900093e-07,1.4183698048273684e-05
1.3820837409841542e-06,9.771526100781366e-07,2.987068129368134e-07,1.4229672812295791e-05
1.3672064286351748e-06,9.880584721523978e-07,3.007755714719047e-07,1.4274104981656515e-05
1.3527077568750595e-06,9.98192065809339e-07,3.0317782150095855e-07,1.4316652499344632e-05
1.3386055657328471e-06,1.0075666619248975e-06,3.059049362801672e-07,1.4357046707483584e-05
1.324931509352935e-06,1.016214920722543e-06,3.089458065358108e-07,1.439509925879564e-05
1.311727826174724e-06,1.024182998200588e-06,3.122871662263534e-07,1.4430706205347992e-05
1.2990401874538601e-06,1.0315207349950893e-06,3.159127385782845e-07,1.4463860400228686e-05
1.28690751254404e-06,1.0382737201761014e-06,3.1980285956364986e-07,1.4494650392940333e-05
1.2753557280697786e-06,1.0444814367376009e-06,3.239372917281609e-07,1.4523228109686066e-05
1.2644025586032896e-06,1.0501773243912272e-06,3.2829911125779045e-07,1.454975358199618e-05
1.2540694073303046e-06,1.05538840252229e-06,3.3287517896203263e-07,1.4574331167273695e-05
1.244389250867025e-06,1.0601373594168727e-06,3.3765338563724624e-07,1.4596978104884647e-05
1.235404224121319e-06,1.0644462099535077e-06,3.4262053989450023e-07,1.4617662693775036e-05
1.2271558782597258e-06,1.068338997307501e-06,3.4776273553523986e-07,1.4636356031011132e-05
1.2196750139772495e-06,1.0718443465125494e-06,3.5306636102746775e-07,1.4653025942918493e-05
1.212975345992258e-06,1.0749969685212445e-06,3.5851690986966574e-07,1.4667602546667099e-05
1.2070522502289664e-06,1.077836401528884e-06,3.6409634372867757e-07,1.467995719600164e-05
1.201886304825239e-06,1.0804060000335743e-06,3.697826335951239e-07,1.468990928445408e-05
1.1974483622837542e-06,1.0827546451612898e-06,3.7555180065739653e-07,1.469728500002595e-05
1.1937021966911889e-06,1.084937386540163e-06,3.8137945757123593e-07,1.4701981511063733e-05
1.1906053032496333e-06,1.087011755937695e-06,3.8724140844057936e-07,1.4703950596804544e-05
1.1881102886584995e-06,1.0890318283061754e-06,3.931147316558935e-07,1.4703119035697406e-05
1.1861665131887235e-06,1.0910447409619091e-06,3.9897799828632433e-07,1.4699329826633578e-05
1.18471975868852e-06,1.0930928309777905e-06,4.0480967950672654e-07,1.4692349732445358e-05
1.1837100340502112e-06,1.0952186984518702e-06,4.1058753064458774e-07,1.468194932382954e-05
1.1830720680724942e-06,1.097468663803882e-06,4.162904926003309e-07,1.4668021542502133e-05
1.1827423308817369e-06,1.0998939054934764e-06,4.2190111041928183e-07,1.4650651533964484e-05
1.182670183805262e-06,1.1025500224923186e-06,4.274062894180922e-07,1.4630070589367422e-05
1.1828261390066771e-06,1.1054939986554422e-06,4.3279507674662713e-07,1.4606538982409795e-05
1.1832029934343972e-06,1.10877797876254e-06,4.380545296874761e-07,1.4580266583733523e-05
1.1838109559733525e-06,1.112442868195944e-06,4.431672395264826e-07,1.455139880188558e-05
1.1846687150753906e-06,1.116514038889002e-06,4.4811191354673977e-07,1.4520016524270941e-05
1.1857929256260971e-06,1.1209981046762692e-06,4.5286540684485074e-07,1.4486134509083637e-05
1.1871895265322642e-06,1.1258817540467416e-06,4.574044673268243e-07,1.4449721092261997e-05
1.1888494600610338e-06,1.1311348693257441e-06,4.617072583095711e-07,1.4410776719532056e-05
1.1907502106300302e-06,1.1367153006320779e-06,4.657550893859249e-07,1.4369470232495182e-05
1.1928606053154556e-06,1.1425709206727725e-06,4.6953253578778107e-07,1.4326204314627662e-05
1.195144370487526e-06,1.1486409258236644e-06,4.730257836391897e-07,1.4281508335552853e-05
1.1975613989270821e-06,1.1548603767688971e-06,4.762217166900754e-07,1.4235859421814066e-05
1.2000669275064863e-06,1.161164798868319e-06,4.791079105545565e-07,1.418958081441398e-05
1.2026099935467958e-06,1.1674903768045194e-06,4.816727979143086e-07,1.414287749110589e-05
1.205134938885578e-06,1.173771760319934e-06,4.839062592866209e-07,1.4096023591047125e-05
1.207586917726141e-06,1.179941828117472e-06,4.858002634072005e-07,1.4049601485859045e-05
1.2099183974727113e-06,1.185934811493849e-06,4.873499552577645e-07,1.4004581709258835e-05
1.2120923451125263e-06,1.1916896019983544e-06,4.885553628011177e-07,1.3962183152453747e-05
1.2140801800884244e-06,1.1971495955707348e-06,4.894217962747889e-07,1.3923662307939788e-05
1.2158603446366969e-06,1.2022607868890354e-06,4.899581013942139e-07,1.3890160830636292e-05
1.2174233823370457e-06,1.206970965954808e-06,4.90174034048252e-07,1.3862615417796094e-05
1.2187777418466771e-06,1.2112288607199128e-06,4.900781925864861e-07,1.3841691626549716e-05
1.2199464590702377e-06,1.2149826182303566e-06,4.896775999163296e-07,1.3827746085127012e-05
1.2209544083385369e-06,1.2181793700445192e-06,4.889789295834241e-07,1.3820838132660956e-05
1.2218157428613845e-06,1.2207660281732015e-06,4.879902586230014e-07,1.3820769002074067e-05
1.2225291311519592e-06,1.222690208190269e-06,4.867228004959934e-07,1.3827115458655276e-05
1.223078736082087e-06,1.223901140795453e-06,4.851916765919598e-07,1.3839258467635254e-05
1.2234363872419056e-06,1.224350928762603e-06,4.834139720438252e-07,1.3856420746522962e-05
1.2235643338152763e-06,1.223995306840183e-06,4.814058003232287e-07,1.3877708225243387e-05
1.2234194038292749e-06,1.2227928342355402e-06,4.791818083507867e-07,1.3902137571708637e-05
1.2229570985240743e-06,1.2207040863993523e-06,4.767561457468469e-07,1.3928658342566148e-05
1.222133024906423e-06,1.217693154966375e-06,4.7414239197478857e-07,1.3956202016613193e-05
1.2209028965591757e-06,1.2137308983476193e-06,4.7135294733166495e-07,1.3983754826471633e-05
1.2192251192123334e-06,1.2087969988585449e-06,4.6839867155472175e-07,1.4010420560961285e-05
1.2170658950089004e-06,1.202879151716573e-06,4.6528868842787103e-07,1.4035468778454086e-05
1.2144017142732323e-06,1.195970879105065e-06,4.620311540785042e-07,1.4058370059900229e-05
1.2112166482441272e-06,1.1880700017300128e-06,4.5863466716383726e-07,1.4078776677914645e-05
1.2074981613931445e-06,1.1791784702255752e-06,4.5510944802416676e-07,1.4096426271137154e-05
1.2032358855516777e-06,1.1693028454923686e-06,4.514685813071312e-07,1.4111033220684542e-05
1.1984237320793144e-06,1.158454496978205e-06,4.4772861485662364e-07,1.4122248375596868e-05
1.1930621410260194e-06,1.1466502920111864e-06,4.4390890066647616e-07,1.4129700214631733e-05
1.1871583296754808e-06,1.1339140745930712e-06,4.4003064477991936e-07,1.4133073544966946e-05
1.1807253470036837e-06,1.1202778131361984e-06,4.361162246824774e-07,1.4132150153327622e-05
1.1737794526956405e-06,1.1057822202473444e-06,4.3218820724130726e-07,1.412676461384494e-05
1.1663354342017113e-06,1.0904764546962358e-06,4.282677222629112e-07,1.4116722163366996e-05
1.1584030409460562e-06,1.07441734451777e-06,4.243732071354517e-07,1.4101760177705234e-05
1.1499869447553656e-06,1.0576714742374694e-06,4.205201769661667e-07,1.4081575779285876e-05
1.1410892328453788e-06,1.040321083846021e-06,4.1672111238713064e-07,1.4055882986235788e-05
1.1317120814812195e-06,1.0224701645498279e-06,4.129850048904175e-07,1.4024476162325094e-05
1.1218595394658549e-06,1.004246084173619e-06,4.0931718450264006e-07,1.3987302740699094e-05
1.111541154667542e-06,9.857931383661042e-07,4.057198058748652e-07,1.3944505695385929e-05
1.1007767214891809e-06,9.672597981078242e-07,4.0219271708210093e-07,1.3896401047136817e-05
1.0895956127775403e-06,9.487869863977384e-07,3.987347375386212e-07,1.3843420863241245e-05
1.078033419636704e-06,9.305036916376522e-07,3.953447128599132e-07,1.3786037238373507e-05
1.0661333775997284e-06,9.125310293727064e-07,3.9202188754202327e-07,1.3724671079018794e-05
1.0539482874866985e-06,8.949899110438137e-07,3.8876761385584577e-07,1.3659631518261356e-05
1.041536386893436e-06,8.78004409173884e-07,3.855870537373686e-07,1.359111423368295e-05
1.0289539727932899e-06,8.616970544464512e-07,3.8248743318616904e-07,1.3519244119518568e-05
1.0162505976944346e-06,8.461811643861791e-07,3.7947574986643635e-07,1.3444142598902264e-05
1.0034680983998738e-06,8.315563393816301e-07,3.7655839854444397e-07,1.3365991478426781e-05
9.90641394558606e-07,8.179060752316257e-07,3.737411178190929e-07,1.3285061234959295e-05
9.77799484002689e-07,8.052975405592337e-07,3.7102971623190776e-07,1.3201691448140927e-05
9.649664548281375e-07,7.937882760371886e-07,3.6843119477510467e-07,1.3116248166624636e-05
9.521630551558966e-07,7.83437791641008e-07,3.659529137340005e-07,1.3029141893644885e-05
9.39407677403702e-07,7.743141751058257e-07,3.6360014125471846e-07,1.2940920052597325e-05
9.267156984523256e-07,7.66491241019441e-07,3.613743811433041e-07,1.2852289732667281e-05
9.140989134256097e-07,7.600414967214524e-07,3.59273652345184e-07,1.2764036017726262e-05
9.015664055951687e-07,7.550306683260852e-07,3.5729399492179867e-07,1.267696025424634e-05
8.891276642536863e-07,7.515136759557394e-07,3.5543155159739864e-07,1.259185027969037e-05
8.767977502422457e-07,7.495290645347298e-07,3.536854683260625e-07,1.2509428651492431e-05
8.645994955167494e-07,7.490932970748844e-07,3.5206049525199795e-07,1.2430295467829504e-05
8.525600541134042e-07,7.502006167212155e-07,3.5056676353460533e-07,1.235489489386816e-05
8.40708168399989e-07,7.528293635819312e-07,3.492165730500206e-07,1.228350382433181e-05
8.290762995405981e-07,7.569492737227587e-07,3.480205343467793e-07,1.2216232018280595e-05
8.177016504640439e-07,7.625252582417132e-07,3.469849681638494e-07,1.215303808814554e-05
8.066221243012235e-07,7.695179449279589e-07,3.461113307298428e-07,1.2093761281180575e-05
7.958737736508634e-07,7.778832462474033e-07,3.4539704340355337e-07,1.2038151603512613e-05
7.854952316326736e-07,7.87571844272086e-07,3.448367987135212e-07,1.1985885451702395e-05
7.755348723677042e-07,7.985292652461756e-07,3.444243666937541e-07,1.1936568072743175e-05
7.660536269834507e-07,8.106982206063188e-07,3.441540401542248e-07,1.1889734142426e-05
7.57119551436356e-07,8.240222048472331e-07,3.440203491573061e-07,1.1844855936072305e-05
7.487961770165675e-07,8.384454537071238e-07,3.440170295642602e-07,1.1801370746622572e-05
7.411341778344643e-07,8.539077818329505e-07,3.441369265316323e-07,1.1758742369721526e-05
7.341729585916244e-07,8.703393554350095e-07,3.443728496467657e-07,1.171652507534942e-05
7.279460349320687e-07,8.876591931233534e-07,3.447188553863727e-07,1.1674371767641725e-05
7.22483117839841e-07,9.057752261413292e-07,3.451707223728652e-07,1.1631997418044071e-05
7.17811356395939e-07,9.245835579877598e-07,3.4572465138608337e-07,1.1589147821691936e-05
7.1395813786566e-07,9.439687364227208e-07,3.4637560442427e-07,1.1545580246772494e-05
7.109562767599157e-07,9.63805898313903e-07,3.471166954861396e-07,1.15010445567125e-05
7.088554487065019e-07,9.839624880239205e-07,3.479394069653907e-07,1.1455274932906288e-05
7.077353413986076e-07,1.0042994725852115e-06,3.488347625613068e-07,1.1408001528645344e-05
7.077078183135403e-07,1.0246738440297265e-06,3.497950174269644e-07,1.1358963870887594e-05
7.089035539567521e-07,1.0449414269848804e-06,3.5081356590680734e-07,1.1307910913705358e-05
7.114502458883601e-07,1.0649581702055339e-06,3.518835088763798e-07,1.1254603325568469e-05
7.154582536447845e-07,1.0845811457452984e-06,3.529989844833657e-07,1.119883136736138e-05
7.210254753233087e-07,1.1036706884684817e-06,3.5415918881318827e-07,1.1140450541628726e-05
7.282513162862503e-07,1.122091998066708e-06,3.5536933605185775e-07,1.1079452440138511e-05
7.372422728143838e-07,1.139715175397765e-06,3.5663662739099156e-07,1.1016060650397579e-05
7.48108259900291e-07,1.1564156563561895e-06,3.5796687197428107e-07,1.0950755204614632e-05
7.609573414343938e-07,1.1720764456502377e-06,3.593655642336104e-07,1.088416047319919e-05
7.758897345767935e-07,1.1865913856196965e-06,3.6083930472571656e-07,1.0816896238592895e-05
7.929897387358176e-07,1.199868736071863e-06,3.623937097475926e-07,1.0749513702541247e-05
8.123193753203741e-07,1.2118346186731754e-06,3.640304998275251e-07,1.0682514463864314e-05
8.339157664113944e-07,1.2224338805793017e-06,3.657464399070811e-07,1.0616405635140382e-05
8.577880040124663e-07,1.2316261301233419e-06,3.6753316225693563e-07,1.055174094950731e-05
8.83910884843581e-07,1.239379270235427e-06,3.693775049480779e-07,1.0489086395654635e-05
9.122196328918148e-07,1.2456651347097477e-06,3.7126284632324355e-07,1.0428925125322197e-05
9.426122522342199e-07,1.2504589138241786e-06,3.7317081389527617e-07,1.0371606445214273e-05
9.749602880680391e-07,1.253741177512155e-06,3.7508211457076716e-07,1.0317409889327484e-05
1.0091195837273334e-06,1.2555009393561329e-06,3.769763483920786e-07,1.026669342712774e-05
1.0449319879187523e-06,1.2557377275541642e-06,3.788328239974186e-07,1.0220026877334489e-05
1.0822202382395635e-06,1.2544606248210465e-06,3.806342043317707e-07,1.0178220539233134e-05
1.1207861051690979e-06,1.2516847873070818e-06,3.8237130748642024e-07,1.014224704146667e-05
1.1604154618314742e-06,1.2474298431257436e-06,3.840445541825938e-07,1.0113111333330124e-05
1.200887643336593e-06,1.241725128575492e-06,3.856608297918026e-07,1.0091708708215373e-05
1.2419879288030395e-06,1.234618131357619e-06,3.872300747934742e-07,1.0078720276342543e-05
1.283520923714152e-06,1.2261755780114573e-06,3.887638781512981e-07,1.007458386472693e-05
1.325319789747453e-06,1.216475906099553e-06,3.902736888786147e-07,1.007950681843425e-05
1.3672469694221469e-06,1.2056009275946678e-06,3.9176841485267634e-07,1.0093488270612473e-05
1.4091844985658988e-06,1.1936302373829122e-06,3.9325387349853937e-07,1.0116400296555542e-05
1.4510194585214612e-06,1.1806385809444694e-06,3.947338095978074e-07,1.0148169365995356e-05
