1.483919246035899e-06,2.109765581485535e-06,3.79473062641674e-07,1.606582556582545e-05
1.489690032077646e-06,2.095782883025763e-06,3.7688364386405784e-07,1.5995425735945106e-05
1.4953897361186546e-06,2.0811380578455733e-06,3.7428913288037145e-07,1.5931523085056573e-05
1.500957587112129e-06,2.065910211626398e-06,3.716984027306922e-07,1.587563373728847e-05
1.5063323942535499e-06,2.050164564741704e-06,3.691208834645629e-07,1.5829201415116946e-05
1.511452765613957e-06,2.033950724600061e-06,3.665642989255443e-07,1.579343817853113e-05
1.516253125452816e-06,2.0173038608156035e-06,3.6403291955975353e-07,1.5769241241629403e-05
1.5206619061068701e-06,2.000245857412112e-06,3.615274638435224e-07,1.5757154580194428e-05
1.5246046436842643e-06,1.982785864661342e-06,3.59046015672335e-07,1.575735190070403e-05
1.5280094204347616e-06,1.9649211662514827e-06,3.5658509209217865e-07,1.576964654335344e-05
1.5308107942892274e-06,1.946638880270388e-06,3.541414285146711e-07,1.5793541050112268e-05
1.532949620092137e-06,1.9279189805003445e-06,3.5171404182675536e-07,1.5828304913035367e-05
1.5343718612800282e-06,1.90873917833831e-06,3.493040775175714e-07,1.587304124723184e-05
1.5350314512018363e-06,1.8890813788245225e-06,3.469127575271613e-07,1.5926715400479802e-05
1.5348936425817568e-06,1.8689401094773288e-06,3.445406047636424e-07,1.5988162542072284e-05
1.5339329755526084e-06,1.8483336546552688e-06,3.421883384782453e-07,1.605610071544112e-05
1.5321290987648625e-06,1.8273134259276111e-06,3.3985756226848374e-07,1.6129163596408167e-05
1.5294661674597842e-06,1.8059641321172055e-06,3.375507633820347e-07,1.6205967029894412e-05
1.5259356698363912e-06,1.7843953357369527e-06,3.352713416306061e-07,1.628518947459097e-05
1.5215402938299152e-06,1.7627300751417575e-06,3.330247494612366e-07,1.6365615054917448e-05
1.5162978837908175e-06,1.7410914361164772e-06,3.3082070386892055e-07,1.64461246212758e-05
1.5102442991860028e-06,1.7195900974324512e-06,3.2867374024313504e-07,1.6525664198885692e-05
1.5034333717773115e-06,1.6983211145922292e-06,3.266011789447712e-07,1.6603221513065052e-05
1.4959323841346597e-06,1.6773714143159925e-06,3.2462149022224176e-07,1.6677822515030454e-05
1.487813252714993e-06,1.656831311992684e-06,3.227535208801107e-07,1.6748538962727386e-05
1.4791468656760448e-06,1.6368026666648091e-06,3.210141918894791e-07,1.6814481178131375e-05
1.4700104544477797e-06,1.6173996278669784e-06,3.194158072126864e-07,1.6874779109162563e-05
1.4605036330200243e-06,1.5987432649440604e-06,3.179661817466315e-07,1.6928614444480618e-05
1.4507576107315463e-06,1.5809544429604349e-06,3.166709675227497e-07,1.6975310374476824e-05
1.4409294526431053e-06,1.5641479825913202e-06,3.155351768079825e-07,1.701436824601849e-05
1.4311836227669153e-06,1.5484281437209087e-06,3.145631937013055e-07,1.7045393465698137e-05
1.4216693978641182e-06,1.5338858057925038e-06,3.1375864634726893e-07,1.7067990375898452e-05
1.412506014717589e-06,1.5205991349242632e-06,3.131248264439435e-07,1.7081713970351778e-05
1.4037796262070326e-06,1.5086362522347662e-06,3.126643278658308e-07,1.7086083725093246e-05
1.3955458997340843e-06,1.498054776949418e-06,3.123772365893995e-07,1.7080607871739333e-05
1.3878337271266377e-06,1.4888959371457996e-06,3.122597288813004e-07,1.7064785280384506e-05
1.3806510479491044e-06,1.4811790733493885e-06,3.1230415794185924e-07,1.70381045989566e-05
1.373992305071389e-06,1.4749031485200162e-06,3.12500082009521e-07,1.700007616360585e-05
1.3678422764472178e-06,1.470053043559791e-06,3.128354443171184e-07,1.6950331653322578e-05
1.3621738324505275e-06,1.4666063784777985e-06,3.1329696904780357e-07,1.688877870810754e-05
1.3569455193382987e-06,1.4645415704024636e-06,3.138700927886029e-07,1.6815695907726404e-05
1.3521053468283426e-06,1.4638458302652142e-06,3.1453953818292045e-07,1.673167338721063e-05
1.347600412998526e-06,1.464514903111656e-06,3.1528995377828336e-07,1.663745083219195e-05
1.3433868824256071e-06,1.4665407135942498e-06,3.161058492953939e-07,1.653376577248889e-05
1.3394346986347077e-06,1.4698972395614036e-06,3.169724850203062e-07,1.6421276002662352e-05
1.3357248533087806e-06,1.474535434205063e-06,3.1787837776428977e-07,1.6300559477671897e-05
1.332241062455921e-06,1.4803858577562328e-06,3.188164218809051e-07,1.6172149642698888e-05
1.3289612345054056e-06,1.4873644838154932e-06,3.1978230368370447e-07,1.6036559210864484e-05
1.3258539282955012e-06,1.4953793304020868e-06,3.2077243686479144e-07,1.5894276035190908e-05
1.322880194655859e-06,1.5043342215495925e-06,3.2178265803144104e-07,1.5745770234328486e-05
1.3199965184661444e-06,1.5141276733201045e-06,3.228075074474999e-07,1.5591598342636333e-05
1.317156301393438e-06,1.5246494735274353e-06,3.238396898603376e-07,1.5432572128369532e-05
1.3143126980215993e-06,1.5357789209664078e-06,3.2486939926311433e-07,1.526980770970295e-05
1.3114232534534659e-06,1.5473860381630125e-06,3.258844033438809e-07,1.5104599567186575e-05
1.3084516910252086e-06,1.5593352928575668e-06,3.2687146116466185e-07,1.4938263066046426e-05
1.3053649391903884e-06,1.5714910794714198e-06,3.278184780665812e-07,1.4772097354150115e-05
1.302128082385704e-06,1.5837210761537947e-06,3.2871699881176404e-07,1.4607511962449796e-05
1.2987010410188802e-06,1.5958953260704162e-06,3.2956343906033286e-07,1.4446168820303476e-05
1.2950396537456008e-06,1.6078850553815074e-06,3.3035707868500146e-07,1.4289959941721827e-05
1.291099252263357e-06,1.6195648104612943e-06,3.31096697717283e-07,1.4140872224431554e-05
1.2868359024304896e-06,1.630820234521334e-06,3.317793543506384e-07,1.4000873075698187e-05
1.282205353635222e-06,1.6415603188862708e-06,3.3240128337363786e-07,1.3871826806815072e-05
1.2771630434486534e-06,1.6517256336583298e-06,3.329584869743728e-07,1.375541674336961e-05
1.2716647744921428e-06,1.6612888842592944e-06,3.334461266274093e-07,1.3653083406373386e-05
1.2656669380955417e-06,1.6702517603974853e-06,3.3385777274642075e-07,1.356598559136727e-05
1.2591290312964072e-06,1.6786364181159788e-06,3.3418551683874377e-07,1.3494982415160208e-05
1.252020254302972e-06,1.6864696717313988e-06,3.3442141046356147e-07,1.3440635675518268e-05
1.2443256864257921e-06,1.6937690124863373e-06,3.34559660132633e-07,1.3403213033643511e-05
1.2360457910062635e-06,1.7005394689852781e-06,3.345978996526331e-07,1.3382675242095567e-05
1.2271899401958169e-06,1.7067801495586475e-06,3.345366987142373e-07,1.3378679181726162e-05
1.2177712692775076e-06,1.7124950030912673e-06,3.343786702565344e-07,1.3390629032623489e-05
1.20780712553179e-06,1.717702680336083e-06,3.341290886714439e-07,1.3417764143527733e-05
1.1973218703823268e-06,1.7224413023112201e-06,3.337967777121776e-07,1.3459265099113256e-05
1.186346915723762e-06,1.7267656001007561e-06,3.3339279207415187e-07,1.351434693466326e-05
1.1749180455816223e-06,1.7307367930162846e-06,3.329279125930777e-07,1.358229295218208e-05
1.1630758555702411e-06,1.7344090911416126e-06,3.324108766399132e-07,1.366243390023377e-05
1.1508726443224256e-06,1.7378186041709724e-06,3.318474802084104e-07,1.3754124325181192e-05
1.1383811512411972e-06,1.7409786530998852e-06,3.312414959662216e-07,1.3856738379538374e-05
1.1256970953790608e-06,1.7438803525797843e-06,3.3059822370042035e-07,1.3969672974097674e-05
1.1129317787852222e-06,1.746495226421029e-06,3.2992749935790146e-07,1.4092344309016168e-05
1.1001995647957004e-06,1.7487792194635936e-06,3.2924253925663764e-07,1.4224163595899546e-05
1.0876079329168549e-06,1.750678152928934e-06,3.285565014245429e-07,1.4364490770711139e-05
1.0752551569931185e-06,1.7521330274671291e-06,3.2788068606618207e-07,1.4512585392832784e-05
1.0632367330231934e-06,1.7530842372137196e-06,3.2722460446387263e-07,1.4667585940241851e-05
1.0516530942938757e-06,1.753475043097174e-06,3.2659615028258913e-07,1.4828546436028256e-05
1.0406079558608243e-06,1.753254090516433e-06,3.260014379486339e-07,1.4994504496602979e-05
1.0301968200101282e-06,1.7523764067187908e-06,3.2544453398512967e-07,1.5164521847343537e-05
1.020495087382863e-06,1.7508023509318356e-06,3.249270453227287e-07,1.5337692750455327e-05
1.0115531256283465e-06,1.748495374559923e-06,3.2444819433093893e-07,1.5513134004431218e-05
1.003398951312776e-06,1.745422160249683e-06,3.240058658100413e-07,1.568995552216842e-05
9.96048428279665e-07,1.741555888266066e-06,3.235974389196413e-07,1.5867243025786214e-05
9.895187276585189e-07,1.7368771186036082e-06,3.232198321474214e-07,1.6044072791195496e-05
9.83833442965793e-07,1.7313711332229103e-06,3.228696022907732e-07,1.621954921721381e-05
9.790165102901895e-07,1.7250299143557603e-06,3.225430300085504e-07,1.6392876100855482e-05
9.750841807405584e-07,1.7178618184528506e-06,3.222367145836201e-07,1.656342484327021e-05
9.72039670817417e-07,1.709902006813433e-06,3.2194905804978343e-07,1.6730712260189567e-05
9.698699158367799e-07,1.701218147874652e-06,3.2168029423459055e-07,1.6894289319307655e-05
9.68545345408545e-07,1.6919108359970447e-06,3.214303942732596e-07,1.7053629475875342e-05
9.680213947909987e-07,1.6821084301496288e-06,3.2119726391954973e-07,1.7208083388410975e-05
9.682406871323758e-07,1.6719543554057239e-06,3.209764629492261e-07,1.7356915037371904e-05
9.691391125608546e-07,1.6615899903526992e-06,3.207622023988795e-07,1.7499404417085835e-05
9.706561753552185e-07,1.6511421553828819e-06,3.205495691938279e-07,1.76349655354466e-05
9.727443910238508e-07,1.640717182728167e-06,3.2033789093832176e-07,1.7763197013769095e-05
9.75373847060598e-07,1.630398630710354e-06,3.201333031229084e-07,1.788383854700535e-05
9.785306548521908e-07,1.6202511953909843e-06,3.199492844665411e-07,1.7996684882468604e-05
9.822081178209894e-07,1.6103319358874387e-06,3.1980707765219953e-07,1.8101520255660853e-05
9.863939770645228e-07,1.6007026327645847e-06,3.1973454173538736e-07,1.819814751956845e-05
9.91062462726188e-07,1.5914373523456575e-06,3.197604805535069e-07,1.828651194534088e-05
9.961747099971229e-07,1.5826248865941425e-06,3.199086387571803e-07,1.8366768877801027e-05
1.0016828339424228e-06,1.5743687840425013e-06,3.2019610195097687e-07,1.8439244870823943e-05
1.007534064080526e-06,1.566787736394242e-06,3.206341470333267e-07,1.850442279009574e-05
1.0136750835953298e-06,1.5600166161543982e-06,3.212287407690087e-07,1.8562947964855576e-05
1.0200559111584678e-06,1.5542046897276537e-06,3.219806999955016e-07,1.861554327529325e-05
1.0266331648721412e-06,1.549507499106006e-06,3.22885759024197e-07,1.866286360050548e-05
1.0333738269342257e-06,1.546073290056169e-06,3.2393520465009577e-07,1.870537796104947e-05
1.0402567329097538e-06,1.5440288169625573e-06,3.251183627571319e-07,1.8743309647708702e-05
1.0472684239314491e-06,1.5434695014569812e-06,3.264252783787927e-07,1.877663724275378e-05
1.0543960441012482e-06,1.5444567242841267e-06,3.2784667403232057e-07,1.880513092000157e-05
1.061620788385143e-06,1.5470210601166088e-06,3.2937260775605147e-07,1.8828389842056297e-05
1.068913818022088e-06,1.5511666160003808e-06,3.309929992553409e-07,1.884587673233849e-05
1.0762381034287749e-06,1.5568751774074541e-06,3.3269940528080357e-07,1.8856962449669658e-05
1.0835554073752428e-06,1.564114843078743e-06,3.344859704262394e-07,1.886097653855309e-05
1.0908323007393971e-06,1.5728538884738942e-06,3.36349735863516e-07,1.8857243592257587e-05
1.098043841267896e-06,1.583071517818749e-06,3.382903544082484e-07,1.884509632318797e-05
1.1051769616049463e-06,1.5947567699190218e-06,3.4030863783791145e-07,1.882386962483198e-05
1.1122295926688044e-06,1.6078962486225794e-06,3.424051392560789e-07,1.8792897994732653e-05
1.1192019354806628e-06,1.6224608303166045e-06,3.4457951606373285e-07,1.8751556348261528e-05
1.1260863302040128e-06,1.6384001586525582e-06,3.4682994584970285e-07,1.8699339829091243e-05
1.132863104559574e-06,1.6556429890533337e-06,3.4915238024747484e-07,1.8635919757169776e-05
1.1395017379086373e-06,1.674096084367277e-06,3.5153995816640766e-07,1.8561141221517428e-05
1.1459657690360001e-06,1.6936408947700197e-06,3.5398406737290724e-07,1.8474985318013594e-05
1.152222404787286e-06,1.7141339939723964e-06,3.564782552982565e-07,1.837752813760815e-05
1.1582525022804758e-06,1.7354131829958351e-06,3.5902243912952256e-07,1.826891786323515e-05
1.1640512972489244e-06,1.7573054570231357e-06,3.6162326480449756e-07,1.814937628635477e-05
1.169620001905832e-06,1.779634354016904e-06,3.6429006132536796e-07,1.8019209880987428e-05
1.1749646730758891e-06,1.8022253109139926e-06,3.670301585771818e-07,1.7878806559073762e-05
1.1801129857326383e-06,1.824907910369321e-06,3.698473660385562e-07,1.7728603436711902e-05
1.1851343730733596e-06,1.847516909052461e-06,3.7274348693584963e-07,1.7569033289091363e-05
1.190140449129333e-06,1.869894569973876e-06,3.757195200415682e-07,1.74004856621031e-05
1.1952622187321456e-06,1.8918933203662225e-06,3.7877437340094106e-07,1.7223332685603977e-05
1.200621649212532e-06,1.9133757414139418e-06,3.8190283249332644e-07,1.7038018310448598e-05
1.2063137068192231e-06,1.9342142126556144e-06,3.850955483000817e-07,1.684512096664654e-05
1.2124017117534608e-06,1.9542973646368204e-06,3.883409569503411e-07,1.6645313793782768e-05
1.2189215374398553e-06,1.9735416848333807e-06,3.9162736121728404e-07,1.6439263900205043e-05
1.22588721626587e-06,1.9918975863117584e-06,3.949439392891991e-07,1.6227573032482416e-05
1.2332930855030348e-06,2.0093459802659704e-06,3.982800351253038e-07,1.6010814172543953e-05
1.2411155376954704e-06,2.025888451907378e-06,4.016233411040554e-07,1.5789638546866442e-05
1.2493180903129995e-06,2.041532314452626e-06,4.049584636818538e-07,1.5564867007109815e-05
1.2578561295776522e-06,2.0562769830163572e-06,4.0826716054070577e-07,1.5337484840074415e-05
1.2666786920357315e-06,2.0701147726263344e-06,4.1153046625403844e-07,1.5108547907912085e-05
1.2757331833667177e-06,2.083045361970608e-06,4.147303969422805e-07,1.4879072771494366e-05
1.2849754030511477e-06,2.0950880128747553e-06,4.1784937125806044e-07,1.4649978122529557e-05
1.2943767532737806e-06,2.106284974409249e-06,4.208689471271746e-07,1.4422117375108387e-05
1.303923434712056e-06,2.116699936344646e-06,4.237694911306089e-07,1.4196380100925079e-05
1.3136111776968659e-06,2.126411600447095e-06,4.265307241483183e-07,1.397376840973129e-05
1.323438096145844e-06,2.135501266790374e-06,4.291329608724564e-07,1.3755359149227161e-05
1.3333961910374891e-06,2.1440369250354345e-06,4.3155809321407604e-07,1.3542172847121088e-05
1.3434648062128763e-06,2.1520603117005532e-06,4.337892287686318e-07,1.3335064789699122e-05
1.3536078818350728e-06,2.159584757393241e-06,4.358098883931174e-07,1.3134696350372013e-05
1.3637740104182845e-06,2.166603303955492e-06,4.3760399605696105e-07,1.2941554032862824e-05
1.373899782173829e-06,2.173097690113512e-06,4.391560590179501e-07,1.2755988514703528e-05
1.3839167623521243e-06,2.179041395593472e-06,4.4045084248722456e-07,1.2578264659809634e-05
1.393759595779361e-06,2.184398296289646e-06,4.414729057647776e-07,1.2408649657871375e-05
1.4033726493729132e-06,2.189123295738969e-06,4.422065114790611e-07,1.2247573368005392e-05
1.4127148485253598e-06,2.1931688906571862e-06,4.4263606358011467e-07,1.2095748095995375e-05
1.4217625430485262e-06,2.1964948302615254e-06,4.427467675261101e-07,1.1954099776689399e-05
1.4305106056752076e-06,2.199075597273479e-06,4.425253652674981e-07,1.1823577746663695e-05
1.438972778793186e-06,2.2009046121029066e-06,4.419606802972947e-07,1.170499399054078e-05
1.447177325262264e-06,2.2019967838270973e-06,4.410437309957125e-07,1.1598962908452592e-05
1.4551535902659142e-06,2.2023892995827863e-06,4.3976850474871423e-07,1.1506013231756515e-05
1.4629170146505303e-06,2.202139088129023e-06,4.381331469721963e-07,1.1426835283404774e-05
1.470463196931146e-06,2.2013157040152057e-06,4.3613938664258157e-07,1.1362433267098193e-05
1.4777701282984526e-06,2.1999903957124463e-06,4.337909112355503e-07,1.1314063011377773e-05
1.4848016675173848e-06,2.1982243831409247e-06,4.3109295163264244e-07,1.1283064078758506e-05
1.4915091616844781e-06,2.196059838150651e-06,4.280526443090315e-07,1.1270691074680314e-05
1.4978336991146351e-06,2.1935171944479773e-06,4.246793069491972e-07,1.1277983844689395e-05
1.5037120595212375e-06,2.190599932300494e-06,4.2098483415888423e-07,1.1305698795548273e-05
1.5090844785498638e-06,2.1873022669283843e-06,4.1698397353893e-07,1.1354272826311478e-05
1.513899556664171e-06,2.1836151311253788e-06,4.1269402169643435e-07,1.1423785057691564e-05
1.5181145286817725e-06,2.179531671278253e-06,4.0813353455327784e-07,1.1513939303917136e-05
1.521692558889527e-06,2.175052434296972e-06,4.033204617376178e-07,1.1624091019861205e-05
1.524600535629628e-06,2.17018599946563e-06,3.9827145982835654e-07,1.1753287632791075e-05
1.5268111067052799e-06,2.1649442760761643e-06,3.9300399550767594e-07,1.1900294411957014e-05
1.528306633191916e-06,2.159337312211325e-06,3.875406952303729e-07,1.2063627325040221e-05
1.5290778970277868e-06,2.153373561896277e-06,3.819124892015119e-07,1.2241617792749167e-05
1.5291181995621482e-06,2.1470651982608602e-06,3.7615748059445526e-07,1.2432514164312953e-05
1.5284204055366492e-06,2.140430963902999e-06,3.7031648627132287e-07,1.2634604560836595e-05
1.5269784904862743e-06,2.133492414905608e-06,3.644288710223619e-07,1.2846301569547897e-05
1.524789749262548e-06,2.1262664458447413e-06,3.5853079822320727e-07,1.3066145586172505e-05
1.5218573194812808e-06,2.1187618840531777e-06,3.526549230943664e-07,1.3292772129312176e-05
1.5181937634956291e-06,2.110987429023386e-06,3.468307161732821e-07,1.3524893803260747e-05
1.5138225914538141e-06,2.102967241282604e-06,3.410856528326004e-07,1.3761281197792425e-05
1.5087762459131328e-06,2.094750565015285e-06,3.354458596610679e-07,1.4000725145300048e-05
1.5030938224795918e-06,2.0864072006416905e-06,3.299353754340669e-07,1.4241994075475266e-05
1.4968196321257455e-06,2.078015075479671e-06,3.2457578843251327e-07,1.4483798029904566e-05
1.4899991789410753e-06,2.0696491113584288e-06,3.193872580166205e-07,1.4724771293873733e-05
1.4826721353316475e-06,2.061372806246125e-06,3.1439096060135145e-07,1.4963495627760132e-05
1.4748673299721575e-06,2.053232074987868e-06,3.096130615401229e-07,1.5198554255647196e-05
1.4666032842799483e-06,2.0452522647697795e-06,3.050875749324061e-07,1.5428563878506298e-05
1.4578922411022159e-06,2.037437541542693e-06,3.0085458064432106e-07,1.5652172329688966e-05
1.448743258404149e-06,2.0297731992928632e-06,2.9695467695129285e-07,1.5868071004334094e-05
1.4391634836292573e-06,2.0222362427642717e-06,2.934235264232605e-07,1.607504381885815e-05
1.4291600632227534e-06,2.0148143482968682e-06,2.902891144974361e-07,1.627201883158683e-05
1.418743714873081e-06,2.007519169358081e-06,2.875723557678489e-07,1.6458069528898386e-05
1.407934588348176e-06,2.000381889731905e-06,2.8528931038836685e-07,1.6632348514026702e-05
1.3967689579835815e-06,1.9934403227461325e-06,2.834520484659917e-07,1.6794021845447454e-05
1.3852993666071491e-06,1.9867402174325747e-06,2.820679508057078e-07,1.6942279793411728e-05
1.3735851826428483e-06,1.980360056806116e-06,2.811394300304946e-07,1.707639812928752e-05
1.3616820409647812e-06,1.9744410615261242e-06,2.806646572207392e-07,1.7195793774767467e-05
1.3496375146920578e-06,1.969193279749723e-06,2.8063903056565525e-07,1.730007489857211e-05
1.3374906465657308e-06,1.9648699493186082e-06,2.810568519985945e-07,1.73890596184807e-05
1.3252724674018187e-06,1.96172985252187e-06,2.819113763216256e-07,1.7462711934857573e-05
1.3130092978716398e-06,1.960005550307369e-06,2.8319287747182164e-07,1.752105431650587e-05
1.3007264606929985e-06,1.9598803219250266e-06,2.8488810708482836e-07,1.7564161665484788e-05
1.288447872421976e-06,1.9614774200313542e-06,2.8698286783717985e-07,1.759220638316912e-05
1.2761969613705892e-06,1.964868074680073e-06,2.8946411405820704e-07,1.7605456865307106e-05
1.2640048161935743e-06,1.97009387419933e-06,2.923197784810641e-07,1.7604224322666e-05
1.2519188519112812e-06,1.9771846799198684e-06,2.955393171264596e-07,1.7588815944207316e-05
1.2400052582668986e-06,1.986156021065779e-06,2.99114732196509e-07,1.7559565133269323e-05
1.2283474538696386e-06,1.996992472097253e-06,3.030388741688449e-07,1.7516987100816527e-05
1.2170425953540725e-06,2.0096363093684658e-06,3.0730214488909195e-07,1.7461944580457747e-05
1.2061952875125408e-06,2.0239892060967964e-06,3.118909555013248e-07,1.7395628541606022e-05
1.195908138496172e-06,2.0399195869031966e-06,3.167888969862473e-07,1.7319363407072668e-05
1.1862709059699065e-06,2.057268488654284e-06,3.219784489546552e-07,1.7234403718015972e-05
1.1773546390902806e-06,2.075858138318386e-06,3.274405359689811e-07,1.7141841059210708e-05
1.1692159652476737e-06,2.0955071935054773e-06,3.3315259354707277e-07,1.7042687033313202e-05
1.1619068650664557e-06,2.116041667326824e-06,3.3908757460536697e-07,1.693810732999896e-05
1.155480763122776e-06,2.1372908187783286e-06,3.452149373138118e-07,1.682961117163705e-05
1.149990673674606e-06,2.159076436209509e-06,3.515021653618204e-07,1.671902525489116e-05
1.1454820847420452e-06,2.181209948123164e-06,3.579148474117769e-07,1.6608321346460676e-05
1.1419872348213502e-06,2.2034979459510137e-06,3.644163898781329e-07,1.6499446764938066e-05
1.1395258972977743e-06,2.2257473837214008e-06,3.7096854800703844e-07,1.6394201273594518e-05
1.1381110461046414e-06,2.247766772140546e-06,3.7753189517799064e-07,1.6294147269839238e-05
1.1377534444408826e-06,2.269366877309798e-06,3.840662521605307e-07,1.6200541086045694e-05
1.138462171819472e-06,2.290363748384857e-06,3.9053111446287577e-07,1.6114290183898763e-05
1.1402406782254968e-06,2.310581530352021e-06,3.968857781715334e-07,1.603595124463787e-05
1.1430788870934105e-06,2.329851818989826e-06,4.030901980789664e-07,1.5965763669102748e-05
1.146945764908413e-06,2.3480126686384947e-06,4.091069852150685e-07,1.5903704628405466e-05
1.1517871025309937e-06,2.364914473438852e-06,4.1490414797641437e-07,1.5849557462161333e-05
1.1575282160296157e-06,2.3804342805790105e-06,4.2045814566520366e-07,1.5802974886629068e-05
1.1640789536463886e-06,2.3944935853208853e-06,4.2575482404460506e-07,1.5763520416031454e-05
1.1713394779502732e-06,2.4070731736987787e-06,4.307863425683507e-07,1.5730700463595178e-05
1.1792060108524998e-06,2.418215308189064e-06,4.3554653512216617e-07,1.5704013518043246e-05
1.187576870664839e-06,2.4280067581841852e-06,4.400280659181054e-07,1.568300987818946e-05
1.1963603896032707e-06,2.436550333920792e-06,4.442219620663536e-07,1.5667320320252965e-05
1.2054852305681882e-06,2.4439400182662294e-06,4.481191264863925e-07,1.5656647503872142e-05
1.214909354071167e-06,2.4502514386314337e-06,4.5171353011431637e-07,1.5650761811019596e-05
1.2246194316993138e-06,2.455548128248053e-06,4.550053261300978e-07,1.5649501720103237e-05
1.2346171570903965e-06,2.4598906968270896e-06,4.580014665558728e-07,1.5652732759060086e-05
1.2449016668573916e-06,2.4633400470971995e-06,4.60713487617056e-07,1.5660263655801987e-05
1.2554598898098958e-06,2.4659568985882884e-06,4.6315404103175924e-07,1.5671765604723793e-05
1.2662665179750224e-06,2.46779799381321e-06,4.6533359145683833e-07,1.568674500318035e-05
1.2772882510526788e-06,2.468908708067857e-06,4.6725914711940003e-07,1.5704615365906086e-05
1.2884867598777599e-06,2.4693170065167632e-06,4.689365229757202e-07,1.572483697235619e-05
1.2998193665120377e-06,2.4690316003389646e-06,4.703738736388096e-07,1.5746993473832566e-05
1.3112402379490318e-06,2.4680423417850035e-06,4.715835168615414e-07,1.5770744728219783e-05
1.3227012410605987e-06,2.466322551406087e-06,4.7258308541599247e-07,1.5795739856003675e-05
1.334151311850346e-06,2.4638362281219746e-06,4.7339662541091726e-07,1.5821582090045716e-05
1.345536960124212e-06,2.4605481403997484e-06,4.7405265755930977e-07,1.584785205232888e-05
1.3568025155509998e-06,2.45642752441572e-06,4.745788401898525e-07,1.587412884731549e-05
1.3678877153988306e-06,2.451442893963113e-06,4.749976843421793e-07,1.5899980985781073e-05
1.3787267897247363e-06,2.4455585364673185e-06,4.753258590615443e-07,1.5925001268529448e-05
1.3892519380766594e-06,2.43874085049029e-06,4.755748125233178e-07,1.594893196369214e-05
1.399397582561053e-06,2.4309696876608487e-06,4.757507451037083e-07,1.5971782174007072e-05
1.409101276321662e-06,2.4222442935474814e-06,4.758548778849182e-07,1.5993823104266082e-05
1.4183008562771083e-06,2.4125776673850412e-06,4.758848304756079e-07,1.6015472488065578e-05
1.4269316590380972e-06,2.401983733660583e-06,4.7583701692204744e-07,1.6037150460650807e-05
1.4349276804121131e-06,2.390468911216924e-06,4.75709529279675e-07,1.6059165495319292e-05
1.4422245277449306e-06,2.378031931964712e-06,4.755034602925498e-07,1.6081653768219585e-05
1.4487600532634571e-06,2.364666332534537e-06,4.752224839753371e-07,1.610458391429885e-05
1.4544751272717638e-06,2.350362955952165e-06,4.74874166433068e-07,1.6127822764653313e-05
1.4593200114177185e-06,2.335112053326658e-06,4.744722255711567e-07,1.6151207921464244e-05
1.46326353072367e-06,2.318902581566544e-06,4.7403441032450454e-07,1.6174559289796436e-05
1.4662965041670824e-06,2.3017205397811334e-06,4.735767787203293e-07,1.619763167289493e-05
1.468429511714956e-06,2.283552474796432e-06,4.731102905882285e-07,1.6220106098279156e-05
1.4696904700848342e-06,2.264397218701116e-06,4.7264246650721495e-07,1.6241723599199818e-05
1.4701195206393523e-06,2.2442798094798664e-06,4.721816210018154e-07,1.6262478994191026e-05
1.469759374929073e-06,2.223254516399245e-06,4.71738026960779e-07,1.6282650608017443e-05
1.4686486182143861e-06,2.2013924574436943e-06,4.7132101633049976e-07,1.6302668669960474e-05
1.466820339788401e-06,2.178765395602306e-06,4.7093755489946013e-07,1.6323051567271127e-05
1.4643005869148194e-06,2.1554382419568083e-06,4.7059416091010284e-07,1.6344444326403705e-05
1.4611078700313644e-06,2.131468721899946e-06,4.7029925266541633e-07,1.6367604842892826e-05
1.4572582452864012e-06,2.106906126287173e-06,4.700652841927965e-07,1.6393305461700422e-05
1.4527726428373757e-06,2.0817899370331774e-06,4.699099870671178e-07,1.6422224326095534e-05
1.447680347544347e-06,2.05615518918918e-06,4.698536069272008e-07,1.645488249409464e-05
1.4420178786542298e-06,2.030044604228354e-06,4.6991311557409974e-07,1.6491644186992532e-05
1.43582686840252e-06,2.0035205892611818e-06,4.7009869104073574e-07,1.6532753231342482e-05
1.4291534850845684e-06,1.9766722973984674e-06,4.7041374943068865e-07,1.6578371121951587e-05
1.4220475745352743e-06,1.9496164024259974e-06,4.708564979650531e-07,1.6628598508986326e-05
1.414558824866843e-06,1.922490726929557e-06,4.7142326453555697e-07,1.6683470964901507e-05
1.4067313608137736e-06,1.8954417819377404e-06,4.7211269756847706e-07,1.6742941220839315e-05
1.3985996607347362e-06,1.8686097481958137e-06,4.729269980885642e-07,1.6806872633925895e-05
1.3901864191851991e-06,1.8421159359531029e-06,4.738702365488385e-07,1.6875049554077594e-05
1.381502619273188e-06,1.816059617050378e-06,4.7494748718847334e-07,1.6947176668349192e-05
1.3725503340672369e-06,1.790528088601284e-06,4.7616487193916576e-07,1.7022839975398818e-05
1.3633276484585712e-06,1.7656138242293319e-06,4.775277833370788e-07,1.7101461808610854e-05
1.3538336078777712e-06,1.7414278533477745e-06,4.790374065287018e-07,1.718230634088525e-05
1.344070358792153e-06,1.7181052122192688e-06,4.8068833161592e-07,1.7264532925941606e-05
1.3340435152459604e-06,1.6958047091433931e-06,4.824686398502329e-07,1.7347261229684245e-05
1.3237658276934015e-06,1.6747049580051612e-06,4.843614879722829e-07,1.742962922731137e-05
1.3132635102703155e-06,1.6549982161709375e-06,4.86347333953755e-07,1.7510827463674593e-05
1.3025768141716277e-06,1.636884310122151e-06,4.884066657522135e-07,1.7590107459290553e-05
1.291751305964527e-06,1.6205657677587118e-06,4.905218719990047e-07,1.7666803779016747e-05
1.2808270708992837e-06,1.6062442093827845e-06,4.926768319698776e-07,1.7740394394527514e-05
1.2698332326078623e-06,1.5941151454741569e-06,4.948558966990832e-07,1.781055315409646e-05
1.2587878096497705e-06,1.5843544618592943e-06,4.970451140159122e-07,1.7877131442808242e-05
1.2477003833679646e-06,1.5770981729075874e-06,4.99235277599334e-07,1.794006461703554e-05
1.2365772820489457e-06,1.5724293467819166e-06,5.014227566079496e-07,1.7999260756643635e-05
1.2254301895808908e-06,1.5703785042454974e-06,5.03606251480212e-07,1.8054547368330844e-05
1.2142860708304595e-06,1.5709295712528197e-06,5.057838445071225e-07,1.8105705183891668e-05
1.2031929453237672e-06,1.5740265672222515e-06,5.079536259644587e-07,1.8152525349761955e-05
1.1922184277646188e-06,1.5795861410301109e-06,5.101149598849639e-07,1.819480345929976e-05
1.1814414315574058e-06,1.5875203740702523e-06,5.12268105448498e-07,1.8232277332478367e-05
1.1709400454245731e-06,1.5977635062902085e-06,5.144138055954871e-07,1.8264583855259658e-05
1.1607833673088844e-06,1.6102890606909368e-06,5.165531790388239e-07,1.829128719228659e-05
1.1510317265095174e-06,1.6251090423930672e-06,5.186860657468309e-07,1.8311964763347002e-05
1.1417393771563714e-06,1.6422573097930627e-06,5.208083220398461e-07,1.8326273888428454e-05
1.132956066526828e-06,1.6617653687197716e-06,5.229103968839935e-07,1.8333940080806964e-05
1.1247329467475249e-06,1.6836392445680325e-06,5.249778427250115e-07,1.833470011937403e-05
1.1171322498667255e-06,1.7078434490085831e-06,5.269928829948616e-07,1.832829407463865e-05
1.11022966268173e-06,1.7342944499506237e-06,5.289358432935117e-07,1.831455050498949e-05
1.1041064066394642e-06,1.7628644638107025e-06,5.307859214214584e-07,1.8293477593374092e-05
1.0988400882591331e-06,1.7933942584168797e-06,5.325213042973228e-07,1.8265252263673623e-05
1.094498902558581e-06,1.8257085007232743e-06,5.341188313266142e-07,1.8230131501421524e-05
1.0911363343338713e-06,1.85962975212262e-06,5.355540801014418e-07,1.818836619322297e-05
1.0887856430113934e-06,1.8949912839164017e-06,5.368023675935201e-07,1.814014512653357e-05
1.0874567586403415e-06,1.9316404356809456e-06,5.378405799686696e-07,1.8085578573158608e-05
1.087136546638863e-06,1.969425234833966e-06,5.386495407457626e-07,1.8024709564781445e-05
1.0877907756131132e-06,2.00817638189292e-06,5.392149802637556e-07,1.7957516532194534e-05
1.0893668321388842e-06,2.047701836541989e-06,5.395259852297564e-07,1.7883915062946963e-05
1.091799333432414e-06,2.0877948542085737e-06,5.39573375282692e-07,1.780380809669267e-05
1.0950202689808107e-06,2.128246601006079e-06,5.393493219980721e-07,1.771720746671401e-05
1.0989704082450202e-06,2.1688580514817827e-06,5.388473505955555e-07,1.7624351300118582e-05
1.1036073077848716e-06,2.2094467026983564e-06,5.380626684962554e-07,1.7525697090577467e-05
1.1089074264586177e-06,2.249842476914105e-06,5.369920630164687e-07,1.742180397899408e-05
1.1148621108854716e-06,2.289875288282073e-06,5.356330110548685e-07,1.7313234043080253e-05
1.1214702045236185e-06,2.3293675495852684e-06,5.339831473075798e-07,1.720058076181827e-05
1.1287318579862872e-06,2.3681390803430404e-06,5.320404274796091e-07,1.708463365796446e-05
1.1366474938706184e-06,2.4060145623042517e-06,5.298035060040248e-07,1.6966525182119354e-05
1.1452201867713216e-06,2.4428230412520056e-06,5.272716698723164e-07,1.6847710741688092e-05
1.1544534772310232e-06,2.4783943630265183e-06,5.244442828535203e-07,1.6729832913773168e-05
1.164344296830372e-06,2.5125624763016485e-06,5.213206548734412e-07,1.6614570716555592e-05
1.1748820980147846e-06,2.545175281340521e-06,5.179011049094815e-07,1.6503497101972684e-05
1.1860579296452105e-06,2.5761012328887332e-06,5.141894433307218e-07,1.6397960153581563e-05
1.1978736102820056e-06,2.6052253287541147e-06,5.101957792511717e-07,1.6299012013360712e-05
1.2103433828386496e-06,2.6324407468098543e-06,5.059382374839565e-07,1.6207386368822142e-05
1.2234897836948043e-06,2.6576491293309205e-06,5.0144302860583e-07,1.6123501693186504e-05
1.2373372805382428e-06,2.68077178511754e-06,4.967419400656978e-07,1.604747291064435e-05
1.2519057082308442e-06,2.701765594134506e-06,4.918682720271935e-07,1.5979141003536928e-05
1.2672053121305002e-06,2.7206371574340144e-06,4.868540899655052e-07,1.591813443880729e-05
1.2832324642124374e-06,2.7374459759048826e-06,4.81729175415358e-07,1.586394643721479e-05
1.2999635759899729e-06,2.7522888736165443e-06,4.7652084029450675e-07,1.5815990950551068e-05
1.3173496444185098e-06,2.765272888303975e-06,4.7125403233772146e-07,1.5773635047290568e-05
1.3353161368983136e-06,2.7765008896840216e-06,4.659511165450077e-07,1.5736239834643993e-05
1.3537675933248936e-06,2.78608281068445e-06,4.6063282445013437e-07,1.5703213120535033e-05
1.372592564376449e-06,2.7941523981141082e-06,4.553218700553741e-07,1.567405317819172e-05
1.3916667064726102e-06,2.800863649140268e-06,4.500458969168395e-07,1.5648378700254545e-05
1.410856539495613e-06,2.806369538318756e-06,4.4483520015618113e-07,1.5625941970863226e-05
1.4300277568876306e-06,2.8108066680374828e-06,4.397172733673642e-07,1.560661144375436e-05
1.4490567090619933e-06,2.814295082411608e-06,4.3471396920534837e-07,1.5590316312357073e-05
1.467837631765926e-06,2.8169394226156737e-06,4.298420747017396e-07,1.5576964152416008e-05
1.4862812784731985e-06,2.818823914763504e-06,4.251147351188835e-07,1.5566359456725893e-05
1.504310382158763e-06,2.820010450262407e-06,4.205438896791888e-07,1.555815286227547e-05
1.521858179282608e-06,2.820546406948095e-06,4.161433154497783e-07,1.5551840323836967e-05
1.5388682661516124e-06,2.820477644206054e-06,4.1192824007097785e-07,1.554682612104883e-05
1.5552920186291115e-06,2.819860077451716e-06,4.079114488695435e-07,1.5542535088398752e-05
1.5710831056502194e-06,2.8187669929782952e-06,4.04101358853756e-07,1.5538501839074652e-05
1.586191264608414e-06,2.8172895032505335e-06,4.005038149523975e-07,1.5534378193353205e-05
1.6005584032535057e-06,2.815527700420512e-06,3.971248623314e-07,1.552987978036897e-05
1.6141187729565546e-06,2.813575320120253e-06,3.939727410901114e-07,1.552471505573063e-05
1.626805253553911e-06,2.8115050785815403e-06,3.9105857747142226e-07,1.5518523527431103e-05
1.6385617810166391e-06,2.809361032892374e-06,3.8839648180678613e-07,1.5510853482297032e-05
1.649353100583647e-06,2.807159138695676e-06,3.860041387350292e-07,1.550119417978581e-05
1.659161869946041e-06,2.8048902410453977e-06,3.8390198870401636e-07,1.5489025039142865e-05
1.6679781995105622e-06,2.802520728066155e-06,3.8210930238810243e-07,1.5473828552072908e-05
1.6757965948184626e-06,2.799993997301711e-06,3.806409496191789e-07,1.5455083658459727e-05
1.682621398729485e-06,2.7972359174374644e-06,3.795089969315474e-07,1.543228034405275e-05
1.688467295492484e-06,2.7941611372167907e-06,3.787260179329923e-07,1.5404927722124284e-05
1.693352041865151e-06,2.790679646970337e-06,3.783042781128071e-07,1.5372538973732504e-05
1.6972912256134434e-06,2.786708598977913e-06,3.782514282788662e-07,1.5334649828115037e-05
1.7002987334343259e-06,2.7821895900185267e-06,3.7856758404906936e-07,1.529089619598013e-05
1.7023898189890038e-06,2.7771089750900312e-06,3.792453437447268e-07,1.5241097783021231e-05
1.7035838356278782e-06,2.771521716771027e-06,3.802718247513804e-07,1.5185292941076334e-05
1.703904987706234e-06,2.7655721015019244e-06,3.8163170139192817e-07,1.5123715164293006e-05
1.7033819532562583e-06,2.75949654510544e-06,3.8330855182940285e-07,1.505673526908803e-05
1.7020474392546069e-06,2.753598852810673e-06,3.8528354401093436e-07,1.4984790674416418e-05
1.6999369311081052e-06,2.7482019036860383e-06,3.875351495518939e-07,1.4908332658834115e-05
1.6970856841906531e-06,2.7435973690012426e-06,3.9004128156857797e-07,1.482785052176481e-05
1.6935239482979314e-06,2.740021362780965e-06,3.927802818090075e-07,1.474393825416573e-05
1.6892731991605485e-06,2.737661708169913e-06,3.957297014722819e-07,1.4657288396339459e-05
1.684346912927707e-06,2.7366774872199573e-06,3.9886534674479975e-07,1.4568601215559335e-05
1.6787538406412583e-06,2.737215005532457e-06,4.0216167833554077e-07,1.4478476235607969e-05
1.6724994515619004e-06,2.7394163762674643e-06,4.055940071857422e-07,1.4387340525373048e-05
1.6655863345267382e-06,2.7434167772681406e-06,4.091418737807458e-07,1.429544264443981e-05
1.6580172580843418e-06,2.749329894101138e-06,4.12789653114652e-07,1.4202886787146867e-05
1.6498020967271645e-06,2.75723046143036e-06,4.165229961888282e-07,1.410966617983226e-05
1.6409655558874916e-06,2.7671424077942703e-06,4.2032612528690295e-07,1.4015697380148236e-05
1.6315532893890141e-06,2.779034955836211e-06,4.2418285908471047e-07,1.392087422450398e-05
1.621636904479924e-06,2.792825921695814e-06,4.2807758310807857e-07,1.3825127566865995e-05
1.611314385685979e-06,2.808388867446319e-06,4.3199416100359285e-07,1.3728454329356496e-05
1.6007011585722929e-06,2.8255615387354636e-06,4.359155669652168e-07,1.3630908724836771e-05
1.5899145691401143e-06,2.844158313273493e-06,4.3982511899826794e-07,1.3532576005519618e-05
1.5790599990302182e-06,2.863986796259342e-06,4.437072197549804e-07,1.3433537088970344e-05
1.5682268533016525e-06,2.8848596230891268e-06,4.4754632533729314e-07,1.3333825949038385e-05
1.5574952302511497e-06,2.906593336074726e-06,4.513255324024189e-07,1.3233400226336556e-05
1.546943935662415e-06,2.928997757445061e-06,4.5502718544864654e-07,1.3132158004859905e-05
1.5366540558236804e-06,2.951870866981815e-06,4.586355600222e-07,1.303000228870067e-05
1.526710442649231e-06,2.975010760731088e-06,4.6213974600438976e-07,1.2926895817189106e-05
1.5172019209397266e-06,2.9982364911970316e-06,4.6553410348526747e-07,1.2822864400513605e-05
1.5082200163271288e-06,3.021399338872184e-06,4.688152026986865e-07,1.2717981060517105e-05
1.4998560872101382e-06,3.0443752581233317e-06,4.7197838812325753e-07,1.2612355640844775e-05
1.4921942170341659e-06,3.0670440773867664e-06,4.7501654253038596e-07,1.2506105239026073e-05
1.4853009468292576e-06,3.0892721528956514e-06,4.779204328224814e-07,1.2399302926948053e-05
1.4792181723904644e-06,3.1109108305883214e-06,4.806803916003031e-07,1.2291940634221753e-05
1.4739630121158545e-06,3.1318069834302786e-06,4.832881843838717e-07,1.2183926070285898e-05
1.469533046015934e-06,3.1518189690794938e-06,4.857366528463331e-07,1.2075101296848268e-05
1.4659114276948047e-06,3.170835774864792e-06,4.880185335839561e-07,1.1965270533679405e-05
1.463068351979356e-06,3.1887890791719923e-06,4.90127727642949e-07,1.1854239751171319e-05
1.4609650885341685e-06,3.2056455220738173e-06,4.920611427028716e-07,1.174186913745636e-05
1.4595678168228338e-06,3.2213834709906967e-06,4.938175516494218e-07,1.1628136934253532e-05
1.4588627949258462e-06,3.2359734120799363e-06,4.953955944220096e-07,1.1513214382092004e-05
1.4588589817880266e-06,3.249375809081401e-06,4.967944588594089e-07,1.1397513332257684e-05
1.4595810706310731e-06,3.261551617406354e-06,4.980151639414319e-07,1.1281639868655466e-05
1.4610639311416887e-06,3.27247137903746e-06,4.990593921017291e-07,1.1166277490268916e-05
1.463348738841367e-06,3.2821171707941075e-06,4.999278940071755e-07,1.1052105865362814e-05
1.466475039030918e-06,3.2904801514307186e-06,5.00620693374893e-07,1.0939792543637256e-05
1.4704690952555816e-06,3.2975569764611025e-06,5.0113803227773e-07,1.0830029589698872e-05
1.475337238007541e-06,3.303347670669653e-06,5.014807465478115e-07,1.0723575773694553e-05
1.4810699485844537e-06,3.3078547178358437e-06,5.016498071846489e-07,1.06212449336526e-05
1.487650425206861e-06,3.3110799585536418e-06,5.016461171106479e-07,1.0523853608079048e-05
1.4950589628426916e-06,3.313019076910501e-06,5.014712333343769e-07,1.0432198703796792e-05
1.503271178436263e-06,3.313656350675929e-06,5.01127292350157e-07,1.0347057112117676e-05
1.5122536655385025e-06,3.312961337652758e-06,5.006151149152235e-07,1.0269168037457022e-05
1.5219610248363303e-06,3.3108895790421563e-06,4.999327917147194e-07,1.0199205053345751e-05
1.5323333351107157e-06,3.3073889919388812e-06,4.990773490988437e-07,1.0137760434070366e-05
1.5432932214030197e-06,3.3024118978154337e-06,4.980482117440271e-07,1.0085334343651132e-05
1.5547464977367568e-06,3.295928270856116e-06,4.968485802844879e-07,1.0042298839226353e-05
1.5665871755805868e-06,3.2879288012514253e-06,4.954836412233228e-07,1.0008852298385217e-05
1.5787035411370813e-06,3.278412995722434e-06,4.93959036882847e-07,9.985002093801366e-06
1.5909847590992697e-06,3.267377327183287e-06,4.922820020591647e-07,9.970568654274262e-06
1.6033261469573718e-06,3.2548211148818688e-06,4.904621017551565e-07,9.965196899415596e-06
1.615628532985909e-06,3.2407682834804013e-06,4.885087264088719e-07,9.968376276894027e-06
1.62779377241379e-06,3.2252891878933035e-06,4.864281052077252e-07,9.9794790129066e-06
1.6397256279568104e-06,3.208510391953288e-06,4.842232404739813e-07,9.997862940782344e-06
1.651339455819147e-06,3.190610819832547e-06,4.818969041291555e-07,1.0023019598653543e-05
1.6625729235851843e-06,3.171807075840304e-06,4.79456573861396e-07,1.0054636294126598e-05
1.6733885614306445e-06,3.152331009845983e-06,4.769189248979015e-07,1.0092559252211463e-05
1.6837650567130234e-06,3.132406182708505e-06,4.7431060964700215e-07,1.0136746037752426e-05
1.6936815603358096e-06,3.1122297238429434e-06,4.716644480781993e-07,1.01871883653504e-05
1.7031053837472783e-06,3.091962855752244e-06,4.6901326732095157e-07,1.0243794052474023e-05
1.7119898088418802e-06,3.071731781363792e-06,4.663859978691517e-07,1.0306300585601942e-05
1.7202793764849018e-06,3.051633377810324e-06,4.638102195694432e-07,1.0374262732047987e-05
1.7279170796081631e-06,3.03173626359021e-06,4.6131844077482033e-07,1.0447096815965367e-05
1.7348488327657032e-06,3.0120770493897343e-06,4.589506522759326e-07,1.0524135415200926e-05
1.741023667150169e-06,2.9926588304771782e-06,4.5675119437642287e-07,1.0604662979188516e-05
1.7463924600856502e-06,2.9734548637027267e-06,4.547636644462818e-07,1.0687931595584337e-05
1.7509066583870198e-06,2.95441492469006e-06,4.5302724915806503e-07,1.0773160866402666e-05
1.7545163835286548e-06,2.935476213480131e-06,4.515759353670082e-07,1.0859530856139084e-05
1.7571691406288533e-06,2.916586834463956e-06,4.504393498397816e-07,1.0946178923725857e-05
1.7588098932371116e-06,2.897738800415661e-06,4.496428397042115e-07,1.1032210825118233e-05
1.759383077655445e-06,2.8789904942780813e-06,4.492068569367828e-07,1.111673325100798e-05
1.758837372407185e-06,2.8604644958945744e-06,4.491474661504072e-07,1.1198888289607635e-05
1.7571289251327164e-06,2.842326881900277e-06,4.4947805581731216e-07,1.1277865195456265e-05
1.7542193693943158e-06,2.8247600706164065e-06,4.502101990178621e-07,1.1352893211393386e-05
1.750075025915266e-06,2.807934720260801e-06,4.513534051608947e-07,1.142322881499826e-05
1.7446743040102372e-06,2.791986162713576e-06,4.529156005080597e-07,1.1488151625460708e-05
1.7380192801490617e-06,2.777006192921637e-06,4.5490381125401495e-07,1.1546974603984512e-05
1.730140980595154e-06,2.7630545556863947e-06,4.5732293218711155e-07,1.1599046920709392e-05
1.7210924867956803e-06,2.7501808248447653e-06,4.6017312601677997e-07,1.1643741286080313e-05
1.710936251847851e-06,2.738444158061013e-06,4.63448453550439e-07,1.1680450660392472e-05
1.6997382539229705e-06,2.7279212537233603e-06,4.671377532176053e-07,1.1708599431926393e-05
1.6875698820697658e-06,2.7186976183132272e-06,4.7122732202451074e-07,1.1727651730809495e-05
1.6745066625347004e-06,2.7108478629570068e-06,4.7570486388508274e-07,1.1737115640305345e-05
1.6606205074633418e-06,2.704417200804458e-06,4.805616637528561e-07,1.1736553580884445e-05
1.6459728723091268e-06,2.699413345824469e-06,4.857900509221238e-07,1.1725598893699253e-05
1.6306129059122062e-06,2.6958110988025653e-06,4.91378595403849e-07,1.170396474549799e-05
1.6145781866601002e-06,2.693561189103682e-06,4.973084575659746e-07,1.1671449555379716e-05
1.5978964617116224e-06,2.6925919248844267e-06,5.035514770407272e-07,1.1627958361151379e-05
1.5805885975602509e-06,2.6928068252910917e-06,5.100702919258936e-07,1.1573515483128406e-05
1.5626714359188191e-06,2.6940867060737258e-06,5.168204514961169e-07,1.1508234234902898e-05
1.544159185866785e-06,2.6962929883202758e-06,5.237535334159579e-07,1.1432274301323492e-05
1.5250645252503058e-06,2.6992693193458142e-06,5.308199834383799e-07,1.1345841908910545e-05
1.5054024368406376e-06,2.702843815619117e-06,5.379701482639163e-07,1.1249253145456944e-05
1.4851987767521468e-06,2.7068309983608717e-06,5.451536941704575e-07,1.1143028587187508e-05
1.4645008556599466e-06,2.71103446465986e-06,5.523201018202029e-07,1.1027923874683771e-05
1.443381565493656e-06,2.715253654624449e-06,5.59421657880628e-07,1.0904830131677072e-05
1.4219315205326085e-06,2.7192936081905566e-06,5.664164011039787e-07,1.0774631093981558e-05
1.400249068338385e-06,2.7229749473561548e-06,5.732679536795389e-07,1.0638142124389664e-05
1.3784418461164806e-06,2.7261427840774605e-06,5.799439247496325e-07,1.0496116434523199e-05
1.3566341157708479e-06,2.7286722681463508e-06,5.864165865412274e-07,1.0349245149445122e-05
1.3349651297088386e-06,2.730465616159031e-06,5.926658884654381e-07,1.0198150360394513e-05
1.3135779793678544e-06,2.731439491414757e-06,5.986831877249402e-07,1.0043394561309545e-05
1.2926083367178681e-06,2.7315160597353317e-06,6.044729669924132e-07,9.885493517482527e-06
1.2721783718843215e-06,2.7306342921705328e-06,6.100487985142682e-07,9.724928145211482e-06
1.2523941936802929e-06,2.728779052675552e-06,6.154255991322304e-07,9.562166664961337e-06
1.2333442109637185e-06,2.7260091394241852e-06,6.206142763268067e-07,9.397682335628759e-06
1.2150998436353558e-06,2.7224655580893916e-06,6.256205292150156e-07,9.231967432148582e-06
1.1977191632935464e-06,2.718349146843187e-06,6.30445556845282e-07,9.06556567813757e-06
1.1812503886709312e-06,2.713876716276109e-06,6.350866167894535e-07,8.899115773959175e-06
1.1657342125111549e-06,2.7092481529753123e-06,6.395375123888329e-07,8.733415840201938e-06
1.1512046937813202e-06,2.7046431050048737e-06,6.437890603772915e-07,8.569505923382043e-06
1.137687444185943e-06,2.700230610871375e-06,6.478283864921011e-07,8.408659502678803e-06
1.1251982456173305e-06,2.6961732307105283e-06,6.516381868219856e-07,8.25223171892544e-06
1.1137447097323857e-06,2.6926223539156883e-06,6.551986007913705e-07,8.101484947475234e-06
1.1033267314440392e-06,2.6897058041538434e-06,6.584917312933561e-07,7.95749123695243e-06
1.0939341282596537e-06,2.6875175863371883e-06,6.615051458310464e-07,7.821101347172745e-06
1.085546215504788e-06,2.6861226936873656e-06,6.642304148657465e-07,7.692950490146685e-06
1.0781336479251329e-06,2.6855721992018e-06,6.666585015906444e-07,7.57348461556704e-06
1.071658254262822e-06,2.685911463582786e-06,6.687772137187703e-07,7.462992663988838e-06
1.0660718568993832e-06,2.687175585696985e-06,6.705715742209467e-07,7.3616329820593266e-06
1.0613175046623095e-06,2.6893854506725645e-06,6.720254782851351e-07,7.269459141719428e-06
1.0573319003634217e-06,2.692564688771846e-06,6.731243513193756e-07,7.186455156385576e-06
1.054047298939839e-06,2.6967793892509363e-06,6.738568884632889e-07,7.112570686367645e-06
1.0513929137182774e-06,2.702171576493638e-06,6.742136192878477e-07,7.0477419522346646e-06
1.0492959299865715e-06,2.708951488390479e-06,6.741840867150071e-07,6.991895150131271e-06
1.0476859965256686e-06,2.717346555411794e-06,6.737556456269793e-07,6.944937584015283e-06
1.0465065340318493e-06,2.727543770308188e-06,6.729148110688928e-07,6.90675382965536e-06
1.0457259422990059e-06,2.739659941181117e-06,6.716503046923298e-07,6.87721147616811e-06
1.045337460271826e-06,2.7537385832963958e-06,6.699556235665791e-07,6.856154271466197e-06
1.045346714631696e-06,2.7697545566478426e-06,6.678305306061369e-07,6.843387863163622e-06
1.0457609679421943e-06,2.7876189062432475e-06,6.6528272108355e-07,6.838687418790086e-06
1.0465931137105926e-06,2.8071872043236116e-06,6.623289890077168e-07,6.84181202789838e-06
1.0478731167090698e-06,2.8282726566571362e-06,6.58993707822154e-07,6.8524914996084846e-06
1.0496504636900518e-06,2.850661226345278e-06,6.553048963784037e-07,6.870393016105336e-06
1.0519852183745114e-06,2.8741262517271013e-06,6.512919800977089e-07,6.89510534979095e-06
1.054935385877908e-06,2.898440453702629e-06,6.469876164624786e-07,6.926164255455556e-06
1.058545356540392e-06,2.92338512745926e-06,6.424302011080667e-07,6.963102056989674e-06
1.062838860727078e-06,2.948758897548217e-06,6.37663583497754e-07,7.005486869786805e-06
1.067817547266633e-06,2.974385568368245e-06,6.327336816243729e-07,7.052928823319882e-06
1.0734621870291095e-06,3.0001167648294317e-06,6.276830770774461e-07,7.1050527833551985e-06
1.079736484606886e-06,3.025825769424157e-06,6.225464493965412e-07,7.1614620900784025e-06
1.0865936747488462e-06,3.0513941049732467e-06,6.173493520157419e-07,7.221712769530792e-06
1.0939806589356002e-06,3.0766986232817082e-06,6.12109627413264e-07,7.285312123073812e-06
1.10183809507365e-06,3.101604346596968e-06,6.068397103512378e-07,7.351753509150968e-06
1.110103932277582e-06,3.125960760446584e-06,6.015487101580812e-07,7.420556545734065e-06
1.1187248936193358e-06,3.149599442096262e-06,5.962432801779599e-07,7.491282792368492e-06
1.1276687806950243e-06,3.172334042265282e-06,5.909271059346496e-07,7.563540284470537e-06
1.1369295659846676e-06,3.19396411626735e-06,5.855999770547797e-07,7.636976628544692e-06
1.1465253749373295e-06,3.2142865749823965e-06,5.802579923455631e-07,7.711256443552956e-06
1.1564906341256262e-06,3.233117091795029e-06,5.748962670274347e-07,7.786060118545082e-06
1.1668622588789202e-06,3.250314087055829e-06,5.695132336905257e-07,7.861114027090499e-06
1.177664798027771e-06,3.265791941916274e-06,5.641138693098478e-07,7.936200124680999e-06
1.1889019125836158e-06,3.2795150932088124e-06,5.587107314292084e-07,8.011147819122231e-06
1.2005568299875595e-06,3.291475705068035e-06,5.533226334267322e-07,8.08586014180823e-06
1.2125973110017056e-06,3.3016697049714056e-06,5.479712902073293e-07,8.160342248605124e-06
1.2249778259200553e-06,3.3100895198734617e-06,5.426788967641689e-07,8.234674227446332e-06
1.2376384243708957e-06,3.316736087655518e-06,5.374685235097132e-07,8.308939379833122e-06
1.2505058247478014e-06,3.3216329039753044e-06,5.323649201503152e-07,8.38315345170495e-06
1.2635015009806706e-06,3.324826788361838e-06,5.273936636568003e-07,8.45722783440038e-06
1.27655786792698e-06,3.3263760276769686e-06,5.225794679866954e-07,8.530973088876436e-06
1.289634607057475e-06,3.326336287674234e-06,5.179447364095454e-07,8.604137068821531e-06
1.3027241338181485e-06,3.324754337277184e-06,5.135080157156011e-07,8.676448712667035e-06
1.3158456587912541e-06,3.3216718403246946e-06,5.092827348578179e-07,8.747632346298279e-06
1.329032286761096e-06,3.3171328661310063e-06,5.052778616978264e-07,8.817412570175423e-06
1.3423134831920448e-06,3.3111866914084116e-06,5.014997831920061e-07,8.885530822131351e-06
1.3557008581507066e-06,3.3038818881031942e-06,4.9795350303591e-07,8.951767875849316e-06
1.3691860804125938e-06,3.295257406132428e-06,4.946425003026988e-07,9.016011922661188e-06
1.3827458911854401e-06,3.2853476465031867e-06,4.915680317475914e-07,9.078360870476527e-06
1.396343800198425e-06,3.274211034360977e-06,4.887306926348468e-07,9.13917549082723e-06
1.409929437004089e-06,3.2619638464926663e-06,4.861338246825463e-07,9.199086856792576e-06
1.423440514429894e-06,3.2487926989209214e-06,4.837836291286632e-07,9.258959876467342e-06
1.4368052492385747e-06,3.234939874325218e-06,4.816851050755578e-07,9.31976795836544e-06
1.4499441414056826e-06,3.220672013266505e-06,4.798384778759336e-07,9.382442154532462e-06
1.4627747796186706e-06,3.2062438782586005e-06,4.782388027333325e-07,9.447777584252107e-06
1.475219995183916e-06,3.1918676541216145e-06,4.768779325949744e-07,9.516380587239163e-06
1.4872148999723499e-06,3.1776968411179336e-06,4.75747913283905e-07,9.588632376192623e-06
1.4987082941681256e-06,3.1638258434044544e-06,4.748452010912448e-07,9.664684766625484e-06
1.5096573137526315e-06,3.15029700012836e-06,4.741738446888789e-07,9.744496699431607e-06
1.520018296158271e-06,3.137108772910858e-06,4.737456244949185e-07,9.827883702072479e-06
1.5297395492498215e-06,3.124225840246185e-06,4.735773393329303e-07,9.914545762923666e-06
1.5387598981599183e-06,3.111590128161553e-06,4.7368675477914647e-07,1.0004083173014367e-05
1.5470110000968451e-06,3.0991279564102366e-06,4.7408886159706964e-07,1.0096033386373093e-05
1.554419599646777e-06,3.086755276672515e-06,4.7479401071696216e-07,1.0189928005113808e-05
1.5609098672439345e-06,3.0743925557304176e-06,4.758077705939216e-07,1.0285341784583839e-05
1.5664079970505031e-06,3.0619936717437314e-06,4.771318068398004e-07,1.0381924333662948e-05
1.5708480832446141e-06,3.0495738398670586e-06,4.7876632927645e-07,1.047942146643119e-05
1.574175196305559e-06,3.037216524338154e-06,4.807131178258467e-07,1.0577673585472681e-05
1.5763436589343496e-06,3.0250546083437414e-06,4.829757050893244e-07,1.0676576487031771e-05
1.577313801945344e-06,3.0132383109961887e-06,4.855561158056939e-07,1.0776020587232556e-05
1.5770537554158912e-06,3.0019051275356036e-06,4.884527506872825e-07,1.087583127990738e-05
1.57554801531477e-06,2.991159106798994e-06,4.916614294194872e-07,1.0975720744850901e-05
1.5728053153508604e-06,2.9810641183515634e-06,4.951753499380683e-07,1.1075265585405127e-05
1.568859000872781e-06,2.9716514496135668e-06,4.989822183786018e-07,1.117392461028733e-05
1.5637600956289494e-06,2.962929922482329e-06,5.030624339105746e-07,1.1271079970844162e-05
1.557566995033423e-06,2.9548877189955483e-06,5.073914245238336e-07,1.1366061976764635e-05
1.5503387514925394e-06,2.9474888171777767e-06,5.119457843170294e-07,1.1458150221369452e-05
1.5421362705118176e-06,2.94067355667076e-06,5.167097834052285e-07,1.1546580034479815e-05
1.5330283600124443e-06,2.934366067297571e-06,5.216764118620742e-07,1.1630564122279135e-05
1.5230973741015369e-06,2.928480535529307e-06,5.268407060374312e-07,1.1709328540120074e-05
1.5124404427389861e-06,2.922920508399477e-06,5.321913381650654e-07,1.1782192905769216e-05
1.501165007255954e-06,2.9175782439141165e-06,5.377080639246579e-07,1.1848671478428344e-05
1.4893815156963268e-06,2.912344735552304e-06,5.433677366325963e-07,1.1908484388692102e-05
1.4771976879965461e-06,2.9071278411727237e-06,5.491563696815304e-07,1.1961461429754792e-05
1.464716644311574e-06,2.901863335998948e-06,5.550784026280571e-07,1.2007450771114802e-05
1.4520379005102786e-06,2.8965098665892534e-06,5.611546872611392e-07,1.2046307847534495e-05
1.4392597641059313e-06,2.8910333030748783e-06,5.674113163531646e-07,1.2077952717956516e-05
1.426483101109536e-06,2.885393378459534e-06,5.738680404230119e-07,1.210241628071782e-05
1.413813216450658e-06,2.8795442954071564e-06,5.805318087477014e-07,1.2119798968950814e-05
1.4013536555610382e-06,2.8734495427188343e-06,5.873957511836129e-07,1.213018669771256e-05
1.3891950023946613e-06,2.867098627967388e-06,5.944417784513231e-07,1.2133612813690245e-05
1.3774115552759492e-06,2.860512225819308e-06,6.016446904826572e-07,1.2130062683500986e-05
1.3660698424865796e-06,2.853728814513879e-06,6.089759599279687e-07,1.2119477214099451e-05
1.3552373542763122e-06,2.846781188027192e-06,6.164069916705246e-07,1.2101748808308162e-05
1.3449804117772552e-06,2.839685390001572e-06,6.239119965326171e-07,1.2076723297735436e-05
1.3353539327312915e-06,2.8324528671161653e-06,6.31469920161005e-07,1.2044217546665995e-05
1.3263940548632565e-06,2.8251122570755432e-06,6.390658509650522e-07,1.2004066716379665e-05
1.3181191017476083e-06,2.8177206334498413e-06,6.466912491210565e-07,1.1956206077166393e-05
1.3105348209884446e-06,2.810354262389368e-06,6.543406610918836e-07,1.1900735264874953e-05
1.3036399591833122e-06,2.8030875028683457e-06,6.620055589309984e-07,1.1837893040344813e-05
1.2974345047933758e-06,2.795979904253114e-06,6.696691260827394e-07,1.176796278867255e-05
1.2919290104281244e-06,2.789076211533421e-06,6.773044888481461e-07,1.1691199825705933e-05
1.2871454893775769e-06,2.7824064446394767e-06,6.848759680799709e-07,1.160783742755839e-05
1.283107834051045e-06,2.7759842649276784e-06,6.923415774831065e-07,1.151816229052547e-05
1.2798341101013563e-06,2.769818645443694e-06,6.996552895256977e-07,1.142257543551532e-05
1.2773402082199204e-06,2.7639423054304617e-06,7.06768881685529e-07,1.132156669232239e-05
1.2756482605007742e-06,2.758437225542936e-06,7.136336288849935e-07,1.1215638290632048e-05
1.2747885469340194e-06,2.7534382482064825e-06,7.202010622136395e-07,1.1105241762594148e-05
1.2747923790601832e-06,2.7491102896765917e-06,7.264231992920556e-07,1.0990754149939506e-05
1.2756812976978994e-06,2.74560846473346e-06,7.322554201880247e-07,1.087248494845784e-05
1.2774592569636756e-06,2.7430466707205658e-06,7.37662292114981e-07,1.0750686805303204e-05
1.2801113148478978e-06,2.7414967925632944e-06,7.426211127569919e-07,1.0625563362186315e-05
1.2836063464162606e-06,2.7410119945472457e-06,7.471197292705032e-07,1.049728240791973e-05
1.2878984810320228e-06,2.7416507984892653e-06,7.511511401324606e-07,1.0365996217033684e-05
1.2929287920374551e-06,2.7434881213741193e-06,7.547088598062894e-07,1.0231866111823783e-05
1.2986324851153972e-06,2.7466133244172507e-06,7.577852656205174e-07,1.0095083327310076e-05
1.304948793346053e-06,2.7511208069752383e-06,7.603738987760524e-07,9.955879600370732e-06
1.311825426359049e-06,2.7570979750029576e-06,7.624736449946951e-07,9.814529338557e-06
1.319214560444588e-06,2.7646128329291474e-06,7.640903418953098e-07,9.671348735753999e-06
1.3270674589899074e-06,2.7737032703295534e-06,7.652348072068044e-07,9.526695527610464e-06
1.3353392511604644e-06,2.7843717962870135e-06,7.659200312035623e-07,9.380972306306284e-06
1.3440033573397138e-06,2.796588684331009e-06,7.661607715252822e-07,9.234637795061924e-06
1.353060299942285e-06,2.8102999378342246e-06,7.659766042491615e-07,9.088216735462128e-06
1.3625309938948231e-06,2.8254297776340287e-06,7.653942199593297e-07,8.942279830145802e-06
1.3724398743248225e-06,2.841875033676484e-06,7.644449287277317e-07,8.797391902051781e-06
1.3827988663751543e-06,2.8595064286348206e-06,7.631603353541183e-07,8.654065624243528e-06
1.393599933591863e-06,2.8781896530166136e-06,7.615697785725842e-07,8.51274105359532e-06
1.404815986136572e-06,2.897815158921696e-06,7.596987913510676e-07,8.37377669849272e-06
1.4164033857933118e-06,2.918314475414361e-06,7.575689184685126e-07,8.23743994877908e-06
1.4283025121687857e-06,2.939653840523277e-06,7.552016216826975e-07,8.103901411998352e-06
1.440439115355416e-06,2.961814030607733e-06,7.526259110590688e-07,7.973240377321615e-06
1.4527292582663539e-06,2.984772192886402e-06,7.498836322093545e-07,7.845464230743013e-06
1.4650870384646704e-06,3.008492440395041e-06,7.470274793180688e-07,7.720543626406629e-06
1.477430134163922e-06,3.0329192324274714e-06,7.441143393893095e-07,7.59846002105278e-06
1.489678820291252e-06,3.0579678899067887e-06,7.411985396177359e-07,7.479244771420267e-06
1.5017511989116516e-06,3.0835164296149527e-06,7.383271068432656e-07,7.362998319769348e-06
1.5135609473236592e-06,3.1094067958354845e-06,7.355384970200012e-07,7.249913240222219e-06
1.525020364809837e-06,3.135457526605316e-06,7.328636272951644e-07,7.1402881320964734e-06
1.5360477466480786e-06,3.161481674908951e-06,7.303259183258959e-07,7.034477788241653e-06
1.5465754857838649e-06,3.1873021787912033e-06,7.279402781441962e-07,6.9328123888575535e-06
1.5565536933919828e-06,3.2127607107518328e-06,7.25713376731869e-07,6.8355746250995425e-06
1.5659480612760858e-06,3.2377170341603176e-06,7.236456858415164e-07,6.743043324425999e-06
1.5747357532820248e-06,3.2620383844448483e-06,7.217342451364009e-07,6.655563539022648e-06
1.5829018240295025e-06,3.285587802211605e-06,7.199749548712655e-07,6.573616862069856e-06
1.5904348183861944e-06,3.308224350513137e-06,7.183631788776266e-07,6.4978464329222585e-06
1.5973197893142368e-06,3.3298184219316936e-06,7.168926561009455e-07,6.428990852704973e-06
1.6035316679498841e-06,3.3502721611110944e-06,7.155546076420584e-07,6.367759343331896e-06
1.6090339080899504e-06,3.3695301486507307e-06,7.143395334015891e-07,6.314735655038418e-06
1.613781141804796e-06,3.3875705340544587e-06,7.132417026112731e-07,6.270359303946488e-06
1.6177219370951337e-06,3.4043798310820057e-06,7.122630446697838e-07,6.234982187550893e-06
1.6208008540437363e-06,3.41993000244818e-06,7.114128833906034e-07,6.208967895524722e-06
1.6229594189915536e-06,3.434178159792952e-06,7.107030983370051e-07,6.192768263494402e-06
1.6241366320431196e-06,3.4470879655882066e-06,7.101432630051219e-07,6.186937072542362e-06
1.624271778288064e-06,3.458651506146211e-06,7.097391694655028e-07,6.192100171699853e-06
1.6233109672423525e-06,3.4688958288286486e-06,7.094926027735509e-07,6.2089060011255735e-06
1.6212149816260309e-06,3.477873067587264e-06,7.094018289528308e-07,6.237962843854547e-06
1.617963268213847e-06,3.4856391158417075e-06,7.094634784079924e-07,6.279773578374808e-06
1.6135517736775357e-06,3.492231603829464e-06,7.096725831732733e-07,6.334691192073371e-06
1.607987937521821e-06,3.4976630517560585e-06,7.100202442040866e-07,6.402935615403803e-06
1.601285970097469e-06,3.5019352401077615e-06,7.104943258230212e-07,6.484716985395425e-06
1.59346281037351e-06,3.5050599967908334e-06,7.110848588446132e-07,6.58041550199278e-06
1.58453676644989e-06,3.5070654504092386e-06,7.11788803103352e-07,6.6906410655746044e-06
1.5745297914476282e-06,3.5079886807105346e-06,7.126110706226577e-07,6.816092288851122e-06
1.5634686501980756e-06,3.507875048388932e-06,7.13562791563424e-07,6.957342609632573e-06
1.551382054988345e-06,3.5067875974326126e-06,7.146565109390048e-07,7.114694003505072e-06
1.538297872260159e-06,3.5048100799526932e-06,7.158996112990993e-07,7.2881852864309205e-06
1.5242438253194038e-06,3.502038786372985e-06,7.172902333728937e-07,7.477813773789343e-06
1.5092499943937606e-06,3.4985684862926813e-06,7.188168706438565e-07,7.683841160149115e-06
1.4933509775947157e-06,3.494474697530774e-06,7.204592334584066e-07,7.90692828924679e-06
1.476587802318874e-06,3.489801186020717e-06,7.221894165911668e-07,8.148051940953948e-06
1.4590108207977267e-06,3.4845610206082003e-06,7.239743149635762e-07,8.408351048229529e-06
1.4406836155215675e-06,3.478742561855176e-06,7.257786551593224e-07,8.688978857999697e-06
1.4216832835371996e-06,3.4723105043366293e-06,7.275669712013039e-07,8.990947492750247e-06
1.4020928497388536e-06,3.4652066592076133e-06,7.29305259565518e-07,9.314967083092893e-06
1.3819912073525214e-06,3.4573559371057235e-06,7.309640265903322e-07,9.661312580249696e-06
1.3614508545068472e-06,3.4486726700781374e-06,7.325221683310262e-07,1.0029757134177594e-05
1.3405468493250454e-06,3.439062643007053e-06,7.339694145252866e-07,1.0419580241201984e-05
1.3193710238329352e-06,3.4284241320972444e-06,7.353053564597981e-07,1.0829613130389488e-05
1.2980404094657693e-06,3.416651726639826e-06,7.365352405508998e-07,1.1258296557309643e-05
1.2766921410018268e-06,3.403641973333685e-06,7.376651998525786e-07,1.1703766429474402e-05
1.2554689065465937e-06,3.3892983865298138e-06,7.386988575891815e-07,1.2163963662957515e-05
1.2345059760828642e-06,3.373535189372379e-06,7.396351973229446e-07,1.2636735736723213e-05
1.213925316098283e-06,3.35628030323311e-06,7.404678318219406e-07,1.3119916192974636e-05
1.193834830463451e-06,3.3374773410000043e-06,7.41185533842527e-07,1.3611390907396285e-05
1.174328115565511e-06,3.31708897483224e-06,7.417737256718527e-07,1.4109150049428262e-05
1.1554816756173211e-06,3.2951056629461066e-06,7.422173099493341e-07,1.4611314871057516e-05
1.1373527006972543e-06,3.271555351744041e-06,7.425030723772259e-07,1.5116140279140802e-05
1.119983186901534e-06,3.2465035659206976e-06,7.426194732896802e-07,1.5621991550985787e-05
1.1034076895643551e-06,3.2200399861775424e-06,7.425558425658364e-07,1.6127289865902053e-05
1.0876556790890706e-06,3.1922593466442025e-06,7.423042849693142e-07,1.6630439747999067e-05
1.072748250863e-06,3.163251094708059e-06,7.418630972182665e-07,1.7129756913769094e-05
1.058696515426264e-06,3.1331034746864484e-06,7.412375217596224e-07,1.7623420927346937e-05
1.0455025173367323e-06,3.1019130731524543e-06,7.404372032618891e-07,1.8109497246752128e-05
1.033159047137095e-06,3.069791654528745e-06,7.39473887131135e-07,1.8586037546636865e-05
1.021648943946693e-06,3.0368682841703314e-06,7.383609306399231e-07,1.90511818104229e-05
1.0109453033667679e-06,3.0032861240266965e-06,7.371117050840906e-07,1.9503191936702357e-05
1.0010115785759486e-06,2.9691979830824327e-06,7.35735871156143e-07,1.9940446743358814e-05
9.918015232687094e-07,2.9347652630852045e-06,7.342375445293391e-07,2.0361445726568627e-05
9.832602911054198e-07,2.9001569098503995e-06,7.326184564620104e-07,2.076480452403595e-05
9.753270623921184e-07,2.8655414814344825e-06,7.308843791989162e-07,2.114922292010189e-05
9.67937473525258e-07,2.8310723950164183e-06,7.290494484814255e-07,2.151345072485925e-05
9.61024728977231e-07,2.796875776688844e-06,7.271342278548356e-07,2.1856271872458278e-05
9.54521468633966e-07,2.7630495749186764e-06,7.251592723241701e-07,2.217649310114693e-05
9.483627889374019e-07,2.729669989778266e-06,7.231396995617026e-07,2.2472936035586746e-05
9.424879643702936e-07,2.696794700308948e-06,7.210841304896881e-07,2.2744455890167723e-05
9.368406239698866e-07,2.6644625075258598e-06,7.18996528467197e-07,2.2990010239132118e-05
9.313684228921669e-07,2.632697403715569e-06,7.168772830459313e-07,2.320878171239074e-05
9.260237183717031e-07,2.601517030513844e-06,7.147228186513707e-07,2.340027977157256e-05
9.207668519104799e-07,2.5709369863170207e-06,7.12526463073237e-07,2.3564321901104866e-05
9.155679491617585e-07,2.54096905998512e-06,7.102810445098319e-07,2.3700910968645485e-05
9.104034219216793e-07,2.511620704811852e-06,7.079796378507193e-07,2.381011144337977e-05
9.052537121312418e-07,2.4829017313547027e-06,7.056131165110345e-07,2.389199079820104e-05
9.001070014003584e-07,2.45483831164814e-06,7.031679104406049e-07,2.394662058119548e-05
8.949619753115581e-07,2.4274886334598997e-06,7.006265503691466e-07,2.397409483232781e-05
8.898246094136108e-07,2.400950796357901e-06,6.979695474307744e-07,2.397454904474896e-05
8.847026808767964e-07,2.375357176980945e-06,6.951764135514298e-07,2.394823922757393e-05
8.796011976061865e-07,2.350855368208249e-06,6.922261240472505e-07,2.389571893881453e-05
8.745197577382536e-07,2.3275845551690783e-06,6.890980103295272e-07,2.381796923483117e-05
8.694556270917504e-07,2.3056707400613417e-06,6.857725919055554e-07,2.371631841773623e-05
8.64414578224337e-07,2.2852503921337126e-06,6.82231838623805e-07,2.3592226640441725e-05
8.594237729466902e-07,2.2664924941635145e-06,6.784590151316048e-07,2.344711318363737e-05
8.545381280666474e-07,2.2495916014712747e-06,6.74438529220559e-07,2.328233836765361e-05
8.498363630998348e-07,2.2347428019443038e-06,6.701563446196205e-07,2.3099392645567542e-05
8.454083259923635e-07,2.2221171427519798e-06,6.656005816126653e-07,2.290017633732172e-05
8.413397156424355e-07,2.2118411001071164e-06,6.607614619249004e-07,2.2687113182006595e-05
8.377040673950629e-07,2.203983381563333e-06,6.556305829854524e-07,2.246301551022203e-05
8.345661991984832e-07,2.198553232242197e-06,6.502004361265257e-07,2.223085629636698e-05
8.319893498479607e-07,2.195506357176099e-06,6.444657535132137e-07,2.199358189003159e-05
8.300370240576803e-07,2.1947543485040872e-06,6.384262868221741e-07,2.175397828733614e-05
8.287688022342822e-07,2.1961764230836127e-06,6.320875704055926e-07,2.151457094379506e-05
8.282349318933285e-07,2.1996287078822777e-06,6.254582152973047e-07,2.127755114694464e-05
8.284742812444528e-07,2.2049460149869493e-06,6.185470256400823e-07,2.1044739753919248e-05
8.295159402747457e-07,2.2119391184145788e-06,6.113634218739672e-07,2.0817601336935942e-05
8.313809009130906e-07,2.220395467379096e-06,6.03919796891417e-07,2.0597284585492168e-05
8.340805598315794e-07,2.2300852203131716e-06,5.962315453128938e-07,2.0384644442837287e-05
8.376127371614319e-07,2.2407681511163527e-06,5.883144074693915e-07,2.0180253662868146e-05
8.419591432485214e-07,2.2521986664743514e-06,5.801825485404126e-07,1.998445291630756e-05
8.470868422105718e-07,2.264129624035978e-06,5.718494373526345e-07,1.9797443223108267e-05
8.529520030583705e-07,2.2763151708219467e-06,5.633311872350313e-07,1.961938317148256e-05
8.595029267398989e-07,2.288513115881679e-06,5.546493355752552e-07,1.945046927278702e-05
8.666815299242302e-07,2.300489234126617e-06,5.458309175135898e-07,1.92909791174722e-05
8.744240687560074e-07,2.312022422643229e-06,5.369080256657926e-07,1.91412556095745e-05
8.826644485100984e-07,2.3229065445123383e-06,5.279176567359201e-07,1.9001660885419964e-05
8.913427998527998e-07,2.332949116340847e-06,5.18899562474273e-07,1.887254943041384e-05
9.004149803374542e-07,2.3419722799108727e-06,5.098922803179371e-07,1.8754249240461708e-05
9.098575384882757e-07,2.349821657385627e-06,5.009307105652012e-07,1.8647022920280446e-05
9.196669501541021e-07,2.3563815398557528e-06,4.920465435961598e-07,1.8551030741407144e-05
9.298528942764952e-07,2.361584451321249e-06,4.83268612174908e-07,1.846630112994492e-05
9.404272661738541e-07,2.3654045531441143e-06,4.7462192108431607e-07,1.8392690374707505e-05
9.513940655205229e-07,2.367840255447701e-06,4.661276950270912e-07,1.8329880647775823e-05
9.62745739968392e-07,2.3689016859660758e-06,4.578043715144929e-07,1.8277449853994768e-05
9.744669558557686e-07,2.3686135322555605e-06,4.496672707382046e-07,1.8234926555994285e-05
9.865405743980856e-07,2.3670301343067443e-06,4.4172741902295325e-07,1.820176731244652e-05
9.989510974700294e-07,2.3642495465345118e-06,4.339912974076018e-07,1.8177312089688808e-05
1.0116854246767178e-06,2.3604157117314848e-06,4.2646168651975143e-07,1.816076736540128e-05
1.0247314798467958e-06,2.355706506109652e-06,4.191389413195556e-07,1.81512043587856e-05
1.0380739625740737e-06,2.3503120185175074e-06,4.1202205583022474e-07,1.814756206141107e-05
1.0516894229799057e-06,2.3444102730050943e-06,4.0510939935352714e-07,1.8148665721909625e-05
1.0655457370624865e-06,2.3381496601850045e-06,3.9839927661742936e-07,1.815326340524986e-05
1.0796045521455999e-06,2.331648673177918e-06,3.91890226656635e-07,1.8160072006898873e-05
1.0938206244753306e-06,2.3250134110716046e-06,3.855815163391268e-07,1.816783180801739e-05
1.1081386779628391e-06,2.3183573542956613e-06,3.79473830677053e-07,1.817537789276721e-05
1.1224922432613835e-06,2.3118074309372755e-06,3.735699304374639e-07,1.8181716629680772e-05
1.1368058846804671e-06,2.305494602592881e-06,3.6787626341270154e-07,1.8186050034528158e-05
1.1509991210009622e-06,2.299538874783804e-06,3.624041026865243e-07,1.8187703893074697e-05
1.1649886973809686e-06,2.29403932389567e-06,3.5716796735693153e-07,1.8186021549976842e-05
1.178688933810929e-06,2.2890720190296915e-06,3.521829640392993e-07,1.8180338030562155e-05
1.192013932888542e-06,2.284691134972573e-06,3.474625968535928e-07,1.8170047040333025e-05
1.204882085169044e-06,2.28092728808768e-06,3.430174653127644e-07,1.815467229430369e-05
1.2172178274603183e-06,2.2777825665888117e-06,3.3885554682133873e-07,1.813388911815494e-05
1.2289488147861322e-06,2.275228443730841e-06,3.3498265822939876e-07,1.8107498178962802e-05
1.2400034990807744e-06,2.273211381000128e-06,3.3140183346563767e-07,1.807538056832312e-05
1.2503133427078189e-06,2.2716621937860417e-06,3.281130068082023e-07,1.8037504703240948e-05
1.259819189194499e-06,2.2705012464239563e-06,3.2511428693727797e-07,1.7993984071142772e-05
1.268478373963016e-06,2.2696377899085453e-06,3.2240511583563797e-07,1.7945073748591074e-05
1.2762663975528376e-06,2.2689713442202138e-06,3.1999092504825675e-07,1.789108188327521e-05
1.2831710009666409e-06,2.268404266100384e-06,3.1788733702676875e-07,1.7832276374421898e-05
1.2891867334975911e-06,2.2678629412623804e-06,3.161217615702405e-07,1.776884499391025e-05
1.2943165414169615e-06,2.2673142339919443e-06,3.1473153172052514e-07,1.7700984372282434e-05
1.298576907121556e-06,2.266768857179646e-06,3.137599593382278e-07,1.7629115348229005e-05
1.302000365164282e-06,2.2662743082570218e-06,3.132525580735223e-07,1.755402034538236e-05
1.3046309535374874e-06,2.2659014979583217e-06,3.132536721248353e-07,1.7476759538260865e-05
1.306515829265448e-06,2.265726576988538e-06,3.1380362578177556e-07,1.7398480817212734e-05
1.3077050081933555e-06,2.265814658119808e-06,3.149372934729683e-07,1.7320273281114484e-05
1.3082609146588044e-06,2.2662167106200318e-06,3.166834346964317e-07,1.724308336939698e-05
1.308264210407383e-06,2.2669785825129137e-06,3.19064076585782e-07,1.7167665440157092e-05
1.3078087566010309e-06,2.2681464943502047e-06,3.220948461580975e-07,1.7094552290662577e-05
1.306990731425641e-06,2.269761116334946e-06,3.257862787375316e-07,1.7024038703664915e-05
1.3058984984138378e-06,2.271850466348526e-06,3.3014464489672453e-07,1.6956179320074372e-05
1.3046095511947187e-06,2.274429444501531e-06,3.3517217108169177e-07,1.6890808400575978e-05
1.3031968361337508e-06,2.2774993294138067e-06,3.40869042882348e-07,1.6827585392474177e-05
1.3017369102196823e-06,2.2810481713087293e-06,3.472385202230927e-07,1.676605314724366e-05
1.3003104809166486e-06,2.2850621107090783e-06,3.542909121418576e-07,1.6705689436039888e-05
1.2989945917829807e-06,2.289540648521823e-06,3.6204112182337714e-07,1.664595504225794e-05
1.297852275106939e-06,2.294500770816095e-06,3.705006882054341e-07,1.6586353613755983e-05
1.2969257136858921e-06,2.29996750626703e-06,3.796699124468557e-07,1.6526497715014067e-05
1.2962356303150393e-06,2.3059574442856773e-06,3.895355120599853e-07,1.6466147626716615e-05
1.295784583783213e-06,2.3124698107379866e-06,4.0007460187527257e-07,1.6405196411271327e-05
1.295560661884944e-06,2.3194986540015983e-06,4.1126007749228994e-07,1.6343623509743073e-05
1.2955421885760293e-06,2.3270565354589162e-06,4.2306316406541574e-07,1.6281463690161773e-05
1.2957071459852102e-06,2.335186311424954e-06,4.354543761125347e-07,1.6218807955979152e-05
1.296047357558725e-06,2.343951040382848e-06,4.484052153836688e-07,1.615580835144505e-05
1.2965806833545878e-06,2.3534091841851373e-06,4.6188965281092846e-07,1.609264970980089e-05
1.2973530349513838e-06,2.363591642489116e-06,4.7588430309552365e-07,1.6029492399670183e-05
1.2984279889213965e-06,2.3744979865096733e-06,4.9036713246583e-07,1.596642762493118e-05
1.299873437607829e-06,2.3861116763557377e-06,5.053138965925445e-07,1.590348849587975e-05
1.3017597402495402e-06,2.3984124741708613e-06,5.206937000384247e-07,1.5840716273541856e-05
1.304167236323413e-06,2.4113713331368517e-06,5.364662812870087e-07,1.5778219808057285e-05
1.3071864236293848e-06,2.424939440596638e-06,5.525807832988662e-07,1.5716189397274092e-05
1.3109077332843172e-06,2.4390485667757967e-06,5.689759082532678e-07,1.565489129488978e-05
1.3154109661375765e-06,2.453620131841502e-06,5.855842827111118e-07,1.5594664008760997e-05
1.320757392705547e-06,2.4685693098323347e-06,6.023409440207625e-07,1.5535896158453736e-05
1.3269826164949834e-06,2.483805089093981e-06,6.19189587010857e-07,1.547897265255474e-05
1.334092087991003e-06,2.4992429315778943e-06,6.36081627882531e-07,1.5424235880468647e-05
1.3420616431767289e-06,2.5148341443540507e-06,6.529707732636725e-07,1.5371986437994367e-05
1.3508424197047143e-06,2.530590002254584e-06,6.698100223117673e-07,1.5322484600004307e-05
1.3603689314749494e-06,2.546574651928437e-06,6.865537310899935e-07,1.5275949845423474e-05
1.3705680659135605e-06,2.562868302577361e-06,7.031590803918433e-07,1.5232559839717252e-05
1.3813668420882331e-06,2.579534709918963e-06,7.195834070807693e-07,1.5192418431790359e-05
1.392700706360577e-06,2.5966161594571468e-06,7.357826856267059e-07,1.515550268445569e-05
1.404519144102236e-06,2.6141393856471816e-06,7.517132901394326e-07,1.512162648743257e-05
1.416780671218486e-06,2.6321141320879053e-06,7.673321376865475e-07,1.5090449492488934e-05
1.4294431620303584e-06,2.6505288662055336e-06,7.82594512669736e-07,1.5061545734264337e-05
1.4424626292527513e-06,2.6693495236055318e-06,7.974535300027792e-07,1.5034496225050415e-05
1.4557976631786763e-06,2.688522522967579e-06,8.118624282376966e-07,1.5008930397531048e-05
1.469408087761506e-06,2.707984639844501e-06,8.257778406501163e-07,1.4984496850569988e-05
1.4832476369297477e-06,2.7276754709772066e-06,8.391614585909621e-07,1.4960817006923099e-05
1.49725872510452e-06,2.747543013075104e-06,8.519790110592137e-07,1.4937479876951245e-05
1.5113728850973131e-06,2.767540501277129e-06,8.641983442256515e-07,1.4914091944868265e-05
1.5255137660083816e-06,2.7876166570654722e-06,8.757884868538477e-07,1.4890318082416068e-05
1.539599199137719e-06,2.8077022063272075e-06,8.867197654118927e-07,1.486586308271066e-05
1.5535431957696069e-06,2.8277032880929247e-06,8.969646669712061e-07,1.4840427928220098e-05
1.5672612171321929e-06,2.8475085513145343e-06,9.064994918256471e-07,1.48136709052873e-05
1.5806786852519009e-06,2.867002253576308e-06,9.153070831222568e-07,1.4785182902818796e-05
1.593735887977709e-06,2.886075096855797e-06,9.233810559885116e-07,1.4754486201965937e-05
1.6063831048354298e-06,2.9046297618559844e-06,9.307300891283168e-07,1.4721058092234411e-05
1.618571572380008e-06,2.9225774191031967e-06,9.373787083463724e-07,1.4684367597418268e-05
1.630252782879614e-06,2.9398263039930403e-06,9.433622342733152e-07,1.4643892808297599e-05
1.6413871735925174e-06,2.9562722837686205e-06,9.487181143051676e-07,1.4599112406842776e-05
1.6519490639511731e-06,2.971797443916514e-06,9.534802536526243e-07,1.454950112840762e-05
1.6619212505298612e-06,2.986271094938475e-06,9.576793611542525e-07,1.4494543393455353e-05
1.6712870559944547e-06,2.9995497820528716e-06,9.61344377090612e-07,1.4433758919387766e-05
1.6800255829945739e-06,3.0114820498965195e-06,9.64501794296872e-07,1.4366730010630329e-05
1.6881078345832364e-06,3.0219200799302437e-06,9.671763551908265e-07,1.429310887706338e-05
1.6954933874735428e-06,3.030730213026679e-06,9.69394729213667e-07,1.4212594281828782e-05
1.70213035938857e-06,3.0377954004786505e-06,9.711885368355506e-07,1.412490873624622e-05
1.7079578997920354e-06,3.043016797929012e-06,9.725943311507635e-07,1.4029799438802765e-05
1.7129088980594958e-06,3.0463261925061874e-06,9.736515155171059e-07,1.3927042793209366e-05
1.7169137523524957e-06,3.047704280132843e-06,9.74400940064935e-07,1.3816446076370636e-05
1.7199058647904373e-06,3.047189535277578e-06,9.74886467844191e-07,1.3697864768925272e-05
1.721825233531702e-06,3.0448715630517496e-06,9.751569927632536e-07,1.3571232603212828e-05
1.7226186645745598e-06,3.0408713351557493e-06,9.75264308143555e-07,1.3436581543246035e-05
1.7222430935489815e-06,3.0353165091605683e-06,9.752565577168195e-07,1.3294043331923372e-05
1.7206765285044662e-06,3.0283310627252966e-06,9.75172228974765e-07,1.3143838729531807e-05
1.717929706151222e-06,3.02005321257148e-06,9.750413968305262e-07,1.2986252773463135e-05
1.714048625940907e-06,3.0106685588227217e-06,9.748951488539686e-07,1.2821598184050235e-05
1.709106693724394e-06,3.0004336338956e-06,9.747748463200344e-07,1.2650183321990655e-05
1.7031915824931375e-06,2.9896764130075808e-06,9.747321980237613e-07,1.2472299073763256e-05
1.6963920979683046e-06,2.9787712050862066e-06,9.748213417972276e-07,1.2288227266352125e-05
1.6887920689512638e-06,2.968094863405085e-06,9.750921839125642e-07,1.2098259647358162e-05
1.6804775357142506e-06,2.9579845793172667e-06,9.755891647813264e-07,1.190271923660864e-05
1.6715514018368055e-06,2.9487192519941883e-06,9.763504481001664e-07,1.1701989505603132e-05
1.6621417559738038e-06,2.9405245703145372e-06,9.774040401681549e-07,1.1496534780303865e-05
1.6524007497236384e-06,2.933582338926762e-06,9.78764793057272e-07,1.1286875033128396e-05
1.6425005301510588e-06,2.9280324284781984e-06,9.80435495149626e-07,1.10735305542762e-05
1.6326282635152764e-06,2.923969806729182e-06,9.82408658768094e-07,1.0856993628988412e-05
1.622977481003779e-06,2.921441948609114e-06,9.846662945141376e-07,1.0637740694656264e-05
1.6137344497727389e-06,2.9204498297281238e-06,9.871809663952968e-07,1.0416262191654137e-05
1.605063482557531e-06,2.9209547846491092e-06,9.89920385807205e-07,1.019309429602056e-05
1.5970974319070455e-06,2.9229006119900013e-06,9.92851946501275e-07,9.96882262091151e-06
1.5899357991887517e-06,2.9262544538833136e-06,9.95944701131291e-07,9.744040950988216e-06
1.5836511914828302e-06,2.9310436645703233e-06,9.99171723968524e-07,9.519321796076263e-06
1.5783008532915822e-06,2.937364538296494e-06,1.0025134384979745e-06,9.295252450473217e-06
1.5739325414729481e-06,2.9453617909553827e-06,1.0059568648258643e-06,9.072511212001593e-06
1.5705811107513173e-06,2.9551892323897787e-06,1.0094893691520417e-06,8.851955574092499e-06
1.5682656972828398e-06,2.9669724792366825e-06,1.013091906040456e-06,8.634702416057452e-06
1.566995027163659e-06,2.980797892876767e-06,1.0167354977791573e-06,8.422131866758385e-06
1.5667773658883103e-06,2.996722874313736e-06,1.0203812558956663e-06,8.215775827876257e-06
1.5676262561556417e-06,3.0147794974951856e-06,1.0239842299574256e-06,8.01715000122382e-06
1.5695568509788172e-06,3.0349637447720883e-06,1.0274999767043609e-06,7.82762792029965e-06
1.5725761476682384e-06,3.0572259578275365e-06,1.030888270296035e-06,7.648399116444408e-06
1.5766726505700843e-06,3.0814725852577585e-06,1.0341101131857875e-06,7.4804586872065155e-06
1.5818088181615047e-06,3.1075782076098137e-06,1.0371228042580409e-06,7.324580257327057e-06
1.5879205656533547e-06,3.1354046913040906e-06,1.0398798949143163e-06,7.181325607871668e-06
1.5949256616873168e-06,3.1648239053044477e-06,1.0423368653333369e-06,7.051164417467726e-06
1.6027363995436403e-06,3.195738687745543e-06,1.0444569667581695e-06,6.93463205498087e-06
1.6112704372306542e-06,3.2280925847441907e-06,1.0462112442845418e-06,6.832359022445606e-06
1.6204567096419919e-06,3.2618573430821508e-06,1.0475741505120456e-06,6.7449615166893615e-06
1.6302355079648512e-06,3.2970067095470766e-06,1.0485196009407857e-06,6.672921210288513e-06
1.640552328240679e-06,3.3335102576054314e-06,1.0490188010429322e-06,6.6165278306802475e-06
1.651346807269729e-06,3.3713608260464475e-06,1.0490402098151905e-06,6.575940020523073e-06
1.6625429391374055e-06,3.410606470318708e-06,1.048551473611409e-06,6.551411704225246e-06
1.674046598016058e-06,3.451356952352855e-06,1.0475214776381428e-06,6.543555006361623e-06
1.6857494962082551e-06,3.4937594326846564e-06,1.0459220520910524e-06,6.553418778100434e-06
1.6975372815220098e-06,3.5379519458487265e-06,1.0437302363170157e-06,6.582357742014588e-06
1.709301521841846e-06,3.5840140038327833e-06,1.0409320411952686e-06,6.631837995669202e-06
1.72095254751722e-06,3.6319386629857653e-06,1.0375270892284659e-06,6.703275216808533e-06
1.732427518910673e-06,3.681633311665976e-06,1.033529557705626e-06,6.797910131282658e-06
1.7436902246386802e-06,3.7329331772225607e-06,1.028963133993102e-06,6.916707614416662e-06
1.7547229968548406e-06,3.7856118772418436e-06,1.0238549719473152e-06,7.060287189933843e-06
1.7655140191814717e-06,3.839390548397364e-06,1.018233412767554e-06,7.228894825567922e-06
1.7760459755015445e-06,3.893950933524086e-06,1.0121278226015765e-06,7.422411367754516e-06
1.7862906089096932e-06,3.948947177043214e-06,1.005566682203156e-06,7.64037271567222e-06
1.7962082635243088e-06,4.004011917339276e-06,9.985743670347895e-07,7.881967665693002e-06
1.8057526302789242e-06,4.058766230077295e-06,9.911703153164608e-07,8.146030537279443e-06
1.8148818929680781e-06,4.1128456352355415e-06,9.833727381289965e-07,8.431081870255676e-06
1.8235690687284577e-06,4.1659379053637684e-06,9.7520455406565e-07,8.735420060620351e-06
1.8318017455770809e-06,4.217813729416328e-06,9.66696086708488e-07,9.057225512364599e-06
1.839570767718267e-06,4.268335774950125e-06,9.578834858752551e-07,9.394658046817373e-06
1.8468578002844884e-06,4.3174455408336515e-06,9.488067068175421e-07,9.745940821149608e-06
1.8536317611147927e-06,4.365134533372387e-06,9.395081854388605e-07,1.0109413813063066e-05
1.8598540318917e-06,4.4114069037134025e-06,9.300316299718056e-07,1.0483546935064714e-05
1.8654871592799144e-06,4.456243896423119e-06,9.204213587547241e-07,1.0866909260637353e-05
1.8705029507285369e-06,4.499582280304443e-06,9.107204916203804e-07,1.125809361190189e-05
1.8748848795851712e-06,4.5413102161827624e-06,9.009674454455444e-07,1.16556299331361e-05
1.87862219379976e-06,4.581275594371895e-06,8.911950097646553e-07,1.2057935684566184e-05
1.8817008085202164e-06,4.619304371076519e-06,8.814335650210648e-07,1.2463309939070625e-05
1.8840984002229541e-06,4.655228321599184e-06,8.717134931207253e-07,1.2869955459800555e-05
1.8857872461938904e-06,4.688914032002005e-06,8.620630800340478e-07,1.3276022480781705e-05
1.8867424662692169e-06,4.7202793898592514e-06,8.525048086125309e-07,1.3679649486977631e-05
1.886948604662353e-06,4.749292432063463e-06,8.430546951642693e-07,1.407897668541641e-05
1.8863996313348892e-06,4.775961778709753e-06,8.337256386196088e-07,1.447215455640038e-05
1.8850929685915668e-06,4.8003303690161215e-06,8.245342165436313e-07,1.4857380844605442e-05
1.8830228873533264e-06,4.822472221074637e-06,8.155088371496801e-07,1.5232961042675442e-05
1.8801793793221091e-06,4.8424817891525325e-06,8.066930435293189e-07,1.5597343462896995e-05
1.8765509109639042e-06,4.860451614152535e-06,7.981403064079933e-07,1.5949085524843507e-05
1.872125330315756e-06,4.8764496456037075e-06,7.899044471088848e-07,1.6286782334751624e-05
1.866889532279868e-06,4.890517655359645e-06,7.820315023630276e-07,1.6609027587511726e-05
1.8608302068477302e-06,4.902699632178791e-06,7.745557059288571e-07,1.6914433384170488e-05
1.8539334169763827e-06,4.913074240429724e-06,7.67499789419857e-07,1.720170017281928e-05
1.8461826686031601e-06,4.921753657293068e-06,7.60877746902611e-07,1.746973588549777e-05
1.8375599031366062e-06,4.928849707918658e-06,7.546972749999534e-07,1.7717792779654847e-05
1.8280523351287087e-06,4.934446823248437e-06,7.489604398707975e-07,1.7945524624967206e-05
1.8176614638853958e-06,4.9386010031090216e-06,7.43662908809131e-07,1.815290716417696e-05
1.806405187865683e-06,4.9413443894181704e-06,7.387927131641519e-07,1.834007853374641e-05
1.7943091728858132e-06,4.942688053712049e-06,7.343296092014773e-07,1.85071903743898e-05
1.78139587919441e-06,4.94263967069118e-06,7.302465592702548e-07,1.8654332563114567e-05
1.7676806417176715e-06,4.9412348300819984e-06,7.265149554710404e-07,1.8781548418767168e-05
1.7531747753301411e-06,4.93856303755764e-06,7.231126113939098e-07,1.8888886087346844e-05
1.7378912703759846e-06,4.9347741223495626e-06,7.200294828981624e-07,1.897643636612895e-05
1.7218492823567318e-06,4.930057253063478e-06,7.172661678371485e-07,1.9044421066192068e-05
1.7050750790662703e-06,4.924599431233899e-06,7.148272656058615e-07,1.909336924019397e-05
1.687600354662496e-06,4.918553032072562e-06,7.127176479713224e-07,1.912421932134873e-05
1.669459926394618e-06,4.912040580453641e-06,7.109434019924638e-07,1.9138211505659522e-05
1.6506890063826243e-06,4.9051931478623844e-06,7.09511804581531e-07,1.913667673956457e-05
1.6313209525727888e-06,4.898191701990508e-06,7.084304654155613e-07,1.912088431512076e-05
1.6113872192547154e-06,4.8912807004866585e-06,7.077082505010684e-07,1.9092030597823384e-05
1.5909200809797487e-06,4.8847429356635804e-06,7.073540088487513e-07,1.905140333546461e-05
1.5699601867819158e-06,4.878850688230942e-06,7.073717469659948e-07,1.900060589197271e-05
1.5485683512989158e-06,4.8738271674466005e-06,7.07756985209051e-07,1.894161907032012e-05
1.5268313012925492e-06,4.869840522651797e-06,7.084959350293069e-07,1.8876650988375392e-05
1.5048528155309925e-06,4.867014277821322e-06,7.095654610009075e-07,1.8807911508349364e-05
1.4827373207265502e-06,4.865425863639028e-06,7.109332835181974e-07,1.873742632365861e-05
1.4605794470242702e-06,4.8650929308770634e-06,7.1256023697684e-07,1.866692043673996e-05
1.4384651708631985e-06,4.865967348161417e-06,7.144060792713e-07,1.859775433629505e-05
1.4164808228629563e-06,4.8679438082056165e-06,7.164359598490019e-07,1.8530900362874104e-05
1.3947197452345205e-06,4.870870735026839e-06,7.186212671239723e-07,1.846696075455254e-05
1.3732781655224217e-06,4.874554849196219e-06,7.209352800937889e-07,1.840621214402505e-05
1.3522448156883038e-06,4.878763037936418e-06,7.233530342998196e-07,1.834865535752576e-05
1.3316950124805815e-06,4.883225714224314e-06,7.258584327499459e-07,1.8294067010016142e-05
1.3116911180067672e-06,4.887643360602753e-06,7.284491664880212e-07,1.8242053082690264e-05
1.2922871957450929e-06,4.8916989317688244e-06,7.311330359190736e-07,1.8192089606932048e-05
1.2735383380166759e-06,4.8950757020013935e-06,7.339200144384609e-07,1.814355426231564e-05
1.2555105225838962e-06,4.897474775435407e-06,7.368153986890965e-07,1.809578047902117e-05
1.2382824492504706e-06,4.8986270524977406e-06,7.398160020311618e-07,1.8048120031391087e-05
1.2219362251720658e-06,4.898296232710846e-06,7.429109399975741e-07,1.799996161420762e-05
1.2065456557422238e-06,4.8962702270510716e-06,7.460855003052913e-07,1.795070164382656e-05
1.1921755425557538e-06,4.892346525780473e-06,7.493230459414116e-07,1.7899707700430216e-05
1.1788903680668943e-06,4.88632564897687e-06,7.526042137764058e-07,1.7846299318302208e-05
1.1667579791208431e-06,4.8780175685342626e-06,7.559068347774125e-07,1.7789745077440946e-05
1.1558451251712922e-06,4.8672488019052945e-06,7.592063420877719e-07,1.7729271350280393e-05
1.1462142432241129e-06,4.8538616337911816e-06,7.624763468439094e-07,1.7664080863722354e-05
1.1379249820253508e-06,4.8377119409112685e-06,7.656918842725231e-07,1.7593386017692355e-05
1.1310330255210484e-06,4.81867007708536e-06,7.68832449275508e-07,1.7516480445698985e-05
1.1255805626072537e-06,4.796621001895382e-06,7.718800605882685e-07,1.7432852722681988e-05
1.1215849066572585e-06,4.771462440104402e-06,7.748154772184869e-07,1.7342274198811908e-05
1.1190348740294e-06,4.743104197332957e-06,7.77616720070442e-07,1.7244786499373153e-05
1.117894874425573e-06,4.711470625605728e-06,7.802585502105664e-07,1.7140604902069005e-05
1.1181115199320442e-06,4.67650531075715e-06,7.827126565469547e-07,1.7030007684455033e-05
1.1196203248502486e-06,4.638174944166855e-06,7.849501901839357e-07,1.6913264229708333e-05
1.122350185671981e-06,4.5964687066461546e-06,7.869442584280223e-07,1.6790615396875318e-05
1.126223472887104e-06,4.551392109181961e-06,7.886696413349773e-07,1.6662283197509887e-05
1.1311559972077361e-06,4.5029596827553586e-06,7.901014712887642e-07,1.6528495060300322e-05
1.1370637030251268e-06,4.451192527833385e-06,7.912152463667155e-07,1.6389524404232314e-05
1.1438732241026238e-06,4.396121011807342e-06,7.919886379940145e-07,1.6245730658557747e-05
1.1515249776475685e-06,4.337788790894751e-06,7.924034027140823e-07,1.609758541252964e-05
1.1599649350699205e-06,4.2762576000565805e-06,7.924458796878498e-07,1.5945712005406023e-05
1.1691342961368723e-06,4.211611474857865e-06,7.921077808273254e-07,1.5790953876500935e-05
1.178965986996145e-06,4.143956177962754e-06,7.913882681619586e-07,1.5634402606713467e-05
1.1893863844854885e-06,4.0734198152477735e-06,7.902943829907458e-07,1.54773121231379e-05
1.200316730000668e-06,4.000163170188703e-06,7.88837397983559e-07,1.5320938860438424e-05
1.2116721843219918e-06,3.924392667124309e-06,7.870282983661306e-07,1.5166415120139554e-05
1.2233601562194617e-06,3.846366956029276e-06,7.848772293915244e-07,1.5014714061393662e-05
