3.1763463806449606e-07,4.347487111136754e-07,4.08926901928996e-07,1.2429909873760315e-05
3.174844866370901e-07,4.326006182171529e-07,4.08994011936845e-07,1.2442599367860435e-05
3.173168697740592e-07,4.304655334265955e-07,4.089055800654178e-07,1.2451773251149553e-05
3.171298789478063e-07,4.283622148848532e-07,4.0867059365544526e-07,1.2457617740314466e-05
3.169209923523702e-07,4.263147241116336e-07,4.082992686848269e-07,1.2460290319645915e-05
3.1668758444623235e-07,4.2435123107824454e-07,4.078042667385249e-07,1.2459963741906627e-05
3.16427001710909e-07,4.224991070463275e-07,4.072018025852002e-07,1.2456893989112275e-05
3.161364129079413e-07,4.207808322319069e-07,4.0651040163322757e-07,1.2451541818463515e-05
3.158129711451325e-07,4.192151307932704e-07,4.0574712882446963e-07,1.2444621690289665e-05
3.15453556946865e-07,4.1782112497293076e-07,4.049250767371604e-07,1.243696732835182e-05
3.150535845404397e-07,4.166207545179986e-07,4.0405407084170973e-07,1.2429326138530581e-05
3.146066049815941e-07,4.1563914649695524e-07,4.031422762758887e-07,1.2422256925855486e-05
3.141061021953933e-07,4.149041175194352e-07,4.0219634988142146e-07,1.2416196207663353e-05
3.135475414506288e-07,4.144439660803589e-07,4.012204466403924e-07,1.2411679922789522e-05
3.12929081974038e-07,4.142839117187008e-07,4.002156695611194e-07,1.2409593532636584e-05
3.122523797552266e-07,4.1444325711977894e-07,3.991809503320571e-07,1.2411252078161515e-05
3.115231712583197e-07,4.149349817478938e-07,3.9811435296999674e-07,1.2418275914804978e-05
3.1074949158744303e-07,4.1576791887924025e-07,3.970132763281642e-07,1.2432402441716554e-05
3.099385579289531e-07,4.1694850504889176e-07,3.9587382949600135e-07,1.245533580149026e-05
3.090947510341433e-07,4.1847956001214006e-07,3.946907080236552e-07,1.2488642500554324e-05
3.082191790383933e-07,4.2035884654101724e-07,3.9345819488862707e-07,1.2533677506005362e-05
3.073103952461319e-07,4.225803438210514e-07,3.9217152124375994e-07,1.2591539447893055e-05
3.063652791541772e-07,4.251360200378149e-07,3.908284393051261e-07,1.2663058283897635e-05
3.053792991044596e-07,4.280160728200709e-07,3.8943076109440687e-07,1.2748802833523234e-05
3.0434682760046396e-07,4.3120807433277204e-07,3.8798360527509095e-07,1.2849078908009382e-05
3.032620328499918e-07,4.3469539162051575e-07,3.864927781187489e-07,1.2963896112467548e-05
3.0211985016408097e-07,4.384566151782856e-07,3.8496320246686116e-07,1.3092929602683494e-05
3.0091611086567804e-07,4.4246696439182454e-07,3.833984202183407e-07,1.3235535011214545e-05
2.9964663952729193e-07,4.4670096492229775e-07,3.818000803820618e-07,1.3390831536990773e-05
2.983071106638876e-07,4.511354297719167e-07,3.801674269412917e-07,1.3557811639387285e-05
2.9689468342866347e-07,4.5575023514205637e-07,3.7849697100099175e-07,1.3735430619030315e-05
2.954092061673141e-07,4.605263872635947e-07,3.767826343431942e-07,1.39226507571615e-05
2.9385254699190896e-07,4.6544342764892614e-07,3.7501680625704865e-07,1.4118444740167095e-05
2.9222770991060337e-07,4.7047709976863954e-07,3.7319203085214344e-07,1.4321795635983865e-05
2.905387283364957e-07,4.755983033018725e-07,3.7130188943462184e-07,1.4531716469152192e-05
2.88790875791708e-07,4.807741292682582e-07,3.6934135014249256e-07,1.4747260392333444e-05
2.8699137909706937e-07,4.85969575599338e-07,3.6730807039263467e-07,1.496748443156304e-05
2.851501205287349e-07,4.91148194739095e-07,3.652029378816098e-07,1.5191382979632251e-05
2.832788078449359e-07,4.962720474719484e-07,3.6302837811629035e-07,1.5417844720188473e-05
2.813888604452146e-07,5.013024873452844e-07,3.607866238515693e-07,1.5645648859057653e-05
2.794898747230194e-07,5.062016272622223e-07,3.58479320051662e-07,1.5873475503402006e-05
2.775896080979122e-07,5.10933281317905e-07,3.5610814436309726e-07,1.6099919826023288e-05
2.7569493586915725e-07,5.154628232166653e-07,3.5367572413074814e-07,1.6323504956856215e-05
2.738127306832703e-07,5.197562113546822e-07,3.5118529387597525e-07,1.654268679920385e-05
2.719501977494789e-07,5.237803017309908e-07,3.486392703728837e-07,1.6755866009713994e-05
2.7011481055324603e-07,5.275058511036052e-07,3.4603877646955097e-07,1.6961420207145348e-05
2.683139190099501e-07,5.309097888808007e-07,3.4338487617974e-07,1.7157747978195168e-05
2.6655426202918803e-07,5.339738155207641e-07,3.406803823341423e-07,1.7343318180054962e-05
2.648416403785119e-07,5.366827663665013e-07,3.379309310991579e-07,1.751672267893732e-05
2.631806052637222e-07,5.390256490946754e-07,3.3514523058072054e-07,1.767671478526775e-05
2.615743543090108e-07,5.40996279415979e-07,3.323345180954143e-07,1.782221855251721e-05
2.600251750615615e-07,5.425913427194183e-07,3.295112273854264e-07,1.7952322599389873e-05
2.585349859019377e-07,5.43808406320855e-07,3.266876292400766e-07,1.8066286276516225e-05
2.5710540416871987e-07,5.446453071744766e-07,3.238753042559585e-07,1.81635637152989e-05
2.5573742333376233e-07,5.450993834022863e-07,3.2108532937970875e-07,1.824380087956722e-05
2.54430828925798e-07,5.451665707927575e-07,3.183278410363693e-07,1.830676947757839e-05
2.531836216099671e-07,5.448415908976324e-07,3.156109283189833e-07,1.835228549238826e-05
2.519921994872201e-07,5.441196108220428e-07,3.129404314705532e-07,1.838018118399963e-05
2.508519695868448e-07,5.429996664212311e-07,3.10320854376898e-07,1.8390329288543605e-05
2.4975735164036496e-07,5.414880386464934e-07,3.077562819490647e-07,1.8382677135271233e-05
2.487015742855427e-07,5.395987333330768e-07,3.052506558486182e-07,1.8357268738820497e-05
2.4767682603096353e-07,5.373513203770382e-07,3.028077754507124e-07,1.831424921354092e-05
2.4667453298376286e-07,5.347678722975052e-07,3.0043133993792004e-07,1.8253880316127014e-05
2.456858918633295e-07,5.318704473454968e-07,2.981243768928376e-07,1.817662339233703e-05
2.447024527759778e-07,5.286805575608428e-07,2.9588812722559353e-07,1.808321905418163e-05
2.437161600130389e-07,5.25221450851446e-07,2.937220702676652e-07,1.7974622062631455e-05
2.427192436701181e-07,5.215223267535721e-07,2.916259016645181e-07,1.7851843500315577e-05
2.4170461547217133e-07,5.176218400411763e-07,2.896017860503808e-07,1.7715845792473387e-05
2.406666140685575e-07,5.135695539390309e-07,2.876545102629367e-07,1.7567549590490854e-05
2.3960213961553787e-07,5.094246588367931e-07,2.857891497653168e-07,1.740799583813474e-05
2.3851174836618925e-07,5.052502235930032e-07,2.840086117541155e-07,1.7238604869858722e-05
2.3739879535759538e-07,5.011047586228402e-07,2.823131485872376e-07,1.7061305434197402e-05
2.3626702418698264e-07,4.97036619656655e-07,2.8070076993305e-07,1.6878416308548768e-05
2.3511949562199588e-07,4.930838674673203e-07,2.791670022066237e-07,1.6692416088962204e-05
2.3395885650323344e-07,4.892770786694567e-07,2.7770492299179995e-07,1.6505755048314052e-05
2.3278714746603452e-07,4.856411332087433e-07,2.763066447441839e-07,1.6320729206527528e-05
2.3160585110769559e-07,4.821945677645212e-07,2.749650906454636e-07,1.6139391761161027e-05
2.3041727332008147e-07,4.789491329188303e-07,2.7367427611963984e-07,1.596349076629768e-05
2.2922602231755685e-07,4.759121555125985e-07,2.724283039239357e-07,1.5794422861760288e-05
2.280394628085976e-07,4.730895321886514e-07,2.712209615541396e-07,1.56332124093253e-05
2.268669313736796e-07,4.7048602792283495e-07,2.7004720663145453e-07,1.5480542973237455e-05
2.2571765553218998e-07,4.6810357558601494e-07,2.689048774641005e-07,1.533684159979957e-05
2.2459882680225983e-07,4.6594075883170176e-07,2.6779393637401044e-07,1.520237376082182e-05
2.235150589953511e-07,4.639957246788537e-07,2.667141731248714e-07,1.5077305625881646e-05
2.2246867579207696e-07,4.622717716562124e-07,2.656641777200145e-07,1.4961739262337353e-05
2.214606219230636e-07,4.607810982513423e-07,2.646416938570141e-07,1.4855747766159586e-05
2.204923448134846e-07,4.595419567511192e-07,2.636441172391356e-07,1.4759410196307031e-05
2.195676507593516e-07,4.5857086483587463e-07,2.6266895277362385e-07,1.4672832201500585e-05
2.1869265400085312e-07,4.578767044106671e-07,2.617137916320366e-07,1.4596139650377026e-05
2.1787399464025305e-07,4.5745958388853094e-07,2.6077552930293685e-07,1.452944240659281e-05
2.171173732973816e-07,4.5731206991208047e-07,2.5985017552234604e-07,1.4472787280295126e-05
2.1642708467660528e-07,4.57421217480406e-07,2.589337551476843e-07,1.4426116633710098e-05
2.1580590178177748e-07,4.577708795775589e-07,2.580228812617802e-07,1.4389235649792208e-05
2.1525587236815357e-07,4.5834282309631536e-07,2.5711416122144105e-07,1.436179410457684e-05
2.147806196580979e-07,4.5911742338347216e-07,2.562032355381364e-07,1.4343279402755084e-05
2.143862660239368e-07,4.6007533487439136e-07,2.5528480509493985e-07,1.4333032364121658e-05
2.140791502864409e-07,4.611976213600267e-07,2.543538685550977e-07,1.433033167875848e-05
2.1386393388550826e-07,4.624636485776853e-07,2.534073883052074e-07,1.433452433232393e-05
2.137436316633928e-07,4.6385054626386176e-07,2.5244545723213944e-07,1.434509206093762e-05
2.1371942143137006e-07,4.6533465059908007e-07,2.514709552253044e-07,1.436161985395412e-05
2.137903565120345e-07,4.6689201488181373e-07,2.5048773234451365e-07,1.4383732729097104e-05
2.1395347833273246e-07,4.6849826970156786e-07,2.4949923381389043e-07,1.4411041475049952e-05
2.1420376550651948e-07,4.701290913840568e-07,2.4850945795410943e-07,1.4443098248535306e-05
2.1453485099237466e-07,4.7176027067357776e-07,2.4752471627429525e-07,1.4479372327166736e-05
2.1494095688417727e-07,4.7336772340788147e-07,2.4655326430996464e-07,1.45192631574282e-05
2.1541791504648942e-07,4.7492928500182025e-07,2.4560398015593317e-07,1.4562137924526181e-05
2.1596210096376492e-07,4.764271851739267e-07,2.446861053514068e-07,1.4607362362914505e-05
2.16569327997052e-07,4.77848518587465e-07,2.4380861659546386e-07,1.4654330913375283e-05
2.1723618404067988e-07,4.791836884012813e-07,2.4297891856423587e-07,1.4702526611366946e-05
2.1796355828637127e-07,4.804244659284789e-07,2.422024075451614e-07,1.4751614924921145e-05
2.187588944327386e-07,4.815624865852973e-07,2.414823788901042e-07,1.4801514995659812e-05
2.1963531362854773e-07,4.825882254142311e-07,2.4081957502516233e-07,1.4852361208791752e-05
2.2060955760910372e-07,4.834907135684365e-07,2.402124889674229e-07,1.4904358292753485e-05
2.2169947460002107e-07,4.842587605595625e-07,2.3965863856302873e-07,1.4957640985362332e-05
2.2292080643845845e-07,4.848832215803366e-07,2.391557356954113e-07,1.5012222224642596e-05
2.2428482361396799e-07,4.853582138905298e-07,2.387023359477966e-07,1.5068012198852866e-05
2.25797681578648e-07,4.856809503750067e-07,2.382982039791999e-07,1.5124846796882134e-05
2.2746084202451558e-07,4.858514275248364e-07,2.3794511966870928e-07,1.5182484863999033e-05
2.292714528692607e-07,4.85871008546878e-07,2.376485967326613e-07,1.5240605984990845e-05
2.31222301738263e-07,4.8573982957862e-07,2.3741924388128481e-07,1.5298914484045057e-05
2.3330240250725665e-07,4.854566423122896e-07,2.3727127547017107e-07,1.5357316717804142e-05
2.3549834873312234e-07,4.850225200799409e-07,2.3721891544529386e-07,1.5415957334246552e-05
2.377949267062675e-07,4.844446809617635e-07,2.372753132355269e-07,1.5475065510689843e-05
2.401747203515888e-07,4.837359048914158e-07,2.3745377147414926e-07,1.5534774959349873e-05
2.4261815320298574e-07,4.829100417072045e-07,2.3776703445834523e-07,1.559504753795316e-05
2.451052706875865e-07,4.819787964084193e-07,2.3822515844296127e-07,1.5655778826886316e-05
2.476189732708909e-07,4.809514414798928e-07,2.388341551360768e-07,1.5717071934184435e-05
2.50147548887917e-07,4.79834728454819e-07,2.395953267599227e-07,1.5779470309091638e-05
2.526849543103045e-07,4.786329774410238e-07,2.405055585551053e-07,1.5843960240307848e-05
2.552291838317396e-07,4.773499015775375e-07,2.415588266181736e-07,1.591180530090204e-05
2.5777967152621286e-07,4.759910791673436e-07,2.4274797110707113e-07,1.5984360291761342e-05
2.6033519300016606e-07,4.7456450753896227e-07,2.44065920076161e-07,1.6062908914204547e-05
2.6289330844564e-07,4.7307823115322047e-07,2.455059977943e-07,1.6148529880332773e-05
2.6545017591594827e-07,4.7153744707218373e-07,2.470614448413808e-07,1.6242012202785824e-05
2.679995347303745e-07,4.6994393151156857e-07,2.4872557740501015e-07,1.6343828537942867e-05
2.705319287086308e-07,4.6829756485246564e-07,2.504929740502373e-07,1.6454153569329967e-05
2.7303497208514337e-07,4.6659925260188456e-07,2.523595684317072e-07,1.6572899133153514e-05
2.754944849470358e-07,4.648550581293765e-07,2.5432088157923695e-07,1.669972936500831e-05
2.7789643108022015e-07,4.630782526564413e-07,2.563704283982953e-07,1.6834050832701223e-05
2.8022798529045444e-07,4.6128623538798617e-07,2.584992078922144e-07,1.6975030576913376e-05
2.8247669848785425e-07,4.5949525489379387e-07,2.606953884356932e-07,1.712167195671037e-05
2.846302018672812e-07,4.577174692113041e-07,2.6294498063204234e-07,1.727290286977989e-05
2.866774267818332e-07,4.5596118029354393e-07,2.652349188996941e-07,1.742763985762843e-05
2.8860896963051164e-07,4.542324173409861e-07,2.675560005288157e-07,1.7584841300994954e-05
2.904161204220124e-07,4.5253635650984725e-07,2.699016932560054e-07,1.774355195735111e-05
2.920900936143084e-07,4.508781526046293e-07,2.7226511289533446e-07,1.7902927073923786e-05
2.9362226283408584e-07,4.4926214112576324e-07,2.74639730753126e-07,1.8062250779453685e-05
2.950056821271028e-07,4.476897699627598e-07,2.7702211512780364e-07,1.822095648248599e-05
2.962362989939473e-07,4.4615894035780926e-07,2.794112273725382e-07,1.8378623990993315e-05
2.973119543463264e-07,4.446652884051262e-07,2.818053350032836e-07,1.8534936967541957e-05
2.982306628350745e-07,4.432040573070336e-07,2.8420044580825074e-07,1.86896061765704e-05
2.989899897588558e-07,4.4177138910898246e-07,2.8659051527735574e-07,1.884228097716505e-05
2.995870824976185e-07,4.403638955425809e-07,2.889680972516546e-07,1.8992503024867278e-05
3.0001894254765205e-07,4.389780456229989e-07,2.9132456290492465e-07,1.9139735520064052e-05
3.002832836512934e-07,4.376110136454779e-07,2.936499631502903e-07,1.9283411286254807e-05
3.003798466765304e-07,4.362608180291453e-07,2.959335385105616e-07,1.9422932280295082e-05
3.003107675371261e-07,4.349252447113427e-07,2.981649013453609e-07,1.9557645263843184e-05
3.0007933102913177e-07,4.3360154049241116e-07,3.003349207339521e-07,1.968684550112215e-05
2.9968859324121554e-07,4.322868827297342e-07,3.024367075855855e-07,1.980980564412832e-05
2.991408087781486e-07,4.3097903019872244e-07,3.044670081192639e-07,1.9925818604173047e-05
2.9843766321679396e-07,4.2967669755600794e-07,3.0642583037909736e-07,2.0034268514297143e-05
2.9758168790232236e-07,4.2837946261447437e-07,3.083138434355861e-07,2.0134692966956008e-05
2.965784768302479e-07,4.270877483364318e-07,3.101308519532123e-07,2.022677396385233e-05
2.954391863885279e-07,4.2580219817882564e-07,3.118763081183517e-07,2.031027829763816e-05
2.9418238620186185e-07,4.2452228126396507e-07,3.135496029905788e-07,2.038498543055749e-05
2.9283243738920344e-07,4.232458794848377e-07,3.151499477180493e-07,2.045060586598243e-05
2.914146822340919e-07,4.219698281654279e-07,3.16676595932858e-07,2.050672311606387e-05
2.899518348150575e-07,4.2068997969020466e-07,3.1812863673889297e-07,2.0552793016644785e-05
2.884629755683757e-07,4.1940137446341254e-07,3.195042760862585e-07,2.0588197228069268e-05
2.869640069560214e-07,4.180996475672146e-07,3.208008202922299e-07,2.0612345184309588e-05
2.854688732367761e-07,4.1678249615384686e-07,3.220156336217494e-07,2.0624792521462767e-05
2.839904715299971e-07,4.1544977355044177e-07,3.2314655462232127e-07,2.062531092304445e-05
2.825411885701752e-07,4.141040014162429e-07,3.241912196428761e-07,2.0613887031318593e-05
2.811335375352768e-07,4.127521199413409e-07,3.251469406318177e-07,2.0590664297382494e-05
2.797802658311312e-07,4.114047971167916e-07,3.260119645932681e-07,2.055585397563638e-05
2.784933853171821e-07,4.100730151659193e-07,3.267865874494059e-07,2.050967724915931e-05
2.772826064434841e-07,4.0876690590485223e-07,3.274726633348147e-07,2.045236327016057e-05
2.761542112389654e-07,4.0749730996947457e-07,3.280723429190846e-07,2.0384168102994795e-05
2.751112753721996e-07,4.062766251458443e-07,3.2858762908198165e-07,2.0305379925914167e-05
2.741556559139165e-07,4.051193398899543e-07,3.290207585602636e-07,2.0216287994427867e-05
2.7329071482582677e-07,4.0404285459387543e-07,3.2937402238147026e-07,2.011713003453212e-05
2.725227404827977e-07,4.030664701063793e-07,3.296486443889452e-07,2.000805305156349e-05
2.718601198213856e-07,4.022100092429615e-07,3.298443312478144e-07,1.9889103684665887e-05
2.71311312364644e-07,4.014946927882053e-07,3.2996020273351377e-07,1.9760248582700384e-05
2.708836345439569e-07,4.0094328780179657e-07,3.2999554252617336e-07,1.9621411613518742e-05
2.705829278135497e-07,4.0057688982088313e-07,3.2994951653521514e-07,1.947251539294431e-05
2.7041290542791125e-07,4.0041221650950817e-07,3.29820762020426e-07,1.9313515216201506e-05
2.703745171370561e-07,4.004627311389656e-07,3.296071021720198e-07,1.9144410978053413e-05
2.704662132693385e-07,4.0073990850849655e-07,3.293054672042385e-07,1.896524242294073e-05
2.70685439765321e-07,4.0125095377745616e-07,3.289127772060102e-07,1.8776083600698485e-05
2.710302994042182e-07,4.0199566506464637e-07,3.284267479643722e-07,1.8577033425348147e-05
2.7149977560865114e-07,4.029658799611114e-07,3.278453826968389e-07,1.836819427291168e-05
2.720932284795748e-07,4.041471470778357e-07,3.271665306222547e-07,1.8149656870892672e-05
2.7281025582208125e-07,4.0552086281323146e-07,3.263881901397692e-07,1.7921516287311632e-05
2.736501209544845e-07,4.0706565010061433e-07,3.255082466790784e-07,1.7683906072291645e-05
2.746103744302447e-07,4.08758418891201e-07,3.245236896326107e-07,1.7437017065978814e-05
2.756861082910561e-07,4.1057645548424394e-07,3.2343060862219246e-07,1.7181091707346314e-05
2.7687072594847737e-07,4.1249978792994354e-07,3.222250309309258e-07,1.6916404548698782e-05
2.781569731428373e-07,4.145129578496685e-07,3.209035404963496e-07,1.6643247916207474e-05
2.795374287522493e-07,4.166071188821378e-07,3.194634649362068e-07,1.636194852218557e-05
2.8100497018666284e-07,4.187804270256229e-07,3.17903510695562e-07,1.6072917447579653e-05
2.825529470766015e-07,4.2103372459468274e-07,3.162247957586784e-07,1.5776692449873512e-05
2.841747636973809e-07,4.233649200695025e-07,3.1443123872208106e-07,1.5473928882852552e-05
2.858633064537844e-07,4.2576692464525783e-07,3.1252899472842023e-07,1.5165347942984976e-05
2.876102126871596e-07,4.2822799291363286e-07,3.105252938165829e-07,1.4851684926986718e-05
2.8940512735725706e-07,4.3073223075296145e-07,3.0842729130283496e-07,1.4533654104810024e-05
2.912362278052249e-07,4.33260891264443e-07,3.0624174299543554e-07,1.421192629440532e-05
2.9309248212715996e-07,4.357935451654624e-07,3.03975758974492e-07,1.3887136190053058e-05
2.9496519992418807e-07,4.383078480544336e-07,3.016377993896279e-07,1.3559936879941906e-05
2.968472666744209e-07,4.4078033304424153e-07,2.99237627671194e-07,1.3231055431284916e-05
2.9873237313536593e-07,4.431890260535772e-07,2.967855002891652e-07,1.2901278473183736e-05
3.0061504757670925e-07,4.455142155594386e-07,2.942921956264272e-07,1.257139192784696e-05
3.024894026963866e-07,4.477371841381397e-07,2.917694104521925e-07,1.2242146904899977e-05
3.043472461740744e-07,4.498408179591298e-07,2.892291615584928e-07,1.1914255172415199e-05
3.0617796211662984e-07,4.5181103449779434e-07,2.8668291500421426e-07,1.1588397684589893e-05
3.0796991381650876e-07,4.536358094705983e-07,2.841408482034501e-07,1.1265241374045398e-05
3.097112986298914e-07,4.553051342756209e-07,2.8161086603982305e-07,1.0945441066092908e-05
3.113898935358823e-07,4.568150068785265e-07,2.7909811023591364e-07,1.0629641873842156e-05
3.12992959126517e-07,4.581700674912097e-07,2.766053381857561e-07,1.031852766887923e-05
3.1450806563179086e-07,4.59380461591795e-07,2.741335227853398e-07,1.0012903357773512e-05
3.159241668925351e-07,4.60458271006614e-07,2.7168225805630185e-07,9.713770717953144e-06
3.172316167749768e-07,4.614183046481525e-07,2.6925072861650425e-07,9.422389808421636e-06
3.184212254397737e-07,4.6227918301885366e-07,2.668402159107132e-07,9.140304754054383e-06
3.194839713892752e-07,4.63060704029605e-07,2.644559244773995e-07,8.869279343608052e-06
3.204114672027266e-07,4.637797740628567e-07,2.621052222406451e-07,8.611141612488836e-06
3.211958221705904e-07,4.6444822278513577e-07,2.5979474373467405e-07,8.367602981954664e-06
3.2182901524094127e-07,4.65072727036042e-07,2.5752985137224514e-07,8.14011013892492e-06
3.223030720042055e-07,4.656558988971547e-07,2.553153500371118e-07,7.929768068417349e-06
3.2261119717187056e-07,4.6619854562536897e-07,2.5315603792848416e-07,7.737339665424094e-06
3.227490038509017e-07,4.6670220637243004e-07,2.5105735311468647e-07,7.563284119895279e-06
3.2271522081555423e-07,4.6717028362150496e-07,2.490253899845433e-07,7.407817139802349e-06
3.225115166188153e-07,4.6760959895019474e-07,2.470660678485172e-07,7.2710245554146435e-06
3.221414428966361e-07,4.680343600663293e-07,2.451843884228396e-07,7.1530033715118455e-06
3.216088561622596e-07,4.6846798273365706e-07,2.433842940813443e-07,7.05390406668499e-06
3.2091648512031605e-07,4.6893867071145575e-07,2.4166945705182826e-07,6.973834001982532e-06
3.200653895857645e-07,4.6947289758689024e-07,2.4004427623197064e-07,6.9127440267987395e-06
3.1905547314310695e-07,4.7009168246406326e-07,2.385135932257308e-07,6.870407925000852e-06
3.178868757212465e-07,4.7080894451426404e-07,2.370813405441861e-07,6.846538305550991e-06
3.1656135599033707e-07,4.716305190869622e-07,2.3574972748525175e-07,6.8410436987576245e-06
3.150825199175704e-07,4.7255486355019686e-07,2.345197100637334e-07,6.854277909563469e-06
3.1345508513126196e-07,4.735754931747506e-07,2.3339204941256852e-07,6.887060748556293e-06
3.116842645713684e-07,4.7468271848460896e-07,2.3236810456601554e-07,6.940478117929525e-06
3.097759191137033e-07,4.7586373347628405e-07,2.3144969724296516e-07,7.015647443666191e-06
3.0773673181880534e-07,4.77102828198069e-07,2.306378349747576e-07,7.113541413432042e-06
3.0557352122767485e-07,4.783822452032233e-07,2.2993140384072327e-07,7.234865373291725e-06
3.032923073304802e-07,4.796832084582165e-07,2.2932688780028738e-07,7.379986936721824e-06
3.008979389026868e-07,4.809877283255695e-07,2.2881896138538532e-07,7.548913640061225e-06
2.983944286237647e-07,4.822811286397769e-07,2.2840112742631932e-07,7.7412979344862e-06
2.957859844378779e-07,4.835537971363381e-07,2.28065832428128e-07,7.956451436148945e-06
2.9307791573965324e-07,4.848004554205928e-07,2.2780458953989863e-07,8.193359887585722e-06
2.9027615822902137e-07,4.860174839561907e-07,2.2760850405364933e-07,8.450713325699754e-06
2.873859947506722e-07,4.872008982888707e-07,2.2746880524986605e-07,8.726977912229404e-06
2.844116629657898e-07,4.883460397831603e-07,2.2737729899553146e-07,9.020491247154234e-06
2.8135706438580235e-07,4.894474624489939e-07,2.273265728334259e-07,9.329532689700513e-06
2.7822682634040687e-07,4.904977275407828e-07,2.273098798511004e-07,9.65236470115104e-06
2.7502768661645546e-07,4.914866592570561e-07,2.2732106235406175e-07,9.98728192413901e-06
2.717700272469544e-07,4.924025356225412e-07,2.273540259008325e-07,1.0332663064337904e-05
2.6846821318955644e-07,4.932334569166239e-07,2.2740167571757807e-07,1.0686976766947028e-05
2.6513940566145085e-07,4.939671288612038e-07,2.274554820960761e-07,1.1048743938042344e-05
2.6180210410413517e-07,4.945899113263593e-07,2.2750607900003906e-07,1.1416502646395535e-05
2.5847475846423807e-07,4.950865009414885e-07,2.275444112360493e-07,1.1788784982770512e-05
2.5517460072639014e-07,4.954406059897234e-07,2.2756268504980607e-07,1.2164097970177248e-05
2.51918017959548e-07,4.956363477364922e-07,2.275544564218908e-07,1.2540913805457044e-05
2.4872213788231445e-07,4.95659416590385e-07,2.2751417813542171e-07,1.291766117980985e-05
2.456051603330995e-07,4.954968759938194e-07,2.274370840495741e-07,1.3292721326391918e-05
2.425852784070579e-07,4.951361210434404e-07,2.273192807251544e-07,1.3664470861104327e-05
2.3967997314233165e-07,4.945647747143818e-07,2.271573875565904e-07,1.4031363926344555e-05
2.3690559653437586e-07,4.937714431339342e-07,2.269483225935265e-07,1.4391979425505786e-05
2.342768231872972e-07,4.927458384561415e-07,2.2668947840368805e-07,1.4745017426868644e-05
2.318062853487276e-07,4.91478485427245e-07,2.263784013067244e-07,1.5089290805255616e-05
2.295039844650092e-07,4.899607192051662e-07,2.26012516766368e-07,1.542372686102624e-05
2.2737708021313e-07,4.881846875947497e-07,2.255897328040341e-07,1.5747350791760508e-05
2.2543207353282237e-07,4.861433429700099e-07,2.251088588203711e-07,1.605922605764553e-05
2.2367823965181736e-07,4.838307559476871e-07,2.2456916749758805e-07,1.6358384077833043e-05
2.221279557119565e-07,4.812424369556391e-07,2.2397016185679007e-07,1.664381446682167e-05
2.2079338236997705e-07,4.783755074943459e-07,2.233120585953093e-07,1.6914528293912568e-05
2.19683792690554e-07,4.752292991625884e-07,2.2259687373497854e-07,1.7169634696982838e-05
2.1880598865431529e-07,4.718057957151253e-07,2.2182977579427891e-07,1.740840748181807e-05
2.18165521428597e-07,4.681088238273529e-07,2.2101866630402695e-07,1.7630359644835064e-05
2.17766267773212e-07,4.641430900411833e-07,2.2017164294118534e-07,1.7835277809615994e-05
2.17609185357023e-07,4.5991458542321684e-07,2.1929545390581302e-07,1.802315429820133e-05
2.176918294719359e-07,4.5543207570552646e-07,2.1839595997820463e-07,1.819405247281219e-05
2.1800932845924025e-07,4.507084211353303e-07,2.1747865696815377e-07,1.8347993472316907e-05
2.1855650049918627e-07,4.457599613270618e-07,2.1654876440873872e-07,1.8484918310631897e-05
2.1932890808962488e-07,4.406040587278433e-07,2.1561175779464283e-07,1.8604716159146048e-05
2.2032133074973248e-07,4.352578268495921e-07,2.1467400121444493e-07,1.8707260744016414e-05
2.215256900178185e-07,4.2973914714793093e-07,2.137434426594988e-07,1.8792432556884878e-05
2.2293090575347533e-07,4.240677167266463e-07,2.1283106862010214e-07,1.88602147341013e-05
2.24523896124932e-07,4.1826485130976647e-07,2.119512358576128e-07,1.8910905764864083e-05
2.262901855456224e-07,4.123525777596053e-07,2.111189727779723e-07,1.8945270203364765e-05
2.282144842044552e-07,4.063526860469697e-07,2.1034670309417612e-07,1.8964457024714866e-05
2.302811286724145e-07,4.002877123894793e-07,2.0964340634705074e-07,1.8969776254607e-05
2.324738940134771e-07,3.941851164432392e-07,2.0901543403988443e-07,1.896250758152723e-05
2.347763618564397e-07,3.880815624018506e-07,2.0846704590543887e-07,1.894384382484653e-05
2.3717273745970503e-07,3.8202409920500005e-07,2.080006647129031e-07,1.891503475535103e-05
2.3964749886549396e-07,3.7606844050618563e-07,2.0761712443816077e-07,1.8877627100769932e-05
2.4218458500142124e-07,3.7027547158495824e-07,2.07315685475525e-07,1.883355021724469e-05
2.447672679249757e-07,3.6470718740261175e-07,2.0709476935148175e-07,1.8784986619032246e-05
2.47378021923914e-07,3.594226174370329e-07,2.069537088708856e-07,1.8734177933152896e-05
2.499982966373001e-07,3.544739277782197e-07,2.06893355175248e-07,1.8683272174271348e-05
2.526092419366181e-07,3.499042214753379e-07,2.0691478541067372e-07,1.863421920596091e-05
2.551933453290513e-07,3.4574768655609656e-07,2.0701809581690487e-07,1.8588693606872088e-05
2.577358393060068e-07,3.420309902935153e-07,2.0720203798908575e-07,1.8548044772314626e-05
2.602253137501163e-07,3.387745118028194e-07,2.074642719079919e-07,1.8513285042184484e-05
2.6265320462142034e-07,3.359921964751579e-07,2.0780269263409246e-07,1.8485100362270872e-05
2.650125296496365e-07,3.336908333412253e-07,2.0821680663807185e-07,1.8463863094110294e-05
2.67297385529806e-07,3.318704922069893e-07,2.087074415356493e-07,1.8449644220773592e-05
2.6950323713835697e-07,3.305257034882516e-07,2.0927504251051133e-07,1.844223016075152e-05
2.716265867797221e-07,3.296459201715249e-07,2.099180612577316e-07,1.844114890986919e-05
2.736637387097615e-07,3.292154468091247e-07,2.106326869741223e-07,1.8445710101466472e-05
2.7560960123941296e-07,3.292147245617801e-07,2.1141370721851823e-07,1.845507425422948e-05
2.774572563935267e-07,3.2962302936598566e-07,2.1225521020617574e-07,1.8468353471175188e-05
2.7919822698626143e-07,3.304205732657406e-07,2.1315114535604037e-07,1.8484704862654705e-05
2.8082318833946965e-07,3.3159080127346397e-07,2.14096608092476e-07,1.8503386778637484e-05
2.823231053351841e-07,3.331230687298213e-07,2.150897887534709e-07,1.8523794868744435e-05
2.836903189941715e-07,3.350111761198615e-07,2.1613325889394566e-07,1.8545494953189466e-05
2.849185458243014e-07,3.3724794183286555e-07,2.1723262003367853e-07,1.8568238083571906e-05
2.8600200132655285e-07,3.398222391444973e-07,2.1839377810277657e-07,1.859193440588804e-05
2.8693514393481336e-07,3.427193549611705e-07,2.196228750193567e-07,1.8616580642036746e-05
2.8771381530095747e-07,3.459207014193657e-07,2.2092857358165122e-07,1.864215961107117e-05
2.8833705813907854e-07,3.4940271965508565e-07,2.2232223838496384e-07,1.866856527858269e-05
2.888077673481399e-07,3.531371770392818e-07,2.238147187562729e-07,1.86956340489432e-05
2.891318615711865e-07,3.570929826533651e-07,2.254132456069941e-07,1.8723260359114547e-05
2.893172802736276e-07,3.612377564880247e-07,2.271212152258452e-07,1.875144616989153e-05
2.893729573203541e-07,3.655382375987196e-07,2.2893973821228656e-07,1.878023757010262e-05
2.893081692988557e-07,3.699607275413005e-07,2.3086848079167052e-07,1.8809655812084382e-05
2.891328506502687e-07,3.7447245307333383e-07,2.329053595098452e-07,1.883968599816541e-05
2.888580679510672e-07,3.7904340725758993e-07,2.350466211969644e-07,1.8870287548623134e-05
2.884961782035381e-07,3.8364801379625064e-07,2.372875811313941e-07,1.8901377729612587e-05
2.880615090321404e-07,3.882655441464928e-07,2.396228839726759e-07,1.893280241208414e-05
2.875719649879012e-07,3.928786421889309e-07,2.420460761585119e-07,1.896434440190276e-05
2.870501319577091e-07,3.974709738227517e-07,2.4454914959174197e-07,1.899575706485981e-05
2.865229379872345e-07,4.0202565640158994e-07,2.4712269874615487e-07,1.9026774025862224e-05
2.8602021900186624e-07,4.06525263719045e-07,2.497567402216777e-07,1.9057084503795645e-05
2.855724456970308e-07,4.109526267321733e-07,2.524416502426804e-07,1.9086293362898227e-05
2.852084361931009e-07,4.152911387813057e-07,2.551685621231453e-07,1.911389680193757e-05
2.849536924192623e-07,4.195250758548935e-07,2.579288390093395e-07,1.913928930376756e-05
2.848294488138617e-07,4.2364100441055257e-07,2.607129347424263e-07,1.9161779839071552e-05
2.8485243108707053e-07,4.276290167124657e-07,2.635093538920685e-07,1.918059706625472e-05
2.8503523399551103e-07,4.314818101819e-07,2.6630420143813297e-07,1.9194892901239925e-05
2.853878763391321e-07,4.3519277867061995e-07,2.690813745860036e-07,1.9203761608593133e-05
2.8592036788524257e-07,4.387567925702709e-07,2.7182313841596746e-07,1.9206280366396256e-05
2.86644434559472e-07,4.421730593765807e-07,2.7451111298995964e-07,1.9201580444923278e-05
2.87572446882824e-07,4.454456178933811e-07,2.771281870978755e-07,1.9189000695750673e-05
2.8871444944683014e-07,4.48582187339754e-07,2.7966064557868964e-07,1.9168320438043985e-05
2.900766136547524e-07,4.515940410918438e-07,2.82098508863596e-07,1.913986641490925e-05
2.916615386459107e-07,4.544960019909627e-07,2.844341943936208e-07,1.9104346686433188e-05
2.9346812743719397e-07,4.573065758711341e-07,2.866611159929162e-07,1.9062599044017968e-05
2.9549046865251306e-07,4.6004774053328543e-07,2.887725049720642e-07,1.901545711847543e-05
2.9771724714463004e-07,4.627424353415661e-07,2.9076051677220146e-07,1.89636968308001e-05
3.0013316111357235e-07,4.6541057381360437e-07,2.926160017309606e-07,1.8907988071083665e-05
3.027216338305802e-07,4.6806612841753533e-07,2.943289696176742e-07,1.884886084561829e-05
3.0546632554293325e-07,4.7071672997562924e-07,2.958894708330848e-07,1.8786709606167442e-05
3.083505740339653e-07,4.733645943026529e-07,2.972880683024132e-07,1.8721830856599825e-05
3.1135661016512864e-07,4.7600717269084023e-07,2.985156717806864e-07,1.8654470804726376e-05
3.144660608585013e-07,4.786380026754056e-07,2.9956367432624067e-07,1.858486519179502e-05
3.1766127277464647e-07,4.812478182700369e-07,3.004249154823978e-07,1.851326528087095e-05
3.2092575799079177e-07,4.838248520751532e-07,3.0109477039856674e-07,1.8439945649946303e-05
3.242431006849445e-07,4.863542260913477e-07,3.015710229789511e-07,1.8365184282331248e-05
3.2759617868167e-07,4.8881794764942e-07,3.018526496478805e-07,1.8289220488389788e-05
3.309670406194791e-07,4.911970678690832e-07,3.019392127581429e-07,1.8212229306980835e-05
3.343358628718151e-07,4.934752530272751e-07,3.0183096852304746e-07,1.813432635136362e-05
3.376802455913321e-07,4.956407316486882e-07,3.015285878918155e-07,1.805555672035478e-05
3.409772458743268e-07,4.976844795141585e-07,3.010326925396406e-07,1.7975856481259365e-05
3.4420723449155393e-07,4.99596478469577e-07,3.003443693194124e-07,1.7895036062824185e-05
3.473554369020098e-07,5.013637729635726e-07,2.9946668263386705e-07,1.7812797669589504e-05
3.504094898620455e-07,5.029712682358953e-07,2.984052653972533e-07,1.7728758644591924e-05
3.5335697228220847e-07,5.044032993532036e-07,2.971671723288377e-07,1.7642467664648277e-05
3.561853655431658e-07,5.056443966686172e-07,2.957595642841008e-07,1.755341650340433e-05
3.5888249954067675e-07,5.066793782046056e-07,2.94189182012942e-07,1.7461063602484378e-05
3.6143719605458797e-07,5.074933056458107e-07,2.924622857936776e-07,1.7364887111254547e-05
3.638407436857858e-07,5.080715899338243e-07,2.905848108990688e-07,1.726445151156828e-05
3.6608732817915225e-07,5.084003947716632e-07,2.885627516985491e-07,1.7159440366274854e-05
3.6817256330330077e-07,5.084673773219299e-07,2.864030408864593e-07,1.704962923662815e-05
3.700918184921196e-07,5.082633202105729e-07,2.841144913256216e-07,1.6934827499373393e-05
3.718396133370033e-07,5.077841692385592e-07,2.817074364607202e-07,1.6814833695562657e-05
3.734103034799846e-07,5.070309760663052e-07,2.791922265289948e-07,1.6689432927137955e-05
3.7479971227336343e-07,5.060072940014659e-07,2.765781155228284e-07,1.655845369953968e-05
3.760064936900647e-07,5.047165132888725e-07,2.738731507032631e-07,1.642183941446843e-05
3.770318309087139e-07,5.031608740378071e-07,2.7108507800371145e-07,1.6279649584475495e-05
3.77877271578255e-07,5.013422007177107e-07,2.682228504004951e-07,1.6132005546149234e-05
3.7854289376691476e-07,4.992635176859623e-07,2.652974543810954e-07,1.5979047432245385e-05
3.7902856298634117e-07,4.969307111454907e-07,2.623211290661988e-07,1.5820904516177898e-05
3.7933712854285676e-07,4.943530736869321e-07,2.593057879947627e-07,1.56576805692811e-05
3.794753974612223e-07,4.915417214817547e-07,2.562620832412937e-07,1.5489476251786167e-05
3.794520383756969e-07,4.885079733991971e-07,2.531993100273487e-07,1.5316438774750295e-05
3.7927566297451096e-07,4.852652198000431e-07,2.501259376829796e-07,1.5138798435897669e-05
3.789545556166565e-07,4.818337300972943e-07,2.470503312133316e-07,1.4956867332866735e-05
3.784962083350533e-07,4.782428071620971e-07,2.439806804151137e-07,1.4771032368458065e-05
3.7790626474964706e-07,4.745268547510638e-07,2.4092438861151035e-07,1.4581763700420484e-05
3.7718884380864313e-07,4.7072022498694144e-07,2.378878465335832e-07,1.4389599777197699e-05
3.763480212799411e-07,4.668560713141805e-07,2.3487661662938127e-07,1.4195084361980164e-05
3.753882809653347e-07,4.6296666708674533e-07,2.3189571214570898e-07,1.3998702056112781e-05
3.743140408554573e-07,4.590815906765909e-07,2.2894974341010772e-07,1.3800888173124585e-05
3.7312959943936423e-07,4.5522501591707257e-07,2.2604317623754987e-07,1.360211311571198e-05
3.718394800431059e-07,4.5141480071763277e-07,2.231811244077786e-07,1.3402940033585769e-05
3.7044879000784796e-07,4.4766371489558355e-07,2.2036993387402958e-07,1.3203980147613824e-05
3.6896370510603993e-07,4.439816291831154e-07,2.1761641334585038e-07,1.300579417335742e-05
3.6739180207625407e-07,4.4037914561929035e-07,2.1492631660959477e-07,1.2808841780411047e-05
3.657415487445857e-07,4.3687153784036186e-07,2.1230361421039536e-07,1.2613532516497596e-05
3.6402143939763705e-07,4.3347823667506217e-07,2.0975089153360679e-07,1.2420334474498025e-05
3.622397467137538e-07,4.302183781138543e-07,2.0727030573275412e-07,1.2229833205890355e-05
3.604044168159918e-07,4.271094766423973e-07,2.0486438406654814e-07,1.2042706988831355e-05
3.5852266792241676e-07,4.241715576459507e-07,2.025358929673989e-07,1.1859660870256434e-05
3.566011423121789e-07,4.214306267140725e-07,2.00286909280294e-07,1.1681345974378551e-05
3.5464652119575455e-07,4.189160116509105e-07,1.9811837316337267e-07,1.1508290850971785e-05
3.5266538256532204e-07,4.166541257691658e-07,1.9603055751870453e-07,1.1340870477549159e-05
3.5066372115504386e-07,4.1466422109148776e-07,1.9402332920329976e-07,1.1179317444014557e-05
3.486472214612383e-07,4.1295778831368757e-07,1.920960514232825e-07,1.1023753003077622e-05
3.466224500952549e-07,4.115400479217437e-07,1.9024838956515016e-07,1.0874197908841699e-05
3.4459833751831233e-07,4.104113418518541e-07,1.884817066875948e-07,1.0730563505639991e-05
3.4258621178949407e-07,4.095674468400876e-07,1.8679951403101357e-07,1.0592654757090732e-05
3.4059845525641977e-07,4.090001357875447e-07,1.8520655940392038e-07,1.0460193653444198e-05
3.386473579113868e-07,4.086992243778807e-07,1.8370711352367879e-07,1.0332851010279734e-05
3.367435076767411e-07,4.0865482785288725e-07,1.8230397299186602e-07,1.0210276032834626e-05
3.348936726676455e-07,4.088578939432565e-07,1.809991680095721e-07,1.0092126619621173e-05
3.331003094586667e-07,4.0929870368853704e-07,1.7979509821788992e-07,9.978098910570088e-06
3.3136302462848673e-07,4.0996460979750967e-07,1.7869486790457075e-07,9.867927770096284e-06
3.296801678297185e-07,4.1083887694636e-07,1.7770204023664102e-07,9.761347540339281e-06
3.2804952069722726e-07,4.1190123151660354e-07,1.7682031669471988e-07,9.658051489346284e-06
3.264683351901504e-07,4.131291639919908e-07,1.7605296008423807e-07,9.55768161763754e-06
3.249331271353847e-07,4.1449872209256967e-07,1.7540155495166303e-07,9.45983942847823e-06
3.234398019197425e-07,4.1598459312919405e-07,1.748655816125926e-07,9.364101131402063e-06
3.2198408597334104e-07,4.175610799398556e-07,1.7444432209889618e-07,9.270029965345586e-06
3.2056138131701657e-07,4.1920419612868365e-07,1.7413917086303684e-07,9.177186166879554e-06
3.1916640940538877e-07,4.2089270590791114e-07,1.7395368578654563e-07,9.085150321326864e-06
3.177931875454187e-07,4.2260716668703757e-07,1.7389148640717498e-07,8.993567420386283e-06
3.164347601317429e-07,4.2432803958458796e-07,1.7395385639677514e-07,8.902186849155288e-06
3.150829566365946e-07,4.2603497620082924e-07,1.741386409833207e-07,8.810860261895116e-06
3.1372866432494996e-07,4.2770862024458826e-07,1.7444101631274e-07,8.719490184620436e-06
3.123624665534498e-07,4.2933313545640526e-07,1.7485594439332245e-07,8.627976037626544e-06
3.109757355854788e-07,4.3089642076291163e-07,1.7538106361715783e-07,8.536201328790683e-06
3.0956144501951016e-07,4.32388040811591e-07,1.7601766558476276e-07,8.44405845053772e-06
3.081138745177078e-07,4.3379747027572136e-07,1.7676871721906746e-07,8.35149197980708e-06
3.0662834337998037e-07,4.3511326023923567e-07,1.7763626919188379e-07,8.258523275897596e-06
3.051019085142088e-07,4.3632275534063845e-07,1.7862124941908697e-07,8.165221232156606e-06
3.035339449301782e-07,4.374138227512721e-07,1.7972468621362245e-07,8.071647763479203e-06
3.0192549214755876e-07,4.383778406762227e-07,1.809475893547344e-07,7.977825756068366e-06
3.002780308717472e-07,4.3921008353343584e-07,1.8228993479866022e-07,7.883748076869275e-06
2.9859343512632977e-07,4.399070328898573e-07,1.837504740651439e-07,7.789436876164168e-06
2.968750991251088e-07,4.404646305569601e-07,1.853268585008548e-07,7.695014457854662e-06
2.9512816333536076e-07,4.4087948807079153e-07,1.8701505853654453e-07,7.600713469788811e-06
2.9335806693513824e-07,4.41150726063642e-07,1.8880880681374703e-07,7.506838351508908e-06
2.9156904618138426e-07,4.4128005623145724e-07,1.907004309828766e-07,7.413749531101097e-06
2.897639889536948e-07,4.4127003424888327e-07,1.926825145273665e-07,7.321882350532335e-06
2.8794501481196234e-07,4.4112186599572107e-07,1.9474828619398886e-07,7.231755359947057e-06
2.8611367803453265e-07,4.4083447137688247e-07,1.968908485606865e-07,7.14393476183746e-06
2.842711596026442e-07,4.404058146728322e-07,1.9910298129404719e-07,7.0589717326499555e-06
2.824187902446008e-07,4.3983596664482287e-07,2.013772058488123e-07,6.9773561625363585e-06
2.805578917329858e-07,4.3912886902922657e-07,2.0370546155006281e-07,6.8995047193150866e-06
2.7868868603075943e-07,4.382908484642151e-07,2.0607955368566202e-07,6.8257696133043785e-06
2.768096101021516e-07,4.3732866085200966e-07,2.0849274786665878e-07,6.756454981724373e-06
2.749177320947386e-07,4.362491076968972e-07,2.1094045955451762e-07,6.691829477258613e-06
2.730097689028742e-07,4.3505938504285725e-07,2.1341899809882075e-07,6.632120495094596e-06
2.710834010339398e-07,4.3376820292342424e-07,2.15924635656957e-07,6.5774985235928315e-06
2.691382397254321e-07,4.3238642532391966e-07,2.1845447187445174e-07,6.528100175521396e-06
2.671755367573795e-07,4.3092589419061777e-07,2.2100781417901586e-07,6.484121866452128e-06
2.6519733314114124e-07,4.293980402894648e-07,2.2358700185536426e-07,6.4459095003717676e-06
2.632059440989949e-07,4.278136872754353e-07,2.261973144950378e-07,6.4139620429752476e-06
2.6120381550693345e-07,4.2618512515668117e-07,2.2884565863009448e-07,6.388878841358623e-06
2.591943831935433e-07,4.245290101151958e-07,2.3153813962203132e-07,6.3712907091176075e-06
2.57183446438022e-07,4.228654224010898e-07,2.3427750870047922e-07,6.361789417996729e-06
2.5517896857088586e-07,4.212141252440332e-07,2.37062294831803e-07,6.360888182734766e-06
2.5318922760642583e-07,4.1959330044720313e-07,2.398882169552822e-07,6.369016656146991e-06
2.512213070653121e-07,4.180198212484538e-07,2.4275043549567734e-07,6.386514837731448e-06
2.4928101494125773e-07,4.165075482960098e-07,2.456445422721819e-07,6.413613027422502e-06
2.4737369329134077e-07,4.15065279210381e-07,2.4856553743816164e-07,6.4504220123708775e-06
2.455044271289641e-07,4.136968935461164e-07,2.5150630691965485e-07,6.4969347836557315e-06
2.4367707445373876e-07,4.12402793902587e-07,2.5445695908399967e-07,6.5530159318312985e-06
2.418934068755954e-07,4.111813477203754e-07,2.5740480767811164e-07,6.6183910004995576e-06
2.401530950341973e-07,4.100306783752725e-07,2.603345375345329e-07,6.69266564555888e-06
2.384540165861925e-07,4.0895070318578786e-07,2.6322869132849735e-07,6.77535848596409e-06
2.3679246770584674e-07,4.0794361307169474e-07,2.660688357754374e-07,6.86591579435936e-06
2.3516325254590849e-07,4.0701173014417646e-07,2.688367679026932e-07,6.963715724826035e-06
2.3356024934995533e-07,4.0615534771871295e-07,2.71515260852808e-07,7.06807223506589e-06
2.3197753072989602e-07,4.0537412546909306e-07,2.740897033535653e-07,7.178227578704625e-06
2.3040992346575546e-07,4.0466993143215864e-07,2.765502060803546e-07,7.293337828097154e-06
2.288526125753359e-07,4.0404635343902906e-07,2.788911344014104e-07,7.412473758759459e-06
2.2730051952126517e-07,4.0350661685502634e-07,2.811086152580754e-07,7.53465211465531e-06
2.257482533950893e-07,4.030538598699716e-07,2.8319950831939787e-07,7.658886556162916e-06
2.2419090482837376e-07,4.0269183613993027e-07,2.851618619876588e-07,7.784227088338153e-06
2.226245867337e-07,4.02423806333291e-07,2.869946973238206e-07,7.909772548193805e-06
2.2104611636083355e-07,4.0225131453095757e-07,2.8869685673183717e-07,8.034671440425503e-06
2.194530031083051e-07,4.0217392971204905e-07,2.902658965680923e-07,8.158130154791091e-06
2.1784375264537767e-07,4.0218933257315934e-07,2.916977890318561e-07,8.279420971176461e-06
2.1621789038967405e-07,4.022930964500504e-07,2.929871500267029e-07,8.397873626211249e-06
2.1457608920158816e-07,4.0247879025159175e-07,2.941281086964576e-07,8.512860103156873e-06
2.1292014877731e-07,4.0273952532600434e-07,2.951171719675465e-07,8.623782993237628e-06
2.112526040129332e-07,4.030693295965721e-07,2.9595616740331996e-07,8.730065565018854e-06
2.0957633851075735e-07,4.0346288203929784e-07,2.9665132117085123e-07,8.831159323042564e-06
2.0789428710455862e-07,4.039158355345474e-07,2.972099774512373e-07,8.92657622011989e-06
2.062094892996353e-07,4.0442641834786e-07,2.976395304591836e-07,9.015919451842372e-06
2.0452604867765452e-07,4.049950974075918e-07,2.9794886619146535e-07,9.09889382791353e-06
2.028506385903836e-07,4.0562172140456035e-07,2.981498696732315e-07,9.175295683339273e-06
2.011928300063052e-07,4.063036574526197e-07,2.982577836593428e-07,9.244988552499707e-06
1.995632426843893e-07,4.070358329449096e-07,2.982899898731811e-07,9.307889069045504e-06
1.97971317446657e-07,4.0781105859805176e-07,2.982643599593523e-07,9.363982455880687e-06
1.96425105478356e-07,4.086210367402864e-07,2.9819888172007136e-07,9.413333124194524e-06
1.949320710566208e-07,4.094582671135386e-07,2.981111212304416e-07,9.456048225800173e-06
1.9349862010215946e-07,4.103178766019446e-07,2.980161567052109e-07,9.492224539642908e-06
1.9212902791807768e-07,4.1119888642753063e-07,2.979249577031383e-07,9.521929711681067e-06
1.9082553386873395e-07,4.121040545578001e-07,2.978444278280988e-07,9.54521694209712e-06
1.8958960545321537e-07,4.1303821736661184e-07,2.977778795475839e-07,9.562163336606475e-06
1.884226607338179e-07,4.1400647779729096e-07,2.977256386100268e-07,9.572930272108153e-06
1.8732521240942523e-07,4.1501322785108024e-07,2.976869187279306e-07,9.57779247341452e-06
1.862961404789062e-07,4.1606232344926425e-07,2.976619776756665e-07,9.577089439239895e-06
1.8533363640590093e-07,4.1715802687000744e-07,2.976517951508683e-07,9.57116228513849e-06
1.844366311784789e-07,4.1830555217498595e-07,2.97655833742793e-07,9.560337633538091e-06
1.83605274650207e-07,4.195108043381458e-07,2.9767100861721e-07,9.544927455854983e-06
1.8284075310035733e-07,4.207814724785561e-07,2.9769215909070093e-07,9.52523733482722e-06
1.8214528636814453e-07,4.221304424400202e-07,2.977124238791872e-07,9.501608723266879e-06
1.8152264118909584e-07,4.235767825675593e-07,2.977233568845412e-07,9.474461752041737e-06
1.809788857874752e-07,4.2514115226084645e-07,2.977153678964264e-07,9.444312691865727e-06
1.8052232527126558e-07,4.268399577940233e-07,2.976785896181036e-07,9.411786681099193e-06
1.8016206489294212e-07,4.2868278460025883e-07,2.9760395138920513e-07,9.377592678582512e-06
1.7990638593855006e-07,4.3067341066534175e-07,2.974843129500961e-07,9.342425130190393e-06
1.797618834029106e-07,4.328120435507392e-07,2.973148326314707e-07,9.306861380276388e-06
1.7973288167965906e-07,4.3509593288263463e-07,2.9709210119818657e-07,9.271342404300852e-06
1.7982095371111915e-07,4.3751929019463757e-07,2.9681320325196556e-07,9.236279476129132e-06
1.8002496155907188e-07,4.400744194431224e-07,2.964751536643324e-07,9.202273411566107e-06
1.803413963528725e-07,4.427520122395837e-07,2.960745763792583e-07,9.170298564550453e-06
1.8076469837250302e-07,4.4554008434269713e-07,2.956079197565764e-07,9.141680351067668e-06
1.812876202853584e-07,4.4842373375862206e-07,2.9507158744372074e-07,9.117899231906979e-06
1.819013551367838e-07,4.5138516679724256e-07,2.944618286417048e-07,9.100376142993891e-06
1.8259554450762048e-07,4.544034173168049e-07,2.937750663460322e-07,9.090316380775652e-06
1.8335907208202727e-07,4.574564010164746e-07,2.930081653125784e-07,9.088634317737303e-06
1.8418144913403247e-07,4.605259191212019e-07,2.9215846872975413e-07,9.095982017011284e-06
1.8505317006695186e-07,4.6360077328422243e-07,2.9122476151898984e-07,9.11285568819338e-06
1.8596482173151536e-07,4.6667470235659096e-07,2.902085956408158e-07,9.139695499863713e-06
1.8690670049366826e-07,4.6974250901180925e-07,2.891141475855657e-07,9.176918251218496e-06
1.8786948595124446e-07,4.727978511178483e-07,2.879473740151087e-07,9.224899064783148e-06
1.8884491510206358e-07,4.758321365636009e-07,2.8671606936406386e-07,9.28395320973627e-06
1.8982569712432128e-07,4.788337607861984e-07,2.854305568305959e-07,9.354347055347857e-06
1.908045948052664e-07,4.817879823625942e-07,2.841044552573916e-07,9.436329096884807e-06
1.9177346771938122e-07,4.846771369914961e-07,2.8275431601395545e-07,9.530149111481084e-06
1.927232396457832e-07,4.874806210648564e-07,2.813971420592262e-07,9.636046337865018e-06
1.9364519131395879e-07,4.901749542818919e-07,2.8004792216629385e-07,9.754220625593224e-06
1.9453316004185538e-07,4.927353583914462e-07,2.7871994478993695e-07,9.884807589913448e-06
1.95384708647805e-07,4.951398215175053e-07,2.7742731362018816e-07,1.0027862892456507e-05
1.961999792791321e-07,4.97372805858216e-07,2.76186508887825e-07,1.0183349830385774e-05
1.9697988464329165e-07,4.994246424399615e-07,2.750153039035717e-07,1.0351109149233158e-05
1.9772578623484962e-07,5.012891019404789e-07,2.739303436968201e-07,1.0530795985386054e-05
1.984408816807326e-07,5.029635273201032e-07,2.7294522862975144e-07,1.072182509311835e-05
1.991315547934289e-07,5.044492283892917e-07,2.7206987942909785e-07,1.092338632517773e-05
1.998065455499524e-07,5.057496145767018e-07,2.713107828420541e-07,1.113453297887339e-05
2.004745912719576e-07,5.068685854092773e-07,2.706714043128349e-07,1.1354299497616306e-05
2.0114305859445983e-07,5.078099276123175e-07,2.701528107887369e-07,1.1581797378746613e-05
2.0181798734397602e-07,5.085760008385807e-07,2.6975419185919327e-07,1.181624259389317e-05
2.02504358354478e-07,5.091669655059858e-07,2.6947277434791105e-07,1.2056916701260276e-05
2.0320628011419326e-07,5.095821092699017e-07,2.6930358792838945e-07,1.230311147808462e-05
2.0392715232831078e-07,5.098212885320196e-07,2.692396823589735e-07,1.2554091572289125e-05
2.046695105685347e-07,5.098854627766594e-07,2.692733492737834e-07,1.2809081459249132e-05
2.0543546239376065e-07,5.0977777369438e-07,2.6939785802740086e-07,1.306725612006119e-05
2.06228837577822e-07,5.095042588661129e-07,2.696077877034201e-07,1.332770028171888e-05
2.0705697429171e-07,5.090723899397837e-07,2.6989762267875604e-07,1.3589352101254785e-05
2.079293777422362e-07,5.08488548142383e-07,2.702602161806216e-07,1.3850988366036222e-05
2.0885492357007735e-07,5.077565081400097e-07,2.706863374278904e-07,1.4111267048614925e-05
2.0984090527154612e-07,5.068780441448886e-07,2.711652849265782e-07,1.4368803831894214e-05
2.1089455403336093e-07,5.058559359528093e-07,2.716856762747471e-07,1.4622276317283814e-05
2.120254928003222e-07,5.04696741859886e-07,2.722361812284736e-07,1.4870543489239902e-05
2.1324649854581703e-07,5.034096779705185e-07,2.728062320064931e-07,1.5112708279329926e-05
2.1457219143764692e-07,5.020038292462232e-07,2.733858758530497e-07,1.5348062226443368e-05
2.1601803072055745e-07,5.004880987562779e-07,2.739650234313183e-07,1.5575960070576678e-05
2.175998067064221e-07,4.988725409960347e-07,2.745333467865625e-07,1.5795728297589222e-05
2.193319236824944e-07,4.971678076851757e-07,2.750811186658856e-07,1.6006649890415672e-05
2.2122489198021493e-07,4.953831010885147e-07,2.756012097454992e-07,1.620799075436506e-05
2.232838107905324e-07,4.935253469939165e-07,2.7609161673231405e-07,1.6399026656751676e-05
2.255083419584944e-07,4.9160100208585e-07,2.765563932211418e-07,1.657906657618519e-05
2.2789385602790746e-07,4.896183300654761e-07,2.77004416841892e-07,1.6747527523572832e-05
2.3043319722645345e-07,4.875867614668127e-07,2.7744671992120296e-07,1.690408228060068e-05
2.331174278390006e-07,4.855138734310903e-07,2.778938451209502e-07,1.7048731631246374e-05
2.3593564750526915e-07,4.834035059036772e-07,2.783556493008598e-07,1.7181678741879223e-05
2.3887659907005e-07,4.812561485460733e-07,2.788423679488964e-07,1.7303131169888973e-05
2.4193090687887657e-07,4.790699025306189e-07,2.793640529302995e-07,1.7413205222813533e-05
2.450907766459909e-07,4.768405471560146e-07,2.7992985121074236e-07,1.7511994667789803e-05
2.483486549303258e-07,4.745612804478033e-07,2.805484831844192e-07,1.7599804162567488e-05
2.51696239731897e-07,4.722237816193009e-07,2.812282269861868e-07,1.7677407879686972e-05
2.5512356471021853e-07,4.6982028159148683e-07,2.8197673975243124e-07,1.7746106966190343e-05
2.5861945040118343e-07,4.6734470995413246e-07,2.828016945525796e-07,1.7807564568294347e-05
2.621728462484241e-07,4.647925126554041e-07,2.837104913438886e-07,1.78635811778002e-05
2.6577326375808465e-07,4.6216057609492643e-07,2.8470833708017396e-07,1.7915900833957448e-05
2.6940998718165816e-07,4.5944777862238037e-07,2.857966635830325e-07,1.7966055942303253e-05
2.7307083579634904e-07,4.5665432879885396e-07,2.8697368326824776e-07,1.801526454028108e-05
2.7674256810723853e-07,4.537794662835244e-07,2.882362508883893e-07,1.8064389207689632e-05
2.8041307956402564e-07,4.5082026229912493e-07,2.895805982582419e-07,1.8113947352484658e-05
2.840725911262273e-07,4.477727897761602e-07,2.9100199703849245e-07,1.8164147597177482e-05
2.877131114568168e-07,4.4463401033395435e-07,2.9249447169138785e-07,1.821493128260996e-05
2.913269429019809e-07,4.4140297677115057e-07,2.940498964529493e-07,1.8266033401380546e-05
2.949046092211427e-07,4.380815784009517e-07,2.9565682287305587e-07,1.831708147318068e-05
2.984339522040165e-07,4.3467480343931657e-07,2.973007506104037e-07,1.8367699557639087e-05
3.0190080542876425e-07,4.3118972477866706e-07,2.989660169333363e-07,1.8417571859959207e-05
3.052895351037157e-07,4.276337564067996e-07,3.006373530857933e-07,1.8466472141738465e-05
3.085831982446856e-07,4.2401331356234686e-07,3.022996390595073e-07,1.8514286753736122e-05
3.1176384110702e-07,4.2033349957865134e-07,3.039373887629911e-07,1.8561019518141627e-05
3.148129418943961e-07,4.1659899508474424e-07,3.0553565484342245e-07,1.860676320064325e-05
3.177120729751243e-07,4.1281480482490936e-07,3.070810396265013e-07,1.8651675142654268e-05
3.2044361494591987e-07,4.089860808499272e-07,3.085613335214309e-07,1.869598040253472e-05
3.2299135566509054e-07,4.051179616440842e-07,3.099649303608691e-07,1.8739954666551776e-05
3.253409057960668e-07,4.012152348563796e-07,3.112813731086989e-07,1.8783847977860466e-05
3.2747999334077056e-07,3.9728136180831225e-07,3.125024619840765e-07,1.8827782296474048e-05
3.293992475928048e-07,3.933178545689867e-07,3.136231115169627e-07,1.887167812803064e-05
3.310930195590396e-07,3.893242834867042e-07,3.146411580152048e-07,1.8915246454036386e-05
3.325586838770122e-07,3.852984514556605e-07,3.155556095448511e-07,1.8958069244932705e-05
3.3379525210186987e-07,3.8123744317901563e-07,3.163647776796171e-07,1.8999723484646245e-05
3.3480345830053783e-07,3.7713991208087137e-07,3.17065486099767e-07,1.903983888543607e-05
3.3558637363176215e-07,3.730079954784736e-07,3.1765297951626806e-07,1.9078072649396213e-05
3.3614892421684606e-07,3.688474444822404e-07,3.181211156343681e-07,1.9114087105580765e-05
3.364973014623931e-07,3.6466642771614953e-07,3.184627582082597e-07,1.9147560252289207e-05
3.366385722255925e-07,3.60474046031713e-07,3.186708008345807e-07,1.9178182619856345e-05
3.36580089656529e-07,3.5627920338333776e-07,3.1874026841403926e-07,1.9205611574734302e-05
3.363302072616668e-07,3.5209026757930625e-07,3.1867078087412054e-07,1.9229422996026706e-05
3.358997970446359e-07,3.4791659680777307e-07,3.1846713971966875e-07,1.9249112557453448e-05
3.353017344544904e-07,3.437723197117442e-07,3.181372510166164e-07,1.9264126778871032e-05
3.3454931608253907e-07,3.3967817263801234e-07,3.176899569750801e-07,1.9273884427384468e-05
3.3365677617503564e-07,3.356579417294112e-07,3.171341864679725e-07,1.9277820233078325e-05
3.326413307707704e-07,3.317343140213357e-07,3.1647861123134797e-07,1.9275481501898968e-05
3.315234827993827e-07,3.2792892739348944e-07,3.157315238063888e-07,1.9266599818502445e-05
3.3032471233771574e-07,3.2426385253614715e-07,3.149003610503921e-07,1.9251045208663845e-05
3.2906497152416065e-07,3.207615070005209e-07,3.1399069090414836e-07,1.9228707926079458e-05
3.2776181126810014e-07,3.17444245096226e-07,3.1300579940688416e-07,1.9199437478189275e-05
3.264306488264777e-07,3.143336891278077e-07,3.1194737979725764e-07,1.916307656366971e-05
3.250850275070744e-07,3.1144882468835876e-07,3.108168283639285e-07,1.91195183078016e-05
3.2373669164496543e-07,3.088048477510304e-07,3.096163318076993e-07,1.9068733360276397e-05
3.2239601643001764e-07,3.064136840286257e-07,3.083487380412861e-07,1.901076178849677e-05
3.2107237468372906e-07,3.0428441606022875e-07,3.070167253214637e-07,1.894571570960036e-05
3.197738562102731e-07,3.0242360572483265e-07,3.056227338550516e-07,1.8873869479884413e-05
3.185073127515962e-07,3.0083665443847584e-07,3.0416899688148407e-07,1.8795767209926887e-05
3.1727975231265267e-07,2.995301156374218e-07,3.0265684528071125e-07,1.8712181376149922e-05
3.160999496983026e-07,2.9851424102641845e-07,3.010861898117129e-07,1.862394438894376e-05
3.149780230589466e-07,2.9780437448211105e-07,2.994557922459597e-07,1.8531799130734648e-05
3.139235219167726e-07,2.9741990124009407e-07,2.977641691724737e-07,1.843635879910926e-05
3.129445233542505e-07,2.973825570106125e-07,2.960103081054765e-07,1.833823601590085e-05
3.1204737168251865e-07,2.977177135788149e-07,2.941935628026621e-07,1.8238269852853293e-05
3.1123677334575575e-07,2.984562524600041e-07,2.923131991098559e-07,1.8137623976343908e-05
3.105175830855926e-07,2.9963080708945505e-07,2.9036813881733067e-07,1.8037676864753103e-05
3.0989595375599985e-07,3.012693097594737e-07,2.88357292971516e-07,1.7939844944940836e-05
3.09377872655673e-07,3.033927144483902e-07,2.8628035395111387e-07,1.7845445481966958e-05
3.08967339969232e-07,3.0601471763423565e-07,2.841379648063948e-07,1.7755605120092613e-05
3.086651837384861e-07,3.0913981999628746e-07,2.819308969329857e-07,1.767120813162411e-05
3.084684910330476e-07,3.127620098092851e-07,2.796592727994232e-07,1.7592872245265355e-05
3.0837159891937017e-07,3.168660593995971e-07,2.7732252635466376e-07,1.752093900010681e-05
3.08367904667626e-07,3.214301247030842e-07,2.749195928846943e-07,1.7455496771923888e-05
3.084510410249774e-07,3.264280867136655e-07,2.724490339328236e-07,1.739643995969178e-05
3.0861506026579385e-07,3.3183182978741484e-07,2.6990976827260423e-07,1.7343514624911732e-05
3.088536555545201e-07,3.3761349331325977e-07,2.673024493073955e-07,1.7296319878370267e-05
3.0915963592449644e-07,3.4374594641196427e-07,2.646301234313257e-07,1.7254293675236762e-05
3.095255909727432e-07,3.502011050092333e-07,2.6189793232826555e-07,1.7216726751619848e-05
3.099440168781386e-07,3.569488774057997e-07,2.5911326896472997e-07,1.7182830785243672e-05
3.1040639867811763e-07,3.6395913390950905e-07,2.5628583584717674e-07,1.7151850572544667e-05
3.10903097423864e-07,3.712053003185529e-07,2.534261906902757e-07,1.7123169278923102e-05
3.1142411031738875e-07,3.7866552192255286e-07,2.505441495221263e-07,1.7096354706791063e-05
3.1195992972577987e-07,3.863196796868906e-07,2.476487740293651e-07,1.7071141539129714e-05
3.1250227382781484e-07,3.941457154461492e-07,2.4474954803389987e-07,1.704738407497123e-05
3.130440820874608e-07,4.0211846233874005e-07,2.4185736695239574e-07,1.7025010920959016e-05
3.135793378569539e-07,4.102091257789252e-07,2.389844494277472e-07,1.7003993818722924e-05
3.141041272918652e-07,4.183842420872628e-07,2.361435187827793e-07,1.6984329248806572e-05
3.146182988967064e-07,4.2660677220687104e-07,2.3334669031651326e-07,1.696601251455157e-05
3.1512528381813523e-07,4.348391782230274e-07,2.306044467368045e-07,1.694898281392022e-05
3.1562994435536323e-07,4.4304454223392974e-07,2.2792620908912781e-07,1.693307172511177e-05
3.161368586397154e-07,4.511849620329344e-07,2.253225766256547e-07,1.6918006191426183e-05
3.166494146345128e-07,4.5922076354452373e-07,2.228060299686317e-07,1.6903447179980434e-05
3.171691019952969e-07,4.6711338231927996e-07,2.2038922921877507e-07,1.688901856709516e-05
3.1769576590956895e-07,4.748300361735446e-07,2.1808406255639643e-07,1.687432128988544e-05
3.182282715821029e-07,4.823450904414814e-07,2.15901879010924e-07,1.6858943398498918e-05
3.187641502409753e-07,4.896370308681484e-07,2.1385293014441363e-07,1.6842470226480538e-05
3.1929898755426997e-07,4.966848822762092e-07,2.119451586939498e-07,1.682448034229422e-05
3.198270688251692e-07,5.034666126211547e-07,2.1018353157886837e-07,1.6804512493618656e-05
3.2034239313803325e-07,5.099590416280653e-07,2.085707684301056e-07,1.6782035399417097e-05
3.208382852592909e-07,5.161379059292003e-07,2.0710904914081398e-07,1.675646214027435e-05
3.2130623188817577e-07,5.219776964238328e-07,2.0580070319186864e-07,1.6727203426549813e-05
3.217358457433862e-07,5.274521699163134e-07,2.046471590967367e-07,1.6693737156808906e-05
3.221164816347168e-07,5.325363283050843e-07,2.0364803253653574e-07,1.665568901501868e-05
3.224395173126493e-07,5.372090041025515e-07,2.0280185730137692e-07,1.6612889143308317e-05
3.2270011245126467e-07,5.41453918885976e-07,2.0210754628074935e-07,1.6565334261943707e-05
3.228975265337317e-07,5.452586061327111e-07,2.0156510526243373e-07,1.6513072888465008e-05
3.2303371328693106e-07,5.486127250642273e-07,2.0117558162054774e-07,1.6456134236680307e-05
3.231112428454042e-07,5.515067924852442e-07,2.0094081276512648e-07,1.6394543525078565e-05
3.231316528906175e-07,5.539319190592935e-07,2.008626395553552e-07,1.6328344327975865e-05
3.2309490432146263e-07,5.558817283435107e-07,2.0094144998413101e-07,1.625757980637991e-05
3.230002636358766e-07,5.573550167698118e-07,2.0117531834547085e-07,1.6182264335837895e-05
3.228469805297119e-07,5.583556845290656e-07,2.015610312702416e-07,1.6102411492083635e-05
3.226335260522237e-07,5.58890184098066e-07,2.020963413643525e-07,1.6018174040987224e-05
3.223569817574854e-07,5.589659511136593e-07,2.027806811906605e-07,1.592999834815252e-05
3.220138839293205e-07,5.585935909218451e-07,2.0361332301231003e-07,1.583860499755451e-05
3.216017773839565e-07,5.577914246987799e-07,2.045921924987268e-07,1.5744820326175048e-05
3.2111959169601174e-07,5.565865884667121e-07,2.057154105809788e-07,1.5649425279534508e-05
3.2056612476041826e-07,5.550108076335394e-07,2.069831311061684e-07,1.555309111789109e-05
3.1993889337494877e-07,5.530958647894687e-07,2.0839712306692535e-07,1.5456458104762216e-05
3.1923523715588733e-07,5.508725144430386e-07,2.0995845692725387e-07,1.536037618047975e-05
3.184540676095624e-07,5.483713788465036e-07,2.1166525453213149e-07,1.526611363940916e-05
3.1759561754471224e-07,5.456233798305014e-07,2.135122394714569e-07,1.5175331833381326e-05
3.16659535184044e-07,5.42659027760793e-07,2.1549220989532343e-07,1.5089888490998008e-05
3.156438460511578e-07,5.395072975862337e-07,2.175971126341715e-07,1.5011637069876605e-05
3.145452878265242e-07,5.361959187232742e-07,2.198169961498568e-07,1.4942280705077359e-05
3.133595468016721e-07,5.327529212552922e-07,2.2213888429694948e-07,1.4883268274451293e-05
3.120810554188956e-07,5.292067809892692e-07,2.245477476192348e-07,1.483572141127673e-05
3.107032301906794e-07,5.255849094932298e-07,2.270285337618714e-07,1.4800388012787567e-05
3.092195665707247e-07,5.219123174301667e-07,2.2956716462102107e-07,1.4777629373284301e-05
3.076254698354507e-07,5.182108434807726e-07,2.321499988570075e-07,1.4767455273190998e-05
3.0592025128088014e-07,5.144992097484641e-07,2.347631473000104e-07,1.4769583542873652e-05
3.04108503907196e-07,5.107935443502863e-07,2.3739277942321533e-07,1.4783479582783285e-05
3.022001719075234e-07,5.071069760792326e-07,2.400258925580895e-07,1.4808380905913996e-05
3.0020867312614625e-07,5.034493566962735e-07,2.4265054465247544e-07,1.4843338746271275e-05
2.98148437541216e-07,4.998285394394073e-07,2.4525542509077693e-07,1.4887293586558085e-05
2.960344912054798e-07,4.962518525194703e-07,2.478294930463635e-07,1.4939190341693286e-05
2.938835048937339e-07,4.927260475372117e-07,2.5036204764816606e-07,1.499810046642001e-05
2.917135231249403e-07,4.892557906288926e-07,2.5284356502843473e-07,1.5063286618927508e-05
2.8954219410191696e-07,4.858423365286027e-07,2.552673153730497e-07,1.5134192927055082e-05
2.873856943859695e-07,4.824837169917602e-07,2.5762966844725555e-07,1.5210399111715253e-05
2.852593336212705e-07,4.791756866435314e-07,2.599281325987848e-07,1.5291567332083632e-05
2.831788924481442e-07,4.759121177446501e-07,2.6215956185056937e-07,1.5377390712503382e-05
2.81161303010846e-07,4.726852926894251e-07,2.643202875768013e-07,1.5467544799871265e-05
2.7922361819744897e-07,4.694868901853754e-07,2.664071937686152e-07,1.5561632264269344e-05
2.773808198755795e-07,4.6630943013683674e-07,2.6841821574130825e-07,1.5659138778824438e-05
2.756447862921869e-07,4.63147578170891e-07,2.7035174674761136e-07,1.575946154196924e-05
2.740250759591227e-07,4.599986340657266e-07,2.7220529417541777e-07,1.586200765657617e-05
2.725298179915024e-07,4.568620860849905e-07,2.739744229594804e-07,1.5966256770266205e-05
2.711657955492765e-07,4.5373841896271564e-07,2.756526314834954e-07,1.6071745722694074e-05
2.6993769855044866e-07,4.5062738729936935e-07,2.7723187189657147e-07,1.6178043626610293e-05
2.6884676914329977e-07,4.475268377640097e-07,2.787034603904477e-07,1.6284753966365834e-05
2.678899136787776e-07,4.44433233371629e-07,2.800590106600871e-07,1.6391518823578215e-05
2.6706003253293097e-07,4.413439127108556e-07,2.812910620884737e-07,1.649799025605067e-05
2.663475202234479e-07,4.382597629625165e-07,2.823933308889977e-07,1.6603762471022392e-05
2.657424467178665e-07,4.3518553329511635e-07,2.8336049413119657e-07,1.670832485637548e-05
2.652360892742403e-07,4.321268919604456e-07,2.841879721564709e-07,1.6811089109943507e-05
2.64820862483615e-07,4.290881683459311e-07,2.8487177203733065e-07,1.6911454289836497e-05
2.644893633130963e-07,4.260739165095993e-07,2.8540791027409764e-07,1.700886044334888e-05
2.642336116376297e-07,4.23091626152647e-07,2.8579217218053545e-07,1.7102840798202797e-05
2.640447012523097e-07,4.201517207632805e-07,2.8602085509316864e-07,1.719306734026555e-05
2.639127809237173e-07,4.172650652559079e-07,2.860914622588198e-07,1.7279331365294187e-05
2.6382717122476486e-07,4.1444135847885817e-07,2.860025283769404e-07,1.7361451971204432e-05
2.6377630935862205e-07,4.116899878575145e-07,2.857530638205011e-07,1.7439190124806398e-05
2.637479355938189e-07,4.09021329032381e-07,2.8534275119971646e-07,1.7512226777621232e-05
2.637300622011473e-07,4.0644759111380283e-07,2.8477333669695894e-07,1.7580189737799383e-05
2.637118057077159e-07,4.0398394489139006e-07,2.8404946963273365e-07,1.7642675395971692e-05
2.636831196193488e-07,4.0164801101623454e-07,2.831777167333992e-07,1.7699233952034626e-05
2.6363454842648767e-07,3.994567101035167e-07,2.821650274766361e-07,1.7749382469803264e-05
2.635577530188572e-07,3.974244809238484e-07,2.810176748862485e-07,1.7792744580894772e-05
2.634461802959368e-07,3.9556464453983113e-07,2.797409333136622e-07,1.7829234266873178e-05
2.632962014171195e-07,3.9388977546552493e-07,2.7833989387115933e-07,1.7859075373665123e-05
2.631085532268811e-07,3.924096533334127e-07,2.7682084716647497e-07,1.788263855835307e-05
2.6288866975002124e-07,3.9112983921686953e-07,2.7519176357896206e-07,1.7900257363076896e-05
2.626453880167848e-07,3.9005157699622295e-07,2.734617611261253e-07,1.7912138506514774e-05
2.62388557168777e-07,3.891720086146438e-07,2.716406906775193e-07,1.7918424612064873e-05
2.621266612765872e-07,3.884847627231549e-07,2.6973852217736395e-07,1.7919409530768e-05
2.6186568082091405e-07,3.8798062810281504e-07,2.6776468450273736e-07,1.7915740349668287e-05
2.616094216407882e-07,3.8764797801582546e-07,2.6572921824472736e-07,1.790841581490697e-05
2.6136112718417876e-07,3.87473237248536e-07,2.6364451120865805e-07,1.789862543378664e-05
2.611260220945016e-07,3.8744162997484346e-07,2.615245066646937e-07,1.7887589448739442e-05
2.60912862599155e-07,3.8753858700334726e-07,2.5938230057630445e-07,1.7876441157745327e-05
2.6073320417600604e-07,3.8775101505714666e-07,2.572287776393452e-07,1.786612637206968e-05
2.60599419684332e-07,3.8806656846827147e-07,2.5507258649050765e-07,1.7857333305165435e-05
2.605225458491772e-07,3.884716686433912e-07,2.5292068263025424e-07,1.7850480840601816e-05
2.605109852617546e-07,3.8895100476487095e-07,2.507786058067339e-07,1.7845755382862532e-05
2.6057090525940147e-07,3.8948897902310354e-07,2.486500389131943e-07,1.7843152101279727e-05
2.607075921124229e-07,3.9007095245436384e-07,2.4653647443849784e-07,1.784248707881763e-05
2.6092661082770766e-07,3.906839679064734e-07,2.444376724474443e-07,1.7843388205555614e-05
2.6123485768112265e-07,3.91318595597056e-07,2.4235242484494364e-07,1.7845308818866525e-05
2.6164162600126904e-07,3.919701446148522e-07,2.402791157488852e-07,1.7847591894643948e-05
2.6215808163358497e-07,3.9263753180722424e-07,2.3821603838960186e-07,1.7849556468250813e-05
2.627943691169589e-07,3.933225042081058e-07,2.361617410751398e-07,1.7850567340391406e-05
2.635568585779659e-07,3.94029656873128e-07,2.3411608739726682e-07,1.785008442560003e-05
2.6444778056276716e-07,3.947653164760577e-07,2.320830643770424e-07,1.7847691806125038e-05
2.6546640830295875e-07,3.955377392591249e-07,2.300741959805434e-07,1.7843104938081616e-05
2.6661040938309604e-07,3.9635981879390186e-07,2.2810856473303423e-07,1.7836182316329456e-05
2.678772448058024e-07,3.9724919769564993e-07,2.2620893023605413e-07,1.7826947909968267e-05
2.692653688250364e-07,3.982239091022897e-07,2.2439763214172358e-07,1.7815582121695067e-05
2.707744673429547e-07,3.9929797665129967e-07,2.2269407976765399e-07,1.7802359056380395e-05
2.72404332397836e-07,4.004796341547278e-07,2.2111413855945573e-07,1.7787561204513854e-05
2.7415292864482197e-07,4.0177119287498997e-07,2.1967115558830095e-07,1.7771409452222595e-05
2.760151417071981e-07,4.031695805940239e-07,2.1837679477976246e-07,1.7754028816273857e-05
2.7798274212881185e-07,4.046673887971457e-07,2.172411093656788e-07,1.7735470328195822e-05
2.800444675364391e-07,4.0625523299460213e-07,2.1627309732616528e-07,1.771577194888989e-05
2.821858382845468e-07,4.079265100387065e-07,2.1548189389646357e-07,1.7694997027323793e-05
2.843894538778425e-07,4.0968097032952146e-07,2.1487684529044733e-07,1.767323613993295e-05
2.866356103807764e-07,4.115218976031864e-07,2.1446552342853101e-07,1.7650607057005472e-05
2.8890285010696985e-07,4.1344978254998e-07,2.1425189760009143e-07,1.7627260358419048e-05
2.9116943093701805e-07,4.154590045203646e-07,2.1423641602469285e-07,1.760335453055172e-05
2.9341664795262863e-07,4.1753849728876774e-07,2.144164055185888e-07,1.757897501132739e-05
2.9563248687024146e-07,4.1967477657589337e-07,2.1478569517039442e-07,1.7554047653333162e-05
2.978122570759964e-07,4.21856571175722e-07,2.1533454335001998e-07,1.752831738532818e-05
2.999559778265099e-07,4.240788243598307e-07,2.1605050398126655e-07,1.7501389814017126e-05
3.0206577134962393e-07,4.2634310615996597e-07,2.1691984915249123e-07,1.7472801373409192e-05
3.041449282811609e-07,4.286541992790138e-07,2.1792890661472968e-07,1.7442121174370715e-05
3.061975867251084e-07,4.3101555665516117e-07,2.1906482570359079e-07,1.7409066142570552e-05
3.082271203390644e-07,4.3342646982895243e-07,2.203156914092576e-07,1.7373534531667984e-05
3.102337286109966e-07,4.3588125238792383e-07,2.2166968685209016e-07,1.7335517692446012e-05
3.122137278475466e-07,4.383690077245272e-07,2.2311357081456736e-07,1.7294990876339453e-05
3.141604595180012e-07,4.40873527982945e-07,2.2463227593240925e-07,1.7251881655769172e-05
3.160652538723968e-07,4.4337415712008563e-07,2.2621045989321648e-07,1.7206095741844666e-05
3.179184845354343e-07,4.4584847850474796e-07,2.2783404947870522e-07,1.7157533489102367e-05
3.197105277927062e-07,4.482757343437534e-07,2.294898956741869e-07,1.7106081472710253e-05
3.2143154225678484e-07,4.506381885013112e-07,2.3116469559182224e-07,1.7051616289509117e-05
3.230704282404191e-07,4.5292023879993963e-07,2.3284488132829852e-07,1.699408354079354e-05
3.246148307151815e-07,4.551071057436321e-07,2.3451682671396514e-07,1.6933641654720282e-05
3.260537041048191e-07,4.571836627010912e-07,2.361670357392407e-07,1.687072008910758e-05
3.27380986998887e-07,4.591347286100562e-07,2.3778332806967678e-07,1.6805905902192114e-05
3.285960185765057e-07,4.6094713220308476e-07,2.393561219154532e-07,1.673976619056638e-05
3.2970005999905e-07,4.62609969322739e-07,2.408779062339551e-07,1.667274245240749e-05
3.306934766082482e-07,4.641124956769325e-07,2.42341916498244e-07,1.6605205645303047e-05
3.3157603247809945e-07,4.654436312148125e-07,2.437424807681363e-07,1.6537689022962012e-05
3.3234893023648616e-07,4.6659265695860317e-07,2.450764906331934e-07,1.6471124354395747e-05
3.330163528103865e-07,4.6754813397158526e-07,2.4634340157750306e-07,1.6406857753275947e-05
3.335849278426439e-07,4.6829683911495e-07,2.4754384810865e-07,1.6346468333520754e-05
3.340617430171107e-07,4.6882529778876675e-07,2.48679283826917e-07,1.6291570020473487e-05
3.3445286692599394e-07,4.691228169833914e-07,2.497525341192223e-07,1.624367627996417e-05
3.3476338391835625e-07,4.69183371971755e-07,2.507672146882534e-07,1.6204110560731156e-05
3.3499869598583587e-07,4.69004688716737e-07,2.517264991219413e-07,1.6173936054642458e-05
3.351663399216795e-07,4.6858558465120365e-07,2.5263270157153396e-07,1.6153892565978782e-05
3.352777413760962e-07,4.679243437743666e-07,2.53487167336904e-07,1.6144355153859924e-05
3.35349978797361e-07,4.6701862788219784e-07,2.542900045410234e-07,1.6145339213995935e-05
3.3540620247381376e-07,4.658655091256401e-07,2.5504043108170645e-07,1.615655748351193e-05
3.3547224984860375e-07,4.6446170376408566e-07,2.5573787719748204e-07,1.6177509666187585e-05
3.3557155855159714e-07,4.62804363551019e-07,2.563829194388153e-07,1.6207573278041607e-05
3.3572252679914927e-07,4.6089176153413403e-07,2.56977611445324e-07,1.6246077006122704e-05
3.359386768228311e-07,4.5872381332930596e-07,2.575252494200739e-07,1.629236126767439e-05
3.3623056696813174e-07,4.5630291383462927e-07,2.580294749664815e-07,1.6345829928537027e-05
3.366078485301969e-07,4.53634522398692e-07,2.584933376920192e-07,1.6405985002868515e-05
3.370797903473074e-07,4.507260525116066e-07,2.589190220637705e-07,1.647243749032657e-05
3.3765449155504925e-07,4.4758502878039095e-07,2.593080417020259e-07,1.6544895140093176e-05
3.383382661088928e-07,4.44219074296452e-07,2.5966142784811845e-07,1.6623145873477827e-05
3.391369121718247e-07,4.4063666275369433e-07,2.599793988540661e-07,1.67070532654625e-05
3.400570111075114e-07,4.3684651860266894e-07,2.6026095030558877e-07,1.6796541174887218e-05
3.4110421874670767e-07,4.3285678049852097e-07,2.605044215886829e-07,1.689154433743476e-05
3.422810766111854e-07,4.2867551394846453e-07,2.607084816295077e-07,1.6991942136031432e-05
3.435872421565907e-07,4.243123234242764e-07,2.608726479837471e-07,1.7097497224983442e-05
3.45020828624987e-07,4.1977896754306827e-07,2.609977479813181e-07,1.7207827396564013e-05
3.465797490286574e-07,4.1508814225770594e-07,2.610861567508881e-07,1.7322456219207863e-05
3.4826312071957753e-07,4.102525455655377e-07,2.6114084299238444e-07,1.7440908308941193e-05
3.5007205035083235e-07,4.052847374246933e-07,2.6116379253574626e-07,1.7562749671159232e-05
3.520090656760308e-07,4.0019688942493244e-07,2.61155629426605e-07,1.7687566838127836e-05
3.540765653736519e-07,3.950010754018621e-07,2.611167384130377e-07,1.781495153113941e-05
3.5627482894086534e-07,3.897098461584779e-07,2.610483042150805e-07,1.7944511837753675e-05
3.586000448864997e-07,3.8433562755219404e-07,2.6095208693079076e-07,1.8075871645696826e-05
3.610436631789824e-07,3.7888968721326204e-07,2.608295156284252e-07,1.820861811215296e-05
3.6359337762380034e-07,3.7338295760252535e-07,2.606816255505961e-07,1.834222903477604e-05
3.662352117646099e-07,3.6782837632700746e-07,2.605105214801015e-07,1.8476034456017755e-05
3.689573541624904e-07,3.6224159011797643e-07,2.603208259060741e-07,1.8609202837100348e-05
3.7175372333692385e-07,3.566391040252593e-07,2.6011886568403876e-07,1.8740753407845947e-05
3.74622769250605e-07,3.510366233330124e-07,2.599102719831942e-07,1.8869643263742645e-05
3.7756258306623094e-07,3.454487121455707e-07,2.596985394227946e-07,1.8994900716855882e-05
3.80567198754133e-07,3.3988846079761327e-07,2.594854605962854e-07,1.9115687658119682e-05
3.836255062189178e-07,3.343674945635192e-07,2.592733980763644e-07,1.9231245942321107e-05
3.8672249089952203e-07,3.288968022068596e-07,2.5906803176693127e-07,1.934080797754633e-05
3.898424712779962e-07,3.234876697828868e-07,2.588784870722632e-07,1.944356406740609e-05
3.929725915596446e-07,3.181530036937865e-07,2.5871463531720335e-07,1.953869316188601e-05
3.9610513085918753e-07,3.129085683163033e-07,2.585848633812423e-07,1.9625395359437946e-05
3.992384993890817e-07,3.0777232120607556e-07,2.584962603622789e-07,1.9702888825199e-05
4.0237743756193045e-07,3.02762656038454e-07,2.5845646046747645e-07,1.977040590945854e-05
4.055328496987493e-07,2.9789800253298266e-07,2.584749304000236e-07,1.9827275053637244e-05
4.087207609266503e-07,2.931968423216754e-07,2.585618316956314e-07,1.9873097503432653e-05
4.1195934467245844e-07,2.886765636705228e-07,2.587255174690064e-07,1.9907857350055927e-05
4.152648614343676e-07,2.843542744068795e-07,2.5897161190498574e-07,1.993185276640657e-05
4.186497098128111e-07,2.802513072884284e-07,2.593046727008841e-07,1.9945543337398185e-05
4.2212312581250405e-07,2.763959543314932e-07,2.5972995347944505e-07,1.9949415130821647e-05
4.2569143432625063e-07,2.728200501559751e-07,2.602524952889956e-07,1.994390196722482e-05
4.293566392036261e-07,2.6955292051247736e-07,2.608751962858641e-07,1.9929447327350158e-05
4.331148612332616e-07,2.6661822669801964e-07,2.615993199631033e-07,1.9906689369919106e-05
4.3695605209098165e-07,2.640345148860713e-07,2.6242673631568544e-07,1.9876565884161826e-05
4.408649189041186e-07,2.618167222007376e-07,2.633603766287085e-07,1.9840244861688136e-05
4.448219066063034e-07,2.5997739093283557e-07,2.6440206328318374e-07,1.9798994556808192e-05
4.4880439653517464e-07,2.585279417728746e-07,2.655503133003957e-07,1.975408107508933e-05
4.5278925554183323e-07,2.5747847421867084e-07,2.6679993055864093e-07,1.9706685325920946e-05
4.567556061403103e-07,2.5683550669106376e-07,2.681429394090821e-07,1.9657826824862525e-05
4.606854244246917e-07,2.5660051061858785e-07,2.6957030472594465e-07,1.960830055039231e-05
4.6456207940557975e-07,2.5677133754403107e-07,2.7107382445515904e-07,1.9558638937678507e-05
4.6836888818322466e-07,2.5734482089479964e-07,2.726467676582291e-07,1.950910943356608e-05
4.7208933434919384e-07,2.5831684405637257e-07,2.7428321519169537e-07,1.945973873017341e-05
4.7570864488297893e-07,2.5968076378604204e-07,2.759782540136093e-07,1.941034561704076e-05
4.792142464334237e-07,2.6142954861215164e-07,2.7772894248783805e-07,1.9360581308180904e-05
4.825946324942748e-07,2.6356052656775307e-07,2.7953328431892963e-07,1.9309980577338275e-05
4.85838805589689e-07,2.660753272116415e-07,2.8138751582686053e-07,1.925801872149483e-05
4.889363183409809e-07,2.689747146271082e-07,2.8328451994981443e-07,1.920416878868685e-05
4.918767434663926e-07,2.722554957434863e-07,2.8521464582438303e-07,1.914795384089812e-05
4.946491337203167e-07,2.759114032625239e-07,2.871683740886888e-07,1.908898804601721e-05
4.972419530796875e-07,2.799334520887785e-07,2.891383065018605e-07,1.902699060631866e-05
4.996425823230892e-07,2.8430849406390125e-07,2.9111871880590805e-07,1.8961764665342042e-05
5.018366132406604e-07,2.890191624930421e-07,2.931040218395993e-07,1.8893171201605044e-05
5.038088615690162e-07,2.940458049252103e-07,2.950876345650359e-07,1.882111984159896e-05
5.055459677908959e-07,2.993672802451816e-07,2.970620308015922e-07,1.8745557998360958e-05
5.070379335865038e-07,3.049600491435615e-07,2.990200436050535e-07,1.866644547128372e-05
5.082772306313098e-07,3.107980141515767e-07,3.0095562620436605e-07,1.8583719351905986e-05
5.092569600758543e-07,3.168529222535368e-07,3.028628548373096e-07,1.8497274348069283e-05
5.099699123937186e-07,3.2309406197113855e-07,3.047348462133295e-07,1.840699767144739e-05
5.104083677640463e-07,3.2948825574957317e-07,3.065643794737888e-07,1.8312836293260398e-05
5.105643815385459e-07,3.360008065670802e-07,3.083451576039589e-07,1.8214834783455586e-05
5.104312943798597e-07,3.4259730036132934e-07,3.100720581674133e-07,1.8113134484057778e-05
5.100060076746939e-07,3.4924528339816194e-07,3.117409343927324e-07,1.8007950872288144e-05
5.092905534488022e-07,3.559139100295957e-07,3.133486675379364e-07,1.7899538893799745e-05
5.082923954380356e-07,3.625721290699378e-07,3.1489284633403976e-07,1.778815252075512e-05
5.070234904694378e-07,3.691881132116768e-07,3.163710677573392e-07,1.7673989660105404e-05
5.05497750510739e-07,3.757314565651183e-07,3.177802265152988e-07,1.7557138393524293e-05
5.037277002126766e-07,3.821766319548987e-07,3.191156849225992e-07,1.7437575243093325e-05
5.017226007482344e-07,3.885044043910271e-07,3.203711887571133e-07,1.7315229551893376e-05
4.994887837686647e-07,3.947000440614483e-07,3.215400018908776e-07,1.7190068559221163e-05
4.970308916080404e-07,4.007500026951713e-07,3.226155085844301e-07,1.7062162364636686e-05
4.943526463453036e-07,4.066394922772247e-07,3.235906933274016e-07,1.6931728210841926e-05
4.914566137264595e-07,4.123523968559328e-07,3.244584102244618e-07,1.6799139800371826e-05
4.883436618900426e-07,4.1787229839907406e-07,3.252124055380351e-07,1.666486926815939e-05
4.850132687162347e-07,4.231824040981492e-07,3.2584715743579737e-07,1.652938657566453e-05
4.814647602135723e-07,4.2826459059196737e-07,3.263570882038675e-07,1.6393089434881413e-05
4.776993735869684e-07,4.330991803344637e-07,3.2673684359485944e-07,1.6256291552179082e-05
4.737233288022872e-07,4.3766549213134e-07,3.269818257598155e-07,1.6119228730066316e-05
4.695500258598009e-07,4.4194273167027714e-07,3.2708778115996127e-07,1.5982049694784302e-05
4.6519964608089154e-07,4.4591151182148646e-07,3.2705077884026253e-07,1.5844810481732345e-05
4.60698609615189e-07,4.4955504610583924e-07,3.268684129270086e-07,1.5707534445047653e-05
4.560798147968501e-07,4.5285885328153497e-07,3.2654058557029983e-07,1.5570377243979265e-05
4.5138057649325755e-07,4.558112215652644e-07,3.2606878959599944e-07,1.543378452728995e-05
4.4663967095110815e-07,4.584071595682045e-07,3.254545413896073e-07,1.529847480455642e-05
4.4189638565177975e-07,4.606527472686945e-07,3.2469849032539413e-07,1.5165277554227353e-05
4.371886243577023e-07,4.625640443427397e-07,3.2380134395977576e-07,1.5034972114342005e-05
4.3254907519398793e-07,4.6416097813515035e-07,3.227652479212816e-07,1.4908210019890168e-05
4.280033338538906e-07,4.65462485513326e-07,3.21593790444083e-07,1.4785596722246455e-05
4.2357146266835424e-07,4.6648590093732893e-07,3.202915422629269e-07,1.4667915565788407e-05
4.1927058826086617e-07,4.6724772541415174e-07,3.188639932413732e-07,1.4556279066704325e-05
4.151155728768418e-07,4.677631248950986e-07,3.173174219950485e-07,1.4452070089348886e-05
4.1111832803678925e-07,4.6804490880225753e-07,3.1565948721248753e-07,1.4356779625543329e-05
4.072885976025757e-07,4.6810329607774884e-07,3.139005170773921e-07,1.4271868424191092e-05
4.0363589964144564e-07,4.6794622481463136e-07,3.120534553384715e-07,1.4198667376035516e-05
4.0017089896162575e-07,4.6757964659155293e-07,3.10132393353565e-07,1.4138299904399948e-05
3.9690565540052454e-07,4.670087374216322e-07,3.081515689561031e-07,1.4091633290827778e-05
3.938520790059564e-07,4.6624115373592406e-07,3.06125586210815e-07,1.4059267674231894e-05
3.910193381231175e-07,4.652902405807806e-07,3.0407053332023576e-07,1.40415575521638e-05
3.8841354631468255e-07,4.641750485694165e-07,3.020046607896659e-07,1.4038652768059277e-05
3.8604157649810586e-07,4.629170336412404e-07,2.99947223991133e-07,1.4050521036606366e-05
3.839154278522825e-07,4.6153565187951967e-07,2.9791628711338017e-07,1.4076919153596009e-05
3.820528478461112e-07,4.600458134267685e-07,2.959268012735433e-07,1.4117346507936457e-05
3.8047501417376706e-07,4.5845838475279207e-07,2.939897042425375e-07,1.4171047578143994e-05
3.792037794168653e-07,4.5678184074598027e-07,2.9211309930331943e-07,1.4237096483632889e-05
3.782592461050832e-07,4.550233955385339e-07,2.903045978068511e-07,1.4314536949913528e-05
3.776579619702648e-07,4.531906400077062e-07,2.885722121838409e-07,1.4402500034823245e-05
3.774118147018374e-07,4.512937150914682e-07,2.8692358872294444e-07,1.4500245791862307e-05
3.7752773749777825e-07,4.493447084286004e-07,2.853653500199771e-07,1.4607150135078036e-05
3.780085299470611e-07,4.473539935814245e-07,2.839025966936977e-07,1.4722677838030015e-05
3.788541642228033e-07,4.4532807584645605e-07,2.825377615519846e-07,1.4846360053046561e-05
3.8006314802668e-07,4.4327055400697825e-07,2.8127010099293297e-07,1.4977775803020676e-05
3.8163318819184066e-07,4.411834928614679e-07,2.800971762489212e-07,1.5116514652477826e-05
3.8355968157261866e-07,4.3906875405232494e-07,2.790167467892124e-07,1.526210809322772e-05
3.858344915810058e-07,4.3693018468847607e-07,2.7802664807298065e-07,1.5413961644693048e-05
3.884476236434839e-07,4.347737432875474e-07,2.771230490859242e-07,1.5571338410773485e-05
3.913888206149886e-07,4.3260418882698727e-07,2.762993028004953e-07,1.5733398683919496e-05
3.9464712551935466e-07,4.304225008349932e-07,2.755461920943972e-07,1.5899234710783224e-05
3.98210485521021e-07,4.2822688392823994e-07,2.7485322026587357e-07,1.6067863473301748e-05
4.020670682434265e-07,4.260155833927253e-07,2.7421040393765557e-07,1.6238211725419758e-05
4.0620800989823044e-07,4.237885270255453e-07,2.73609713645765e-07,1.6409133019851432e-05
4.1062880857926935e-07,4.2154734746972463e-07,2.7304531482821327e-07,1.657945381103301e-05
4.153266143361099e-07,4.192951051020082e-07,2.725122898139202e-07,1.6748002408232992e-05
4.2029567439294293e-07,4.170360417879234e-07,2.720051814053428e-07,1.691358856956075e-05
4.2552531547132113e-07,4.147767908579208e-07,2.715182161418357e-07,1.7074974516826572e-05
4.3100060624214677e-07,4.125301075216053e-07,2.710464809773758e-07,1.7230897571917127e-05
4.3670480255615007e-07,4.103170806345129e-07,2.7058571327371674e-07,1.738013980527154e-05
4.426249046686402e-07,4.08163949246285e-07,2.701310788401112e-07,1.7521599486563198e-05
4.487571735169116e-07,4.060962748032832e-07,2.6967744844272927e-07,1.7654357886733192e-05
4.5510621159895296e-07,4.041353763737133e-07,2.69220575130223e-07,1.777773291412088e-05
4.616782599645501e-07,4.0229795543664076e-07,2.687570668424387e-07,1.7891260644605754e-05
4.684750450309242e-07,4.0059669531933603e-07,2.682837074949087e-07,1.7994595358952822e-05
4.754920933205536e-07,3.9904043266559683e-07,2.677968687105457e-07,1.8087403872705287e-05
4.827199096428613e-07,3.976350353257656e-07,2.6729245358474217e-07,1.8169329648636928e-05
4.901435861153711e-07,3.9638683616407963e-07,2.667670228181284e-07,1.8240037313998064e-05
4.977404740480769e-07,3.953078067739e-07,2.662184582050388e-07,1.8299278129366047e-05
5.054793533340138e-07,3.944186890847222e-07,2.6564492642967527e-07,1.8346905496058007e-05
5.133219009925347e-07,3.937469906274072e-07,2.650436958531973e-07,1.838285120302858e-05
5.212248607181602e-07,3.933209412476622e-07,2.644107980022972e-07,1.840716997025512e-05
5.291423472124462e-07,3.9316363253982405e-07,2.637412446975738e-07,1.8420147348731398e-05
5.370286930212562e-07,3.9329093904499176e-07,2.630294995337753e-07,1.8422296689305137e-05
5.448413455280258e-07,3.937151114666396e-07,2.622701196687779e-07,1.8414216302706934e-05
5.52543821965108e-07,3.9445096393200633e-07,2.614587648117985e-07,1.839645707935796e-05
5.601100241329994e-07,3.955168046034038e-07,2.605927843388073e-07,1.8369501669294715e-05
5.675262706212255e-07,3.9692857583556106e-07,2.596705815672756e-07,1.8333902353754355e-05
5.747858618842842e-07,3.9869397431581967e-07,2.5869096424552256e-07,1.8290529142985555e-05
5.81880861339985e-07,4.0081061311290865e-07,2.576532624407692e-07,1.824071666186617e-05
5.887986536231531e-07,4.032673160508821e-07,2.56557669149511e-07,1.818618207491949e-05
5.955240335492358e-07,4.060476505401279e-07,2.5540575554923373e-07,1.8128831964364608e-05
6.020444006436664e-07,4.0913316451999506e-07,2.542004243171626e-07,1.807058748184775e-05
6.083534627252999e-07,4.125029140187335e-07,2.529448125822514e-07,1.8013227782980766e-05
6.144503579209544e-07,4.1613114404827154e-07,2.5164176895306877e-07,1.7958244471980555e-05
6.203374999234312e-07,4.199873662325385e-07,2.5029445200139406e-07,1.7906748165174607e-05
6.260196811657953e-07,4.240390533704399e-07,2.489064596679471e-07,1.7859454345863127e-05
6.315021792739331e-07,4.2825370479791814e-07,2.4748115927589865e-07,1.7816722365419722e-05
6.36786871020671e-07,4.3259826921916323e-07,2.460215766103641e-07,1.7778605356355112e-05
6.418689255921998e-07,4.370380793766408e-07,2.4453148750085373e-07,1.7744895913503607e-05
6.467362088592394e-07,4.4153800160232457e-07,2.430168731685328e-07,1.771517654594191e-05
6.513706307449581e-07,4.4606494659646547e-07,2.4148600993678477e-07,1.768889039020431e-05
6.557497677438417e-07,4.5058874501906815e-07,2.399475911444569e-07,1.7665430490375428e-05
6.598481979908904e-07,4.550805369762624e-07,2.3840883523030014e-07,1.7644226451573848e-05
6.63639236411881e-07,4.5951143091364565e-07,2.368752910951177e-07,1.7624813800764457e-05
6.670981450586765e-07,4.63853080586284e-07,2.3535170791275333e-07,1.7606878104045084e-05
6.702060926914099e-07,4.680785068293069e-07,2.3384266999215828e-07,1.7590260845561753e-05
6.729521734109403e-07,4.7216258283174047e-07,2.3235241203137407e-07,1.7574931314191657e-05
6.753320851654374e-07,4.7608328459658454e-07,2.3088412549429298e-07,1.7560950738652452e-05
6.773447483682516e-07,4.798223122135322e-07,2.2943959411028753e-07,1.754844243498054e-05
6.789892933530711e-07,4.83363452982225e-07,2.280195307916224e-07,1.7537561599393334e-05
6.802638445354654e-07,4.866910498879163e-07,2.26624122983452e-07,1.752845431906116e-05
6.811650430657422e-07,4.897903505458925e-07,2.2525333508725208e-07,1.7521200854438398e-05
6.816872828902334e-07,4.9264809789147e-07,2.2390761220857505e-07,1.751576261198601e-05
6.818228283906928e-07,4.952524658067005e-07,2.2258950499494328e-07,1.7511985116539333e-05
6.815629243310458e-07,4.975939901756757e-07,2.213049822958634e-07,1.75096734689125e-05
6.808981695459657e-07,4.996690599083822e-07,2.200630312018853e-07,1.7508665217502074e-05
6.79818025231844e-07,5.014838587106471e-07,2.1887368001947576e-07,1.7508838004737182e-05
6.783108950705436e-07,5.030547507935164e-07,2.1774588708722683e-07,1.7510077872786222e-05
6.763655814674129e-07,5.044042744356373e-07,2.1668671952396325e-07,1.7512246393816565e-05
6.739733785767532e-07,5.055559476978241e-07,2.1570150301895928e-07,1.7515155878937685e-05
