1.2980425064050191e-06,2.817077943603507e-06,7.746153573215851e-07,1.7144667245100596e-05
1.3099274636054064e-06,2.7925183479731533e-06,7.78662151339914e-07,1.7399729396209868e-05
1.3213376494854151e-06,2.7692081115699007e-06,7.826877120826394e-07,1.7652276172844864e-05
1.332264929203437e-06,2.747190057046317e-06,7.866888817054624e-07,1.790085724571001e-05
1.3426992903804493e-06,2.7265863056100607e-06,7.906527509788211e-07,1.814398604952631e-05
1.352622587857638e-06,2.707598137378082e-06,7.945577446309427e-07,1.838011451587898e-05
1.3620071732976962e-06,2.69046474030337e-06,7.983754637835652e-07,1.8607649484857128e-05
1.370816901955955e-06,2.6754104223213937e-06,8.020726944544588e-07,1.8825002742970625e-05
1.3790102356375634e-06,2.6626223656620133e-06,8.056126823463091e-07,1.903066782862535e-05
1.386546242885747e-06,2.6522679322382883e-06,8.089556241995513e-07,1.9223372512602052e-05
1.3933883885737423e-06,2.644521605564093e-06,8.120598568084484e-07,1.940233514144537e-05
1.3995025543779292e-06,2.6395760512691707e-06,8.148849359284194e-07,1.9567465572785386e-05
1.4048539662372721e-06,2.637631072594288e-06,8.173970394275829e-07,1.9719295415869768e-05
1.4094070126482314e-06,2.63886393217938e-06,8.195755447682469e-07,1.9858703311736305e-05
1.413127446724745e-06,2.643401378272795e-06,8.214154502566856e-07,1.9986676831238118e-05
1.415986442818161e-06,2.6513191231728684e-06,8.22921325086999e-07,2.0104186030553672e-05
1.4179664433282983e-06,2.662665711042444e-06,8.240973676728555e-07,2.0212137977157585e-05
1.4190680116296854e-06,2.677483292000131e-06,8.249416034199182e-07,2.0311442053665946e-05
1.4193141952241487e-06,2.695808863900793e-06,8.254459957933038e-07,2.0403129722841892e-05
1.4187476439611137e-06,2.7176584676242125e-06,8.255997507185248e-07,2.0488364035368145e-05
1.4174208880736342e-06,2.7430088967433624e-06,8.253925000678611e-07,2.0568320246364397e-05
1.4153857595284623e-06,2.7717998608583758e-06,8.248151617318497e-07,2.0644053419917088e-05
1.4126865027074396e-06,2.803957400383188e-06,8.238607789127829e-07,2.0716417623590382e-05
1.409356710563903e-06,2.8394038180853237e-06,8.225287306741524e-07,2.0786044233226684e-05
1.4054195365369863e-06,2.878038906190718e-06,8.208309654066707e-07,2.0853363425272523e-05
1.4008899508224444e-06,2.919731163055435e-06,8.187966986804401e-07,2.0918646052416305e-05
1.3957768215720457e-06,2.964350056508045e-06,8.164721487445545e-07,2.098206290118156e-05
1.3900858862884277e-06,3.011805474784352e-06,8.139135370190767e-07,2.104374683883474e-05
1.3838244838574446e-06,3.0620428734871507e-06,8.11178573090868e-07,2.1103812729024536e-05
1.3770047141303525e-06,3.1149971223602886e-06,8.083222297675059e-07,2.116233156090612e-05
1.369643499713103e-06,3.17055387158472e-06,8.053946928345661e-07,2.121930487664036e-05
1.361760479139773e-06,3.228548685350103e-06,8.024393131991016e-07,2.127464594588867e-05
1.3533738899559109e-06,3.2887874178301213e-06,7.994916688525395e-07,2.1328148822802013e-05
1.344496563494744e-06,3.351060911435814e-06,7.96579153573544e-07,2.137947599968052e-05
1.3351346619321888e-06,3.4151514972988773e-06,7.937203165783698e-07,2.1428206729681532e-05
1.325289496216654e-06,3.4808432706005424e-06,7.909246341892358e-07,2.147392403734073e-05
1.314962385594937e-06,3.547937052597245e-06,7.881936169338231e-07,2.1516285842821413e-05
1.304160508612e-06,3.6162586898950165e-06,7.855232491607941e-07,2.155505812520473e-05
1.2928985514708994e-06,3.6856534191578093e-06,7.829067692017557e-07,2.15901037250452e-05
1.2811942739633327e-06,3.7559647772986055e-06,7.803379780244392e-07,2.1621317786281822e-05
1.2690642348936923e-06,3.8270039013373135e-06,7.77814674055424e-07,2.164854001468689e-05
1.2565273768337641e-06,3.898528101181759e-06,7.753402453523034e-07,2.1671495270375424e-05
1.2436142585463086e-06,3.970239750623461e-06,7.729250740564231e-07,2.168977942489504e-05
1.230370791035247e-06,4.041796682376302e-06,7.705881215801335e-07,2.1702903886061925e-05
1.2168515581742192e-06,4.1128280152793366e-06,7.683535453256386e-07,2.1710386070067785e-05
1.2031104318781343e-06,4.182953423205394e-06,7.66245006041874e-07,2.171179958140644e-05
1.1891961924946735e-06,4.251794342942788e-06,7.642863543044276e-07,2.170675167509626e-05
1.175152769039751e-06,4.31897266691364e-06,7.625053568365509e-07,2.1694863292103035e-05
1.1610220138459793e-06,4.3841102412487485e-06,7.609315550796309e-07,2.167580267706102e-05
1.1468478622884217e-06,4.446839963630043e-06,7.595895374158499e-07,2.1649352819061333e-05
1.132680599035221e-06,4.5068205302236645e-06,7.584938436613967e-07,2.161546092287244e-05
1.1185818856822357e-06,4.563739989207448e-06,7.576480611057824e-07,2.157423095951992e-05
1.1046276045542507e-06,4.617313041452189e-06,7.570485115225667e-07,2.1525886836251026e-05
1.090901204093665e-06,4.6672966488056095e-06,7.566908651560944e-07,2.147075256542855e-05
1.0774807423603194e-06,4.7135318129647735e-06,7.565738872546769e-07,2.1409227881733348e-05
1.064431525229062e-06,4.7559839694807645e-06,7.566959405840987e-07,2.1341725517168506e-05
1.0518059283120323e-06,4.794746569038166e-06,7.570487329000766e-07,2.1268620087581533e-05
1.0396439793172186e-06,4.82999942005107e-06,7.576156532828402e-07,2.119026640876209e-05
1.0279741388811236e-06,4.861946731805606e-06,7.583741999138606e-07,2.1107036804184608e-05
1.016815501433618e-06,4.890773916387026e-06,7.592985404718971e-07,2.101929592209304e-05
1.0061790948264564e-06,4.916640965315094e-06,7.603629611196769e-07,2.092731829057829e-05
9.960699794582314e-07,4.939689622824559e-06,7.615465346151786e-07,2.08312156609082e-05
9.864929204643095e-07,4.960036760682736e-06,7.628341928504323e-07,2.073092017727812e-05
9.77455621800639e-07,4.9777609703889225e-06,7.642124260259544e-07,2.062622289432605e-05
9.689640211039422e-07,4.992900045413196e-06,7.656647357289152e-07,2.0516860330544613e-05
9.610153630230714e-07,5.005455630951347e-06,7.671701788267684e-07,2.0402669491530562e-05
9.535971150717716e-07,5.0153966024372685e-06,7.687035755071551e-07,2.0283833963893012e-05
9.466949580080002e-07,5.022664612073957e-06,7.702364986637671e-07,2.016112355704408e-05
9.403083987058641e-07,5.027185958876609e-06,7.717406450718295e-07,2.0035924512133208e-05
9.344638089449098e-07,5.028889298742116e-06,7.731961545037219e-07,1.991003260694834e-05
9.292133269514764e-07,5.027727394495717e-06,7.746030957880722e-07,1.978539163606545e-05
9.246203510452104e-07,5.023697269500243e-06,7.759857144649315e-07,1.9663884163665383e-05
9.207416467958135e-07,5.016850830421742e-06,7.773824706888809e-07,1.954718667689687e-05
9.176162344700876e-07,5.0072922356598185e-06,7.788306022363944e-07,1.943675632099455e-05
9.152649502077197e-07,4.9951626152883136e-06,7.803566410907973e-07,1.9333933254227806e-05
9.136954022242994e-07,4.980615124632907e-06,7.819741302780881e-07,1.9239997663331874e-05
9.1290533314125e-07,4.9637889221274014e-06,7.836853620509091e-07,1.9156133199358428e-05
9.128834882341036e-07,4.944793359646534e-06,7.854842152422605e-07,1.908338385372537e-05
9.136115539946634e-07,4.923704559951955e-06,7.87357846354012e-07,1.9022628026267247e-05
9.150689577322756e-07,4.900570030571352e-06,7.892873420358006e-07,1.8974542468295705e-05
9.172369546112765e-07,4.875421012201246e-06,7.912498806486615e-07,1.8939565227036097e-05
9.200987736639908e-07,4.848292083013134e-06,7.932240268426614e-07,1.891788315666156e-05
9.236397421452502e-07,4.8192419418365305e-06,7.951938372458632e-07,1.890944814917073e-05
9.278504449443418e-07,4.7883646668485425e-06,7.971464987176061e-07,1.891400145105138e-05
9.327262006197565e-07,4.7557810989832605e-06,7.99067022693693e-07,1.8931069602034774e-05
9.382593902083788e-07,4.721613774391365e-06,8.009359243520035e-07,1.895992918361255e-05
9.444343653954901e-07,4.685964764958056e-06,8.027290324338459e-07,1.899959702139089e-05
9.512301750490393e-07,4.648910769327562e-06,8.044172838409841e-07,1.904887954802868e-05
9.586224932280899e-07,4.610510590691773e-06,8.059670603456725e-07,1.9106447872987635e-05
9.665790559358299e-07,4.570814442648124e-06,8.073412084309054e-07,1.917089883518784e-05
9.750536657686942e-07,4.529873968484809e-06,8.08500940225387e-07,1.9240791271156726e-05
9.839856648563866e-07,4.487752990859403e-06,8.094091234244093e-07,1.931466527862831e-05
9.933077034735875e-07,4.444529500847519e-06,8.100328532964371e-07,1.9391068071123887e-05
1.0029566027744959e-06,4.400283560463093e-06,8.10343029493118e-07,1.946860370124145e-05
1.0128764259656743e-06,4.3550872381394255e-06,8.103127398272035e-07,1.954597384629937e-05
1.0230132204174823e-06,4.309015320765565e-06,8.099167758447422e-07,1.962196229258893e-05
1.033312391169269e-06,4.262167905886712e-06,8.091314062475107e-07,1.9695384055928905e-05
1.0437221130571768e-06,4.2146819053078045e-06,8.079335004620173e-07,1.976505003515481e-05
1.0541994470165483e-06,4.1667254715437825e-06,8.063003498854682e-07,1.982976123192884e-05
1.0647203449475343e-06,4.118483552380585e-06,8.042111198331637e-07,1.9888356690466063e-05
1.0752892389016126e-06,4.0701405929328536e-06,8.016484797059755e-07,1.993983044933244e-05
1.0859350087005765e-06,4.021864022210526e-06,7.98599893834608e-07,1.9983432457937423e-05
1.09669288139495e-06,3.973792385383815e-06,7.950611531094646e-07,2.0018660842145512e-05
1.107590812580276e-06,3.926030190007378e-06,7.910419537461484e-07,2.004517802184433e-05
1.1186499399534262e-06,3.87865136217192e-06,7.865684140693445e-07,2.006273608781205e-05
1.1298883635824152e-06,3.8317112303167e-06,7.816790098916515e-07,2.0071142886709844e-05
1.141321435743389e-06,3.785258689304197e-06,7.76415894994217e-07,2.007023861326723e-05
1.1529609366067354e-06,3.739337183746064e-06,7.708177677938314e-07,2.0059846183317693e-05
1.1648115108570477e-06,3.693974756909288e-06,7.649185499852106e-07,2.003971800447433e-05
1.1768645115377842e-06,3.649176702346827e-06,7.587501748471388e-07,2.0009538161109844e-05
1.1890941070798916e-06,3.604931996201052e-06,7.523454493461882e-07,1.9969004455852115e-05
1.2014571522294168e-06,3.5612297442719008e-06,7.457381292023624e-07,1.9917967718326807e-05
1.2138955252305148e-06,3.518072046448929e-06,7.389605376914045e-07,1.985656973759007e-05
1.2263407431774751e-06,3.475474481028366e-06,7.320418013584819e-07,1.9785290578037697e-05
1.2387206337961986e-06,3.4334579800011916e-06,7.250079349934626e-07,1.970485698340097e-05
1.2509640593409383e-06,3.3920418403818162e-06,7.178825258357677e-07,1.9616075516197143e-05
1.2630001507831685e-06,3.351241311554927e-06,7.106865677420265e-07,1.9519705541876635e-05
1.274756486557545e-06,3.311067432929377e-06,7.034370743329713e-07,1.941643780615831e-05
1.2861634290789128e-06,3.271527457292824e-06,6.961465190249997e-07,1.9306947487553447e-05
1.2971642783862706e-06,3.2326236135402814e-06,6.888244876863234e-07,1.9191935139733305e-05
1.3077231709874174e-06,3.194352851802332e-06,6.814795392496415e-07,1.907211469193533e-05
1.3178253464887388e-06,3.1567181987824432e-06,6.741204999589867e-07,1.8948178211131614e-05
1.3274709011089826e-06,3.1197532408795573e-06,6.667604143413731e-07,1.882081010546673e-05
1.3366646204971391e-06,3.0835422127690534e-06,6.594240285231914e-07,1.8690773235640646e-05
1.345406937894358e-06,3.048215276264188e-06,6.521531664953682e-07,1.8558950523951308e-05
1.3536898711038308e-06,3.0139185287731085e-06,6.450049367857141e-07,1.8426252133422687e-05
1.3614952644527431e-06,2.980780586405203e-06,6.380439174294401e-07,1.8293473638744445e-05
1.3687945248190349e-06,2.948895059797897e-06,6.313344596460652e-07,1.8161246866867915e-05
1.3755517984870156e-06,2.918320097936101e-06,6.249426561802534e-07,1.8030166132003416e-05
1.3817274109867417e-06,2.889091517399096e-06,6.189494798762825e-07,1.79010238040571e-05
1.3872797630495652e-06,2.861245116066127e-06,6.134603778013064e-07,1.7774937120694002e-05
1.3921689032650666e-06,2.8348321864828825e-06,6.085998768034805e-07,1.7653261074092495e-05
1.3963608111205003e-06,2.8099142651204425e-06,6.044969507215972e-07,1.753740625358515e-05
1.3998314214528872e-06,2.786547801299847e-06,6.012701688435354e-07,1.7428675101633972e-05
1.4025733156395044e-06,2.764781480884768e-06,5.990159498928764e-07,1.732812887632269e-05
1.4046005572612613e-06,2.7446660078844623e-06,5.978026081795071e-07,1.723649471291441e-05
1.4059444274585918e-06,2.7262538207155737e-06,5.976728429754502e-07,1.7154139194040065e-05
1.4066440367090249e-06,2.709582302216824e-06,5.986515312775795e-07,1.7081107515536233e-05
1.4067437849148388e-06,2.694657844979064e-06,6.00750446268771e-07,1.7017191484318327e-05
1.4063032722384779e-06,2.6814505635228527e-06,6.039671873626593e-07,1.696198611624885e-05
1.4054094767747408e-06,2.6698961368883593e-06,6.082837841341698e-07,1.691492307888591e-05
1.4041784414344706e-06,2.659906672065693e-06,6.136676666560547e-07,1.687529553441174e-05
1.4027491349014314e-06,2.651389077767422e-06,6.200733476454181e-07,1.6842283345533345e-05
1.4012764400375332e-06,2.6442551405294017e-06,6.274439122006065e-07,1.6814976624348394e-05
1.3999195431999756e-06,2.6384215580593813e-06,6.357127931625123e-07,1.6792415740856347e-05
1.3988247371180142e-06,2.633824282793296e-06,6.448085255153522e-07,1.67736657186102e-05
1.398113760896813e-06,2.6304561300283192e-06,6.546614049343731e-07,1.6757893588912184e-05
1.397884630423157e-06,2.6283967093620447e-06,6.652053641071742e-07,1.6744406857254e-05
1.3982177104119465e-06,2.6277979675764703e-06,6.763746174513744e-07,1.6732666435631078e-05
1.3991766197590602e-06,2.628833436509619e-06,6.881008285617821e-07,1.6722303465229278e-05
1.4008032067889449e-06,2.6316627644413484e-06,7.003120554340025e-07,1.6713127847680397e-05
1.4031130709032155e-06,2.636433140527428e-06,7.129313526080419e-07,1.670512029525999e-05
1.4060962817993642e-06,2.643281142125751e-06,7.25875326491276e-07,1.6698444064699368e-05
1.409723035185106e-06,2.652315632725984e-06,7.390554450233457e-07,1.6693474790968827e-05
1.413949073100068e-06,2.663611646356028e-06,7.523847940957435e-07,1.6690752975227198e-05
1.4187179035112313e-06,2.6772304782316718e-06,7.657888276558666e-07,1.6690824190916586e-05
1.4239647230321168e-06,2.693236459447073e-06,7.792125938509807e-07,1.6694112477417835e-05
1.4296255249725241e-06,2.711684206665944e-06,7.926179842064281e-07,1.6700935524611205e-05
1.4356458531707481e-06,2.73259105150674e-06,8.059747371796198e-07,1.6711570585060926e-05
1.4419817203103943e-06,2.7559291846770145e-06,8.192533395660952e-07,1.6726277444851502e-05
1.4485931279232495e-06,2.781647934083564e-06,8.324214731448689e-07,1.6745301865096528e-05
1.4554358672296766e-06,2.809703477627243e-06,8.454427931689027e-07,1.676888455801399e-05
1.4624548538694497e-06,2.8400719167365438e-06,8.582790701482956e-07,1.6797242248984438e-05
1.4695817226003656e-06,2.872739312654985e-06,8.708949683356987e-07,1.683049480836067e-05
1.476739100402467e-06,2.907675445704927e-06,8.832634070410152e-07,1.6868587601923467e-05
1.4838469936702603e-06,2.9448098224384425e-06,8.95370057833353e-07,1.6911274336006783e-05
1.4908243285955695e-06,2.984027648908878e-06,9.072126818448593e-07,1.6958148256305906e-05
1.4975888795530588e-06,3.025180299254388e-06,9.187926004741647e-07,1.700870345246275e-05
1.5040634414889127e-06,3.068090424793278e-06,9.301044038874263e-07,1.7062487042978265e-05
1.5101854483791524e-06,3.1125464843131742e-06,9.411320382842095e-07,1.7119359224730772e-05
1.5159108303960843e-06,3.1583006144443287e-06,9.518520393740593e-07,1.7179709813960582e-05
1.5212093555246671e-06,3.205081247967076e-06,9.62238550264779e-07,1.724446189705612e-05
1.526057443209673e-06,3.2526118394073918e-06,9.72265796264915e-07,1.73148898764567e-05
1.5304359279436845e-06,3.3006177067427016e-06,9.819078347864929e-07,1.739238561792547e-05
1.5343302853172625e-06,3.3488205369524085e-06,9.911365396763706e-07,1.7478225138820433e-05
1.5377254409873464e-06,3.396938087030978e-06,9.999194137531499e-07,1.7573374162837804e-05
1.5405977574612875e-06,3.4446926907905305e-06,1.0082190303905173e-06,1.767843513329875e-05
1.5429121808553868e-06,3.491813409832626e-06,1.0159936479247546e-06,1.7793783916369386e-05
1.5446247226026198e-06,3.5380283979160287e-06,1.023199070105664e-06,1.7919811085599453e-05
1.5456860717770581e-06,3.5830594177693834e-06,1.0297931172604635e-06,1.805708498312872e-05
1.5460446059170426e-06,3.626625298124798e-06,1.03574039328031e-06,1.820629137685925e-05
1.5456484765605634e-06,3.6684491429742277e-06,1.0410145939927457e-06,1.8368035741021482e-05
1.5444462855326343e-06,3.708263257895809e-06,1.0456011300091012e-06,1.8542716919508232e-05
1.5423873867940991e-06,3.745814985103137e-06,1.0495007493841294e-06,1.873052348759482e-05
1.53942312959179e-06,3.780873632992388e-06,1.0527292326572201e-06,1.8931481673346e-05
1.5355075952279942e-06,3.8132305293657584e-06,1.0553128175835431e-06,1.9145502082106373e-05
1.5305970247107166e-06,3.842691745058612e-06,1.0572828927540156e-06,1.937239806674731e-05
1.524650220231273e-06,3.86907134727101e-06,1.058670109590032e-06,1.961187446168735e-05
1.5176302380374658e-06,3.8921936443057094e-06,1.0594993637556913e-06,1.9863501810916502e-05
1.5095051783615243e-06,3.9119085885352935e-06,1.0597898516590375e-06,2.0126686572703658e-05
1.500248619520331e-06,3.928108977912567e-06,1.0595597933726248e-06,2.040064408952402e-05
1.4898439534315148e-06,3.9407297772978525e-06,1.058830829226079e-06,2.0684373851197365e-05
1.4782941718315174e-06,3.949730705345298e-06,1.057628730392148e-06,2.0976627697924678e-05
1.465629018723361e-06,3.9550862630015055e-06,1.0559814114877103e-06,2.127588111230892e-05
1.4519012137798491e-06,3.956793509295478e-06,1.0539165684159096e-06,2.1580345177775103e-05
1.4371781255516915e-06,3.9548784893109986e-06,1.0514593493821256e-06,2.1888024218005495e-05
1.421540154520217e-06,3.9493892294486535e-06,1.0486303413011592e-06,2.219677866851749e-05
1.4050833820693787e-06,3.9403912739422805e-06,1.0454441245924614e-06,2.250437426906285e-05
1.3879158723522768e-06,3.92797730498539e-06,1.041908447357187e-06,2.2808523857803198e-05
1.3701464798715964e-06,3.912281145715581e-06,1.0380256649079376e-06,2.310691260191296e-05
1.3518747951614977e-06,3.893488645463634e-06,1.033796207279142e-06,2.3397203793436475e-05
1.333188178329485e-06,3.871845941905529e-06,1.0292216115763883e-06,2.3677061936815703e-05
1.3141651879036913e-06,3.847658961975178e-06,1.0243062072243331e-06,2.3944231666303145e-05
1.2948828592446492e-06,3.82127345376118e-06,1.019057232573524e-06,2.4196638119368344e-05
1.2754257118410428e-06,3.793045680024955e-06,1.0134836922064664e-06,2.443242537173244e-05
1.2558915089310131e-06,3.763342806078914e-06,1.007596265358747e-06,2.464991341029595e-05
1.2363884211735627e-06,3.7325866379753616e-06,1.0014110833100186e-06,2.484753793226104e-05
1.2170265113411341e-06,3.7012954409670084e-06,9.949564318679204e-07,2.502384717162976e-05
1.1979107175315469e-06,3.670079565809957e-06,9.882775339087902e-07,2.5177573711888448e-05
1.1791363450384071e-06,3.639591423540817e-06,9.814362878902234e-07,2.5307731213974732e-05
1.160784657913992e-06,3.610456986384361e-06,9.7450647825718e-07,2.5413689956183825e-05
1.142920703596218e-06,3.5832274311910766e-06,9.675665206491152e-07,2.549523842493804e-05
1.1255978360383095e-06,3.5583687664575105e-06,9.606917226224659e-07,2.555262389449812e-05
1.1088668301284219e-06,3.536264528698336e-06,9.53947230685272e-07,2.558650612437296e-05
1.0927806459101978e-06,3.5172123906485916e-06,9.473837927819029e-07,2.559781785371797e-05
1.0773902517437919e-06,3.50142384610205e-06,9.410397253887173e-07,2.558764135060749e-05
1.062737604189222e-06,3.489029974958397e-06,9.349481770004808e-07,2.5557170694469657e-05
1.0488536770793236e-06,3.480091796238915e-06,9.291430742737995e-07,2.5507726076093172e-05
1.0357598150413995e-06,3.474615992034884e-06,9.236602424689842e-07,2.5440761348715985e-05
1.0234668598738724e-06,3.47256418647389e-06,9.185355535679941e-07,2.535780392778485e-05
1.0119745042939095e-06,3.473856226006053e-06,9.13801274277286e-07,2.5260312441516106e-05
1.001274937650125e-06,3.4783953119489997e-06,9.094827346062692e-07,2.5149545200241946e-05
9.913566970304818e-07,3.486120725400635e-06,9.055977470885296e-07,2.5026540630845786e-05
9.822036640364631e-07,3.4970507984738823e-06,9.021567123475993e-07,2.489219919174989e-05
9.737918032815856e-07,3.5112834871460015e-06,8.991616617428265e-07,2.47474058793585e-05
9.660891755567007e-07,3.528953202244015e-06,8.966051549316875e-07,2.459315270047694e-05
9.590590116193e-07,3.5501703113500443e-06,8.944691943071087e-07,2.443060147998812e-05
9.526613560566088e-07,3.574994923919938e-06,8.927251009768144e-07,2.4261033133762946e-05
9.468532006665121e-07,3.603467587335624e-06,8.913356194545837e-07,2.4085716450508858e-05
9.415903905806897e-07,3.6356485398950135e-06,8.902582644649029e-07,2.3905793757225752e-05
9.36829579452572e-07,3.671616284051224e-06,8.894491796498217e-07,2.372225061868623e-05
9.325270880035341e-07,3.7114363195046316e-06,8.88866138354761e-07,2.3535948075341386e-05
9.286382129202005e-07,3.7551308283258255e-06,8.884675420481315e-07,2.334765028342004e-05
9.251205772625752e-07,3.8026581488485778e-06,8.882100960873384e-07,2.3158040265971358e-05
9.219374229864315e-07,3.8539035990902095e-06,8.880517505400282e-07,2.2967796413732826e-05
9.190575295457016e-07,3.90868889611482e-06,8.879580716688248e-07,2.2777750071467958e-05
9.164559815412115e-07,3.966792036991184e-06,8.879038533044384e-07,2.2588984294549744e-05
9.141180958225232e-07,4.027953511987331e-06,8.87868239718325e-07,2.2402743810328173e-05
9.120405034349585e-07,4.091864857221853e-06,8.878294821060352e-07,2.22202389890966e-05
9.102250191565088e-07,4.158163082602427e-06,8.877630029755079e-07,2.2042489439204125e-05
9.086714240062624e-07,4.226448092909864e-06,8.876414430644241e-07,2.1870262329915734e-05
9.0737633259613e-07,4.296316075413175e-06,8.874365588435471e-07,2.1704164824117965e-05
9.063344930492758e-07,4.367389770349489e-06,8.871233272788505e-07,2.154487554221657e-05
9.055363798000586e-07,4.439330652120618e-06,8.866833930981127e-07,2.1393306763861292e-05
9.049647156079323e-07,4.51183377455537e-06,8.86104617413568e-07,2.1250561709017656e-05
9.04594568354072e-07,4.584616503381967e-06,8.8537712163554e-07,2.111779448746651e-05
9.043956349591438e-07,4.6574051984205e-06,8.844893684071466e-07,2.0996093253421952e-05
9.043335178343872e-07,4.7299167945116375e-06,8.83426861730989e-07,2.0886394600753785e-05
9.043696779530056e-07,4.801838924143289e-06,8.82172154726877e-07,2.0789421498613864e-05
9.044610144464642e-07,4.872819030824628e-06,8.807044133325466e-07,2.070565412380104e-05
9.045601064868952e-07,4.9424662930938615e-06,8.78999794270027e-07,2.0635334354748198e-05
9.046176663818694e-07,5.010361388118568e-06,8.77033648189209e-07,2.0578503638714526e-05
9.045870520644852e-07,5.076068750281108e-06,8.747830914026646e-07,2.053506492490333e-05
9.044275723519051e-07,5.1391484165563075e-06,8.722281010153284e-07,2.050482683403462e-05
9.04103758593939e-07,5.199171421064312e-06,8.693506403817551e-07,2.0487493412789707e-05
9.035822337201044e-07,5.255743746294178e-06,8.661329342828312e-07,2.0482612343213087e-05
9.028315145778238e-07,5.30852997421668e-06,8.625566129854916e-07,2.04895142662212e-05
9.01828224306599e-07,5.357264058557936e-06,8.586039672279047e-07,2.050727885403392e-05
9.005647500595981e-07,5.401743810008161e-06,8.542615211279426e-07,2.0534770621019773e-05
8.990487845634743e-07,5.4418096144041775e-06,8.495233581864316e-07,2.0570737297046046e-05
8.972952204208043e-07,5.477316335293818e-06,8.443905535349705e-07,2.0613906037416558e-05
8.953207952199408e-07,5.50811508859138e-06,8.388678217179139e-07,2.06630453841583e-05
8.931463731761784e-07,5.534049833878969e-06,8.329608192463776e-07,2.071699995766204e-05
8.90802120613827e-07,5.554960842220408e-06,8.266749993346192e-07,2.077468903636312e-05
8.883294616972206e-07,5.5706925516545266e-06,8.200166767338861e-07,2.0835079125134548e-05
8.857793793173216e-07,5.581113250319858e-06,8.129963342281908e-07,2.0897175094828532e-05
8.832092561311571e-07,5.586145679990377e-06,8.056334812300071e-07,2.0960035690644832e-05
8.806779257617258e-07,5.585789046295812e-06,7.979622289855938e-07,2.1022763323706946e-05
8.782411810530174e-07,5.580115954066927e-06,7.900328219599036e-07,2.1084442711680663e-05
8.759525834840397e-07,5.56924687926277e-06,7.819054890718972e-07,2.1144081393704408e-05
8.738675144173643e-07,5.5533177766565945e-06,7.736415179046536e-07,2.120060469353058e-05
8.720437229659138e-07,5.532460159588653e-06,7.652977059020694e-07,2.125288052577804e-05
8.705366029778416e-07,5.506799217792208e-06,7.569246955273778e-07,2.1299742548833616e-05
8.693928598095644e-07,5.476458495846469e-06,7.485679619539877e-07,2.1340015564080392e-05
8.686482155153896e-07,5.441563963913629e-06,7.402697258082187e-07,2.1372552193574846e-05
8.68330927399012e-07,5.4022468982971495e-06,7.320691697552526e-07,2.1396322750536678e-05
8.684643195675091e-07,5.358644425941924e-06,7.240008957299782e-07,2.141056629390605e-05
8.6906355794822e-07,5.310907554786271e-06,7.160936264123323e-07,2.1414885527021128e-05
8.701332901819851e-07,5.2592250369474616e-06,7.083697482318605e-07,2.1409208905315922e-05
8.716724743718435e-07,5.203844303079256e-06,7.008449308640012e-07,2.139368316831473e-05
8.736804161121475e-07,5.1450654696523815e-06,6.935288286192465e-07,2.136854764114293e-05
8.761547864198652e-07,5.0832187140504914e-06,6.864300658974186e-07,2.133400728849507e-05
8.790851191776995e-07,5.018663289298532e-06,6.795645485763127e-07,2.1290152152440428e-05
8.824530964656404e-07,4.9518163804790025e-06,6.729604328040759e-07,2.1236950886282008e-05
8.862396146991399e-07,4.883170180171544e-06,6.666556596639157e-07,2.117430824925233e-05
8.904283412566864e-07,4.8132701581167615e-06,6.606901498527622e-07,2.1102168849569613e-05
8.950019219733394e-07,4.7426722296688895e-06,6.55098061677915e-07,2.1020612027068984e-05
8.999356955877294e-07,4.671901950432057e-06,6.499041289057597e-07,2.0929866266778798e-05
9.0519458628005e-07,4.6014268603121665e-06,6.451249453808077e-07,2.083025218482865e-05
9.107346993110144e-07,4.531647144735307e-06,6.40775200451079e-07,2.0722116819499945e-05
9.165067249559684e-07,4.462897869628003e-06,6.368738101477708e-07,2.060579909161999e-05
9.224598190624888e-07,4.395451676264713e-06,6.334429682143121e-07,2.048164773840837e-05
9.285460518675577e-07,4.329524089746131e-06,6.305024794952275e-07,2.0350067535989042e-05
9.34721671841186e-07,4.2652831046812315e-06,6.280651889488314e-07,2.0211538677943038e-05
9.409430992257195e-07,4.20285425238015e-06,6.261349728841029e-07,2.006658288880912e-05
9.471626037454794e-07,4.142320117201753e-06,6.247069768923738e-07,1.9915687920676778e-05
9.533294299736872e-07,4.083719616950871e-06,6.237688306020994e-07,1.975924309583224e-05
9.593966313109888e-07,4.0270508755413165e-06,6.233024669754217e-07,1.9597520992721938e-05
9.65327512495678e-07,3.972283754022748e-06,6.232868632960778e-07,1.943068101790311e-05
9.71094510396832e-07,3.919382161965431e-06,6.237000095957547e-07,1.925877214906521e-05
9.766736477471916e-07,3.868324354114151e-06,6.24519409793664e-07,1.908174252478588e-05
9.82046313404563e-07,3.819111225204952e-06,6.257232612996748e-07,1.889946238721998e-05
9.872094864122977e-07,3.77176884975869e-06,6.2729213383389e-07,1.871175534110928e-05
9.921815826621582e-07,3.726352542687766e-06,6.292073097360333e-07,1.8518426595729005e-05
9.969971079676487e-07,3.6829416079322015e-06,6.314464517149995e-07,1.8319270737800453e-05
1.0016953939477598e-06,3.641616349727992e-06,6.339820270157099e-07,1.8114063135486368e-05
1.0063091982998415e-06,3.60243083539931e-06,6.367827163712988e-07,1.7902561989681007e-05
1.0108567409877744e-06,3.565399015319307e-06,6.398141002016009e-07,1.768452462259446e-05
1.015339551634825e-06,3.530498928889621e-06,6.430384494855769e-07,1.7459728768351933e-05
1.0197445700032931e-06,3.497688965930542e-06,6.464151517558147e-07,1.722800614640143e-05
1.024047940609233e-06,3.4669258403755637e-06,6.499017922893407e-07,1.6989283612180462e-05
1.0282216661833763e-06,3.4381793519046944e-06,6.534557804765735e-07,1.6743627575681793e-05
1.0322444639275215e-06,3.4114473346904488e-06,6.570356868856677e-07,1.6491294151229082e-05
1.036110660620425e-06,3.386767402880957e-06,6.606012708566597e-07,1.6232738445669884e-05
1.0398291217170422e-06,3.3642079494578995e-06,6.641146349618798e-07,1.5968554407419848e-05
1.0434156639356963e-06,3.343833886678442e-06,6.675434992641603e-07,1.5699402069768667e-05
1.0468873966826714e-06,3.3256758346001995e-06,6.708619322496752e-07,1.5425967232958622e-05
1.0502600158532851e-06,3.309727642586955e-06,6.740466791519888e-07,1.5148952728478008e-05
1.0535473459914712e-06,3.295959394605205e-06,6.770731030258186e-07,1.4869100537045795e-05
1.056763188519643e-06,3.2843227374420282e-06,6.7991403007418e-07,1.4587237619848536e-05
1.0599212535578958e-06,3.2747459281162908e-06,6.825409276323369e-07,1.430430307458316e-05
1.0630328190938087e-06,3.2671301795716116e-06,6.84924944255412e-07,1.4021302086438131e-05
1.0661090962343158e-06,3.261355470155548e-06,6.87037853563781e-07,1.3739213903268887e-05
1.0691692168136757e-06,3.257293163849e-06,6.888540320867939e-07,1.3458946055794706e-05
1.072246013874362e-06,3.2548166941572563e-06,6.903511727950421e-07,1.3181350164861125e-05
1.0753842754919628e-06,3.2538020039587573e-06,6.91508810288991e-07,1.2907249203815226e-05
1.0786324781318714e-06,3.254116935188062e-06,6.923075597361403e-07,1.2637486297571105e-05
1.0820321524018514e-06,3.2556091709059435e-06,6.927301018442874e-07,1.2373041063500383e-05
1.0856098216801878e-06,3.2581002873516945e-06,6.927624193814965e-07,1.2115202279695813e-05
1.0893740741268793e-06,3.261386045767585e-06,6.923939310994526e-07,1.186568662757521e-05
1.093316410763188e-06,3.265244579207255e-06,6.916162654618327e-07,1.1626571485661584e-05
1.0974135883604521e-06,3.269451492876395e-06,6.904227278536798e-07,1.1400080384104894e-05
1.1016302159857807e-06,3.2737910400959765e-06,6.888107724061631e-07,1.1188374157486064e-05
1.1059214847089023e-06,3.2780547849695862e-06,6.867845483201522e-07,1.0993427147664347e-05
1.110236247791302e-06,3.2820362365314787e-06,6.843527293232396e-07,1.0817023492449763e-05
1.1145203838926186e-06,3.285537320502887e-06,6.815240849050401e-07,1.0660894285848978e-05
1.1187216222013658e-06,3.2883859884210615e-06,6.783061813274303e-07,1.0526909312220688e-05
1.1227936533458705e-06,3.2904482858978363e-06,6.747068628000129e-07,1.0417121095011377e-05
1.1266939232100875e-06,3.291624715481222e-06,6.707359598651068e-07,1.0333571547387833e-05
1.1303773661414006e-06,3.2918368164803538e-06,6.664064493664346e-07,1.0278010841486587e-05
1.1337934245657108e-06,3.291015195128183e-06,6.617343252395137e-07,1.025171014846502e-05
1.136887631390963e-06,3.2890919031899212e-06,6.567374439953841e-07,1.0255473400623331e-05
1.1396046210606312e-06,3.2859955441995634e-06,6.514350279018847e-07,1.0289881789451938e-05
1.1418904500530072e-06,3.281653199725858e-06,6.458488497656289e-07,1.0355624141657592e-05
1.1436935692351571e-06,3.2759986869290598e-06,6.400061720565803e-07,1.0453677382061592e-05
1.144964759535144e-06,3.268975416241552e-06,6.339418341552169e-07,1.0585275519721403e-05
1.1456578796262558e-06,3.2605315926835537e-06,6.276953991171812e-07,1.0751766400880976e-05
1.1457322705617205e-06,3.250622742043533e-06,6.213046972300946e-07,1.0954439010855003e-05
1.145153726529378e-06,3.2392301989318293e-06,6.148024844350388e-07,1.1194359753265448e-05
1.1438922038832785e-06,3.2263832973280965e-06,6.082203690689517e-07,1.1472230727341e-05
1.1419202167786644e-06,3.2121630075517485e-06,6.015961334064583e-07,1.1788260351001762e-05
1.1392152395356748e-06,3.1966792937308048e-06,5.949764913751893e-07,1.214206634984835e-05
1.1357636419096923e-06,3.1800442551246762e-06,5.884130334008515e-07,1.2532657584651492e-05
1.131562077596136e-06,3.162361883615532e-06,5.819562275081977e-07,1.295848054301468e-05
1.1266159551745986e-06,3.1437248791297796e-06,5.756533366519971e-07,1.3417467163329316e-05
1.120938597784805e-06,3.1242095008017106e-06,5.695521474694325e-07,1.3907076694913938e-05
1.1145533566369104e-06,3.103874577520812e-06,5.637053076225299e-07,1.4424359074223727e-05
1.107495586518825e-06,3.082762364907699e-06,5.581683147669073e-07,1.4966026862346207e-05
1.0998106576112262e-06,3.0608970197069283e-06,5.529933372489864e-07,1.5528520215561506e-05
1.091548472752952e-06,3.038285217963422e-06,5.482274399160903e-07,1.6108076097055082e-05
1.0827581927311821e-06,3.0149225034579362e-06,5.439162267990356e-07,1.6700806469663053e-05
1.0734865488977815e-06,2.990805373874389e-06,5.40106236363425e-07,1.7302782344279042e-05
1.063778179535913e-06,2.9659409711228735e-06,5.368435733033161e-07,1.791011572135531e-05
1.053673832829905e-06,2.9403490079406225e-06,5.341707652197482e-07,1.8519007102250174e-05
1.0432086322784028e-06,2.9140802906802713e-06,5.321231652900243e-07,1.9125738078863124e-05
1.0324166942827335e-06,2.88727332822864e-06,5.307259972695182e-07,1.972664215179571e-05
1.0213406158471735e-06,2.8602127776383078e-06,5.299923122087993e-07,2.0318101434655537e-05
1.0100378280918322e-06,2.8333300698609943e-06,5.299218489669243e-07,2.089658816653933e-05
9.98580380188857e-07,2.8071359692980045e-06,5.305020701014552e-07,2.145873517227476e-05
9.87050043133714e-07,2.7821364276284753e-06,5.317118953695633e-07,2.200139812618196e-05
9.755318112074287e-07,2.7587929614231967e-06,5.335258669716794e-07,2.252167363829807e-05
9.641077936916151e-07,2.7375344224802785e-06,5.359152543486553e-07,2.3016867167356563e-05
9.528522377200119e-07,2.718776918749609e-06,5.38846524688214e-07,2.348445982966603e-05
9.418307416910885e-07,2.702921214647149e-06,5.422810707162655e-07,2.392213292320919e-05
9.311057797453363e-07,2.6903312583278098e-06,5.461769676843703e-07,2.432784518394605e-05
9.207440074836495e-07,2.681307995448085e-06,5.504910537243628e-07,2.469991450164937e-05
9.108173963700485e-07,2.676070029472631e-06,5.551799639432452e-07,2.5037092193632588e-05
9.013963558123129e-07,2.674749511208456e-06,5.601989083198535e-07,2.5338630270712604e-05
8.925445854048025e-07,2.6774033000089096e-06,5.654997511212086e-07,2.5604295319028306e-05
8.843217430623455e-07,2.6840288640376067e-06,5.710308393121255e-07,2.5834322019577745e-05
8.767847892781159e-07,2.6945745481561577e-06,5.767377275111e-07,2.6029364525465312e-05
8.699823020897785e-07,2.708944213882997e-06,5.825644127840035e-07,2.619047066426836e-05
8.63948282858734e-07,2.7270031580696483e-06,5.884581835632188e-07,2.631907719207813e-05
8.587008088434711e-07,2.7485890751947703e-06,5.943778628647883e-07,2.6416993397559853e-05
8.542451616383726e-07,2.7735245884907553e-06,6.002985258255822e-07,2.6486287867353896e-05
8.505779859101562e-07,2.801624304941833e-06,6.06208808792565e-07,2.652906958174245e-05
8.476910716072685e-07,2.832690879028728e-06,6.121044068022655e-07,2.654728760517035e-05
8.455773544725814e-07,2.8665082972391567e-06,6.179831444515304e-07,2.6542656209653752e-05
8.442356681209916e-07,2.9028553887492067e-06,6.238453770515214e-07,2.651667876189234e-05
8.436664662231505e-07,2.9415409007537965e-06,6.296981342274731e-07,2.647067661857466e-05
8.438627916668813e-07,2.982427825194776e-06,6.355571902334925e-07,2.6405788211173568e-05
8.448087249891704e-07,3.025425182970444e-06,6.414448331737799e-07,2.632300267245585e-05
8.464861974269849e-07,3.0704540866180657e-06,6.473845860772117e-07,2.622328770605068e-05
8.488798014804586e-07,3.1174062700299164e-06,6.533942957335654e-07,2.610771091769719e-05
8.519736040324341e-07,3.1661164408116524e-06,6.594805094942775e-07,2.5977401410428814e-05
8.557438434117469e-07,3.216360031033574e-06,6.65636754660659e-07,2.5833410935641057e-05
8.601549185774538e-07,3.267871641925471e-06,6.718450138419592e-07,2.567665242329081e-05
8.65162125234614e-07,3.320375978578622e-06,6.780779672842974e-07,2.5507965432418195e-05
8.707172314554096e-07,3.373620669807915e-06,6.843006236037788e-07,2.532829463268365e-05
8.767707348680754e-07,3.4273928565821907e-06,6.904718715198656e-07,2.513895058774084e-05
8.832709788837517e-07,3.481507966748375e-06,6.965471781355709e-07,2.4941778746740288e-05
8.901644449506419e-07,3.5357819204879555e-06,7.024816291807101e-07,2.473908220256612e-05
8.97396721660408e-07,3.5900143138256416e-06,7.082307199994986e-07,2.453339635666127e-05
9.049112575170568e-07,3.6439969380262803e-06,7.137489379300502e-07,2.432728942119728e-05
9.126482447181387e-07,3.6975305863748705e-06,7.189893114282024e-07,2.4123232390183607e-05
9.205479008347058e-07,3.7504272080635263e-06,7.239052501926423e-07,2.392351123287161e-05
9.28556877393532e-07,3.802497720479354e-06,7.284520602555669e-07,2.3730158980703922e-05
9.366319648362921e-07,3.853541245864727e-06,7.325863271312023e-07,2.3544900256390868e-05
9.447376456167572e-07,3.903346702775631e-06,7.362658802765956e-07,2.3369114527231746e-05
9.528395128434116e-07,3.95170053345904e-06,7.394541433562365e-07,2.3203821959202766e-05
9.60898193263143e-07,3.998388071791412e-06,7.421295201152579e-07,2.3049681448222102e-05
9.688664624225778e-07,4.043195555202597e-06,7.442956950724636e-07,2.2907003687675087e-05
9.76689099548445e-07,4.085926467375168e-06,7.459852517558676e-07,2.2775802166829616e-05
9.843044205350917e-07,4.126420001382565e-06,7.472520837069544e-07,2.26558649190047e-05
9.916472072359846e-07,4.1645490530312865e-06,7.48158037809669e-07,2.2546813835375285e-05
9.98653855584212e-07,4.2002033910907504e-06,7.487651483266255e-07,2.244816989929037e-05
1.005270047026933e-06,4.233283900959208e-06,7.491381335125244e-07,2.235943037787899e-05
1.011458587622657e-06,4.263710693396109e-06,7.493517255676094e-07,2.2280118750185405e-05
1.0172036664064017e-06,4.291422310380591e-06,7.494942353566823e-07,2.220980443877265e-05
1.0225083660967079e-06,4.316360425649726e-06,7.496619519887499e-07,2.2148128514071664e-05
1.0273863138004386e-06,4.338458566790506e-06,7.499471873558197e-07,2.209482916460701e-05
1.0318539360350758e-06,4.357642389442627e-06,7.504295065448889e-07,2.204972051440532e-05
1.035928423646603e-06,4.37383483514537e-06,7.511755269042962e-07,2.2012613840975258e-05
1.0396284122821527e-06,4.3869654705513515e-06,7.522441523387913e-07,2.1983214943285558e-05
1.0429717446761455e-06,4.396980171078404e-06,7.536915684768457e-07,2.196104525891719e-05
1.045972452634119e-06,4.403840183158595e-06,7.555713238614475e-07,2.194543982341101e-05
1.0486425142524023e-06,4.407514490427173e-06,7.579299641000325e-07,2.1935619176288447e-05
1.0509948827884742e-06,4.4079784700434486e-06,7.6080622168247e-07,2.1930737362797565e-05
1.053040585093845e-06,4.405215165259836e-06,7.64237641328076e-07,2.192984502614973e-05
1.0547824730884799e-06,4.399209620542813e-06,7.682659879321543e-07,2.1931841698403715e-05
1.0562133642774968e-06,4.389941561287561e-06,7.729325085035945e-07,2.1935504294856453e-05
1.0573216309825914e-06,4.37738386791706e-06,7.782665900142818e-07,2.193956984112075e-05
1.0581030998233723e-06,4.361505521282621e-06,7.842776002042074e-07,2.1942790244016428e-05
1.0585730841593056e-06,4.342281426567479e-06,7.909533249577953e-07,2.1943928253959507e-05
1.0587701506788415e-06,4.319712045025577e-06,7.982619689607671e-07,2.194173551783198e-05
1.0587513800427374e-06,4.293837433024917e-06,8.061552475358991e-07,2.193496338319915e-05
1.0585855829708822e-06,4.264729628144779e-06,8.145716785560895e-07,2.1922421703841207e-05
1.0583480084943045e-06,4.232478339094983e-06,8.234396077418116e-07,2.1903066056185888e-05
1.0581152993519869e-06,4.197190731161819e-06,8.326804412036035e-07,2.1876097938290448e-05
1.0579583539544235e-06,4.158996056606837e-06,8.42212039405654e-07,2.1841046793244192e-05
1.057934182136055e-06,4.118041598756998e-06,8.519512560117753e-07,2.179775754424956e-05
1.05808107840857e-06,4.074487691724714e-06,8.618151983081518e-07,2.1746261645001456e-05
1.0584199493222289e-06,4.028506013409521e-06,8.717215430945008e-07,2.1686620794604384e-05
1.0589612004415551e-06,3.9802754452327464e-06,8.815886430194855e-07,2.161885166622692e-05
1.0597135085774792e-06,3.929981688359391e-06,8.913362187157396e-07,2.1542948418440478e-05
1.0606899865208253e-06,3.877824087550012e-06,9.008863713445255e-07,2.14589231883121e-05
1.061909772648797e-06,3.8240148594272036e-06,9.101634673393196e-07,2.1366800638723832e-05
1.0633946145169252e-06,3.768766923502767e-06,9.190934149686706e-07,2.1266604777232284e-05
1.0651616403736152e-06,3.712290100366533e-06,9.276053058140642e-07,2.11584306469878e-05
1.067217620532958e-06,3.654799341710805e-06,9.35636392009972e-07,2.104256562760244e-05
1.069557913160982e-06,3.5965141302101243e-06,9.431377658230291e-07,2.091948329886676e-05
1.0721670938724935e-06,3.5376518729401773e-06,9.500769464538182e-07,2.078969543686015e-05
1.0750191511754112e-06,3.47843256820242e-06,9.564357441201427e-07,2.0653655722388856e-05
1.0780783913071684e-06,3.419082666112138e-06,9.622047341108272e-07,2.0511814197019264e-05
1.0813014468717336e-06,3.359829132991424e-06,9.673769756101194e-07,2.0364787945975462e-05
1.084639478288291e-06,3.3009024988237133e-06,9.719441181303481e-07,2.0213594760964428e-05
1.0880402765312182e-06,3.2425466995851816e-06,9.75897748684651e-07,2.0059805835925185e-05
1.0914492724472866e-06,3.185009013605516e-06,9.792361432653648e-07,1.9905472378649617e-05
1.0948087589992241e-06,3.1285159310708404e-06,9.819705201616017e-07,1.9752900290136718e-05
1.0980581476966402e-06,3.073263695550651e-06,9.8412341378903e-07,1.9604436687796665e-05
1.1011360233353592e-06,3.0194229752333625e-06,9.857221284003749e-07,1.9462315327709945e-05
1.1039811090136088e-06,2.9671394979401413e-06,9.867972957125064e-07,1.932854235320961e-05
1.1065324747317509e-06,2.9165316480566885e-06,9.873864890524005e-07,1.920480570657318e-05
1.1087311724407577e-06,2.867697861477278e-06,9.875334299467036e-07,1.909239619472196e-05
1.1105221577246738e-06,2.820731682456804e-06,9.872817428214457e-07,1.89921556300257e-05
1.111854201464691e-06,2.775730796123291e-06,9.866706275116965e-07,1.8904485833577e-05
1.1126787722987371e-06,2.7327965341241084e-06,9.857335884098663e-07,1.8829420382053053e-05
1.1129497393125478e-06,2.692026368935616e-06,9.84496716383355e-07,1.8766729910942e-05
1.112623627385747e-06,2.6534983795203068e-06,9.829771878049764e-07,1.8716030000602807e-05
1.1116613953043554e-06,2.6172555037232865e-06,9.811835133293474e-07,1.8676861621723187e-05
1.1100329784577831e-06,2.583305555227769e-06,9.79116221724635e-07,1.8648741505461245e-05
1.1077203059806332e-06,2.551641712831575e-06,9.767684234058377e-07,1.8631216399052284e-05
1.104714637111138e-06,2.522269067667225e-06,9.74127139501763e-07,1.8623930274187077e-05
1.1010134924481924e-06,2.495215408949443e-06,9.711757238366856e-07,1.8626656983465962e-05
1.0966219199590778e-06,2.4705190996709782e-06,9.678985556931322e-07,1.8639269694832566e-05
1.0915540202111985e-06,2.448206213576958e-06,9.642866750874795e-07,1.8661692383132957e-05
1.0858330106690331e-06,2.428271241653561e-06,9.6033901779039e-07,1.8693873951084945e-05
1.079491171037477e-06,2.4106685004331e-06,9.560616348325334e-07,1.8735765318386453e-05
1.072567463907131e-06,2.3953150436856382e-06,9.514723035401949e-07,1.878727574170071e-05
1.0651032738677674e-06,2.3821006261932967e-06,9.46605446189565e-07,1.884821411228543e-05
1.0571393193880163e-06,2.3708988797940183e-06,9.415075496994608e-07,1.891822766512432e-05
1.0487143532228932e-06,2.3615739582253588e-06,9.36226789861272e-07,1.899675733876653e-05
1.0398660876680673e-06,2.35397978875642e-06,9.308060952806827e-07,1.9083044968207543e-05
1.030632890812528e-06,2.347958133725205e-06,9.252805757359898e-07,1.9176181240812106e-05
1.0210528390429772e-06,2.3433412407191536e-06,9.196769201433441e-07,1.9275132052516106e-05
1.0111611545211492e-06,2.3399547738501087e-06,9.140149413368277e-07,1.9378739525097254e-05
1.000990863475382e-06,2.337622423503799e-06,9.083111005696172e-07,1.948574985492476e-05
9.905773164689985e-07,2.336182173004614e-06,9.025810374245441e-07,1.9594882634526853e-05
9.79960793301422e-07,2.3355078070812025e-06,8.968383702090494e-07,1.9704891119688832e-05
9.691848566026429e-07,2.335512912114841e-06,8.910922778101787e-07,1.9814558853224013e-05
9.582959844734305e-07,2.3361314787249188e-06,8.853481600523964e-07,1.992265352918032e-05
9.473459275847546e-07,2.3372993753032602e-06,8.796113498988646e-07,2.0027887335325283e-05
9.36394064723526e-07,2.338961063291713e-06,8.73889704595191e-07,2.012890562859389e-05
9.255142275334754e-07,2.3410971285423303e-06,8.681923468441988e-07,2.0224336805050227e-05
9.148067358187355e-07,2.3437493969896773e-06,8.62527535682058e-07,2.0312913322065232e-05
9.044035067125787e-07,2.347024716276601e-06,8.569026922731436e-07,2.0393585845344336e-05
8.94459245706522e-07,2.351073827045078e-06,8.513248162692686e-07,2.046553740320185e-05
8.851352211572891e-07,2.3560569631170613e-06,8.457992584577782e-07,2.052810379582024e-05
8.765828654989435e-07,2.362117263396878e-06,8.403279127085619e-07,2.058068799467013e-05
8.689307644395977e-07,2.369379820015194e-06,8.349083992489716e-07,2.0622738791135694e-05
8.622788428766761e-07,2.377967988732885e-06,8.295341014052743e-07,2.065378627841348e-05
8.567012769562891e-07,2.388006009417879e-06,8.241949753780868e-07,2.067347092692073e-05
8.522552522345311e-07,2.399597895497753e-06,8.188797338133054e-07,2.068152027810621e-05
8.489903476043512e-07,2.412808832458774e-06,8.135782509747511e-07,2.067771635268449e-05
8.46953035704403e-07,2.4276690223953155e-06,8.082821821293693e-07,2.0661976883515585e-05
8.461858137700923e-07,2.444183302898754e-06,8.029834842553311e-07,2.063454221034488e-05
8.467266475009942e-07,2.462326541134024e-06,7.976725960772169e-07,2.0596055307290852e-05
8.486102594108232e-07,2.48203550874525e-06,7.923393050977431e-07,2.0547435782669324e-05
8.518657962451146e-07,2.5032110925127565e-06,7.869759668802039e-07,2.048968462497509e-05
8.565099975376228e-07,2.5257229281702582e-06,7.815783519528402e-07,2.0423753651788865e-05
8.625428957105837e-07,2.549413651816533e-06,7.761430906445544e-07,2.0350531929690907e-05
8.699512059909325e-07,2.5741171407780103e-06,7.706668355294156e-07,2.027098255317049e-05
8.787172799040834e-07,2.5996949666547497e-06,7.651488871461314e-07,2.0186342325684e-05
8.888270228930204e-07,2.626070879654901e-06,7.595928938736688e-07,2.0098191840574672e-05
9.002699952647201e-07,2.653233408996078e-06,7.540057713592606e-07,2.0008359190468915e-05
9.130307885843676e-07,2.6812011370497776e-06,7.483950837658678e-07,1.9918776219746192e-05
9.270812694302492e-07,2.70999134636028e-06,7.427664390875828e-07,1.983135613193265e-05
9.423845497053644e-07,2.739629861747849e-06,7.371235414407738e-07,1.974789669053409e-05
9.589074442925914e-07,2.770181196664936e-06,7.314705827512989e-07,1.9670003118446812e-05
9.7662866369634e-07,2.8017582659333525e-06,7.258166135867046e-07,1.959902657220759e-05
9.95537814317536e-07,2.8345065988595217e-06,7.201838225729816e-07,1.9536030456302947e-05
1.0156295054957263e-06,2.868582311355948e-06,7.146126509532734e-07,1.9481794285216472e-05
1.0368957570054328e-06,2.904136755567892e-06,7.091538136876725e-07,1.9436828648631478e-05
1.059317721614975e-06,2.941305319767513e-06,7.038542379501834e-07,1.9401365243131962e-05
1.0828596751038564e-06,2.9801911579514576e-06,6.987510474432613e-07,1.9375328037626407e-05
1.107466110530932e-06,3.020847737566458e-06,6.938737276764731e-07,1.9358321700475e-05
1.1330597395516194e-06,3.063280024483738e-06,6.89246144474772e-07,1.934965960991181e-05
1.1595422854660153e-06,3.107463444094907e-06,6.848855630373222e-07,1.93484381008024e-05
1.186799968657883e-06,3.153349424210604e-06,6.808016241062625e-07,1.935364751789856e-05
1.2147085065141235e-06,3.200847459572345e-06,6.769974788623666e-07,1.936427472531216e-05
1.2431330604902945e-06,3.2498080869418664e-06,6.73471631846886e-07,1.937936222047005e-05
1.271925534542649e-06,3.300021729636897e-06,6.702190741417544e-07,1.939804714372711e-05
1.3009244362993542e-06,3.351230051888424e-06,6.672319427966263e-07,1.9419597367488684e-05
1.3299613018936264e-06,3.4031471123925653e-06,6.644994295662382e-07,1.9443415143550758e-05
1.358871632561287e-06,3.4554840396802628e-06,6.620069409251378e-07,1.9469000587153518e-05
1.387501482461703e-06,3.507967646332972e-06,6.597360635574765e-07,1.949590839444436e-05
1.4157068269236386e-06,3.560351406428824e-06,6.57667111194571e-07,1.9523703345745746e-05
1.4433518196415492e-06,3.6124201508848174e-06,6.557824561538824e-07,1.95519002749842e-05
1.4703069569589e-06,3.6639872094041292e-06,6.5406605917143e-07,1.9579922034932346e-05
1.4964453578232746e-06,3.7148837251257483e-06,6.524994370608157e-07,1.960710430374548e-05
1.52164390495918e-06,3.7649426530716346e-06,6.510588811702062e-07,1.963270985126996e-05
1.5457945169890112e-06,3.8139829922156914e-06,6.497160929484036e-07,1.965592240169172e-05
1.5688172041425189e-06,3.861801173775389e-06,6.484405118586455e-07,1.9675835803089896e-05
1.5906632059518176e-06,3.908173820534142e-06,6.472008603907713e-07,1.969146563620842e-05
1.6113063209716325e-06,3.952866573269207e-06,6.459651237141834e-07,1.970182001613545e-05
1.6307284385149803e-06,3.99563890723728e-06,6.4470034508459e-07,1.9706036871459964e-05
1.6489078032243598e-06,4.03624946729855e-06,6.433744922407716e-07,1.9703505365201622e-05
1.6658160625229438e-06,4.074472031525499e-06,6.419608261105067e-07,1.9693889607928927e-05
1.681422310892934e-06,4.11011125501525e-06,6.404411424563095e-07,1.9677086213909887e-05
1.695697919235029e-06,4.143000648204351e-06,6.388039814903396e-07,1.965317152199807e-05
1.7086181222962959e-06,4.172986342156649e-06,6.370398423300148e-07,1.9622338658674145e-05
1.7201609637349133e-06,4.199913579934415e-06,6.351381812920975e-07,1.958482177598317e-05
1.7303099556424565e-06,4.223622899109427e-06,6.330869531824864e-07,1.9540815966015085e-05
1.7390655230110089e-06,4.243952578201932e-06,6.308737157663582e-07,1.949042065512366e-05
1.7464580343049634e-06,4.260747924741885e-06,6.28488293834698e-07,1.943366822533913e-05
1.7525483918343862e-06,4.273874129684757e-06,6.25925320481681e-07,1.9370639127161127e-05
1.7574165266878987e-06,4.2832185550405775e-06,6.231845108769045e-07,1.9301556742995486e-05
1.7611589400928497e-06,4.288680980974448e-06,6.202686157670842e-07,1.922678834648569e-05
1.7639051444322991e-06,4.2901684252904545e-06,6.171807421872769e-07,1.9146791933135435e-05
1.7658304215059722e-06,4.2876045933768884e-06,6.139229878743977e-07,1.9062057218438346e-05
1.7671438401042477e-06,4.2809507193747255e-06,6.104964303582704e-07,1.8973033784543288e-05
1.76805946097895e-06,4.270226878732165e-06,6.069021981979396e-07,1.8880067569540985e-05
1.7687710635656353e-06,4.255517245551838e-06,6.031435812063853e-07,1.8783417061666408e-05
1.769441004276146e-06,4.236951646933297e-06,5.992277048621687e-07,1.8683332420351056e-05
1.7701987443423831e-06,4.214677728932049e-06,5.95165993518192e-07,1.8580101078161952e-05
1.771140980122636e-06,4.188846492645533e-06,5.909738379050918e-07,1.847403717253856e-05
1.7723334082926838e-06,4.159617828586087e-06,5.866702096218929e-07,1.8365441890387642e-05
1.7738168251852544e-06,4.1271741889994066e-06,5.822771999771987e-07,1.825454788929153e-05
1.7756148466812439e-06,4.091726940640903e-06,5.778180279723263e-07,1.8141478389484854e-05
1.7777374255491699e-06,4.053506894526477e-06,5.733144939008721e-07,1.8026247619197228e-05
1.7801785341875282e-06,4.0127455840523575e-06,5.687866564845273e-07,1.7908783925244165e-05
1.7829141985795365e-06,3.969662123863086e-06,5.642544046879755e-07,1.7788944192552522e-05
1.7859052895795628e-06,3.924460390656265e-06,5.597393308110735e-07,1.766651458118551e-05
1.7891023072301231e-06,3.877335395038212e-06,5.552657096342021e-07,1.7541205962208843e-05
1.7924519010092076e-06,3.828487724885734e-06,5.508584815457294e-07,1.741265469387028e-05
1.7959048365972137e-06,3.7781390392989295e-06,5.465391272103399e-07,1.7280436491192427e-05
1.799418471516846e-06,3.7265421949600417e-06,5.423233411501827e-07,1.7144088920503194e-05
1.802950305149393e-06,3.673979876206453e-06,5.382217129292938e-07,1.7003136975543778e-05
1.806448473189877e-06,3.6207451819393166e-06,5.342423944136268e-07,1.685711404057235e-05
1.809847348803317e-06,3.567115251848521e-06,5.303946966102775e-07,1.670556859111267e-05
1.8130709686137488e-06,3.5133411294017006e-06,5.266919891431345e-07,1.6548064737081447e-05
1.8160388775365693e-06,3.459656668716958e-06,5.2315187017801e-07,1.638419298299566e-05
1.8186675133078446e-06,3.406286691942288e-06,5.197927288903018e-07,1.6213596602855228e-05
1.8208682699614648e-06,3.353441081187308e-06,5.166296559553431e-07,1.6036002898641434e-05
1.8225496498680183e-06,3.301300184462716e-06,5.136742491371532e-07,1.585123643200535e-05
1.82362642297062e-06,3.250005537240412e-06,5.109376739329464e-07,1.5659209544743828e-05
1.824029838813356e-06,3.1996648885303423e-06,5.084321856994669e-07,1.545991633489177e-05
1.823711814829757e-06,3.150366802390204e-06,5.061695890105591e-07,1.5253453391484478e-05
1.8226421160137287e-06,3.102191933034832e-06,5.041589645900187e-07,1.5040052030992804e-05
1.8208011711845311e-06,3.055214898397518e-06,5.024047651058877e-07,1.4820077535461428e-05
1.8181738898787845e-06,3.009502104352287e-06,5.009050293009526e-07,1.4593980408677966e-05
1.8147517755492783e-06,2.9651127398332186e-06,4.99650705659634e-07,1.4362235851457971e-05
1.810542005739288e-06,2.9221057580459578e-06,4.986275277463039e-07,1.4125306667458256e-05
1.8055730100407769e-06,2.880552097210135e-06,4.978212873675613e-07,1.3883629886669349e-05
1.799891425343124e-06,2.84054564977697e-06,4.972235446636398e-07,1.3637615849290994e-05
1.7935541074290914e-06,2.80220159865904e-06,4.96830961898566e-07,1.3387653185679272e-05
1.7866194766927174e-06,2.7656455292831603e-06,4.966384853233185e-07,1.3134110156332312e-05
1.7791396033045734e-06,2.731018569432928e-06,4.966345521858947e-07,1.2877330413036245e-05
1.7711541867805831e-06,2.6985008375537936e-06,4.9680158616464e-07,1.2617642973279218e-05
1.7626876584430497e-06,2.6683174692769587e-06,4.971186428083218e-07,1.2355423716826907e-05
1.7537491319386826e-06,2.6407122273455687e-06,4.97563174748929e-07,1.20912205299724e-05
1.7443347343838958e-06,2.6159110148794783e-06,4.981112071946032e-07,1.1825859144955785e-05
1.7344309788386348e-06,2.5940936651938783e-06,4.987376650871157e-07,1.1560420850005135e-05
1.7240172332793583e-06,2.575379094773555e-06,4.994177443074607e-07,1.1296111584361729e-05
1.7130682085474866e-06,2.559824154435306e-06,5.001276991389492e-07,1.1034127084137899e-05
1.7015593430276448e-06,2.5474283885997544e-06,5.008447456354528e-07,1.0775596521930873e-05
1.6894744330357069e-06,2.538139827226828e-06,5.015470499273085e-07,1.0521650805761343e-05
1.6768094961662191e-06,2.5318676109604353e-06,5.022137099776275e-07,1.0273569351754083e-05
1.663571859049578e-06,2.5285035693480405e-06,5.028251472502289e-07,1.0032866060907409e-05
1.6497845246449206e-06,2.5279434405931136e-06,5.033646146417185e-07,9.801225240411973e-06
1.6355011321755469e-06,2.5300933519239336e-06,5.038210187399122e-07,9.580342116988544e-06
1.6208201748751317e-06,2.534857698094044e-06,5.041915266839189e-07,9.371793678845489e-06
1.605884167199686e-06,2.5421233193009184e-06,5.044800239454913e-07,9.177000716546463e-06
1.5908635788085147e-06,2.551754630090874e-06,5.046921751046756e-07,8.997234510554558e-06
1.5759350602339625e-06,2.563595965658185e-06,5.048331774390426e-07,8.833600825051685e-06
1.561260987076836e-06,2.5774714384270057e-06,5.049098872602164e-07,8.687016187770063e-06
1.5469761838191525e-06,2.5931872819070257e-06,5.049335376937163e-07,8.55826459629128e-06
1.5331883635191294e-06,2.610546113753065e-06,5.049196050863318e-07,8.448144592573308e-06
1.5199907166073153e-06,2.6293659717150018e-06,5.048850284584918e-07,8.357550994312249e-06
1.5074743172765853e-06,2.649490286626244e-06,5.048464799527483e-07,8.287383456332668e-06
1.4957304932574649e-06,2.67078399639657e-06,5.048212275794029e-07,8.238380796180232e-06
1.4848453378412238e-06,2.6931189904591323e-06,5.048270733651187e-07,8.211002683769043e-06
1.4748921049314214e-06,2.7163588078434387e-06,5.048790641797191e-07,8.205431114550946e-06
1.4659243122384272e-06,2.7403558812961096e-06,5.049859091063526e-07,8.221771009504332e-06
1.457972735304453e-06,2.7649634916731447e-06,5.051500985512517e-07,8.260361472775375e-06
1.4510480024778753e-06,2.790046696194479e-06,5.053710114445598e-07,8.321933675796337e-06
1.445146972805996e-06,2.815479914693577e-06,5.056461286836541e-07,8.407521678676207e-06
1.4402611366561209e-06,2.8411368395267767e-06,5.059692424400424e-07,8.518278055901428e-06
1.4363846130973737e-06,2.8668810370939234e-06,5.063295751366931e-07,8.655323086611729e-06
1.4335180489809897e-06,2.8925609450592467e-06,5.067132206264269e-07,8.819633716617302e-06
1.431668110232645e-06,2.9180120505788307e-06,5.07105501795039e-07,9.011947060064036e-06
1.4308428886596168e-06,2.943063645728898e-06,5.074930458883376e-07,9.232676377513164e-06
1.4310435188580802e-06,2.967541814166549e-06,5.078653775111906e-07,9.48185312897984e-06
1.4322614963169956e-06,2.9912658582095336e-06,5.082185089444327e-07,9.759095001916784e-06
1.4344918840100975e-06,3.014047754045375e-06,5.085601625282021e-07,1.0063585642936515e-05
1.437754139613359e-06,3.0357033005408815e-06,5.089103659795313e-07,1.0394071597530568e-05
1.4421009124631511e-06,3.0560670383474787e-06,5.092948967894844e-07,1.0748898418534716e-05
1.4476074181849256e-06,3.0749948984733797e-06,5.097369068527476e-07,1.1126080969281992e-05
1.4543524480783062e-06,3.092353630699319e-06,5.102531195095747e-07,1.1523381946325224e-05
1.4624052562062555e-06,3.108016968926016e-06,5.108553083825512e-07,1.1938389198988608e-05
1.471820526843538e-06,3.121886584152889e-06,5.115516910814728e-07,1.2368590170247747e-05
1.4826331589878505e-06,3.1339297641116886e-06,5.123452359824445e-07,1.2811421966521837e-05
1.4948508315902898e-06,3.1442071054357016e-06,5.132320862862487e-07,1.3264279202527111e-05
1.5084540943782336e-06,3.152873097914952e-06,5.142019370513574e-07,1.372450343679843e-05
1.5234074834590392e-06,3.160148227562271e-06,5.152394898982606e-07,1.4189379517604478e-05
1.5396717004600182e-06,3.166272202760555e-06,5.163280866218295e-07,1.4656133541588391e-05
1.5572076743011543e-06,3.171466506401988e-06,5.174558887605148e-07,1.512193954130976e-05
1.5759718154700844e-06,3.175929340390386e-06,5.18621039375477e-07,1.558395159150198e-05
1.5959068784991453e-06,3.17984879471814e-06,5.198321014938469e-07,1.6039348873878293e-05
1.6169339750342742e-06,3.1834091924404616e-06,5.211045602330677e-07,1.648537159845575e-05
1.6389509485943252e-06,3.186786006857597e-06,5.224571914376088e-07,1.691935101241366e-05
1.661838878529872e-06,3.1901349966813656e-06,5.239093388233799e-07,1.7338738528924768e-05
1.6854712143155191e-06,3.1935810053393445e-06,5.254774512744813e-07,1.774111767668081e-05
1.7097170916583652e-06,3.1972116526846038e-06,5.271718013269253e-07,1.812420884981052e-05
1.734436464859635e-06,3.2010761738660196e-06,5.289959196109801e-07,1.8485900366567788e-05
1.759473526246841e-06,3.205185388889789e-06,5.309490409156406e-07,1.8824287334207115e-05
1.7846554133680824e-06,3.2095125106187684e-06,5.330298125836442e-07,1.913768716445623e-05
1.8097973347916646e-06,3.21399745196125e-06,5.352387349020782e-07,1.94246740007368e-05
1.8347126914007664e-06,3.2185526759331766e-06,5.375775950362736e-07,1.968416617951236e-05
1.8592233429942048e-06,3.2230676909378675e-06,5.400463066931159e-07,1.991552241242449e-05
1.8831639610995415e-06,3.22741716866702e-06,5.426394761312671e-07,2.0118626415843028e-05
1.9063829959666161e-06,3.2314743415223143e-06,5.453452275858068e-07,2.0293971408090228e-05
1.9287471052027407e-06,3.235117617084924e-06,5.481464477615929e-07,2.0442682411039672e-05
1.950148192764327e-06,3.2382242543347303e-06,5.510225598956501e-07,2.056640004766096e-05
1.970505862708916e-06,3.2406624349767536e-06,5.53951060949803e-07,2.0667052242651503e-05
1.989760800977564e-06,3.242292732649448e-06,5.569095810678842e-07,2.074660547445038e-05
2e-07,3.242978504605045e-06,5.598789230243541e-07,2.0806887785740352e-05
2e-07,3.242595301177268e-06,5.628454579366602e-07,2.084955553745584e-05
2e-07,3.2410306314085e-06,5.65800307922501e-07,2.087617829636377e-05
2e-07,3.2381834506669564e-06,5.68736117304747e-07,2.088832636320054e-05
2e-07,3.233975030243478e-06,5.716438903457485e-07,2.0887605227217764e-05
2e-07,3.228362676948867e-06,5.745111678733414e-07,2.087564648254136e-05
2e-07,3.221343055272575e-06,5.773226943782214e-07,2.0854049947165416e-05
2e-07,3.212940469710232e-06,5.800621997758927e-07,2.082430941347783e-05
2e-07,3.203186471407426e-06,5.827125460964453e-07,2.0787761428472346e-05
2e-07,3.1921047595559106e-06,5.852550385714729e-07,2.074553016130553e-05
2e-07,3.1797057845985025e-06,5.876701326316279e-07,2.0698515145261508e-05
2e-07,3.1659878240230187e-06,5.899392475954856e-07,2.0647557130293092e-05
2e-07,3.150944279284616e-06,5.920462452151907e-07,2.0593743946791565e-05
2e-07,3.134572859725708e-06,5.939778997031184e-07,2.0538613197861075e-05
2e-07,3.1168774156978176e-06,5.957226537484624e-07,2.0484108113198802e-05
2e-07,3.097860978956588e-06,5.972685529121035e-07,2.043237866624377e-05
2e-07,3.077519737829573e-06,5.986032054697064e-07,2.038556502793017e-05
2e-07,3.0558457061776804e-06,5.997151438377829e-07,2.034561336099323e-05
2e-07,3.032833056981339e-06,6.005937681120945e-07,2.0314130647942815e-05
2e-07,3.0084787643237742e-06,6.012296275247483e-07,2.0292280583452785e-05
2e-07,2.982778002796396e-06,6.016169825211168e-07,2.028073852560997e-05
2e-07,2.955722226406191e-06,6.017549581229244e-07,2.027971954922375e-05
2e-07,2.927304340509063e-06,6.016452410883913e-07,2.0289052860657056e-05
2e-07,2.8975274638263814e-06,6.01290218135361e-07,2.0308272926173018e-05
2e-07,2.866412805576135e-06,6.006933881523046e-07,2.0336714454193194e-05
2e-07,2.8340117503082462e-06,5.998591142848086e-07,2.0373593447556063e-05
2e-07,2.8004257061958567e-06,5.987906107809995e-07,2.0418062349495982e-05
2e-07,2.7658195672109178e-06,5.974884900413325e-07,2.046924306065657e-05
2e-07,2.730413672744346e-06,5.959513572095136e-07,2.052625301721941e-05
2e-07,2.6944577438974512e-06,5.94177241418198e-07,2.0588230176333387e-05
1.991841329239764e-06,2.658201337036457e-06,5.921641688289621e-07,2.065434216144044e-05
1.973197729634711e-06,2.62187716439318e-06,5.899094824383493e-07,2.072378211593512e-05
1.9535058397104338e-06,2.585705076685028e-06,5.874087316322257e-07,2.079577734644029e-05
1.932808333744373e-06,2.549905361030899e-06,5.84655767514969e-07,2.086961983550092e-05
1.9111494249392587e-06,2.51470525878088e-06,5.816440496324433e-07,2.094470419917757e-05
1.8885717034079814e-06,2.480332570112217e-06,5.783681829054478e-07,2.102054132825067e-05
1.8651139562059243e-06,2.4469988345070803e-06,5.748271603280975e-07,2.1096719751879884e-05
1.8408122451009747e-06,2.4148861518744288e-06,5.710283478827648e-07,2.1172834195005227e-05
1.8157039338738369e-06,2.3841540736378155e-06,5.669872235938038e-07,2.124841452622576e-05
1.7898319921205707e-06,2.3549620188324525e-06,5.627242400117571e-07,2.132287742548521e-05
1.763249453319535e-06,2.3274811616190328e-06,5.582648227144135e-07,2.139556091355417e-05
1.7360243482621571e-06,2.3018832688771062e-06,5.536412819557604e-07,2.146584560006742e-05
1.7082401582262654e-06,2.2783343378485625e-06,5.488911240637397e-07,2.1533237505882164e-05
1.6799881319224615e-06,2.257018887527982e-06,5.440513366953647e-07,2.159733917316699e-05
1.651357428880858e-06,2.238172795424893e-06,5.391535399512578e-07,2.165775957021236e-05
1.6224299510377766e-06,2.2220901385862026e-06,5.342245237307305e-07,2.1714024131810607e-05
1.5932794172080313e-06,2.209094928700591e-06,5.292906457684288e-07,2.1765536456053945e-05
1.5639719966771446e-06,2.1994908377376166e-06,5.243798591858424e-07,2.1811608149264527e-05
1.534566519152224e-06,2.193517267276013e-06,5.195196817415642e-07,2.1851497727383043e-05
1.5051141126681798e-06,2.1913307261402644e-06,5.147359826874422e-07,2.1884413206647835e-05
1.4756602047170337e-06,2.1930045589711794e-06,5.100553420027267e-07,2.190950237924584e-05
1.4462484005966318e-06,2.198535067808526e-06,5.055073119513856e-07,2.192586338368335e-05
1.416921587949958e-06,2.2078495758261458e-06,5.01121963260801e-07,2.1932593134724485e-05
1.387721478929435e-06,2.2208140386823133e-06,4.969245353083317e-07,2.1928879970419337e-05
1.3586913537604832e-06,2.237239590809033e-06,4.929325406055451e-07,2.19140960842114e-05
1.3298804404228413e-06,2.256889775610642e-06,4.891560874067186e-07,2.1887811008895056e-05
1.301346737414388e-06,2.279493266697033e-06,4.855992930131257e-07,2.184972264442337e-05
1.2731588920091269e-06,2.3047677135809537e-06,4.822621826920205e-07,2.179959274526862e-05
1.245396843088073e-06,2.332452114927132e-06,4.791427734927826e-07,2.1737237253988898e-05
1.2181493368338631e-06,2.362333078374071e-06,4.7623810650925007e-07,2.1662531364588706e-05
1.1915086753174616e-06,2.394249002268414e-06,4.7354336129975406e-07,2.1575389954041588e-05
1.1655658092037687e-06,2.428070525907556e-06,4.7105004277553137e-07,2.14757614287884e-05
1.140409927746283e-06,2.463669896221458e-06,4.687449428368394e-07,2.1363716553767546e-05
1.1161335364232544e-06,2.500895110016733e-06,4.6661021239166364e-07,2.123963414279189e-05
1.0928365809110448e-06,2.5395607631964336e-06,4.646239948424797e-07,2.1104323780938902e-05
1.0706218376869377e-06,2.5794530367384915e-06,4.627620947234185e-07,2.0958941770990123e-05
1.0495839474095413e-06,2.620334272872582e-06,4.610011120199039e-07,2.080477677374169e-05
1.0298033469871165e-06,2.6619437247932807e-06,4.5932107836360457e-07,2.064305347094904e-05
1.0113502969036572e-06,2.7040015154092427e-06,4.577070188185154e-07,2.047482911063714e-05
9.942912798668094e-07,2.7462165611022745e-06,4.561503334578249e-07,2.0301068570330184e-05
9.78689782288562e-07,2.788294724588132e-06,4.5464767512974093e-07,2.0122903121706608e-05
9.646042081558418e-07,2.829944396162224e-06,4.5319758494185895e-07,1.994185136018366e-05
9.520900088748979e-07,2.8708839410532263e-06,4.517985355718338e-07,1.975979737221043e-05
9.412060720366327e-07,2.9108596142886817e-06,4.504481661751317e-07,1.9578798429490642e-05
9.320190588841659e-07,2.9496661675029822e-06,4.491424998152292e-07,1.9400897338312766e-05
9.246025651100231e-07,2.987149598902466e-06,4.47875482807884e-07,1.922800442109473e-05
9.190328888463566e-07,3.0231890006342536e-06,4.4663873697847843e-07,1.9061837485301942e-05
9.153836124777973e-07,3.0576816159655967e-06,4.454222801016926e-07,1.890389386043016e-05
9.13718411987602e-07,3.0905520337345208e-06,4.4421802444429e-07,1.8755435031110693e-05
9.140809566916815e-07,3.121771559482301e-06,4.430253989631033e-07,1.8617480833694267e-05
9.164876932170365e-07,3.1513579250886807e-06,4.4185420485644206e-07,1.849081102066796e-05
9.209285010456843e-07,3.179349446109479e-06,4.4072123242379553e-07,1.83759525769852e-05
9.273683717883465e-07,3.205774541326817e-06,4.396441188163101e-07,1.8273144582267724e-05
9.357466941654268e-07,3.230638641823751e-06,4.386386821425071e-07,1.8182326631322253e-05
9.459817693645945e-07,3.2539274299538914e-06,4.3772127873888215e-07,1.8103185520354253e-05
9.579794033051651e-07,3.275608798110163e-06,4.3691114673275077e-07,1.8035230145941383e-05
9.71634922052521e-07,3.295629340240537e-06,4.362282345908225e-07,1.7977866612636945e-05
9.868306387971478e-07,3.3139155089051564e-06,4.356893632876578e-07,1.7930473784295382e-05
1.0034408407223738e-06,3.330384535831942e-06,4.353061499615202e-07,1.789245992140083e-05
1.0213448475838706e-06,3.3449599879175632e-06,4.350838798287215e-07,1.7863283552646872e-05
1.0404396432463159e-06,3.35758015231156e-06,4.350214530215785e-07,1.784246467896203e-05
1.0606487578801306e-06,3.368193965863485e-06,4.3511297740272646e-07,1.7829600993295574e-05
1.0819254348424654e-06,3.376753545980343e-06,4.3535062110295793e-07,1.7824357681056117e-05
1.1042465307776349e-06,3.383213193784343e-06,4.357277503362101e-07,1.7826410600031397e-05
1.1275985634745904e-06,3.3875344452486335e-06,4.362390699329318e-07,1.7835360272525572e-05
1.1519629106625044e-06,3.3896912896191866e-06,4.3687778236116583e-07,1.7850659134980734e-05
1.1773130437194305e-06,3.3896721413415834e-06,4.3763501707623606e-07,1.7871605353800902e-05
1.2036310345832122e-06,3.3874791485303294e-06,4.38501629714956e-07,1.7897393708914125e-05
1.2309260992971369e-06,3.383124492755632e-06,4.394676068501309e-07,1.7927145062814764e-05
1.2592313335427863e-06,3.3766238014798304e-06,4.4051965824342976e-07,1.795990218672701e-05
1.2885794337819976e-06,3.3679959540724837e-06,4.4164065238699825e-07,1.7994653788619316e-05
1.3189767082404536e-06,3.3572750176397868e-06,4.428115552357478e-07,1.803039756844177e-05
1.3503892478917756e-06,3.344519789672545e-06,4.4401485024114026e-07,1.806619318947336e-05
1.3827423693427315e-06,3.329806670689556e-06,4.4523748036307183e-07,1.8101158898272214e-05
1.4159295431013606e-06,3.31321218290219e-06,4.4647175081247294e-07,1.813443108927616e-05
1.4498263969525797e-06,3.294799149637884e-06,4.4771439564281816e-07,1.8165177661933565e-05
1.484301664739744e-06,3.2746128774542286e-06,4.489640439340869e-07,1.8192691314798245e-05
1.5192187251756054e-06,3.2526840767667262e-06,4.502185282451746e-07,1.8216462111973527e-05
1.554431541846837e-06,3.2290320516934987e-06,4.5147443916265755e-07,1.8236154870539786e-05
1.5897833328385725e-06,3.2036674239098735e-06,4.527285912867739e-07,1.8251542152953365e-05
1.6251118810015646e-06,3.176598550764423e-06,4.53978815050451e-07,1.826245981028811e-05
1.660257729345962e-06,3.147841260490306e-06,4.5522276685816725e-07,1.826876801700856e-05
1.695067566768037e-06,3.117425056524199e-06,4.5645635024374474e-07,1.8270289193488397e-05
1.7293918680683776e-06,3.0853924313431613e-06,4.5767371510134926e-07,1.8266769958412882e-05
1.7630836221076714e-06,3.0517993696450413e-06,4.5886849567266007e-07,1.8257912945586247e-05
1.796002414973281e-06,3.016725726174213e-06,4.6003518386437243e-07,1.8243438596037382e-05
1.8280201927220017e-06,2.980284175202365e-06,4.611708581726915e-07,1.822311745682621e-05
1.859021689383404e-06,2.9426121164753205e-06,4.6227696644427216e-07,1.8196751821709977e-05
1.8888993114823242e-06,2.903860810671764e-06,4.633586975125306e-07,1.8164150704765186e-05
1.917550108189022e-06,2.864198367179596e-06,4.6442138746442825e-07,1.8125221136045168e-05
1.9448787077192417e-06,2.8238102645471544e-06,4.654677222430831e-07,1.8080162732251983e-05
1.9708029594757387e-06,2.782886895622213e-06,4.664981168921714e-07,1.8029527548286525e-05
1.9952571248594294e-06,2.7416199190822732e-06,4.6751172452099063e-07,1.797408345852441e-05
2e-07,2.700218436755933e-06,4.685071279797498e-07,1.791468415683433e-05
2e-07,2.65892065268734e-06,4.694853051591629e-07,1.7852206261348578e-05
2e-07,2.617981654103512e-06,4.704530956442274e-07,1.7787477084410143e-05
2e-07,2.577652211225241e-06,4.714226767635522e-07,1.7721215214508736e-05
2e-07,2.538168297841552e-06,4.7240775658858185e-07,1.765402424896312e-05
2e-07,2.4997471088474134e-06,4.7342000891373387e-07,1.7586417357389365e-05
2e-07,2.4625780297358694e-06,4.744668841164121e-07,1.7518842984825652e-05
2e-07,2.4268145219256883e-06,4.755510167040391e-07,1.745170044835471e-05
2e-07,2.392583493783118e-06,4.766721602782856e-07,1.7385345564548355e-05
2e-07,2.360013736815307e-06,4.77830424344934e-07,1.7320081714979093e-05
2e-07,2.329260242557613e-06,4.790276303524617e-07,1.7256131192744042e-05
2e-07,2.300498138679849e-06,4.802662426390691e-07,1.7193604789491558e-05
2e-07,2.273889786930048e-06,4.815478528666749e-07,1.7132501044226692e-05
2e-07,2.2495557616074047e-06,4.828724086326867e-07,1.707274323359082e-05
2e-07,2.2275680632872292e-06,4.84239666719059e-07,1.7014211705404448e-05
2e-07,2.207960433552827e-06,4.856534793375492e-07,1.6956723808007442e-05
2e-07,2.190749132061453e-06,4.871244659479389e-07,1.6899992270867088e-05
2e-07,2.1759550226652746e-06,4.886668153833029e-07,1.6843613339459344e-05
2e-07,2.163609812692601e-06,4.902923097739603e-07,1.678707135652182e-05
2e-07,2.153740537934424e-06,4.920076212568497e-07,1.672974429865343e-05
2e-07,2.146346381070429e-06,4.938162469002494e-07,1.6670925192671788e-05
2e-07,2.141384489818093e-06,4.957210879935559e-07,1.6609863083655993e-05
2e-07,2.138768887035918e-06,4.977239123844685e-07,1.6545816366591794e-05
2e-07,2.1383792293506717e-06,4.998237241583017e-07,1.647811987405585e-05
2e-07,2.1400777339467284e-06,5.020183135306115e-07,1.6406255303293976e-05
2e-07,2.1437326132771004e-06,5.043074507759509e-07,1.6329881566551443e-05
2e-07,2.149243660035868e-06,5.066927872945631e-07,1.6248803211018144e-05
2e-07,2.1565612378486988e-06,5.091740020632097e-07,1.6162911625443125e-05
2e-07,2.165686669588387e-06,5.11745244000329e-07,1.6072132595176122e-05
2e-07,2.176648289903738e-06,5.143949245758656e-07,1.597639943950912e-05
2e-07,2.18946457724319e-06,5.171077495480432e-07,1.587567822332734e-05
2e-07,2.204120034908477e-06,5.198677156709947e-07,1.5770012267917168e-05
2e-07,2.220567831578334e-06,5.226632805953416e-07,1.565951493641515e-05
2e-07,2.2387450374951213e-06,5.254925981135119e-07,1.5544335626253154e-05
2e-07,2.258581393089339e-06,5.283636019999315e-07,1.5424645319552264e-05
2e-07,2.2799987015312616e-06,5.312884433258497e-07,1.5300616507510793e-05
2e-07,2.302904360397256e-06,5.342767315480962e-07,1.5172420230821842e-05
2e-07,2.3271815720196567e-06,5.373317829378947e-07,1.5040268027009676e-05
2e-07,2.352682271368232e-06,5.404513097939277e-07,1.4904421070920019e-05
1.9879663368870063e-06,2.379229242410768e-06,5.436301076192686e-07,1.4765129941049115e-05
1.972310447812331e-06,2.406624907622297e-06,5.468607710378777e-07,1.4622581600239472e-05
1.9567310548553445e-06,2.434657430138387e-06,5.50132258625491e-07,1.447692681736102e-05
1.941310527212714e-06,2.463102241592824e-06,5.534289804236636e-07,1.4328405168135266e-05
1.9261280479259814e-06,2.4917254638954307e-06,5.567309254545196e-07,1.4177500473778664e-05
1.9112529547370047e-06,2.520291225599744e-06,5.60013930990717e-07,1.4025000904340295e-05
1.8967407824504287e-06,2.548569340490655e-06,5.63250401995425e-07,1.3871915996621906e-05
1.8826347600163783e-06,2.5763392437074618e-06,5.664108496901331e-07,1.3719314983035855e-05
1.8689703923812226e-06,2.6033893066187774e-06,5.694653169839007e-07,1.3568183469851993e-05
1.8557777741073016e-06,2.629521760812437e-06,5.723837063037115e-07,1.3419353422482789e-05
1.8430780317910542e-06,2.654571611118376e-06,5.751357718163104e-07,1.3273479758197321e-05
1.830877832111979e-06,2.6784233493428835e-06,5.776919848381732e-07,1.3131028718443248e-05
1.8191698335890287e-06,2.701004295248005e-06,5.800243177920321e-07,1.2992317993471683e-05
1.8079407608715183e-06,2.7222647526280904e-06,5.821053716698348e-07,1.2857668373470833e-05
1.7971805985119453e-06,2.7421737932278704e-06,5.839074496144054e-07,1.2727609381115945e-05
1.7868858670726035e-06,2.7607327536544653e-06,5.854044874341308e-07,1.2602959739873981e-05
1.7770580418575303e-06,2.7779797220567544e-06,5.865750676359292e-07,1.2484707859010095e-05
1.7677007038988e-06,2.793972468182815e-06,5.874020167188704e-07,1.2373815454431288e-05
1.7588140328047729e-06,2.808767438576464e-06,5.878693957787969e-07,1.2271088492921578e-05
1.7503894470571889e-06,2.8224150126192833e-06,5.879618659744701e-07,1.217721384964338e-05
1.7424097570867848e-06,2.834966945563616e-06,5.876677745141868e-07,1.2093003668687613e-05
1.7348511699270385e-06,2.8464766078242128e-06,5.869823494280412e-07,1.2019686289358912e-05
1.7276834227127708e-06,2.8569881599408082e-06,5.859078055961182e-07,1.1958986186126795e-05
1.7208717957539912e-06,2.866529419264689e-06,5.844511442447501e-07,1.1912966699514377e-05
1.7143813820892496e-06,2.875116272829846e-06,5.826216665849947e-07,1.1883803124862227e-05
1.7081786305804475e-06,2.8827623208705888e-06,5.80429378894028e-07,1.1873589021038305e-05
1.7022294411408708e-06,2.8894843226851045e-06,5.778853961576254e-07,1.1884188374552134e-05
1.6964971101625955e-06,2.8952990418577804e-06,5.750037113096154e-07,1.1917134598101158e-05
1.690941407610981e-06,2.9002230185690694e-06,5.718031230608546e-07,1.1973576586955483e-05
1.6855184455629117e-06,2.9042933803627613e-06,5.683094862332433e-07,1.2054266545283807e-05
1.6801810752475245e-06,2.907600468072232e-06,5.645562470386999e-07,1.2159565312036342e-05
1.674878402201723e-06,2.9102972785970316e-06,5.605814443236886e-07,1.228942890078774e-05
1.6695538742258703e-06,2.912571089551176e-06,5.5642529643617e-07,1.2443387114030387e-05
1.6641444520589412e-06,2.914609002613438e-06,5.521323287810936e-07,1.262057804629196e-05
1.6585816848631456e-06,2.9165986198066887e-06,5.477554916187015e-07,1.2819857479181265e-05
1.6527934773483163e-06,2.9187598173451767e-06,5.433568044577516e-07,1.3039932682600806e-05
1.6467079705278137e-06,2.9213661278461535e-06,5.390014372750848e-07,1.327949775963088e-05
1.6402596217474985e-06,2.9247278834997725e-06,5.347490996039223e-07,1.353737282990019e-05
1.6333943789034623e-06,2.9291449240016237e-06,5.30651024311347e-07,1.3812592647145139e-05
1.6260726157120378e-06,2.9348592174056536e-06,5.267545608829008e-07,1.4104393285771726e-05
1.618268087113875e-06,2.942033353067108e-06,5.23108212823444e-07,1.4412136956690357e-05
1.609961084925051e-06,2.9507581924651657e-06,5.197600360891253e-07,1.4735241693624469e-05
1.601131349772779e-06,2.961079843711182e-06,5.167515528928462e-07,1.5073120121479767e-05
1.5917579525886137e-06,2.9730326902809883e-06,5.141139463964936e-07,1.5425093239966033e-05
1.5818231431508263e-06,2.9866594238806843e-06,5.118677943050147e-07,1.5790281167938673e-05
1.5713128594856322e-06,3.002007681619489e-06,5.100250026089085e-07,1.6167521966919607e-05
1.5602145406184794e-06,3.0191117269164524e-06,5.085929372633203e-07,1.655537760856236e-05
1.5485171721147957e-06,3.037970392506348e-06,5.075777244542918e-07,1.695223945958582e-05
1.5362137550306298e-06,3.0585304260454493e-06,5.069833017445686e-07,1.735645011845537e-05
1.5233040787155815e-06,3.080686481200628e-06,5.068088774957291e-07,1.7766348303083192e-05
1.50979792602565e-06,3.104296712412403e-06,5.070509674693755e-07,1.818026683615384e-05
1.4957188299391174e-06,3.1291965043707845e-06,5.0771142972207e-07,1.859655422623956e-05
1.4811074654789376e-06,3.155198770461645e-06,5.08804332366907e-07,1.9013609881659093e-05
1.4660237186818491e-06,3.1820915539667638e-06,5.103538846290054e-07,1.9429879590703448e-05
1.4505443537614991e-06,3.2096503987589748e-06,5.123849554043839e-07,1.9843781460587053e-05
1.4347545900914563e-06,3.2376578844987182e-06,5.149146243984835e-07,2.0253611675364084e-05
1.4187422831402668e-06,3.2659083792645194e-06,5.179506057497504e-07,2.0657513411142825e-05
1.4026046796751338e-06,3.2942034650201745e-06,5.214939002356033e-07,2.10535130743988e-05
1.3864590195682764e-06,3.3223522898442862e-06,5.255390243474728e-07,2.143957249844866e-05
1.3704389339004576e-06,3.350171032553816e-06,5.300712643376184e-07,2.1813624071304426e-05
1.354676386145713e-06,3.377487542267344e-06,5.350661449071362e-07,2.2173589572960682e-05
1.339285067578134e-06,3.4041661769424216e-06,5.404925879512663e-07,2.2517400223547142e-05
1.3243541505903285e-06,3.430140897044247e-06,5.463155636694456e-07,2.284302071566395e-05
1.3099483562987526e-06,3.455428748163732e-06,5.524952659451529e-07,2.3148468314582066e-05
1.2961092545291818e-06,3.4801052952445572e-06,5.589848917297801e-07,2.343183111287648e-05
1.2828572498231784e-06,3.5042543076128106e-06,5.657300717003875e-07,2.36912950398714e-05
1.2701946184517816e-06,3.5279331395628485e-06,5.726704672141395e-07,2.392517036552725e-05
1.258109298456464e-06,3.5511741292333437e-06,5.79743346977382e-07,2.4131903303126505e-05
1.2465803802723065e-06,3.574001393385877e-06,5.868878910533787e-07,2.43101009510416e-05
1.2355857784000549e-06,3.5964408641376657e-06,5.940468305608979e-07,2.4458623683544627e-05
1.2251079563978823e-06,3.618520070581943e-06,6.011646410534189e-07,2.457669234389209e-05
1.215133097044433e-06,3.6402628701685637e-06,6.081855034651635e-07,2.466386693248175e-05
1.2056467448741995e-06,3.661682286361945e-06,6.150526845493379e-07,2.4719907260817554e-05
1.1966335807386576e-06,3.682768927538839e-06,6.217089329812202e-07,2.474466684376441e-05
1.1880820297125045e-06,3.703476721683438e-06,6.280985931668785e-07,2.473806804708385e-05
1.1799868614070582e-06,3.723715544998673e-06,6.341708906509007e-07,2.470010857157255e-05
1.172346883762581e-06,3.743356560078746e-06,6.398813505271418e-07,2.463086883451271e-05
1.1651612474626464e-06,3.762246134449414e-06,6.451909069283461e-07,2.4530512254628978e-05
1.1584275223442112e-06,3.780219457214194e-06,6.500650137388503e-07,2.4399284481137846e-05
1.152140961720278e-06,3.797108605368394e-06,6.544724817216574e-07,2.4237521495152137e-05
1.1462920691395307e-06,3.812746422306677e-06,6.583833266056731e-07,2.404566306255848e-05
1.140862561439801e-06,3.8269705985521005e-06,6.617676800287612e-07,2.382426596075269e-05
1.1358236378892572e-06,3.8396302266896015e-06,6.645967321659613e-07,2.3574010746669723e-05
1.1311396725516232e-06,3.8505903342069e-06,6.668444443663082e-07,2.3295691353519893e-05
1.126778427936935e-06,3.859728308558612e-06,6.684891348705409e-07,2.299019098461163e-05
1.1227237848591059e-06,3.866927788839307e-06,6.695143011982257e-07,2.265846554291507e-05
1.1189813763374088e-06,3.872081555830293e-06,6.699079462935786e-07,2.2301550146122646e-05
1.1155726203476136e-06,3.875100573425284e-06,6.696609228040948e-07,2.192057707979721e-05
1.1125236180836552e-06,3.875915546700898e-06,6.687657603602243e-07,2.1516780366047306e-05
1.1098602496690837e-06,3.87446740934179e-06,6.672164184036872e-07,2.1091481752256053e-05
1.107614299416298e-06,3.8706961719320164e-06,6.650083082440328e-07,2.0646064493027708e-05
1.1058315171525648e-06,3.864538027723896e-06,6.621387210995663e-07,2.018194384070644e-05
1.104569468564832e-06,3.855932295634824e-06,6.586080914800279e-07,1.970055468764008e-05
1.1038855298232142e-06,3.8448341223205485e-06,6.544212603821223e-07,1.9203360487106568e-05
1.1038247907953958e-06,3.831228762159787e-06,6.495886849958496e-07,1.8691857195730885e-05
1.1044144686895008e-06,3.815141137468155e-06,6.44127726417503e-07,1.816755560864544e-05
1.1056632415575931e-06,3.796631675414615e-06,6.380625576126129e-07,1.763196013915753e-05
1.1075608058559825e-06,3.775778093686219e-06,6.314232255754631e-07,1.7086564032180796e-05
1.1100774107308242e-06,3.7526574632014914e-06,6.242448251077081e-07,1.6532854912996664e-05
1.113166628127953e-06,3.7273410905415116e-06,6.16565723095399e-07,1.597232792920796e-05
1.1167719825468028e-06,3.6999038208338068e-06,6.084254978475978e-07,1.5406517623928876e-05
1.1208357172630372e-06,3.6704414533660563e-06,5.998639583446142e-07,1.4837045320078027e-05
1.1253066310525138e-06,3.6390774356287886e-06,5.909220140066855e-07,1.4265667606113846e-05
1.1301413074186952e-06,3.6059470934616792e-06,5.81644427593734e-07,1.3694294391887085e-05
1.1352984674805555e-06,3.5711787710087837e-06,5.72081133350045e-07,1.312492983837448e-05
1.1407374096441628e-06,3.5348967336849267e-06,5.622845529854301e-07,1.2559551089466984e-05
1.1464284595692912e-06,3.4972469099323164e-06,5.523054356502222e-07,1.200000865823894e-05
1.1523662647947278e-06,3.458430706789305e-06,5.421904417438707e-07,1.1447999275717674e-05
1.1585713772906963e-06,3.4187275367383264e-06,5.319820340214021e-07,1.0905101882196396e-05
1.1650788063890101e-06,3.378492090691197e-06,5.217198495184054e-07,1.0372835391350136e-05
1.1719232984918815e-06,3.338130976375269e-06,5.114413666236529e-07,9.852684299895904e-06
1.1791287593936457e-06,3.2980703023915163e-06,5.01180436728967e-07,9.346095187728605e-06
1.1867025815509176e-06,3.2587205965387265e-06,4.909660592845016e-07,8.854485766546518e-06
1.1946349937532215e-06,3.220456935456572e-06,4.808238409332656e-07,8.379255085686818e-06
1.2029030955303886e-06,3.1836307601945204e-06,4.707786528244037e-07,7.921780125227175e-06
1.2114739260328757e-06,3.1485886011905725e-06,4.608555501582885e-07,7.483424321678371e-06
1.2203032311576216e-06,3.115660463180771e-06,4.5107860698148615e-07,7.065557717459132e-06
1.2293346886665786e-06,3.085128911231909e-06,4.4146970965758656e-07,6.669557280341281e-06
1.2385035616805492e-06,3.0572164101416618e-06,4.3204903197837476e-07,6.296770898485879e-06
1.2477431507011084e-06,3.0320926039332064e-06,4.228385563634419e-07,5.9484533965163375e-06
1.2569898024164199e-06,3.009875621357068e-06,4.138680117735111e-07,5.625710391576654e-06
1.2661829778491436e-06,2.990624158584948e-06,4.051774335642085e-07,5.329486820400695e-06
1.2752620332857905e-06,2.974338709579338e-06,3.9681179274175613e-07,5.0605771034483734e-06
1.2841652749142202e-06,2.9609789000517137e-06,3.8881234124217156e-07,4.8196109589549896e-06
1.2928328470254677e-06,2.9504851260321894e-06,3.8121230464430705e-07,4.607045404691283e-06
1.3012093440518472e-06,2.942786511974432e-06,3.740389094422825e-07,4.42323858832801e-06
1.3092435856978356e-06,2.9377909809647887e-06,3.673185596715601e-07,4.268564250900774e-06
1.316887178010843e-06,2.935372291397021e-06,3.610813717819818e-07,4.14341820459042e-06
1.3240933677219829e-06,2.935364979925231e-06,3.5536379173811543e-07,4.0481254449245075e-06
1.3308186357114835e-06,2.937566425153487e-06,3.5020751512832517e-07,3.9828718286427696e-06
1.3370295179636676e-06,2.941745540220875e-06,3.456529907397329e-07,3.947640718324418e-06
1.3427088810732122e-06,2.947653638922628e-06,3.417323916057836e-07,3.94213403481757e-06
1.3478543900585856e-06,2.955028761517367e-06,3.384691305797261e-07,3.965766440859283e-06
1.3524736300600642e-06,2.9635958637857965e-06,3.358836842712083e-07,4.017746602732039e-06
1.3565826903904057e-06,2.973072090462194e-06,3.339985934987609e-07,4.097187625231894e-06
1.3602063899375714e-06,2.983174534692598e-06,3.3283764244324443e-07,4.203233948585756e-06
1.3633763454867644e-06,2.9936210900998238e-06,3.324236810558125e-07,4.335187218671276e-06
1.3661255557242282e-06,3.0041261470852385e-06,3.327803510398551e-07,4.492560648810831e-06
1.368481501398268e-06,3.014400035632975e-06,3.3393257039580476e-07,4.675028180283039e-06
1.3704652558585258e-06,3.024154442669916e-06,3.3590057587764594e-07,4.882313764432065e-06
1.372100290930214e-06,3.0331098771662183e-06,3.386934676313863e-07,5.114075615289614e-06
1.3734226311338607e-06,3.041001577565892e-06,3.423086309042376e-07,5.369802080671582e-06
1.3744818516308037e-06,3.047585348278915e-06,3.467347651999961e-07,5.648716559494596e-06
1.3753308714849662e-06,3.0526492429798705e-06,3.519548265590441e-07,5.9497216622486745e-06
1.3760118167772304e-06,3.0560316168437773e-06,3.5794799139242456e-07,6.271422342222768e-06
1.3765478812475056e-06,3.0576353355614623e-06,3.646895816491141e-07,6.6121973013491405e-06
1.3769433930412114e-06,3.0574250575055883e-06,3.72148412440919e-07,6.9702567238672896e-06
1.3771874347540057e-06,3.0554056583999694e-06,3.8028409839147756e-07,7.343672500459223e-06
1.3772574053119414e-06,3.051598140888057e-06,3.8904785953028823e-07,7.730396853166737e-06
1.3771214068115156e-06,3.0460337502095923e-06,3.983864751378746e-07,8.128288559606777e-06
1.376740421362722e-06,3.0387682695173423e-06,4.0824609908420757e-07,8.535170292891217e-06
1.3760732419832941e-06,3.029898536873928e-06,4.185740022622476e-07,8.948949546458606e-06
1.3750847487539088e-06,3.019563693139318e-06,4.2931786616708214e-07,9.36781212651957e-06
1.3737522802325406e-06,3.007927567185e-06,4.404239974228797e-07,9.790371730846125e-06
1.3720644117316386e-06,2.995153215628162e-06,4.5183628880894403e-07,1.0215610739854038e-05
1.370014498277335e-06,2.981391123830451e-06,4.6349573663160974e-07,1.0642648295978011e-05
1.3675997503826132e-06,2.966791908026668e-06,4.7534050939865284e-07,1.1070527490271336e-05
1.364832902347675e-06,2.951526345454878e-06,4.873070448018865e-07,1.149814807791845e-05
1.361757774907742e-06,2.935789927122312e-06,4.993309807904605e-07,1.192440091810993e-05
1.3584528812717469e-06,2.9197873075626715e-06,5.113471093298313e-07,1.2348452564477333e-05
1.355019526208339e-06,2.903708039733676e-06,5.23289701072815e-07,1.2769915404732785e-05
1.3515645540101526e-06,2.8877122246374433e-06,5.350944179432119e-07,1.3188698659869651e-05
1.3481861589803318e-06,2.8719311723181595e-06,5.46701087551323e-07,1.3604711166378293e-05
1.344964057878435e-06,2.8564693732648162e-06,5.580552696877613e-07,1.4017692552946084e-05
1.3419567749436605e-06,2.841402098194216e-06,5.691074567268863e-07,1.442719108106199e-05
1.3392092907733062e-06,2.826775003582974e-06,5.79811709742201e-07,1.4832565302551934e-05
1.3367660285624795e-06,2.8126074986818017e-06,5.90125577406746e-07,1.5232972519653344e-05
1.3346785995271877e-06,2.798899747685632e-06,6.000101443971592e-07,1.562738152690269e-05
1.3330015449756029e-06,2.785642538420879e-06,6.094288299416796e-07,1.6014618578447548e-05
1.331779706050374e-06,2.772822368597641e-06,6.183460712081295e-07,1.639341395750172e-05
1.3310395204024076e-06,2.7604234717247053e-06,6.267274949605144e-07,1.6762428605993222e-05
1.3307904892289978e-06,2.7484423261978663e-06,6.345405167152229e-07,1.7120269749544535e-05
1.3310291321793254e-06,2.7369135616679752e-06,6.417542722334133e-07,1.7465511796686086e-05
1.3317383956204291e-06,2.7259282071800817e-06,6.483413465257564e-07,1.7796730945077747e-05
