4.383091221460308e-07,1.7989350013264125e-07,2.412016823407171e-07,1.4798948451026389e-05
4.3882509307927647e-07,1.8073988191526895e-07,2.401550609876048e-07,1.4894785965776535e-05
4.403621697200982e-07,1.8177580742720465e-07,2.392123617030643e-07,1.4994097242971136e-05
4.429002515426395e-07,1.8299992771839414e-07,2.3837517674212995e-07,1.5095943162019098e-05
4.4641008343280924e-07,1.8441382156733985e-07,2.3764213060399717e-07,1.5199427010736012e-05
4.5085605372274397e-07,1.8601887362263826e-07,2.370102124220324e-07,1.530369975926578e-05
4.5619599541094523e-07,1.8781421544481094e-07,2.364757551778377e-07,1.5407956034467622e-05
4.623823496444353e-07,1.8979647317006046e-07,2.360344643629557e-07,1.551139448100252e-05
4.693650533037611e-07,1.919596753978753e-07,2.3568113849864038e-07,1.561316225026338e-05
4.770917525436617e-07,1.9429466203154681e-07,2.3540988666942372e-07,1.5712336375779835e-05
4.855053343508439e-07,1.9678918640094055e-07,2.3521446296378322e-07,1.5807983740410265e-05
4.945426842282496e-07,1.9942978558725559e-07,2.3508916569110174e-07,1.589927026197115e-05
5.041373785558055e-07,2.0220366692212624e-07,2.350302626778829e-07,1.5985520249744957e-05
5.14226577667039e-07,2.050982713558764e-07,2.3503570341901174e-07,1.6066178960530946e-05
5.24758030432814e-07,2.0809936847276546e-07,2.351032993587996e-07,1.614073144628189e-05
5.356921705884877e-07,2.111899222651345e-07,2.35229832487897e-07,1.6208638350627642e-05
5.469995125445964e-07,2.1435066319302227e-07,2.354112271798555e-07,1.6269310653631345e-05
5.586562413967062e-07,2.1756240978855551e-07,2.356430539920952e-07,1.6322123561124176e-05
5.70639657824191e-07,2.20808549281572e-07,2.359215976695032e-07,1.6366473118746832e-05
5.829246412437006e-07,2.240751620008728e-07,2.3624547071172533e-07,1.6401859905265694e-05
5.954811869761318e-07,2.2734926423640685e-07,2.366165292382216e-07,1.6427927053829807e-05
6.082723417096664e-07,2.3061780230687551e-07,2.3703836427949533e-07,1.644443237805285e-05
6.212529611910628e-07,2.3386799211171712e-07,2.375134290025689e-07,1.645122530018965e-05
6.343694807600212e-07,2.370873040566915e-07,2.3804159517504894e-07,1.6448246392053186e-05
6.475605865879913e-07,2.402623006632556e-07,2.386202359250062e-07,1.6435505796186978e-05
6.607596334547124e-07,2.433778620870477e-07,2.3924469279048e-07,1.6413032354575914e-05
6.738987253261906e-07,2.464177460478986e-07,2.399090193624093e-07,1.6380839676698346e-05
6.869122594128472e-07,2.493659940283504e-07,2.406065640618332e-07,1.633895305985933e-05
6.997375139740557e-07,2.52209103156717e-07,2.4133020331861107e-07,1.628746343442195e-05
7.123129551276581e-07,2.5493824101226594e-07,2.4207298966308443e-07,1.6226540797691226e-05
7.24578391917444e-07,2.5754962685271177e-07,2.428286710594161e-07,1.6156404593469187e-05
7.364788991496307e-07,2.6004263768488265e-07,2.4359141554766945e-07,1.607728954174104e-05
7.479694712392856e-07,2.6241760146258023e-07,2.443561900715648e-07,1.5989462934246356e-05
7.590171595672678e-07,2.6467475534038966e-07,2.451196116994445e-07,1.5893348837353855e-05
7.696015655036524e-07,2.668136019543613e-07,2.458794048832692e-07,1.578966631888458e-05
7.797164718562537e-07,2.688323535045881e-07,2.4663372758322956e-07,1.5679412115541203e-05
7.893715281382102e-07,2.7072909687691986e-07,2.473822275691765e-07,1.5563719662403102e-05
7.98590762765579e-07,2.725042906132905e-07,2.4812714745421074e-07,1.5443733226215618e-05
8.074079681383181e-07,2.741611761728044e-07,2.488725715250741e-07,1.5320524914827617e-05
8.158601348823984e-07,2.7570377624212585e-07,2.496225954611303e-07,1.5195034831251698e-05
8.239804693049005e-07,2.771357029723591e-07,2.5037989080060603e-07,1.5068037902179232e-05
8.317949213768577e-07,2.784604674501279e-07,2.5114579651727584e-07,1.4940142612862613e-05
8.393234976608521e-07,2.796815603104608e-07,2.519220647878101e-07,1.4811810733411373e-05
8.46583428589292e-07,2.808018711694885e-07,2.5271186342309214e-07,1.4683375823022418e-05
8.535928481821702e-07,2.818234286219487e-07,2.5351903280113445e-07,1.4555053935946415e-05
8.6037306485523e-07,2.8274789058485606e-07,2.543482279674505e-07,1.4426955391035916e-05
8.669450929597323e-07,2.8357698880308145e-07,2.55205565311999e-07,1.429909743832518e-05
8.733226145273434e-07,2.843124941013878e-07,2.5609756456291197e-07,1.4171408693242447e-05
8.795092615162901e-07,2.8495610034722307e-07,2.5703008721097067e-07,1.4043735938262836e-05
8.855011904382986e-07,2.855094125040001e-07,2.580078717976941e-07,1.3915879126977106e-05
8.912891682602991e-07,2.85974201132766e-07,2.590332533584202e-07,1.3787651749496412e-05
8.968585015739302e-07,2.863528312959053e-07,2.601051416895336e-07,1.3658921381477229e-05
9.021897362947727e-07,2.866482646538166e-07,2.6121927217444147e-07,1.3529588387584684e-05
9.072605091227856e-07,2.868638330921159e-07,2.6236878753404107e-07,1.3399529058161287e-05
9.120468792600586e-07,2.8700337926484665e-07,2.635449522107065e-07,1.3268569093965794e-05
9.165251884376905e-07,2.8707205753652055e-07,2.647387634939671e-07,1.3136502960582487e-05
9.206760734397699e-07,2.8707880279247825e-07,2.659424337087592e-07,1.300313127614467e-05
9.244892469522431e-07,2.870394318086235e-07,2.6714883530394577e-07,1.2868290632977455e-05
9.279671331636513e-07,2.8697613999568693e-07,2.683496302154488e-07,1.2731856473542135e-05
9.311262922260892e-07,2.8691280196777375e-07,2.695342951370477e-07,1.2593726554457354e-05
9.339957055920471e-07,2.868712170196301e-07,2.70690534515298e-07,1.2453824270515994e-05
9.366125713043448e-07,2.8687136857888996e-07,2.718049925075443e-07,1.2312129008808632e-05
9.390162256197002e-07,2.8693239873704186e-07,2.7286371479927e-07,1.2168691337123688e-05
9.412404518741726e-07,2.870719256848175e-07,2.738528928418467e-07,1.2023618708439333e-05
9.43307610544236e-07,2.8730595014073137e-07,2.747598929174431e-07,1.1877050600228841e-05
9.45227406833655e-07,2.876488893038819e-07,2.755746534107376e-07,1.1729137265207546e-05
9.469997805609476e-07,2.881118344552193e-07,2.7629154028515345e-07,1.1580058415386764e-05
9.486225167488835e-07,2.8870141851476145e-07,2.769092292631136e-07,1.1430076563543187e-05
9.501014684403444e-07,2.8942108893037054e-07,2.7742771565372593e-07,1.1279538948131347e-05
9.514545233190693e-07,2.902728140950514e-07,2.778457864553229e-07,1.1128824607138697e-05
9.527061284713295e-07,2.9125793406958344e-07,2.7816059327974966e-07,1.097832018000219e-05
9.538810691652529e-07,2.923782537501592e-07,2.783679403297259e-07,1.0828418422445255e-05
9.550017570508214e-07,2.936376955560618e-07,2.784628203174501e-07,1.0679494127534847e-05
9.560842384210766e-07,2.9504292821525125e-07,2.7844088043909697e-07,1.053188802209043e-05
9.57133160352008e-07,2.966017981578904e-07,2.78300101458682e-07,1.038591740191387e-05
9.58140090683823e-07,2.9832015579834165e-07,2.780409999831828e-07,1.0241873025090365e-05
9.590850321728358e-07,3.001989768380231e-07,2.776654564416777e-07,1.0100000886712705e-05
9.599389836508876e-07,3.022333340115007e-07,2.7717572839792217e-07,9.960508436668941e-06
9.606670182226606e-07,3.0441319923555777e-07,2.7657458243411195e-07,9.823600334793017e-06
9.612315166269848e-07,3.067251304886875e-07,2.758660741163616e-07,9.689537369907988e-06
9.615941955775543e-07,3.091536816098445e-07,2.7505581827156427e-07,9.558710722751814e-06
9.6171680211436e-07,3.116821641454235e-07,2.741503390976439e-07,9.431665043550027e-06
9.615614290228184e-07,3.14293242318725e-07,2.7315609877047205e-07,9.309020352988589e-06
9.6109040201105e-07,3.169694431108601e-07,2.7207871405349953e-07,9.191365294164972e-06
9.602673693744079e-07,3.1969370745186574e-07,2.709222926234129e-07,9.079202828535664e-06
9.590602102345751e-07,3.224499497398909e-07,2.6968911385502644e-07,8.972934206290505e-06
9.574420934351728e-07,3.252231986153851e-07,2.6838006831267984e-07,8.872852852287597e-06
9.553913329168487e-07,3.2799968473591466e-07,2.669953657847691e-07,8.779149474918767e-06
9.528953229369985e-07,3.307671330463435e-07,2.655350166273593e-07,8.691944630695661e-06
9.499575293455431e-07,3.335146772622263e-07,2.63999367035399e-07,8.611390845890347e-06
9.4660012392416e-07,3.362323420493099e-07,2.6238931542031174e-07,8.537825867103433e-06
9.428578172298422e-07,3.389104267748781e-07,2.607057869553289e-07,8.471821836573459e-06
9.387678609753344e-07,3.415386264460474e-07,2.589492713552454e-07,8.414037299234842e-06
9.343662318795405e-07,3.441057013040908e-07,2.57119811884655e-07,8.365013561493193e-06
9.296911869276795e-07,3.4660099070789443e-07,2.552171540154765e-07,8.325092969604023e-06
9.247850778059044e-07,3.4901592228325307e-07,2.5324133701644693e-07,8.294499243511185e-06
9.196906036612669e-07,3.513432301086511e-07,2.511935209560788e-07,8.273563996324434e-06
9.144462369798235e-07,3.535766503882957e-07,2.490761924216866e-07,8.26299930294894e-06
9.090838299689399e-07,3.557133915766302e-07,2.4689307728789803e-07,8.263999900674937e-06
9.036290384676356e-07,3.5775524007111454e-07,2.446490959649755e-07,8.278089388930908e-06
8.981051374137173e-07,3.597056804373348e-07,2.4234952779569785e-07,8.306853580320075e-06
8.925386528429894e-07,3.6156676270423456e-07,2.399989003612975e-07,8.351717904848099e-06
8.869637669457785e-07,3.6333864632196065e-07,2.3760120133597308e-07,8.413818593834e-06
8.814227349562924e-07,3.650210440784228e-07,2.351609795766569e-07,8.493946348945564e-06
8.759612894087433e-07,3.6661437217584097e-07,2.326839900553204e-07,8.592525043846623e-06
8.706211379949862e-07,3.681189809557155e-07,2.301774379090521e-07,8.709606771286755e-06
8.654341494708807e-07,3.6953385963593627e-07,2.2764976193911637e-07,8.84488362186063e-06
8.604220101721588e-07,3.708565405250777e-07,2.25109615796444e-07,8.997720967422194e-06
8.556006634818719e-07,3.7208321849819953e-07,2.225649707833961e-07,9.167210619258313e-06
8.509860052318269e-07,3.732085021166477e-07,2.2002318931441702e-07,9.35223972624172e-06
8.465975517183013e-07,3.742254688542122e-07,2.1749153439611345e-07,9.551568543672647e-06
8.424575459253272e-07,3.751258578867322e-07,2.149769946770052e-07,9.763908520861681e-06
8.385867574891186e-07,3.758999942953836e-07,2.1248562956876475e-07,9.988004337916783e-06
8.350009983513055e-07,3.7653676794228893e-07,2.1002265563798132e-07,1.0222716282687309e-05
8.317098514970606e-07,3.770239570835996e-07,2.07592816333882e-07,1.0467073320133656e-05
8.287168662806129e-07,3.773490535482909e-07,2.0520071758237863e-07,1.0720285730624717e-05
8.260192097786074e-07,3.775006800783511e-07,2.028522262725711e-07,1.0981735499252343e-05
8.236061584178008e-07,3.7746976373267814e-07,2.0055562410463843e-07,1.1250929808681559e-05
8.21459945619767e-07,3.7725017923844727e-07,1.983212155935135e-07,1.1527388540534227e-05
8.195597989718522e-07,3.768389702796879e-07,1.961613736652593e-07,1.181050583356172e-05
8.178845174295563e-07,3.762350730568066e-07,1.940909000721222e-07,1.209946549639092e-05
8.164121314377513e-07,3.7543728280051063e-07,1.9212537576760309e-07,1.2393231572560042e-05
8.151196355350865e-07,3.7444361507105844e-07,1.9027874236713407e-07,1.269058836026843e-05
8.139833082779737e-07,3.7325224532492965e-07,1.8856278009704328e-07,1.299022093022969e-05
8.129780454526318e-07,3.718630059179624e-07,1.8698800065244238e-07,1.3290801212749405e-05
8.120755865861269e-07,3.7027809329763173e-07,1.855641218713727e-07,1.3591016762928801e-05
8.112440681573303e-07,3.685016988555181e-07,1.8429987702490672e-07,1.3889555984165473e-05
8.104524105926877e-07,3.6653983374862326e-07,1.832028173180455e-07,1.4185112961404932e-05
8.096772166437256e-07,3.6440046506538e-07,1.8227934045555468e-07,1.4476428185201878e-05
8.089048932315809e-07,3.620930128431111e-07,1.8153457387315608e-07,1.4762331613865616e-05
8.08127728836017e-07,3.59627302439834e-07,1.809718329680879e-07,1.5041732478096366e-05
8.073394215298729e-07,3.5701263550574005e-07,1.8059219790396148e-07,1.5313552656447255e-05
8.065340394330474e-07,3.542571321216733e-07,1.8039446764518012e-07,1.5576677447397063e-05
8.057073200895441e-07,3.51367509174444e-07,1.8037506497707764e-07,1.5829953987093837e-05
8.04857286589654e-07,3.483495657192349e-07,1.805279839426461e-07,1.607220064714538e-05
8.03983541693287e-07,3.4520878963260603e-07,1.8084523248062748e-07,1.6302235270038827e-05
8.030853626879075e-07,3.419503256012315e-07,1.8131801745692612e-07,1.65189488260239e-05
8.021593212323783e-07,3.3857863557373647e-07,1.8193836669004024e-07,1.6721363895627913e-05
8.012013461044556e-07,3.3509758913633304e-07,1.827003299014374e-07,1.6908608237613167e-05
8.002150431454038e-07,3.315111115804297e-07,1.8359977658920105e-07,1.7079857497007046e-05
7.99217534421349e-07,3.2782402476707374e-07,1.846326887180404e-07,1.7234335270978533e-05
7.982354602370884e-07,3.240423926007968e-07,1.8579352031884502e-07,1.7371354863796565e-05
7.972956017317622e-07,3.201734333166879e-07,1.8707445971078814e-07,1.7490344580374e-05
7.964173354068465e-07,3.162264483484371e-07,1.8846525293492977e-07,1.7590846338738976e-05
7.956092250967211e-07,3.122144974096829e-07,1.8995443521188532e-07,1.767250854762311e-05
7.948693103307869e-07,3.081543261648537e-07,1.9153176318034987e-07,1.773513058447298e-05
7.94187523683954e-07,3.040642916247797e-07,1.9318934296326942e-07,1.7778815683665592e-05
7.935502085510389e-07,2.9996220963486465e-07,1.949206078763036e-07,1.780413328750115e-05
7.929459186436846e-07,2.958642087903813e-07,1.967186718716423e-07,1.7812112270596257e-05
7.923670903015988e-07,2.917848592390339e-07,1.98575360523636e-07,1.7804072059096572e-05
7.918068495270606e-07,2.8773760040607446e-07,2.004812744874666e-07,1.7781421506072827e-05
7.91256341840441e-07,2.8373409751136237e-07,2.0242644300959448e-07,1.7745521282069973e-05
7.907049349934227e-07,2.797832246877814e-07,2.0440082756581585e-07,1.7697726781943733e-05
7.90143297240781e-07,2.7589112381039445e-07,2.063946005219713e-07,1.763961188945045e-05
7.895665040461869e-07,2.720622953302016e-07,2.0839870972477006e-07,1.7573125106629706e-05
7.889724959176255e-07,2.683004498957427e-07,2.1040519557486125e-07,1.7500510373305475e-05
7.883574191358736e-07,2.646085113991023e-07,2.1240675815386764e-07,1.7424105448268977e-05
7.877130449963762e-07,2.609883993839284e-07,2.143966676766964e-07,1.7346159461014346e-05
7.870274446716689e-07,2.574408131197189e-07,2.163687587909049e-07,1.726869977414973e-05
7.862879183825181e-07,2.539649456017458e-07,2.1831673985094575e-07,1.7193439934144117e-05
7.854859125322549e-07,2.505587034386861e-07,2.2023387903896775e-07,1.712171964230114e-05
7.846220675877109e-07,2.472198379628576e-07,2.2211319557252407e-07,1.7054482087793567e-05
7.837083440392635e-07,2.4394721978260866e-07,2.2394768520178922e-07,1.6992300831196802e-05
7.827659283914009e-07,2.407410995081476e-07,2.257308190952187e-07,1.6935437509774675e-05
7.818209500248739e-07,2.376027073476802e-07,2.27456893035909e-07,1.688388946835902e-05
7.809007007482109e-07,2.3453431295950126e-07,2.2912117391410586e-07,1.6837418401424216e-05
7.800290664355337e-07,2.315391746020957e-07,2.307202093126473e-07,1.679559551003437e-05
7.792217809641097e-07,2.286208051457943e-07,2.3225180636316124e-07,1.6757886203778308e-05
7.784865102174988e-07,2.257830995264193e-07,2.3371494582668352e-07,1.6723753267132157e-05
7.778274571797291e-07,2.230314649043952e-07,2.3511033126453294e-07,1.6692744639288312e-05
7.772522333931154e-07,2.203731754202869e-07,2.3644060209908237e-07,1.6664537153756565e-05
7.767809686692359e-07,2.178168873200484e-07,2.3770985362310539e-07,1.663892434900286e-05
7.764526101125776e-07,2.1537202312356486e-07,2.3892317892421497e-07,1.6615775022838115e-05
7.76323408544427e-07,2.1304785048287673e-07,2.4008574925283697e-07,1.6594992547225088e-05
7.764601481120206e-07,2.108524679088043e-07,2.412017050803223e-07,1.6576470392529746e-05
7.769335074383551e-07,2.0879249577772342e-07,2.422742105899464e-07,1.656004351098916e-05
7.778138354014766e-07,2.0687328526466328e-07,2.433066703793993e-07,1.6545457873090905e-05
7.791694239221596e-07,2.0509916245896822e-07,2.4430398417577944e-07,1.6532356956951065e-05
7.810686177698872e-07,2.0347386436406976e-07,2.4527312522154515e-07,1.6520274526468928e-05
7.83583026536452e-07,2.020004919994064e-07,2.4622296348974e-07,1.6508670590879957e-05
7.867839179881491e-07,2.0068045297190603e-07,2.471633208138407e-07,1.6497026553064385e-05
7.90732541996231e-07,1.9951259794842746e-07,2.481036801158781e-07,1.64849211002019e-05
7.954735712940849e-07,1.9849415699058615e-07,2.4905258014759677e-07,1.6472028600858648e-05
8.010343739752572e-07,1.9762340757814148e-07,2.500177913692483e-07,1.6458091731493614e-05
8.074269426888469e-07,1.9690145108921988e-07,2.5100574100179246e-07,1.6442927691604335e-05
8.146492348002914e-07,1.9633088657668377e-07,2.520202091017813e-07,1.6426433442869827e-05
8.226837527649522e-07,1.959135333468877e-07,2.530625915174928e-07,1.640853604418213e-05
8.314961703742327e-07,1.9565027067468642e-07,2.5413400728205826e-07,1.6389136567558316e-05
8.410370852835987e-07,1.9554130643353623e-07,2.5523705701231445e-07,1.6368113035276966e-05
8.512442004068538e-07,1.9558491089140877e-07,2.5637560294341376e-07,1.6345357553920587e-05
8.620437292323527e-07,1.9577685587797673e-07,2.5755267516404565e-07,1.6320821995610595e-05
8.733542999417331e-07,1.9611136358767365e-07,2.58768438429905e-07,1.6294585650543073e-05
8.850928050697157e-07,1.965815955963687e-07,2.6002036234764335e-07,1.62669344967441e-05
8.971778481832693e-07,1.971802570982484e-07,2.613053259686782e-07,1.6238393138844246e-05
9.095317836739809e-07,1.979019866532091e-07,2.6262140373949466e-07,1.6209650469929097e-05
9.220857551350851e-07,1.9874615038287328e-07,2.639678439773247e-07,1.6181408692028384e-05
9.347866467297359e-07,1.9971775517758337e-07,2.653440422283123e-07,1.6154252387224677e-05
9.47602218257477e-07,2.008255877798868e-07,2.6674915084857414e-07,1.612859123030594e-05
9.605233695599319e-07,2.0207840490699235e-07,2.681823988670336e-07,1.6104660056577775e-05
9.735614237921e-07,2.0348213991682925e-07,2.696431184326105e-07,1.608254405094412e-05
9.867383719142772e-07,2.0503960538221558e-07,2.7113019445543986e-07,1.606220563820707e-05
1.000075092999461e-06,2.067511678933478e-07,2.7264154370994037e-07,1.604353455955581e-05
1.0135856693160334e-06,2.0861538193296454e-07,2.7417397862109284e-07,1.6026487159586765e-05
1.027278605829051e-06,2.1062938768467838e-07,2.757230434935397e-07,1.6011241238543593e-05
1.0411586513476332e-06,2.127888363345125e-07,2.772827904085279e-07,1.5998177273175528e-05
1.0552261446723394e-06,2.150874625582148e-07,2.788457577720212e-07,1.5987701089522088e-05
1.0694759001879214e-06,2.1751679707975808e-07,2.804029666884455e-07,1.5980089516527714e-05
1.083894772420092e-06,2.2006746263914146e-07,2.819441373570366e-07,1.5975465391756788e-05
1.098456818849622e-06,2.227320496436049e-07,2.834586872409275e-07,1.5973950927825e-05
1.1131196564257388e-06,2.255061310876852e-07,2.8493742193201235e-07,1.5975958037977667e-05
1.1278250790907817e-06,2.2838664009260173e-07,2.8637353653742854e-07,1.5982400241337134e-05
1.1425041397211174e-06,2.313712439597908e-07,2.8776163486571693e-07,1.5994656373809566e-05
1.1570847653096164e-06,2.344589902159463e-07,2.890960421317728e-07,1.6014366087747173e-05
1.171499040450275e-06,2.3764976322897058e-07,2.903705549403947e-07,1.6043223010876732e-05
1.1856889244432631e-06,2.409428493238568e-07,2.915795173909651e-07,1.6082829129735294e-05
1.199609867500785e-06,2.443356072635848e-07,2.9271848964345664e-07,1.61345866403137e-05
1.2132309586537942e-06,2.4782285407240483e-07,2.9378371796841913e-07,1.6199587161768735e-05
1.2265306416538022e-06,2.5139800702503005e-07,2.947718569474544e-07,1.6278504436937315e-05
1.2394917016119695e-06,2.550544288782911e-07,2.9568100671877517e-07,1.6371539044437955e-05
1.2521011559258222e-06,2.58784361882473e-07,2.965113664364783e-07,1.647843544171129e-05
1.2643519024993206e-06,2.6257705936665487e-07,2.972643285049191e-07,1.6598544348209404e-05
1.2762397353026205e-06,2.664186472276892e-07,2.9794154328905546e-07,1.6730901337663713e-05
1.2877577735121434e-06,2.702929146972221e-07,2.985446425104025e-07,1.6874315208730646e-05
1.2988922573135777e-06,2.741824060254893e-07,2.9907475197018907e-07,1.702746338805789e-05
1.3096205688671049e-06,2.780700420938657e-07,2.995321591557232e-07,1.7188981772773713e-05
1.3199123864319856e-06,2.819397939121571e-07,2.999169975818984e-07,1.7357548731864726e-05
1.3297330997388531e-06,2.85776064775513e-07,3.002307540421916e-07,1.753196947152156e-05
1.3390485068204315e-06,2.895635949278097e-07,3.004767472383369e-07,1.7711230301083587e-05
1.3478304230947796e-06,2.932877326445281e-07,3.006583064507297e-07,1.7894489411161698e-05
1.3560586217101572e-06,2.9693405769863484e-07,3.0077705993733804e-07,1.808102691224181e-05
1.363716099843816e-06,3.004882160620257e-07,3.008335270524713e-07,1.8270189697729323e-05
1.370782389514451e-06,3.0393630750106965e-07,3.0082863588341963e-07,1.8461334665206604e-05
1.377230762614346e-06,3.072650455219423e-07,3.007642297498818e-07,1.865376758277637e-05
1.3830303524428715e-06,3.104617184879084e-07,3.006426069187087e-07,1.88466811857432e-05
1.3881492601174986e-06,3.1351420563041445e-07,3.0046607596208897e-07,1.9039119680665367e-05
1.3925553159718774e-06,3.1641066603587216e-07,3.002368966015174e-07,1.9230030785956545e-05
1.3962158738086786e-06,3.191390026402522e-07,2.99957977265862e-07,1.9418395285422988e-05
1.399097732107352e-06,3.2168685832047e-07,2.996342321362829e-07,1.9603304794920706e-05
1.4011674556787574e-06,3.240422187499039e-07,2.992729370100534e-07,1.978391865295339e-05
1.4023931910688836e-06,3.261943301398565e-07,2.9888197876242316e-07,1.995938488571955e-05
1.402746392122127e-06,3.281348465993104e-07,2.984673101880301e-07,2.012882033096684e-05
1.4022024162829244e-06,3.298583025124261e-07,2.980315701482005e-07,2.0291353408528783e-05
1.4007413313455554e-06,3.313613513288822e-07,2.975743146887462e-07,2.044615724394203e-05
1.3983481437738585e-06,3.326419286057813e-07,2.970930463418811e-07,2.059240920556937e-05
1.3950117769803792e-06,3.33699151124728e-07,2.965841134188883e-07,2.0729227384449832e-05
1.3907239081188953e-06,3.3453376024332234e-07,2.960429850870875e-07,2.0855698645799578e-05
1.3854776107406172e-06,3.351489846467039e-07,2.954640871180533e-07,2.0971031750091068e-05
1.3792665572681835e-06,3.3555107400245607e-07,2.9484110365360264e-07,2.107475986345308e-05
1.3720860868493478e-06,3.357486759658539e-07,2.941681794646689e-07,2.116686309333451e-05
1.363933872509292e-06,3.3575200966830037e-07,2.9344081424463296e-07,2.124772362144481e-05
1.3548091353086492e-06,3.355728909246878e-07,2.92655365943194e-07,2.1317952080340947e-05
1.3447145312467334e-06,3.3522437780846537e-07,2.918079628125212e-07,2.137819249074624e-05
1.333661453256976e-06,3.347193112963769e-07,2.90893959154519e-07,2.142900098336196e-05
1.3216726578285403e-06,3.3406932193673336e-07,2.8990804439986586e-07,2.1470841023798715e-05
1.3087794412986356e-06,3.332846335640407e-07,2.8884469947374297e-07,2.1504139432957875e-05
1.2950190037273022e-06,3.3237395902811606e-07,2.8769858517130925e-07,2.1529321030130312e-05
1.2804351598765673e-06,3.31345153419253e-07,2.8646440689113587e-07,2.1546789303010565e-05
1.2650772233243313e-06,3.302062977353687e-07,2.851365963514793e-07,2.1556885588812367e-05
1.2489951011376684e-06,3.2896572698189914e-07,2.8370997677247627e-07,2.1559944721656977e-05
1.2322357951963638e-06,3.276312943671124e-07,2.82181646847508e-07,2.1556450370802977e-05
1.2148451487672588e-06,3.2621078153611344e-07,2.8055236823362245e-07,2.1547079193102812e-05
1.1968728745766871e-06,3.2471458115335626e-07,2.7882572932808533e-07,2.153255619746589e-05
1.1783752516738062e-06,3.231589130909066e-07,2.7700584993632943e-07,2.151351547647003e-05
1.159413422750543e-06,3.215669026754716e-07,2.750957454352177e-07,2.1490564699083483e-05
1.1400506719679086e-06,3.199666938832939e-07,2.7309746739720456e-07,2.146453400491332e-05
1.1203512059298751e-06,3.1838735451410487e-07,2.710137220422165e-07,2.143665616259043e-05
1.1003792246177764e-06,3.168553128395442e-07,2.6884881564593527e-07,2.140849007696553e-05
1.0801975192680565e-06,3.153934332733821e-07,2.666076503817166e-07,2.138169555702653e-05
1.0598692323658731e-06,3.1402118133495325e-07,2.642949320780888e-07,2.1357825322491585e-05
1.0394630932975729e-06,3.127542064331684e-07,2.619160953564765e-07,2.1338168383408624e-05
1.019054182934967e-06,3.1160404372997714e-07,2.594787662833301e-07,2.1323645751238674e-05
9.987171527585009e-07,3.105790112410484e-07,2.5699317975375764e-07,2.1314769110417328e-05
9.785185678584422e-07,3.0968561071230307e-07,2.5447106760753145e-07,2.131165431057464e-05
9.585136585732408e-07,3.0892899098239267e-07,2.5192408490999925e-07,2.131406415702477e-05
9.387471309785471e-07,3.083127763226843e-07,2.493628659476339e-07,2.132145871427576e-05
9.192552989069349e-07,3.078389478364478e-07,2.467969947434257e-07,2.133304732347704e-05
9.000675567294915e-07,3.07507976697852e-07,2.442356306935068e-07,2.134783864302708e-05
8.812079397849514e-07,3.073195474159281e-07,2.41687867350965e-07,2.1364696443987882e-05
8.626971064879093e-07,3.072729375644915e-07,2.3916227665150034e-07,2.1382414045329272e-05
8.445528696424111e-07,3.073660033235707e-07,2.3666631726475129e-07,2.139979576411854e-05
8.267907176454141e-07,3.075936616195244e-07,2.342063900421401e-07,2.141573384224181e-05
8.094289399895004e-07,3.079476416517536e-07,2.3178824434276572e-07,2.1429269885609328e-05
7.924970083379494e-07,3.084183588569419e-07,2.2941752106494197e-07,2.1439603700319697e-05
7.760394849205918e-07,3.0899754925174325e-07,2.2710039714892372e-07,2.1446048348992386e-05
7.601130010100879e-07,3.096794843803423e-07,2.248433808903021e-07,2.144799530413019e-05
7.447808120782709e-07,3.104604545114561e-07,2.2265222413922148e-07,2.1444922393443266e-05
7.301067064224212e-07,3.113373378290497e-07,2.205310763744472e-07,2.143639959674393e-05
7.161481608969798e-07,3.1230675449098847e-07,2.1848203683974328e-07,2.1422048315128505e-05
7.029514742796233e-07,3.1336631523812963e-07,2.1650487606678648e-07,2.1401472998935172e-05
6.905503979504718e-07,3.1451609057631745e-07,2.1459711395107605e-07,2.1374210365409e-05
6.789663715772448e-07,3.157575362655573e-07,2.1275435332315602e-07,2.1339733660967048e-05
6.682083875036011e-07,3.1709112843452976e-07,2.109711240243938e-07,2.129754073633385e-05
6.582726665627982e-07,3.18515064615116e-07,2.092434290348645e-07,2.124728936417024e-05
6.491432114971586e-07,3.2002496851612216e-07,2.0757213222955014e-07,2.118887576096815e-05
6.407935484233011e-07,3.216140864555854e-07,2.0596328442207602e-07,2.1122406973211772e-05
6.331894947820531e-07,3.2327359533098985e-07,2.0442474127936398e-07,2.1048107160745083e-05
6.262929667465417e-07,3.2499287340625404e-07,2.0296363590902611e-07,2.096620467500743e-05
6.200664126858557e-07,3.267612990658609e-07,2.015867830014168e-07,2.0876840897924075e-05
6.144768776641365e-07,3.2857066239367683e-07,2.003015108374347e-07,2.0780045248143605e-05
6.095020749878783e-07,3.304143206923433e-07,1.9911583421697734e-07,2.0675766132246488e-05
6.051411503791945e-07,3.322840871755894e-07,1.9803853486323867e-07,2.056389841774385e-05
6.014244539618736e-07,3.3416934703589466e-07,1.9707851852444449e-07,2.044428689326709e-05
5.984151012078165e-07,3.360584972796597e-07,1.962437129918381e-07,2.031673991682765e-05
5.962026730105174e-07,3.379397990969088e-07,1.9554091453296281e-07,2.018108706846545e-05
5.948938731305769e-07,3.3980131086863525e-07,1.9497605856484827e-07,2.0037285179832245e-05
5.946054184560319e-07,3.416310516210541e-07,1.945533712540241e-07,1.9885528047301184e-05
5.954604524763929e-07,3.434172796976908e-07,1.9427438340534576e-07,1.972627903566321e-05
5.975830765802921e-07,3.451486763091347e-07,1.941386942603879e-07,1.956019376638716e-05
6.010864966599835e-07,3.4681432740450423e-07,1.9414521397567846e-07,1.938798152749636e-05
6.060597423188167e-07,3.4840328316364e-07,1.9429212562619969e-07,1.921028235260428e-05
6.125605595799406e-07,3.499040970387681e-07,1.9457703919055421e-07,1.9027610910168352e-05
6.20614164785843e-07,3.513048944468946e-07,1.949980333432604e-07,1.8840358362874825e-05
6.302151360580256e-07,3.5259432235516406e-07,1.9555392748270944e-07,1.8648811418234e-05
6.41334594847798e-07,3.5376280287523773e-07,1.9624499726474016e-07,1.845320583932493e-05
6.539324290920292e-07,3.5480359009734714e-07,1.9707520453224703e-07,1.8253873901080427e-05
6.679654715938729e-07,3.557144973595758e-07,1.9805185494267573e-07,1.805141482388964e-05
6.833846005761114e-07,3.5649908633581893e-07,1.9918145855844378e-07,1.784671313948791e-05
7.001282469358871e-07,3.571645550759181e-07,2.0046644378484284e-07,1.764079728476835e-05
7.181238821595339e-07,3.5771786225308707e-07,2.019050648314357e-07,1.7434685018552634e-05
7.37298224826982e-07,3.581637478718814e-07,2.0349382145484973e-07,1.7229292274643114e-05
7.575903378723376e-07,3.585050272089566e-07,2.052310131598221e-07,1.702544063016494e-05
7.789621586446999e-07,3.587439661062374e-07,2.071184383935164e-07,1.6824014869813128e-05
8.014038286544746e-07,3.588833560073361e-07,2.091598770598194e-07,1.6626173906532434e-05
8.249337178639325e-07,3.589261829386949e-07,2.1135895093920613e-07,1.6433397836991134e-05
8.495906398622708e-07,3.5887522176701467e-07,2.137187276564499e-07,1.6247339720607574e-05
8.754180443709771e-07,3.587333922893649e-07,2.162416389414259e-07,1.6069643533056743e-05
9.02447006590795e-07,3.5850396213315846e-07,2.1892771070580698e-07,1.5901825789405887e-05
9.306833240625444e-07,3.5819071099084907e-07,2.217724878665894e-07,1.5745209639580932e-05
9.601006709519086e-07,3.577980300903989e-07,2.247667645550768e-07,1.560088266549755e-05
9.906409316007052e-07,3.5733122839863117e-07,2.27897508176639e-07,1.5469666533525744e-05
1.0222189117794296e-06,3.5679750729651905e-07,2.3114854502944823e-07,1.5352104253283413e-05
1.0547273392144732e-06,3.562059408835997e-07,2.345010209272789e-07,1.5248467967113848e-05
1.0880411274178964e-06,3.5556607710001845e-07,2.379338536473045e-07,1.515876651718837e-05
1.1220223524129849e-06,3.5488674713519533e-07,2.4142406461782623e-07,1.5082738755245168e-05
1.1565254319796655e-06,3.5417518864949457e-07,2.449473239445961e-07,1.5019855231484384e-05
1.1913984616876651e-06,3.534363136017414e-07,2.484787325187205e-07,1.4969344969496106e-05
1.2264803467680432e-06,3.5267236259129537e-07,2.51993717930182e-07,1.4930240808698905e-05
1.2615986971802678e-06,3.518830045905393e-07,2.55469343113942e-07,1.4901450987199146e-05
1.296571202442647e-06,3.510664814317418e-07,2.588854270742327e-07,1.4881854220308955e-05
1.3312094502999626e-06,3.50221097058604e-07,2.622241845917942e-07,1.4870372636088129e-05
1.365324671357191e-06,3.493458056922146e-07,2.654688478506056e-07,1.4865995693807975e-05
1.3987344124963528e-06,3.484410783620116e-07,2.686029161671024e-07,1.4867782184191794e-05
1.431267136057405e-06,3.4750991242983716e-07,2.716102719326632e-07,1.4874861069047062e-05
1.4627647793824341e-06,3.4655698115558625e-07,2.744755841088408e-07,1.4886420187910422e-05
1.4930859896775385e-06,3.455870700731916e-07,2.771851344716435e-07,1.4901676078372851e-05
1.5221080473808003e-06,3.4460427744271025e-07,2.797284630492487e-07,1.491983247415122e-05
1.5497235146899383e-06,3.4361139995961706e-07,2.820993449694937e-07,1.4940054220298904e-05
1.5758341766320038e-06,3.4260985020098245e-07,2.842940168592961e-07,1.4961506087336483e-05
1.6003471575509744e-06,3.4159997041824013e-07,2.86308441583642e-07,1.4983446098057418e-05
1.6231732325239528e-06,3.4058075800347283e-07,2.881376145007148e-07,1.5005267873476813e-05
1.6442280505209483e-06,3.395496482017737e-07,2.897765728008883e-07,1.5026440943705814e-05
1.663439308028584e-06,3.3850313455159374e-07,2.9122184690796697e-07,1.5046420568740252e-05
1.6807564359368397e-06,3.3743763452901456e-07,2.924730038680449e-07,1.506459602570213e-05
1.6961561912154396e-06,3.363500043039344e-07,2.935331920828836e-07,1.5080281335889636e-05
1.7096438780802587e-06,3.352376349730906e-07,2.944078571527923e-07,1.5092732720524768e-05
1.72125381358817e-06,3.3409777341798575e-07,2.9510299351317676e-07,1.5101190631428193e-05
1.7310529607571065e-06,3.329261711430193e-07,2.9562428406657856e-07,1.5104939597282794e-05
1.7391487005862443e-06,3.317168031269761e-07,2.959767211459333e-07,1.5103363035204904e-05
1.7456935697234855e-06,3.3046371461565217e-07,2.9616425430564517e-07,1.5096009828427124e-05
1.7508780859602906e-06,3.291626756422778e-07,2.961899317010325e-07,1.5082713279778375e-05
1.754911552894233e-06,3.2781033711839173e-07,2.9605760100219487e-07,1.5063709785798892e-05
1.7579983616749112e-06,3.264027009694781e-07,2.957750425975966e-07,1.503963930585078e-05
1.7603192013686988e-06,3.2493507620205e-07,2.953557746438196e-07,1.5011409224372758e-05
1.762024722358963e-06,3.2340249671322233e-07,2.948176182348845e-07,1.4980006115659995e-05
1.763241289908941e-06,3.21799890175531e-07,2.94179785557224e-07,1.4946323654844349e-05
1.7640798980203393e-06,3.201227505117179e-07,2.9346063248318174e-07,1.4911051852076005e-05
1.764640904233596e-06,3.183675774321482e-07,2.926765493830656e-07,1.487465794364574e-05
1.7650161329361458e-06,3.1653138076537327e-07,2.918420910374495e-07,1.4837432309521576e-05
1.765293238970113e-06,3.1461156745030485e-07,2.909706210189373e-07,1.4799543077047708e-05
1.7655596030342083e-06,3.126067178294996e-07,2.9007453055265985e-07,1.4761072321073651e-05
1.7658988756779198e-06,3.105169279578772e-07,2.891654241640832e-07,1.4722069744773171e-05
1.7663818751484363e-06,3.083431479061923e-07,2.8825426453345607e-07,1.4682666196257276e-05
1.767059965854023e-06,3.0608673521845125e-07,2.8735042467424145e-07,1.4643161063676993e-05
1.7679659732777298e-06,3.0374986455029585e-07,2.8646028180141165e-07,1.4603956713330435e-05
1.7691218586015685e-06,3.013355031700828e-07,2.8558721869922445e-07,1.4565418247334307e-05
1.7705467085083717e-06,2.9884654803523157e-07,2.847325858772958e-07,1.4527890447745246e-05
1.7722570453264409e-06,2.9628556221576556e-07,2.8389644529126055e-07,1.4491943868785709e-05
1.7742586982514667e-06,2.936552415504572e-07,2.830790510205044e-07,1.4458626647442593e-05
1.7765378845641132e-06,2.909582475687028e-07,2.822828484665506e-07,1.4429476503901966e-05
1.7790586236585717e-06,2.88196494376126e-07,2.815124522089609e-07,1.4406330207704955e-05
1.7817665984307686e-06,2.853713864164461e-07,2.807723180928682e-07,1.4391114835864996e-05
1.7845940043027032e-06,2.824853315448664e-07,2.800646342453148e-07,1.4385699637646827e-05
1.7874622120223652e-06,2.795429837623873e-07,2.7938884859234054e-07,1.4391795497681833e-05
1.7902843696371888e-06,2.765512918402914e-07,2.7874215879645874e-07,1.441087547059173e-05
1.7929689738647732e-06,2.735191088941769e-07,2.781207472467529e-07,1.4444096939720966e-05
1.7954227573010997e-06,2.704566111363994e-07,2.775222805352603e-07,1.4492232439160824e-05
1.7975524088244984e-06,2.6737412280370114e-07,2.769478935756086e-07,1.4555637278260916e-05
1.7992664568019161e-06,2.6428088566305735e-07,2.764018089353008e-07,1.4634264677144546e-05
1.800478024728796e-06,2.611845993229388e-07,2.7589012795655685e-07,1.4727704259387854e-05
1.801106569575452e-06,2.5809144757149685e-07,2.754195438572884e-07,1.4835220176226092e-05
1.801076659254895e-06,2.5500613149931486e-07,2.749952701943809e-07,1.4955798784072256e-05
1.8003148212560867e-06,2.519323592122855e-07,2.746193719450063e-07,1.5088235435539915e-05
1.7987468483256362e-06,2.488739947496598e-07,2.7429049538729745e-07,1.5231270814040686e-05
1.7962968426058209e-06,2.458363595429348e-07,2.740042991070397e-07,1.5383736084623272e-05
1.7928884701604728e-06,2.4282705468264605e-07,2.7375380547950817e-07,1.5544635449110536e-05
1.7884495663158267e-06,2.398558392320481e-07,2.735298196084429e-07,1.5713143292376903e-05
1.7829191391338695e-06,2.3693389366222767e-07,2.7332209670000237e-07,1.5888561043953233e-05
1.7762513494575622e-06,2.340728580472732e-07,2.731206518015596e-07,1.6070276245437658e-05
1.7684138490433704e-06,2.312836638115943e-07,2.729158462180321e-07,1.6257732514889166e-05
1.7593837420954148e-06,2.2857562432592336e-07,2.7269805770585277e-07,1.645040113936927e-05
1.7491436714957496e-06,2.2595630960886692e-07,2.724585650166775e-07,1.664773958261927e-05
1.7376795763661439e-06,2.2343222453980995e-07,2.7219085237657107e-07,1.6849134379300118e-05
1.724981955268765e-06,2.2100945107227005e-07,2.7189058490120487e-07,1.7053839097259168e-05
1.7110505284087172e-06,2.186934873969813e-07,2.7155432532185694e-07,1.7260938186124255e-05
1.6959013601424803e-06,2.1648890906791639e-07,2.7117873121362946e-07,1.7469382556717676e-05
1.6795736976469989e-06,2.1439952867598592e-07,2.7076094256161805e-07,1.767807442234553e-05
1.6621317495626313e-06,2.1242866999784178e-07,2.702985181632274e-07,1.7885905104892604e-05
1.6436587986875117e-06,2.105790479679001e-07,2.697881889957923e-07,1.809171579289993e-05
1.624245555161416e-06,2.088530145443932e-07,2.692251219289495e-07,1.829425048566312e-05
1.6039794858750632e-06,2.0725383434674076e-07,2.686037151247105e-07,1.849215800053989e-05
1.5829415055202885e-06,2.0578586429524863e-07,2.679191147447318e-07,1.8684035510342187e-05
1.561208865172004e-06,2.044525390769317e-07,2.671686384837636e-07,1.8868480665317325e-05
1.538858967855414e-06,2.032551917518045e-07,2.663528629496149e-07,1.9044123037811696e-05
1.5159719138555253e-06,2.0219434385640808e-07,2.654755802142439e-07,1.9209625208269604e-05
1.492631147370897e-06,2.012712437755746e-07,2.6454228351055216e-07,1.9363680499498904e-05
1.468921076945636e-06,2.004877233418127e-07,2.63558710747642e-07,1.9505035198872453e-05
1.4449238847744015e-06,1.998451380483741e-07,2.625311975758664e-07,1.9632548416492392e-05
1.420719620514299e-06,1.993441954401461e-07,2.614688145002389e-07,1.9745287946482835e-05
1.3963894391744155e-06,1.9898526521362127e-07,2.603847331157944e-07,1.984259032243576e-05
1.3720180415223113e-06,1.9876749310861078e-07,2.59294725545564e-07,1.992400778047526e-05
1.347692147885545e-06,1.9868765726236905e-07,2.5821453990936746e-07,1.998920058482104e-05
1.3234960511774094e-06,1.987403842628048e-07,2.571582778049186e-07,2.003789738689856e-05
1.2995085147110996e-06,1.9891877200616762e-07,2.561373978001061e-07,2.0069932146495988e-05
1.2758026157857977e-06,1.9921448446688187e-07,2.551599833621335e-07,2.0085273198880983e-05
1.252445172854471e-06,1.9961802386250698e-07,2.5423065810156123e-07,2.0084010496504375e-05
1.2294942081816138e-06,2.0011939603393238e-07,2.5335099382250947e-07,2.0066330603250712e-05
1.206998833071777e-06,2.007090347226906e-07,2.525202561969463e-07,2.003253152311492e-05
1.1850025183110965e-06,2.013791790667015e-07,2.5173692891561925e-07,1.9983108943459192e-05
1.16354403262627e-06,2.0212451983925766e-07,2.5100074291180826e-07,1.9918818340426427e-05
1.142654953845943e-06,2.029407636270557e-07,2.5031362838564696e-07,1.9840594178714632e-05
1.1223577031526413e-06,2.038224152663212e-07,2.4967903146686177e-07,1.9749393275150893e-05
1.1026655476182878e-06,2.047619222840017e-07,2.491012885319445e-07,1.9646086720778048e-05
1.083584577733772e-06,2.05750181800636e-07,2.4858597437247965e-07,1.9531448157748708e-05
1.0651161809047966e-06,2.067771928028045e-07,2.4813961366933213e-07,1.940629980111883e-05
1.0472569137704406e-06,2.078327194360647e-07,2.477677270424982e-07,1.927177400403599e-05
1.0299963171531348e-06,2.089072698579894e-07,2.4747287696691927e-07,1.91294475215588e-05
1.0133161292662068e-06,2.099928992365754e-07,2.4725489472633145e-07,1.8981220593104943e-05
9.971917347887038e-07,2.110838035222763e-07,2.471131636015099e-07,1.8829087207797894e-05
9.815937907838775e-07,2.1217655862925375e-07,2.470482362259451e-07,1.8674957150785365e-05
9.66488548428465e-07,2.13269217856618e-07,2.4706117569227073e-07,1.8520556097037544e-05
9.518381518473679e-07,2.143600648042582e-07,2.47152391905415e-07,1.8367376327235408e-05
9.376026769713629e-07,2.1544714912909232e-07,2.4732129502362e-07,1.8216656169381257e-05
9.237429587813259e-07,2.1652840572116552e-07,2.4756650682783433e-07,1.806937125142303e-05
9.102234035085998e-07,2.1760271146924572e-07,2.4788645947236576e-07,1.7926229349097854e-05
8.970178634555327e-07,2.186717804748774e-07,2.482795225560039e-07,1.7787678097857614e-05
8.841193302518686e-07,2.197404122052969e-07,2.4874390000297213e-07,1.7653942299625666e-05
8.71544992238689e-07,2.2081411266140093e-07,2.492781269201016e-07,1.7525087104601475e-05
8.593296592182905e-07,2.218968746440813e-07,2.4988080201742147e-07,1.740107519749042e-05
8.475137737130441e-07,2.229909547597239e-07,2.5054957174161505e-07,1.7281803514766265e-05
8.361352563658377e-07,2.240976428215739e-07,2.512815518603229e-07,1.7167146870871313e-05
8.252264247093558e-07,2.2521824277441345e-07,2.520750803324243e-07,1.7057027878186348e-05
8.148134121289995e-07,2.2635535547864176e-07,2.5293095172085525e-07,1.6951485196897722e-05
8.049163772985304e-07,2.2751358827262073e-07,2.538516706257034e-07,1.6850698756518128e-05
7.955495064436991e-07,2.2869877853616142e-07,2.5483899650316905e-07,1.6754962522022313e-05
7.8671997597522e-07,2.2991705768489647e-07,2.558924752687073e-07,1.666462723708703e-05
7.78426661650434e-07,2.3117476052398872e-07,2.570097249342769e-07,1.6580043049385665e-05
7.706608286217516e-07,2.324777877228312e-07,2.5818699495727033e-07,1.6501515723939187e-05
7.634088855174046e-07,2.3383023312314358e-07,2.594200920314036e-07,1.642926643707787e-05
7.566549236047081e-07,2.3523413071628533e-07,2.607049360208113e-07,1.636338382354235e-05
7.503823533154424e-07,2.366905217759057e-07,2.6203652209568467e-07,1.6303802248596933e-05
7.445769371360479e-07,2.3819995247810694e-07,2.634079248386922e-07,1.625035555580611e-05
7.392322022034363e-07,2.397618702601687e-07,2.6481072502559584e-07,1.6202861560209475e-05
7.343532119429971e-07,2.4137440255007487e-07,2.662360193680399e-07,1.6161138721106657e-05
7.299539651503877e-07,2.430350475918364e-07,2.676752561252811e-07,1.612495458111972e-05
7.260521414050863e-07,2.4474099613923016e-07,2.691207788006383e-07,1.609398749174179e-05
7.22670561437446e-07,2.4648838984752625e-07,2.7056586966587326e-07,1.6067841708704418e-05
7.198450403296217e-07,2.4827191194508875e-07,2.7200448412242407e-07,1.6046082499129736e-05
7.176283848484659e-07,2.5008614797647227e-07,2.734309952775806e-07,1.602823356372626e-05
7.160856253465466e-07,2.5192788490364853e-07,2.7483942136773693e-07,1.601372901196914e-05
7.152850845792316e-07,2.537969446387793e-07,2.7622238991918867e-07,1.6001882220159117e-05
7.152896725130387e-07,2.5569437474665305e-07,2.775714154853094e-07,1.5991921330292562e-05
7.161483233217524e-07,2.5761983108441586e-07,2.7887883016605145e-07,1.5983062229362846e-05
7.178891220610755e-07,2.595704771989381e-07,2.8013962535685703e-07,1.5974573188961223e-05
7.20517627596341e-07,2.615415151621499e-07,2.813515758126383e-07,1.5965839745240087e-05
7.240199932268986e-07,2.6352700823242444e-07,2.8251395406594745e-07,1.5956423621018263e-05
7.283665915853741e-07,2.655203548871025e-07,2.836261867742062e-07,1.594604772484714e-05
7.335134921769862e-07,2.675154651880128e-07,2.8468724888345363e-07,1.5934497176477813e-05
7.394035666085064e-07,2.695078985261916e-07,2.8569569632393105e-07,1.592154399084707e-05
7.459689864988531e-07,2.714936165197616e-07,2.8664979102009556e-07,1.590696659588214e-05
7.531339340191819e-07,2.734667794364848e-07,2.875471176541911e-07,1.5890603721596023e-05
7.608160592806359e-07,2.7541958058605265e-07,2.883838456728422e-07,1.5872367774075893e-05
7.689271622877186e-07,2.773438722049049e-07,2.891548282192741e-07,1.5852207612675187e-05
7.773755360766772e-07,2.79232392526688e-07,2.898549753770161e-07,1.5830081133642735e-05
7.860710423762671e-07,2.8107908718510777e-07,2.9048106602922586e-07,1.580603568529611e-05
7.949306969785363e-07,2.8288013776774587e-07,2.9103358675195177e-07,1.5780337864880118e-05
8.038825440003035e-07,2.846359417726225e-07,2.9151814285573244e-07,1.5753451226045528e-05
8.12866096516557e-07,2.863515504968769e-07,2.919449573254907e-07,1.5725852425315033e-05
8.218280484882512e-07,2.880341063060874e-07,2.923266072818792e-07,1.5697866340983953e-05
8.307161807249521e-07,2.8968988752895647e-07,2.926761800239994e-07,1.5669635800734867e-05
8.394757515407464e-07,2.913235554460309e-07,2.9300605665326536e-07,1.5641270944373306e-05
8.480483396540839e-07,2.9293833797287735e-07,2.93326154518747e-07,1.561311708873113e-05
8.563718900582922e-07,2.945354814119865e-07,2.9364280681893807e-07,1.558591307502129e-05
8.643827652814848e-07,2.9611336612182266e-07,2.9396005527442577e-07,1.5560712291833633e-05
8.720187872855172e-07,2.976670093596201e-07,2.9428191898021536e-07,1.5538694902860124e-05
8.792201291898399e-07,2.991881725080396e-07,2.946130787340312e-07,1.5521009045748548e-05
8.859290910451016e-07,3.006660905005889e-07,2.9495800145313556e-07,1.5508655946879487e-05
8.920927676937462e-07,3.020885315911737e-07,2.953197595927608e-07,1.5502415552915115e-05
8.976685428714718e-07,3.0344259307929605e-07,2.956992279106165e-07,1.5502818376646345e-05
9.026291571848541e-07,3.0471536612315395e-07,2.960950239271778e-07,1.5510148077771303e-05
9.069653282351281e-07,3.0589528268719893e-07,2.965046095293713e-07,1.5524454491810427e-05
9.106859554366819e-07,3.069734334206049e-07,2.969267216397561e-07,1.554556832918737e-05
9.13816438130623e-07,3.0794343411309283e-07,2.973641010841857e-07,1.557311924774199e-05
9.16395013299592e-07,3.088005084043877e-07,2.978248886593768e-07,1.5606574527549937e-05
9.184678753050907e-07,3.095410471118143e-07,2.9832192979047e-07,1.5645309679942236e-05
9.2008404434332e-07,3.1016259117036426e-07,2.988704234218179e-07,1.56886888736448e-05
9.21289886879112e-07,3.106639950390545e-07,2.9948495481272785e-07,1.573613592045488e-05
9.221248122574293e-07,3.110454469269761e-07,3.0017831011716164e-07,1.5787196635252717e-05
9.226206303484892e-07,3.113077175712272e-07,3.009637191537403e-07,1.5841568271346375e-05
9.228044935975149e-07,3.114508721755332e-07,3.01856536780708e-07,1.5899067112717393e-05
9.2270258341405e-07,3.1147355238153767e-07,3.028716469352674e-07,1.5959562850903927e-05
9.223410713475368e-07,3.11373439223238e-07,3.0402011496966054e-07,1.6022929739424982e-05
9.21744663468377e-07,3.1114796487632907e-07,3.05308557683958e-07,1.608902106346684e-05
9.209368993292618e-07,3.107943822693395e-07,3.0673965885134073e-07,1.6157651508846646e-05
9.19942441805238e-07,3.1031021843409425e-07,3.0831268496810464e-07,1.6228582011561088e-05
9.187866916423399e-07,3.0969454901476887e-07,3.100247104897682e-07,1.6301495132317096e-05
9.174926217375559e-07,3.08948553685616e-07,3.1187162993994953e-07,1.6375966902102402e-05
9.160792319844065e-07,3.080749629368503e-07,3.1384809611016717e-07,1.6451501773004452e-05
9.14561856652654e-07,3.070776837399334e-07,3.159475004557301e-07,1.6527652338694692e-05
9.1295364417453e-07,3.05961576076481e-07,3.181625304598698e-07,1.6604113619564223e-05
9.112696866429028e-07,3.0473207593785427e-07,3.204854818831996e-07,1.6680714494095073e-05
9.09530351977462e-07,3.033956262436518e-07,3.229073361146125e-07,1.6757361198521687e-05
9.077585952336313e-07,3.01960041468126e-07,3.2541620716924673e-07,1.6833987492635253e-05
9.059730779414262e-07,3.004336855268273e-07,3.279975351566289e-07,1.6910508544013174e-05
9.041833638280341e-07,2.988246753461505e-07,3.306362804002279e-07,1.6986793275057845e-05
9.023899994519756e-07,2.9714060327386e-07,3.333179386601893e-07,1.706269285987419e-05
9.005864060516283e-07,2.953888449640677e-07,3.3602716841621e-07,1.7138103147093783e-05
8.987591458600244e-07,2.935776853608737e-07,3.3874705185003084e-07,1.721300567590426e-05
8.968873924043998e-07,2.917170277866865e-07,3.414602142254591e-07,1.7287473553751848e-05
8.949437236719504e-07,2.898181108162101e-07,3.441495727420075e-07,1.7361624940923485e-05
8.928970701499712e-07,2.8789325354763196e-07,3.4679812335036827e-07,1.7435523819752122e-05
8.907180889424603e-07,2.8595558477067586e-07,3.493888874198397e-07,1.75090983780423e-05
8.883860893550331e-07,2.840179737621844e-07,3.519049982688651e-07,1.7582123683992473e-05
8.858954082117333e-07,2.820919408855994e-07,3.5432969975526867e-07,1.7654235115669386e-05
8.832582235224653e-07,2.8018726231425784e-07,3.566464197407381e-07,1.7724941692759326e-05
8.80500299314481e-07,2.783117400931092e-07,3.5883875557024157e-07,1.7793649915770412e-05
8.776506004953873e-07,2.764712087309269e-07,3.608906921475281e-07,1.7859699470739006e-05
8.747319908469567e-07,2.746702049357432e-07,3.6278730255743703e-07,1.7922402062043176e-05
8.717576778013157e-07,2.7291286107478864e-07,3.645150537517513e-07,1.7981076905131802e-05
8.687310826727945e-07,2.7120310851975386e-07,3.660614599030589e-07,1.8035070860223592e-05
8.656464156138436e-07,2.695440745950481e-07,3.67415026629186e-07,1.808377434163129e-05
8.624904128444818e-07,2.679376844114425e-07,3.68565801687571e-07,1.8126646698857214e-05
8.592461217056196e-07,2.663849890159681e-07,3.695065702184975e-07,1.816323960536616e-05
8.558974529851898e-07,2.648868765756417e-07,3.7023435413816523e-07,1.819319500656161e-05
8.524318513285612e-07,2.634447262738488e-07,3.7075037888853476e-07,1.8216200700915807e-05
8.488397830900384e-07,2.6206027114392237e-07,3.7105807330261505e-07,1.8231925524912835e-05
8.451124297284038e-07,2.607348345324016e-07,3.711613795036445e-07,1.823996975458189e-05
8.412417826090047e-07,2.5946929974610657e-07,3.710650969132911e-07,1.823984735928477e-05
8.372253280479485e-07,2.5826510003891217e-07,3.707764585737244e-07,1.8231004248656215e-05
8.330706693666148e-07,2.571248685059668e-07,3.7030561584869754e-07,1.821285593051645e-05
8.287955184526101e-07,2.560517624362264e-07,3.696641246297493e-07,1.818481559425445e-05
8.244249928662591e-07,2.550485500209613e-07,3.6886326218763316e-07,1.814630644996584e-05
8.199892651861152e-07,2.541178802770472e-07,3.6791395008606077e-07,1.80967729444244e-05
8.155206722638978e-07,2.5326295142613766e-07,3.668272277213061e-07,1.803569120172702e-05
8.110490235947535e-07,2.524871687900713e-07,3.6561336704625614e-07,1.7962573550843546e-05
8.065976591262517e-07,2.517933999084143e-07,3.6428029860278994e-07,1.7876972506472744e-05
8.021831176065853e-07,2.5118389553902625e-07,3.628329647384015e-07,1.7778492280257145e-05
7.978181725063286e-07,2.506604593957481e-07,3.6127352126663646e-07,1.7666805559631082e-05
7.935162086246189e-07,2.5022418829474674e-07,3.5960216379224794e-07,1.754165493369179e-05
7.892937980459405e-07,2.498749653731724e-07,3.5781922996416576e-07,1.740283972967222e-05
7.851691124531204e-07,2.496113247865428e-07,3.5592806355451033e-07,1.7250215142763365e-05
7.811577943826228e-07,2.4943090077288105e-07,3.539361728123381e-07,1.7083703645653275e-05
7.772713958139357e-07,2.493312751435299e-07,3.5185338915222773e-07,1.690330571426261e-05
7.735207664425285e-07,2.4931062806067747e-07,3.496898338115223e-07,1.6709111664421665e-05
7.699198530353435e-07,2.493677396452812e-07,3.474568920783897e-07,1.650130470371692e-05
7.664847467362008e-07,2.495017542776101e-07,3.451689924177375e-07,1.6280143609032425e-05
7.632287881963559e-07,2.497116856885534e-07,3.4284294603922034e-07,1.6045946376162454e-05
7.601581325325265e-07,2.499957590519905e-07,3.4049598068962213e-07,1.5799100309848927e-05
7.572709651014244e-07,2.503519845059257e-07,3.3814381751287057e-07,1.5540084967928462e-05
7.545597197428823e-07,2.5077976825923976e-07,3.357992622662764e-07,1.5269479182301835e-05
7.520125597435098e-07,2.512808083299562e-07,3.3347227058898786e-07,1.498795094600447e-05
7.496127924752983e-07,2.518594982187933e-07,3.3117055390537506e-07,1.4696246145193747e-05
7.473390847207619e-07,2.5252288579638077e-07,3.288994674899141e-07,1.4395182041100232e-05
7.451669632270525e-07,2.53278466049306e-07,3.266622002561235e-07,1.4085640363219556e-05
7.430693751525451e-07,2.5413077703224673e-07,3.244610556003789e-07,1.3768556913270214e-05
7.410171221321784e-07,2.55080096330482e-07,3.222989502525936e-07,1.3444907805116287e-05
7.38980608833615e-07,2.561238993770166e-07,3.20180276857741e-07,1.311568498557695e-05
7.369328572319456e-07,2.5725946815801176e-07,3.1811063543303554e-07,1.2781874919648434e-05
7.348542231807274e-07,2.584856648586249e-07,3.160957675652962e-07,1.2444485625610522e-05
7.32738347060927e-07,2.598022319637204e-07,3.1414114020112727e-07,1.2104628696721166e-05
7.305973956188616e-07,2.612078275754859e-07,3.122527468875605e-07,1.1763589609028865e-05
7.284627321938088e-07,2.626994928856224e-07,3.104380403107882e-07,1.1422808500235072e-05
7.263772659825643e-07,2.64273304658391e-07,3.087055231171304e-07,1.1083773250795444e-05
7.243828899442081e-07,2.6592438132801097e-07,3.070630152851876e-07,1.074790990560922e-05
7.225114392772327e-07,2.676471589759961e-07,3.0551640909140136e-07,1.0416543434578087e-05
7.20782727947095e-07,2.69436950119601e-07,3.040695240030407e-07,1.0090935698105679e-05
7.192078014081661e-07,2.712902660971148e-07,3.027236826548441e-07,9.77236930800697e-06
7.177950278495993e-07,2.732033391034081e-07,3.014770902725157e-07,9.462221142429901e-06
7.165561894188027e-07,2.7517190479549864e-07,3.003258347231336e-07,9.161953202711577e-06
7.155099713474486e-07,2.771927321657252e-07,2.992657772962291e-07,8.87300918916162e-06
7.146837575316738e-07,2.792650916529902e-07,2.982927324821464e-07,8.596691014593994e-06
7.14115562623843e-07,2.8139094078117304e-07,2.974013729939633e-07,8.33408719610685e-06
7.138529143825426e-07,2.8357328953919567e-07,2.965850020041849e-07,8.086063988364075e-06
7.139451267137965e-07,2.8581443606833813e-07,2.958361287078716e-07,7.853282113092096e-06
7.144335932588779e-07,2.881163868771521e-07,2.951464590409345e-07,7.6362036543086e-06
7.153473126912316e-07,2.9048253405841285e-07,2.945066799444378e-07,7.435123554744658e-06
7.167044669995305e-07,2.9291822349682185e-07,2.9390754000226606e-07,7.25029515206781e-06
7.185162231108497e-07,2.95429627542434e-07,2.933411232980189e-07,7.082085783819818e-06
7.207898399173221e-07,2.980213316297579e-07,2.9280047030279965e-07,6.930997864620637e-06
7.235319857824982e-07,3.006938040410461e-07,2.9227869694785443e-07,6.797545007354028e-06
7.26752345486618e-07,3.0344268617951304e-07,2.917690929858789e-07,6.6821104662080275e-06
7.304634343294826e-07,3.0626028142382014e-07,2.912656793878581e-07,6.584867251563084e-06
7.346768504355202e-07,3.091376070083077e-07,2.9076362946800585e-07,6.505817186399757e-06
7.394017301402887e-07,3.1206505334495445e-07,2.9025928945788544e-07,6.444982170185759e-06
7.446468191264778e-07,3.150313586601396e-07,2.897493965184033e-07,6.402614552095503e-06
7.504219045917832e-07,3.180226810620363e-07,2.8923002537222073e-07,6.3792294638855015e-06
7.56735125736128e-07,3.210235650685747e-07,2.8869595317592284e-07,6.3754662739235905e-06
7.635872319985908e-07,3.2402031201689035e-07,2.881405924852241e-07,6.39192752441685e-06
7.709668773799078e-07,3.2700407701275925e-07,2.875565517480575e-07,6.4290579219018675e-06
7.788502142127077e-07,3.299697308574016e-07,2.8693614114997357e-07,6.4870480028210716e-06
7.87204600788863e-07,3.32912516755492e-07,2.862712052132833e-07,6.565774138890011e-06
7.95992194277743e-07,3.358275153160676e-07,2.855531819030107e-07,6.6647992456235635e-06
8.051692534418331e-07,3.387109228731439e-07,2.84774230188462e-07,6.783408691590199e-06
8.146833251458553e-07,3.415597575625543e-07,2.8392808574607447e-07,6.920644945269168e-06
8.244735151650354e-07,3.4437048616672157e-07,2.8300981212306446e-07,7.0753389996822465e-06
8.344742368866083e-07,3.471377913931316e-07,2.820162544956634e-07,7.246144081311128e-06
8.446199332372455e-07,3.4985338962485317e-07,2.809475019319971e-07,7.431575163580826e-06
8.54848153623015e-07,3.525058565005578e-07,2.798077088029925e-07,7.630049816353413e-06
8.650986076823785e-07,3.55083088416886e-07,2.7860561628189766e-07,7.83991814975348e-06
8.753112222672535e-07,3.575765915396239e-07,2.7735454945604446e-07,8.059490301081894e-06
8.854300140724987e-07,3.599835013082107e-07,2.760700379727657e-07,8.287081842276661e-06
8.954114240708046e-07,3.6230425374558077e-07,2.7476662087635065e-07,8.521068386801147e-06
9.052274816287588e-07,3.6453916901189045e-07,2.7345644894316594e-07,8.759924577472397e-06
9.148620200224428e-07,3.6668684862089845e-07,2.7214931363957537e-07,9.002240884250156e-06
9.243073435953508e-07,3.6874439162432887e-07,2.708533026323493e-07,9.24671350828219e-06
9.335615425404035e-07,3.707088325007257e-07,2.695751057073924e-07,9.492107012357058e-06
9.42622052703147e-07,3.7257799892612905e-07,2.6831953545858694e-07,9.737218123477036e-06
9.514807310963556e-07,3.743505368471292e-07,2.670898425716206e-07,9.980865117742064e-06
9.601274540209414e-07,3.760268512848413e-07,2.658886749745542e-07,1.0221889902616956e-05
9.685583890087442e-07,3.7760912409803867e-07,2.647179002993154e-07,1.0459160683589733e-05
9.767803172963376e-07,3.790987762553817e-07,2.635781275727836e-07,1.0691589885878067e-05
9.848079271678522e-07,3.804944954167856e-07,2.624693037790541e-07,1.0918161644374043e-05
9.926576669285914e-07,3.817926303747049e-07,2.613910413459492e-07,1.1137934673137061e-05
1.000342356217277e-06,3.8298860251289955e-07,2.603416669858377e-07,1.1350017974091812e-05
1.0078682035249763e-06,3.8407838351679e-07,2.593174949165275e-07,1.1553560306557784e-05
1.0152350276697063e-06,3.8506004028011477e-07,2.58313190056758e-07,1.1747782288463948e-05
1.0224401669160464e-06,3.8593534907988907e-07,2.573223603816674e-07,1.1932017294807835e-05
1.0294862595614288e-06,3.867106716308913e-07,2.5633800416355305e-07,1.2105702092274067e-05
1.0363891974437934e-06,3.873958892500207e-07,2.553532920668961e-07,1.2268324437590585e-05
1.0431781834400704e-06,3.8800134740104077e-07,2.5436281363336957e-07,1.2419384931992332e-05
1.049886108615296e-06,3.885347854479306e-07,2.5336322142342237e-07,1.25583943347771e-05
1.056539198767178e-06,3.8900014268273094e-07,2.523525378348081e-07,1.2684898154519925e-05
1.0631553072299515e-06,3.8939787869654406e-07,2.5132899062860264e-07,1.279853662071918e-05
1.0697499291393186e-06,3.897257766833447e-07,2.502902771867999e-07,1.2899128524565586e-05
1.0763418275595082e-06,3.8997997421761104e-07,2.49233818828762e-07,1.2986710221648254e-05
1.0829561197168622e-06,3.9015591419263895e-07,2.481577575207738e-07,1.3061481408879993e-05
1.0896290515953144e-06,3.902487354727622e-07,2.4706110951270517e-07,1.3123705271585388e-05
1.0964119917913191e-06,3.9025304436530024e-07,2.459435913108128e-07,1.3173645380334644e-05
1.1033660397779962e-06,3.901623885437264e-07,2.448080329736827e-07,1.3211559967078507e-05
1.1105475026075513e-06,3.899690114640393e-07,2.436635625634433e-07,1.3237713675631234e-05
1.1179945894360063e-06,3.8966402827827945e-07,2.425245752548457e-07,1.3252371731894337e-05
1.125721844668771e-06,3.892378458393104e-07,2.414072325317034e-07,1.3255807968011251e-05
1.1337205682627768e-06,3.8868125438665297e-07,2.40328218957609e-07,1.3248422310351007e-05
1.141962253526087e-06,3.87986898421823e-07,2.3930568323913657e-07,1.3230958488681504e-05
1.1504032214652394e-06,3.871501876391043e-07,2.3835994690431748e-07,1.3204617698380705e-05
1.1589881772219623e-06,3.861698936476547e-07,2.3751202416834809e-07,1.3170938538012233e-05
1.1676523068274411e-06,3.850479178622125e-07,2.367803669102595e-07,1.3131567901641625e-05
1.1763232198550056e-06,3.8378716427138095e-07,2.3617848503091053e-07,1.3088085284671851e-05
1.1849227131025018e-06,3.8238957001134357e-07,2.3571451615456372e-07,1.304195145746983e-05
1.1933685073997046e-06,3.808565806889946e-07,2.3539190639860243e-07,1.2994626229893006e-05
1.201576394082768e-06,3.791904204271632e-07,2.352103679208189e-07,1.2947770647800438e-05
1.2094620864423436e-06,3.773938618730181e-07,2.351668860328475e-07,1.290331901418432e-05
1.216942936875094e-06,3.7546892228069906e-07,2.352566687909773e-07,1.2863366114774104e-05
1.223940581708265e-06,3.734158866193898e-07,2.3547396017777291e-07,1.283000246328686e-05
1.2303837048380443e-06,3.712331084534229e-07,2.358136693814233e-07,1.2805181886873542e-05
1.236207840646488e-06,3.6891787110774604e-07,2.362737809520948e-07,1.2790622793573985e-05
1.2413514832177224e-06,3.6646875490674274e-07,2.3685576225301747e-07,1.2787738197405953e-05
1.2457525537364576e-06,3.6388770454402533e-07,2.375619928357932e-07,1.2797597510775474e-05
1.2493483298985435e-06,3.611792098394319e-07,2.383935431772368e-07,1.2820925350640315e-05
1.2520775541940448e-06,3.583486102340722e-07,2.393509386600861e-07,1.2858125440001234e-05
1.2538819282731987e-06,3.554035390298837e-07,2.404367708583953e-07,1.2909299255435656e-05
1.2547066942106558e-06,3.523573425943988e-07,2.416570604851221e-07,1.2974249281703024e-05
1.2545038686985911e-06,3.492296900253787e-07,2.4301945264485744e-07,1.3052490915803247e-05
1.253239793009663e-06,3.460434220443569e-07,2.445299785279636e-07,1.3143293294960605e-05
1.2509032943415517e-06,3.4282126080523527e-07,2.4619115741989496e-07,1.3245746948768225e-05
1.2475103717253e-06,3.395847014285328e-07,2.4800168178591127e-07,1.3358851946638075e-05
1.2431020606987398e-06,3.363542803417613e-07,2.4995642975707536e-07,1.3481604390207913e-05
1.2377344745140185e-06,3.331500137494279e-07,2.520462540878313e-07,1.3613038520666525e-05
1.2314679245317456e-06,3.2999152250750124e-07,2.542582236208477e-07,1.3752222713622473e-05
1.224361109236619e-06,3.268980236498921e-07,2.565768460030566e-07,1.3898260557960376e-05
1.2164674830859764e-06,3.238880505151118e-07,2.589857804895971e-07,1.4050311857186179e-05
1.2078324291935935e-06,3.2097796953680284e-07,2.6146892526995484e-07,1.420759715483952e-05
1.1984942030612592e-06,3.181800362767392e-07,2.640103625675157e-07,1.4369374386749911e-05
1.1884884403303428e-06,3.155018734417439e-07,2.6659361653215734e-07,1.45349005188684e-05
1.1778529021400277e-06,3.12947219058458e-07,2.69200696552482e-07,1.4703380009517514e-05
1.166630244981508e-06,3.105168443720272e-07,2.7181177599529556e-07,1.4873924912065415e-05
1.1548692327818122e-06,3.082092982062205e-07,2.744059789715108e-07,1.5045582236592587e-05
1.1426258606883323e-06,3.0602146012006076e-07,2.769625926328166e-07,1.5217418852073315e-05
1.1299656587498843e-06,3.039493477023875e-07,2.794619766610912e-07,1.5388571631432645e-05
1.1169678079907258e-06,3.0198894911473174e-07,2.8188590418369806e-07,1.555823110551971e-05
1.103730413219896e-06,3.001361688536461e-07,2.8421772952395807e-07,1.5725619704067222e-05
1.0903759235880348e-06,2.983866103881659e-07,2.864427725503365e-07,1.5890006313620584e-05
1.0770544565089272e-06,2.9673565291733827e-07,2.8854887027893356e-07,1.6050729156333413e-05
1.063938818885167e-06,2.9517777617998773e-07,2.9052719162864977e-07,1.6207166775557614e-05
1.0512072757191522e-06,2.937055146362904e-07,2.923729470265525e-07,1.6358655488828894e-05
1.0390232168088509e-06,2.92309495859967e-07,2.9408466730332434e-07,1.6504429045685098e-05
1.0275271476567775e-06,2.9098009510522706e-07,2.9566182234642004e-07,1.6643629951303198e-05
1.0168428980555642e-06,2.897094051479773e-07,2.971027254792817e-07,1.6775375570059615e-05
1.0070868539313694e-06,2.8849151758521126e-07,2.984040556846732e-07,1.6898854434632066e-05
9.983743333103912e-07,2.873218558136065e-07,2.9956127528341805e-07,1.7013427546211482e-05
9.908235712490192e-07,2.861970097393755e-07,3.005691338816391e-07,1.7118675394959907e-05
9.84554582134758e-07,2.85114142428916e-07,3.0142261934832566e-07,1.721434602853695e-05
9.796820407962088e-07,2.840700958115077e-07,3.021182444514298e-07,1.7300248387219786e-05
9.763069643430284e-07,2.830618267027935e-07,3.0265436122675e-07,1.737618506159051e-05
9.745109016446423e-07,2.8208789618758217e-07,3.030303474003686e-07,1.7441953695382592e-05
9.743531832360878e-07,2.8114899967656584e-07,3.032456888521729e-07,1.749736871616892e-05
9.758705483547234e-07,2.802464401167244e-07,3.032996102826171e-07,1.7542263618307738e-05
9.79079442300606e-07,2.793801981428729e-07,3.031913409021607e-07,1.7576487704688418e-05
9.839812642740463e-07,2.785488702838041e-07,3.029205999678825e-07,1.7599985856283455e-05
9.905663911323157e-07,2.7775097647541106e-07,3.0248893740605024e-07,1.761299853273458e-05
9.988128548066031e-07,2.7698539708638124e-07,3.0190278513602207e-07,1.7616203075512964e-05
1.0086812714215936e-06,2.762506215227426e-07,3.011758505879957e-07,1.7610634993876683e-05
1.0201101687384692e-06,2.755447876754662e-07,3.003282733324296e-07,1.7597485587275767e-05
1.0330152347926154e-06,2.7486709534817524e-07,2.99383826083357e-07,1.7577918577015922e-05
1.0472921289180223e-06,2.742189513968673e-07,2.983670560880697e-07,1.755296459897515e-05
1.0628193190808136e-06,2.7360403542132005e-07,2.9730117962119177e-07,1.752358012586079e-05
1.0794608659118731e-06,2.730278439275889e-07,2.962074186117958e-07,1.7490860982850753e-05
1.0970700579310694e-06,2.724969268608892e-07,2.9510523130601893e-07,1.74561895227822e-05
1.1154917874996028e-06,2.720176163647469e-07,2.940124984820525e-07,1.742117177279388e-05
1.1345639445790232e-06,2.7159443930597267e-07,2.9294562503863614e-07,1.7387465608611855e-05
1.15412004866483e-06,2.712291129679825e-07,2.919198981150884e-07,1.7356627443661502e-05
1.1739926742955135e-06,2.7092106834058983e-07,2.909497291631797e-07,1.7330003740343642e-05
1.1940157259245258e-06,2.7066870450768554e-07,2.900476181939225e-07,1.730865711662932e-05
1.2140253049096723e-06,2.704697372851392e-07,2.892227161815712e-07,1.7293327286605422e-05
1.2338615244545085e-06,2.703212910196112e-07,2.884815300329895e-07,1.7284436428499076e-05
1.253371093363809e-06,2.7022196986187364e-07,2.8783022180406854e-07,1.7282136666878825e-05
1.2724080600619292e-06,2.701751258578873e-07,2.872751433799386e-07,1.728636516714377e-05
1.2908339051162318e-06,2.701895196963802e-07,2.86821298099998e-07,1.7296859938893767e-05
1.3085202423713115e-06,2.7027696618419945e-07,2.864718016858048e-07,1.7313145031975502e-05
1.3253557606333431e-06,2.7044967350402174e-07,2.862283681267231e-07,1.7334548028775555e-05
1.341254474015579e-06,2.7071819714731587e-07,2.860907880563077e-07,1.736026754347112e-05
1.356159039447683e-06,2.7109057947383077e-07,2.8605644651292025e-07,1.7389446228358388e-05
1.3700384029483952e-06,2.7157308597886204e-07,2.8612075939719855e-07,1.7421224926836936e-05
1.3828838481356614e-06,2.7217116800367304e-07,2.862774244359067e-07,1.745477930139661e-05
1.3947045881497369e-06,2.7288980716598076e-07,2.865186483450602e-07,1.7489327517985895e-05
1.405522328454551e-06,2.737336012627332e-07,2.8683638507277396e-07,1.7524111815258438e-05
1.4153657263087842e-06,2.747062488199884e-07,2.872245577066726e-07,1.755837516913086e-05
1.4242651303772939e-06,2.7580914512574855e-07,2.8768054757528727e-07,1.75913455583277e-05
1.432246508475233e-06,2.770407447456693e-07,2.882042944913805e-07,1.7622233577830138e-05
1.4393261010996046e-06,2.783977720213161e-07,2.8879634959464946e-07,1.7650234037629417e-05
1.4455108767933402e-06,2.7987637890803317e-07,2.894572215272003e-07,1.7674517303672704e-05
1.4508063342122278e-06,2.814716186440485e-07,2.901876910383528e-07,1.769423190993593e-05
1.4552285608902658e-06,2.83176306110628e-07,2.9098913322991467e-07,1.770855341093468e-05
1.4588175912740142e-06,2.849811239597022e-07,2.918640751112231e-07,1.7716754322337172e-05
1.461647296939886e-06,2.86876193096684e-07,2.928158473362092e-07,1.771822980031488e-05
1.4638264193692275e-06,2.888525925496571e-07,2.938464840030888e-07,1.771247263368252e-05
1.4654895966335162e-06,2.90903241906956e-07,2.94954979614574e-07,1.7699047481356813e-05
1.4667801612361378e-06,2.930238284905333e-07,2.9613711705609695e-07,1.7677583961423678e-05
1.4678306721502031e-06,2.952127561537737e-07,2.973860964473256e-07,1.7647780936519463e-05
1.4687512094710413e-06,2.9746879369034e-07,2.986939211812721e-07,1.7609452668667002e-05
1.469629013502029e-06,2.997886704745557e-07,3.000528554726468e-07,1.756261800768952e-05
1.4705342401294131e-06,3.021671586693603e-07,3.014554874609089e-07,1.750753532115818e-05
1.471526942821308e-06,3.0459802205156005e-07,3.028935536816537e-07,1.7444653423658064e-05
1.47266080815926e-06,3.070741541340575e-07,3.043567390429025e-07,1.737455987841712e-05
1.473979286366681e-06,3.095877023384293e-07,3.0583240881552897e-07,1.7297931657468712e-05
1.4755076786964148e-06,3.12130145778735e-07,3.0730625073024465e-07,1.7215450132510093e-05
1.4772489294430573e-06,3.1469171714566733e-07,3.0876361973149423e-07,1.7127715067145403e-05
1.4791845053548485e-06,3.172606762589945e-07,3.101922723814427e-07,1.7035200861023688e-05
1.4812770841658111e-06,3.19823353939157e-07,3.115857655715225e-07,1.6938275869631e-05
1.4834734759523199e-06,3.223648576699655e-07,3.129442722561343e-07,1.6837284830685528e-05
1.485708505093141e-06,3.2486918665117673e-07,3.1427132802746575e-07,1.6732631581977217e-05
1.4879096905527324e-06,3.2731910733148045e-07,3.1556967870947555e-07,1.662479637279002e-05
1.4900003176694994e-06,3.296977919778324e-07,3.168392931309217e-07,1.6514302997595365e-05
1.4919002553372337e-06,3.319917856136467e-07,3.180772495303379e-07,1.6401669067686363e-05
1.4935268643781754e-06,3.341925553595164e-07,3.192788262594549e-07,1.6287350923822524e-05
1.4947967465642784e-06,3.362953112601603e-07,3.204390039378342e-07,1.6171729453880984e-05
1.4956264586598647e-06,3.3829647577823447e-07,3.215527501550509e-07,1.6055161530616392e-05
1.4959328699769863e-06,3.401924640892855e-07,3.226141237873873e-07,1.5938023696556855e-05
1.4956388153472945e-06,3.419804824063161e-07,3.236158684699252e-07,1.5820673516265215e-05
1.4946861838867732e-06,3.436591128261752e-07,3.245504497329278e-07,1.5703368454031542e-05
1.4930475676782131e-06,3.452275530680459e-07,3.25411687456357e-07,1.5586230016659023e-05
1.4907255094650559e-06,3.4668531456815326e-07,3.261950816966215e-07,1.5469252125566458e-05
1.4877407597089203e-06,3.48032900588805e-07,3.268969542824781e-07,1.5352308603210506e-05
1.484120817142407e-06,3.492715078928687e-07,3.2751383798883176e-07,1.5235165329687258e-05
1.4798935173357271e-06,3.504018351217028e-07,3.280422241249354e-07,1.5117505918623929e-05
1.4750825332610061e-06,3.514236493552213e-07,3.284789638967553e-07,1.4998955327643481e-05
1.4697056530379947e-06,3.5233555566408094e-07,3.2882186423886746e-07,1.4879097441714155e-05
1.463777842126561e-06,3.531344127835129e-07,3.290692144118907e-07,1.4757488908562486e-05
1.457316105239251e-06,3.538153267621028e-07,3.2921902121907467e-07,1.4633667041859025e-05
1.4503422382883154e-06,3.543723151979285e-07,3.292686253918265e-07,1.4507158240060434e-05
1.4428802521620246e-06,3.5479925148532903e-07,3.292141710220531e-07,1.4377490566566564e-05
1.4349509109957216e-06,3.5509116564557185e-07,3.290505719177528e-07,1.42442003693887e-05
1.4265723303033615e-06,3.552456955304416e-07,3.28772996144483e-07,1.4106838883977549e-05
1.4177673133026081e-06,3.5526348649536844e-07,3.283788048298842e-07,1.3965003686196726e-05
1.408569113583954e-06,3.551466149739849e-07,3.2786752857506397e-07,1.3818384626958884e-05
1.3990227543945092e-06,3.5489646691938976e-07,3.272388467009827e-07,1.3666777845097424e-05
1.3891820877290505e-06,3.5451286125598576e-07,3.264909987823689e-07,1.3510064241641035e-05
1.3791010741246277e-06,3.539942954274089e-07,3.2562062577341516e-07,1.3348197767920098e-05
1.3688237003694073e-06,3.5333858068458367e-07,3.2462306803794175e-07,1.3181215429207293e-05
1.3583813369420258e-06,3.525437852831171e-07,3.2349258662394893e-07,1.3009238807423276e-05
1.3478018156251916e-06,3.516098119151363e-07,3.222229244819436e-07,1.2832457355958747e-05
1.3371262924280406e-06,3.505395254042926e-07,3.2080812993885716e-07,1.2651112613960535e-05
1.3264246822190972e-06,3.493375757838655e-07,3.192430491337131e-07,1.2465494417236715e-05
1.3158038187076694e-06,3.480079620780298e-07,3.175238430396813e-07,1.227593361259004e-05
1.3054069345965591e-06,3.465531783462372e-07,3.1564872252924616e-07,1.2082774666534505e-05
1.2954033256985879e-06,3.4497524543914663e-07,3.136176927395323e-07,1.1886350309600395e-05
1.2859716123467094e-06,3.4327678026444226e-07,3.114312506114879e-07,1.1686994885483675e-05
1.2772840390181598e-06,3.4146134571194575e-07,3.090897045249704e-07,1.1485106273223245e-05
1.2694935795048985e-06,3.395337401710097e-07,3.065937440463377e-07,1.1281232788170653e-05
1.2627231451684693e-06,3.375002726704321e-07,3.039459458366066e-07,1.1076116063239144e-05
1.2570610002789315e-06,3.3536824839344767e-07,3.011523994155433e-07,1.087064447188423e-05
1.252565223167958e-06,3.331453547863069e-07,2.982225783078817e-07,1.0665775303884458e-05
1.2492740704734895e-06,3.3084040275313145e-07,2.951674464717605e-07,1.0462491752768559e-05
1.2472143468669887e-06,3.2846447026338165e-07,2.919978428392484e-07,1.0261799061561516e-05
1.2464027685276229e-06,3.2603076267783407e-07,2.887241718135428e-07,1.0064761363544597e-05
1.2468459444358415e-06,3.235535419020425e-07,2.8535796740617505e-07,9.872549626153463e-06
1.2485421121551045e-06,3.2104734108341164e-07,2.819141373622395e-07,9.686419782868448e-06
1.2514787990819003e-06,3.1852701929271184e-07,2.7841079924312837e-07,9.507604214913576e-06
1.2556304412672494e-06,3.1600794242241817e-07,2.748669534645334e-07,9.337209691219206e-06
1.2609657177378454e-06,3.135052455745655e-07,2.71300689061355e-07,9.176214845284438e-06
1.2674593795926343e-06,3.110327403804612e-07,2.6772878788927906e-07,9.025562680442188e-06
1.2750989589548125e-06,3.086028239714512e-07,2.641676438829016e-07,8.886282157249257e-06
1.283886712248044e-06,3.062269352554695e-07,2.6063431439677464e-07,8.759568132294465e-06
1.2938394972772794e-06,3.0391505988089484e-07,2.5714588435058704e-07,8.646754987060672e-06
1.3049867875521605e-06,3.016746271601396e-07,2.537184915726737e-07,8.549185645778702e-06
1.3173656829506559e-06,2.995105578065982e-07,2.503684297606508e-07,8.468057893046823e-06
1.331012667390434e-06,2.974268860797205e-07,2.471147198357564e-07,8.404322249794707e-06
1.345955616329244e-06,2.954279591322078e-07,2.439805482915753e-07,8.35864124022413e-06
1.3622073413762509e-06,2.935182954307537e-07,2.40991726560692e-07,8.331375279895117e-06
1.379758371362522e-06,2.917030018922103e-07,2.3817401840830174e-07,8.322579383239931e-06
1.39857070108533e-06,2.8998859730697e-07,2.3555192020542809e-07,8.33205447290357e-06
1.4185772576413715e-06,2.8838231843353876e-07,2.331477111002469e-07,8.359501031087677e-06
1.4396894137754974e-06,2.8689049647795856e-07,2.3097986921791677e-07,8.4046857435537e-06
1.4618083677479168e-06,2.855183563733801e-07,2.2906211613214359e-07,8.46745017824384e-06
1.484831293308094e-06,2.842723038445606e-07,2.2740329451377286e-07,8.54757144537241e-06
1.5086491418773943e-06,2.8316176563336804e-07,2.26007776856412e-07,8.644634383318677e-06
1.5331418220085483e-06,2.821974366861321e-07,2.2487619666253771e-07,8.758010400533397e-06
1.5581758679796664e-06,2.8138796738826285e-07,2.2400615734329482e-07,8.886987196300081e-06
1.5836042709612625e-06,2.807382613567026e-07,2.2339358617771373e-07,9.031027323915024e-06
1.6092671883657981e-06,2.802491504106941e-07,2.230346934893539e-07,9.189963432981649e-06
1.634994621000976e-06,2.799172165186073e-07,2.2292718681253876e-07,9.36395422511828e-06
1.6606122930704918e-06,2.797348558217701e-07,2.230703388262497e-07,9.553274065501743e-06
1.6859494807983092e-06,2.79691099356923e-07,2.2346417417609039e-07,9.758110235717185e-06
1.710845238784079e-06,2.7977312366610864e-07,2.2410892726823721e-07,9.978435663650985e-06
1.7351512352909676e-06,2.7996727861261844e-07,2.2500549845912227e-07,1.021394579570842e-05
1.7587335801433055e-06,2.802588005101763e-07,2.2615471049854425e-07,1.0464045619808207e-05
1.7814752027938446e-06,2.8063176366114027e-07,2.2755466725248126e-07,1.0727878888561796e-05
1.8032752097666888e-06,2.8107098987784827e-07,2.291992316804121e-07,1.1004377227037173e-05
1.8240421336553501e-06,2.8156465767543725e-07,2.3107883549592327e-07,1.1292299030393154e-05
1.843685176907424e-06,2.8210469120757716e-07,2.3318147401054172e-07,1.1590243810355662e-05
1.8621097124843269e-06,2.8268538804293853e-07,2.3549235293405161e-07,1.1896655476083699e-05
1.8792178822141388e-06,2.833032048954301e-07,2.379930852548554e-07,1.2209836609740885e-05
1.894911241264751e-06,2.839565693519184e-07,2.406620459948581e-07,1.2527967885507848e-05
1.909093334649568e-06,2.84644306465946e-07,2.4347599809552504e-07,1.2849134486542662e-05
1.92167159385313e-06,2.8536551437907636e-07,2.46411451648046e-07,1.3171398010875685e-05
1.932558585470464e-06,2.8612132476844005e-07,2.494448075791874e-07,1.3492911899429822e-05
1.94167557754914e-06,2.8691545744816017e-07,2.5255223995967805e-07,1.3812013169525965e-05
1.9489610212999503e-06,2.877530444479551e-07,2.5571059359985967e-07,1.4127245299928809e-05
1.9543790095442926e-06,2.886399811606516e-07,2.588988048604321e-07,1.4437325730476435e-05
1.9579213971142067e-06,2.895836025561508e-07,2.620983558081252e-07,1.4741089507059806e-05
1.9596048689503122e-06,2.9059329782147405e-07,2.6529336010868807e-07,1.503743882235248e-05
1.959465362291331e-06,2.916806227577093e-07,2.684724335130141e-07,1.5325319410082195e-05
1.957550075419252e-06,2.928594774821628e-07,2.716312877143179e-07,1.5603722195167976e-05
1.953912218198401e-06,2.941463816131775e-07,2.7477189567539703e-07,1.5871688607858195e-05
1.9486117158728333e-06,2.9556113398883533e-07,2.778979243056097e-07,1.6128294628634687e-05
1.9417159536656816e-06,2.971269148097167e-07,2.810106708322537e-07,1.6372617591826216e-05
1.933296436254623e-06,2.9886748140932343e-07,2.8410787861071764e-07,1.6603714312961798e-05
1.9234235890526727e-06,3.008025302939073e-07,2.871846235593397e-07,1.6820623378052962e-05
1.912162750199038e-06,3.029449990159483e-07,2.9023443690845064e-07,1.702238261313271e-05
1.8995725724101086e-06,3.053006269989689e-07,2.932494379130995e-07,1.7208047690404765e-05
1.8857048706606869e-06,3.0786797481186554e-07,2.96219840671159e-07,1.7376713156872218e-05
1.8706058700690919e-06,3.1063943924156645e-07,2.991338086832401e-07,1.7527540098316307e-05
1.8543192317432847e-06,3.136034735132844e-07,3.019784700157261e-07,1.76597800927718e-05
1.8368877939333e-06,3.167464018605247e-07,3.047418030469779e-07,1.7772785177484783e-05
1.8183521824035686e-06,3.200539434717361e-07,3.0741344420463704e-07,1.786599952109816e-05
1.7987500256306297e-06,3.235131018952858e-07,3.099836004676827e-07,1.7938943914417288e-05
1.778119092164536e-06,3.2711289615617736e-07,3.124417062416564e-07,1.7991216270508834e-05
1.756501944960438e-06,3.308438029770096e-07,3.147762592076769e-07,1.802252577937412e-05
1.7339476209419671e-06,3.346983831122924e-07,3.1697632253725534e-07,1.8032745418242546e-05
1.7105092282871463e-06,3.386729559243527e-07,3.190342767951613e-07,1.802192075440172e-05
1.6862394088932071e-06,3.4276763725928827e-07,3.20947805891221e-07,1.7990226805350165e-05
1.6611864872315797e-06,3.4698423004173537e-07,3.227195510427973e-07,1.7937959834645342e-05
1.6353939879167185e-06,3.513234016200262e-07,3.243546650184417e-07,1.7865578051617436e-05
1.608903687867659e-06,3.557826586153707e-07,3.2585776281600853e-07,1.777370378092796e-05
1.5817601770238574e-06,3.6035545985280534e-07,3.2723124734032214e-07,1.7663070891439966e-05
1.5540165858715378e-06,3.650303186443745e-07,3.284754256503889e-07,1.753446583510921e-05
1.5257413169918781e-06,3.697900448873157e-07,3.2958909156813524e-07,1.7388704537785195e-05
1.497020262560309e-06,3.746124522502529e-07,3.305695957372473e-07,1.7226716686618594e-05
1.467949499941723e-06,3.794720561436257e-07,3.314127576621708e-07,1.704970577912119e-05
1.43862504833479e-06,3.84341228963555e-07,3.321136516755581e-07,1.6859189893288393e-05
1.4091405284889528e-06,3.891904068469217e-07,3.3266859674250243e-07,1.6656867658679213e-05
1.379592543835131e-06,3.939880116995145e-07,3.330774629838012e-07,1.6444463162905073e-05
1.3500856823972326e-06,3.9870064352133273e-07,3.3334441468375397e-07,1.6223638651275985e-05
1.3207345897210803e-06,4.0329366426286064e-07,3.3347605609459355e-07,1.5995998561126637e-05
1.2916659306432569e-06,4.0773278562419145e-07,3.334788357277174e-07,1.5763233611050526e-05
1.2630185377435857e-06,4.119868173140347e-07,3.333578910725709e-07,1.552729391986222e-05
1.2349378159024857e-06,4.160291508410197e-07,3.331173592592946e-07,1.5290372142801066e-05
1.2075657521192808e-06,4.1983647413709313e-07,3.327612420977785e-07,1.5054708398651429e-05
1.181030557448086e-06,4.23387298784543e-07,3.3229364046116517e-07,1.482239953505372e-05
1.1554404630670246e-06,4.2666170138236726e-07,3.3171818037770986e-07,1.4595302025104667e-05
1.1308844279992102e-06,4.296407343772578e-07,3.310384551382949e-07,1.4375015890825875e-05
1.107436131986012e-06,4.323056560124324e-07,3.302600599393325e-07,1.4162896857285653e-05
1.0851555955211234e-06,4.3463819529708473e-07,3.293918791547069e-07,1.3960056789131146e-05
1.0640873901658926e-06,4.3662136987596044e-07,3.2844512617081066e-07,1.3767365387087161e-05
1.0442591164663298e-06,4.382398257404696e-07,3.274313850253213e-07,1.3585474310904707e-05
1.025683004440798e-06,4.3947987207116816e-07,3.263615013490421e-07,1.341484833648694e-05
1.0083585828093394e-06,4.403300531736138e-07,3.2524576205925415e-07,1.3255774333786555e-05
9.922745262435295e-07,4.407817148514035e-07,3.24094291127682e-07,1.3108346331503647e-05
9.774122698538851e-07,4.4082841631142424e-07,3.2291717821884305e-07,1.2972453961436361e-05
9.637547677047377e-07,4.4046514150473394e-07,3.217245594641013e-07,1.2847806952892698e-05
9.51299697953389e-07,4.396891526954463e-07,3.205262451540759e-07,1.2734008957478572e-05
9.400704762356129e-07,4.3850182349832103e-07,3.193313133915793e-07,1.263065184748395e-05
9.301179263608841e-07,4.369092940137615e-07,3.181480184850375e-07,1.2537370117682656e-05
9.215128714257116e-07,4.349218227877779e-07,3.1698353447976145e-07,1.245383368892463e-05
9.143357007959877e-07,4.325529125153142e-07,3.1584436681718346e-07,1.2379728988298635e-05
9.08668046033239e-07,4.298186855324525e-07,3.147372163078651e-07,1.231476149613037e-05
9.045859038027044e-07,4.267373264991737e-07,3.136685528574637e-07,1.2258654322399945e-05
9.02150728203826e-07,4.233281245925802e-07,3.126440925163625e-07,1.221113439733865e-05
9.014026837493955e-07,4.1961070540140023e-07,3.1167021078876963e-07,1.217191852198753e-05
9.023621452003365e-07,4.156047750846578e-07,3.107551295148043e-07,1.2140686049064889e-05
9.050335966322744e-07,4.113298174074344e-07,3.099073462697989e-07,1.211704894248054e-05
9.094054086143688e-07,4.068053552671858e-07,3.0913382293306345e-07,1.2100565097803853e-05
9.154499588727255e-07,4.0205249271891563e-07,3.084405715443232e-07,1.2090780425966553e-05
9.231253068007177e-07,3.970953909152899e-07,3.0783365681839624e-07,1.208724231633305e-05
9.323738384301129e-07,3.9196093218235673e-07,3.07318683012149e-07,1.2089482386276798e-05
9.431231893741708e-07,3.8667742421395776e-07,3.0689930689578673e-07,1.2096997930972335e-05
9.552955622734728e-07,3.812739899026051e-07,3.0657591616691853e-07,1.210924162033832e-05
9.688173288715106e-07,3.7578022675625316e-07,3.0634632686855987e-07,1.212561633119397e-05
9.836209549754965e-07,3.702255569011256e-07,3.0620843372846625e-07,1.2145477151339036e-05
9.996421445225606e-07,3.646396341032876e-07,3.061616733823641e-07,1.2168148207918688e-05
1.0168165748914771e-06,3.5905406536383607e-07,3.062065101409585e-07,1.2192949871010375e-05
1.0350788202753436e-06,3.535022076237552e-07,3.063433978873773e-07,1.2219226047431207e-05
1.0543645439225422e-06,3.480156978971324e-07,3.065715830985083e-07,1.2246377924219862e-05
1.0746113236926925e-06,3.4262118812033427e-07,3.068884725336925e-07,1.2273924708935632e-05
1.0957537046621351e-06,3.373398611706637e-07,3.072901354978817e-07,1.2301568705391471e-05
1.1177158165627002e-06,3.321883250068322e-07,3.077728147618303e-07,1.2329190121353246e-05
1.140406913676292e-06,3.271792685824274e-07,3.083347749081168e-07,1.235675925849692e-05
1.1637223417318123e-06,3.2232258259174906e-07,3.0897726274267767e-07,1.2384252255261445e-05
1.1875495797724966e-06,3.1762716392981374e-07,3.0970459889926987e-07,1.2411644564103657e-05
1.2117739177782197e-06,3.131017279052605e-07,3.1052325688572357e-07,1.2438950261703638e-05
1.2362782569999711e-06,3.087538548433149e-07,3.1143947001486656e-07,1.2466225316183702e-05
1.2609410567039766e-06,3.0458836974886873e-07,3.1245690269485984e-07,1.2493527379772198e-05
1.2856392370403723e-06,3.006064415362193e-07,3.1357580799918057e-07,1.2520887898043755e-05
1.310251795013181e-06,2.96806166391768e-07,3.147932419715174e-07,1.2548351156453568e-05
1.334656897200237e-06,2.931845377406158e-07,3.16104018411427e-07,1.257607405940846e-05
1.358726344345345e-06,2.897397034277151e-07,3.175022437486413e-07,1.2604365251744709e-05
1.3823247234622732e-06,2.8647177973098424e-07,3.1898289360618985e-07,1.263358057685276e-05
1.4053137979647202e-06,2.833814711156223e-07,3.205431972129585e-07,1.266397544090513e-05
1.4275580298590545e-06,2.804680390150835e-07,3.2218231062516734e-07,1.269565304316946e-05
1.4489274813585519e-06,2.77728590842037e-07,3.238993717623717e-07,1.2728664511186195e-05
1.4693000215678147e-06,2.751588729770589e-07,3.256933890173277e-07,1.2763243920702065e-05
1.4885656635633918e-06,2.727553735486061e-07,3.275639503210378e-07,1.2800034109664465e-05
1.5066284105764125e-06,2.705179906937663e-07,3.2950947669985763e-07,1.2840111050304805e-05
1.5234022222718054e-06,2.684502736291607e-07,3.3152524267566236e-07,1.2884801102128584e-05
1.5388061471983662e-06,2.6655649667925813e-07,3.336038498907465e-07,1.2935445668620293e-05
1.5527628849527245e-06,2.648393143357173e-07,3.3573727699191505e-07,1.2993212118240073e-05
1.5651994470660337e-06,2.632996661338897e-07,3.379181874255903e-07,1.3058963302827025e-05
1.576048150527029e-06,2.619365488633751e-07,3.401392173287561e-07,1.3133188933366388e-05
1.5852489445341474e-06,2.607457834284816e-07,3.423919068097002e-07,1.3216001560182873e-05
1.5927538346286897e-06,2.597198645766913e-07,3.446667363025998e-07,1.3307178693011188e-05
1.5985305326745743e-06,2.5884972929072017e-07,3.469538148491024e-07,1.340621844770618e-05
1.602564276182807e-06,2.581266022514814e-07,3.492435611214569e-07,1.3512393162599213e-05
1.6048610151616181e-06,2.575425717140941e-07,3.515264855785196e-07,1.3624811253077687e-05
1.6054503228119536e-06,2.570899028748325e-07,3.5379258981008893e-07,1.3742493067200098e-05
1.604381517792697e-06,2.5676002455966427e-07,3.5603168858751786e-07,1.3864448078185636e-05
1.601712926712136e-06,2.565441092275691e-07,3.582343593735272e-07,1.3989737363091434e-05
1.5975020983495482e-06,2.5643453167949327e-07,3.6039342406666006e-07,1.4117515465521833e-05
1.5918037032622625e-06,2.564248982738257e-07,3.6250531043387274e-07,1.4247056660344323e-05
1.5846746870069599e-06,2.565098189076965e-07,3.645688800405392e-07,1.4377766114200463e-05
1.5761797246555063e-06,2.566855994354586e-07,3.665820990639098e-07,1.4509171332384803e-05
1.5663900736032973e-06,2.5694996498442477e-07,3.6854002012655494e-07,1.4640899575966901e-05
1.5553764532468373e-06,2.57300527169935e-07,3.7043531051600364e-07,1.4772649834267445e-05
1.5432027768995668e-06,2.577338056741794e-07,3.722596807735124e-07,1.4904151613476487e-05
1.5299248784051848e-06,2.5824474804558936e-07,3.7400463353614286e-07,1.5035097558636407e-05
1.5155937743482572e-06,2.5882618809424976e-07,3.756616677579352e-07,1.516506740064994e-05
1.5002627851036902e-06,2.594693565975649e-07,3.772229152080564e-07,1.529349078422394e-05
1.4839949474962934e-06,2.60166512002724e-07,3.7868213790475594e-07,1.5419691359743674e-05
1.4668640574814894e-06,2.609148294151722e-07,3.800351117098459e-07,1.5543001082276206e-05
1.4489502105971434e-06,2.617185113319819e-07,3.812790068778618e-07,1.5662849270544715e-05
1.4303384297557269e-06,2.625880053382504e-07,3.8241151351309474e-07,1.5778742012966526e-05
1.4111228306325296e-06,2.635394531562614e-07,3.83430163168901e-07,1.5890176105886098e-05
1.3914096838069704e-06,2.645958664876814e-07,3.8433150490486397e-07,1.5996586977560762e-05
1.3713132445888455e-06,2.6578653564146327e-07,3.851103899460743e-07,1.6097351484383938e-05
1.350946083280155e-06,2.6714217949164107e-07,3.857599092985873e-07,1.6191804395826e-05
1.3304130645820497e-06,2.686895094259155e-07,3.862718155822619e-07,1.6279254811529557e-05
1.3098133318215956e-06,2.7044962943865774e-07,3.866374411620349e-07,1.6359007422295902e-05
1.2892435177635094e-06,2.724391275887096e-07,3.868493773915291e-07,1.6430373489335498e-05
1.268797115933967e-06,2.74671065153329e-07,3.8690289681244714e-07,1.649268222727732e-05
1.2485621095003812e-06,2.77155880024707e-07,3.8679568874524725e-07,1.654532262288789e-05
1.228618606377033e-06,2.7990226459528376e-07,3.865260335201355e-07,1.6587811002414106e-05
1.2090362001699049e-06,2.829164401934988e-07,3.8609128073413306e-07,1.6619856170240733e-05
1.1898711053078869e-06,2.8620008784956627e-07,3.854884333619968e-07,1.6641369808242885e-05
1.1711650092612291e-06,2.8974988493887505e-07,3.847159655898418e-07,1.6652389410273154e-05
1.1529472745237238e-06,2.935594410386529e-07,3.837748144592807e-07,1.665298429245888e-05
1.1352381115098452e-06,2.976209461216492e-07,3.826681359540953e-07,1.6643245006025667e-05
1.118050091819992e-06,3.019252705139165e-07,3.814003975243279e-07,1.662335342424529e-05
1.1013887029594351e-06,3.0646189132452695e-07,3.7997722404468176e-07,1.6593656015600727e-05
1.0852530685343827e-06,3.1121950252520765e-07,3.7840662252276024e-07,1.6554685277598824e-05
1.0696378667193226e-06,3.161864822956329e-07,3.76699156018393e-07,1.650711339448984e-05
1.0545369483910514e-06,3.2135004401040226e-07,3.7486596477370037e-07,1.6451690236465036e-05
1.0399457787556663e-06,3.2669482146847173e-07,3.729168529267069e-07,1.6389266302039707e-05
1.0258609379434256e-06,3.322026832525422e-07,3.7085945181272366e-07,1.6320862962159535e-05
1.0122808152460849e-06,3.378536999935441e-07,3.6869941808275757e-07,1.624764524683815e-05
9.992119284228856e-07,3.436269146843393e-07,3.6644216846654365e-07,1.6170801701438135e-05
9.86678331129517e-07,3.494999355158787e-07,3.640952465928582e-07,1.609142748520619e-05
9.74724468775928e-07,3.5544805410315454e-07,3.6166991949836703e-07,1.6010462042000465e-05
9.634053237108524e-07,3.614448352330219e-07,3.5918130531729154e-07,1.5928750902384913e-05
9.527710877085275e-07,3.6746312686892546e-07,3.5664689262491e-07,1.5847207086168108e-05
9.428577257685013e-07,3.734742686089176e-07,3.5408569941534534e-07,1.5766885661426197e-05
9.336849749607063e-07,3.794473870362269e-07,3.5151928812623896e-07,1.5688897783417317e-05
9.2525700760321e-07,3.8535086435222923e-07,3.4897114993992945e-07,1.5614279879403697e-05
9.17563666419132e-07,3.911540590660342e-07,3.464634788702787e-07,1.554390014158243e-05
9.10582210518073e-07,3.968270285696047e-07,3.4401506527332866e-07,1.5478400921305408e-05
