4.0710090245725705e-07,2.82790907688244e-07,2.7929579241686345e-07,1.691165380069276e-05
4.0614670449388657e-07,2.8148402701524866e-07,2.800337138765811e-07,1.6786460617191197e-05
4.0507277594321044e-07,2.803308412496393e-07,2.8074159003042464e-07,1.667380568241745e-05
4.0389721729597827e-07,2.793295742041096e-07,2.814076130324429e-07,1.657390421362393e-05
4.026366794005337e-07,2.7847770681665933e-07,2.8201916004720377e-07,1.6486707185229793e-05
4.013083632096058e-07,2.7777154150102466e-07,2.8256361730814466e-07,1.641197369674363e-05
3.9992967519944036e-07,2.772059255230709e-07,2.830287624955341e-07,1.634934288996829e-05
3.985164744088773e-07,2.767746773272706e-07,2.8340287229503285e-07,1.6298418104396793e-05
3.970830216501992e-07,2.7647068479077104e-07,2.836751074316084e-07,1.6258852874691673e-05
3.956428038985994e-07,2.762856396601568e-07,2.838355568763912e-07,1.6230400719839505e-05
3.9420794778652726e-07,2.762103184385465e-07,2.8387454422240706e-07,1.6212923979136804e-05
3.927876860133297e-07,2.762354037192447e-07,2.8378223659344386e-07,1.6206393629296452e-05
3.913875887381197e-07,2.7635234469784984e-07,2.8354912513644427e-07,1.6210883900546806e-05
3.900096748615414e-07,2.76554354903987e-07,2.831669494778737e-07,1.6226537672843846e-05
3.8865295734057883e-07,2.7683707758857124e-07,2.8263008124134405e-07,1.6253503894231274e-05
3.873145996174865e-07,2.7719779343956977e-07,2.819369773390413e-07,1.6291860677223712e-05
3.8599124062784377e-07,2.776340810009481e-07,2.810900254021393e-07,1.6341530279703162e-05
3.846806841033634e-07,2.781440505409282e-07,2.800938496166052e-07,1.6402227601712596e-05
3.833849436885317e-07,2.7872756606916e-07,2.789548806993142e-07,1.647350023559606e-05
3.8211177507607775e-07,2.793864478787969e-07,2.776825933434032e-07,1.655482537896961e-05
3.8087119292900025e-07,2.8012362978088553e-07,2.762891883396446e-07,1.6645663802551e-05
3.7967057602981406e-07,2.809425202816655e-07,2.747874566421859e-07,1.674545503580644e-05
3.7851356306936006e-07,2.818467289818851e-07,2.731899330519057e-07,1.685360674838305e-05
3.774013868964737e-07,2.8283988370739444e-07,2.715092000613441e-07,1.696949255847668e-05
3.763335561760521e-07,2.839263792627697e-07,2.697571477611928e-07,1.70924264415728e-05
3.7530820977833477e-07,2.851126627184999e-07,2.679441584028828e-07,1.72215986911637e-05
3.7432268254865545e-07,2.86406981532055e-07,2.660803068306868e-07,1.7356020508560736e-05
3.7337425376937383e-07,2.8781729388140175e-07,2.641774132934324e-07,1.7494517233797265e-05
3.724613624895689e-07,2.8934950934414467e-07,2.6224934663198173e-07,1.7635748131390493e-05
3.715840721434349e-07,2.910081758220028e-07,2.6031074078306763e-07,1.7778245702151934e-05
3.707429799182545e-07,2.927981527150541e-07,2.58376029245827e-07,1.792050539923599e-05
3.6993889469541564e-07,2.9472413440120737e-07,2.5645953917587816e-07,1.8061108525419312e-05
3.6917474077195677e-07,2.967890908008721e-07,2.545755515247484e-07,1.8198785728406625e-05
3.684568198438714e-07,2.989940545560956e-07,2.527372295729932e-07,1.8332368540411588e-05
3.677936246848525e-07,3.01338233620264e-07,2.509555135543141e-07,1.846070768862581e-05
3.67194219697995e-07,3.0381842347722697e-07,2.4923888253863354e-07,1.8582668894113827e-05
3.666667735789729e-07,3.0642886463106684e-07,2.47593366863244e-07,1.869720687206167e-05
3.662168243600065e-07,3.091616272934957e-07,2.460231718439316e-07,1.8803428903079806e-05
3.658469111079458e-07,3.1200627703941524e-07,2.445323119281713e-07,1.8900595828922136e-05
3.655572894455101e-07,3.149493654498293e-07,2.4312562538514804e-07,1.8988086834985097e-05
3.6534544727874094e-07,3.179747985482977e-07,2.418078466458141e-07,1.906540264827466e-05
3.652050442529105e-07,3.210647593882029e-07,2.4058261546613945e-07,1.913225059100668e-05
3.651265120332379e-07,3.2420132444358093e-07,2.3945315125003305e-07,1.9188610106707075e-05
3.650992196645706e-07,3.2736863271367477e-07,2.384226008462148e-07,1.923466322938512e-05
3.6511278185927527e-07,3.305540470203223e-07,2.374929427165401e-07,1.9270659087129745e-05
3.651566801698136e-07,3.337471625179913e-07,2.366645882125016e-07,1.9296820738145228e-05
3.652199899667696e-07,3.3693773786531355e-07,2.3593730199181161e-07,1.931333800187315e-05
3.6529188537244686e-07,3.401147534838676e-07,2.3531066343983578e-07,1.932051143892858e-05
3.653623852318949e-07,3.432661896508742e-07,2.347832865469934e-07,1.931898152825484e-05
3.654236290563606e-07,3.463782637795465e-07,2.3435209582709602e-07,1.9309804791637e-05
3.6547123422048726e-07,3.494351713872849e-07,2.340129539504201e-07,1.9294310539341958e-05
3.6550393683569887e-07,3.524194189823056e-07,2.3376180719087285e-07,1.9273900595125666e-05
3.655217512103626e-07,3.553119095445864e-07,2.3359511496507674e-07,1.9249894548539093e-05
3.655243432468372e-07,3.5809246340347047e-07,2.3350971977414843e-07,1.922340907718619e-05
3.6550968655200975e-07,3.607406431581942e-07,2.3350223095379683e-07,1.919527252414064e-05
3.654735956418625e-07,3.6323625031546203e-07,2.335678088644591e-07,1.916600193078605e-05
3.654108719588685e-07,3.6556045740129903e-07,2.3369947107867607e-07,1.9135833728852082e-05
3.653162647220959e-07,3.6769749760190173e-07,2.3388917724227238e-07,1.910476477361319e-05
3.6518377731892975e-07,3.696353922035232e-07,2.3412954592540828e-07,1.907258469130676e-05
3.6500612364529953e-07,3.7136552309767437e-07,2.3441384394087926e-07,1.9038912539714504e-05
3.647763868852421e-07,3.728817407243775e-07,2.3473452571953677e-07,1.900324382269965e-05
3.6448965735973074e-07,3.741793066672178e-07,2.350823906424273e-07,1.8965008226359422e-05
3.641425220766373e-07,3.7525368688045116e-07,2.3544746799904985e-07,1.892364718933065e-05
3.637331200670268e-07,3.7609982826366955e-07,2.358213490967115e-07,1.887870777593849e-05
3.632627326124818e-07,3.76713056977471e-07,2.36198215700283e-07,1.882992663706672e-05
3.62735849513066e-07,3.7709119312933117e-07,2.3657274260872078e-07,1.8777270933289635e-05
3.621581671015521e-07,3.772359066073448e-07,2.369378490712564e-07,1.8720920138531585e-05
3.6153492953778283e-07,3.771522481378851e-07,2.372850155058395e-07,1.8661210738898665e-05
3.6087006372781173e-07,3.768471372139686e-07,2.3760656802260078e-07,1.859858286770698e-05
3.601650894342321e-07,3.763279807676154e-07,2.3789835240837355e-07,1.8533538006377442e-05
3.5941856650304266e-07,3.756020506424722e-07,2.3816132664591927e-07,1.84665876568452e-05
3.586268527190218e-07,3.7467654620784593e-07,2.3840167268488894e-07,1.839818739852089e-05
3.5778528458279596e-07,3.735582803141245e-07,2.3862927308860306e-07,1.8328678385611772e-05
3.568891074757549e-07,3.7225263856706405e-07,2.388546021136968e-07,1.8258278382708748e-05
3.5593447070766675e-07,3.7076323502706673e-07,2.3908608117392485e-07,1.8187159415651907e-05
3.5491918897067215e-07,3.6909305007933224e-07,2.393293975569403e-07,1.8115564762381804e-05
3.5384239079215594e-07,3.672468245711537e-07,2.395880591743317e-07,1.8043859725465725e-05
3.527038021384624e-07,3.6523470268680476e-07,2.3986452143156235e-07,1.7972504132316743e-05
3.515038027917034e-07,3.6307438356558063e-07,2.401613079459693e-07,1.7902023688408927e-05
3.5024344469054445e-07,3.607885560910264e-07,2.4048151995155893e-07,1.7833015417124165e-05
3.489239970782762e-07,3.5840102320211295e-07,2.4082879314092625e-07,1.776613428313779e-05
3.475475601770937e-07,3.5593540663678154e-07,2.4120699575131524e-07,1.7702004385297905e-05
3.461184678261528e-07,3.534141675927165e-07,2.416197907612573e-07,1.764112000660839e-05
3.4464273787970737e-07,3.508566303493472e-07,2.420699790190744e-07,1.758383205088568e-05
3.4312580134996097e-07,3.4827793215612803e-07,2.425595452923265e-07,1.7530388190403765e-05
3.415714911552884e-07,3.456896026981932e-07,2.430906122003698e-07,1.7480951604827867e-05
3.399822968266829e-07,3.431008776866325e-07,2.436653263762948e-07,1.743557631408034e-05
3.383594741656057e-07,3.4051946927675876e-07,2.4428493514187216e-07,1.7394165741766662e-05
3.3670368019856125e-07,3.379518006413579e-07,2.4495007288176514e-07,1.735645625767333e-05
3.35015573934001e-07,3.354035664178389e-07,2.456614706845928e-07,1.73220277095155e-05
3.3329507406668603e-07,3.328801805593511e-07,2.464196845798063e-07,1.7290332245391632e-05
3.3154096883095624e-07,3.303865085324554e-07,2.4722451829137075e-07,1.7260748157157927e-05
3.297524182278557e-07,3.279262935538116e-07,2.4807509897849705e-07,1.7232627089952984e-05
3.279304953174747e-07,3.255024207857165e-07,2.489703948432061e-07,1.7205291902368425e-05
3.260778513729938e-07,3.2311852825920786e-07,2.499096191297965e-07,1.717800519102797e-05
3.241977227612433e-07,3.207802801781723e-07,2.508923733413024e-07,1.71499755025615e-05
3.222939161159153e-07,3.184947106743108e-07,2.5191817135585265e-07,1.7120467508746887e-05
3.203711231771345e-07,3.162682255005976e-07,2.5298582642059605e-07,1.7088966823611672e-05
3.1843533486643254e-07,3.141048813214787e-07,2.5409374386521e-07,1.7055218406011438e-05
3.164949100384206e-07,3.120061634528532e-07,2.5524015441652044e-07,1.701911927495775e-05
3.1456084163724926e-07,3.0997204648338924e-07,2.564230580935256e-07,1.6980625564377053e-05
3.126452090631152e-07,3.08001952797049e-07,2.576417918237676e-07,1.6939702448458835e-05
3.107595730771603e-07,3.060948802783344e-07,2.588986869980195e-07,1.6896262643583225e-05
3.0891497972126924e-07,3.042494277668657e-07,2.6019743169825173e-07,1.6850112816579856e-05
3.071227497030316e-07,3.024639175699071e-07,2.6153984870845754e-07,1.6800936173477364e-05
3.053944507084925e-07,3.007356852561457e-07,2.629246371286007e-07,1.6748304206425444e-05
3.0374103448792373e-07,2.9905995573759425e-07,2.643482800809589e-07,1.669170317597721e-05
3.0217193668315626e-07,2.974298474469395e-07,2.658063944226336e-07,1.6630574182503876e-05
3.006948671470157e-07,2.958377096035355e-07,2.6729376435986465e-07,1.6564359697259126e-05
2.993161950373054e-07,2.942764092123139e-07,2.688031101972281e-07,1.6492530410543216e-05
2.980408110399428e-07,2.9273944079497726e-07,2.7032429078777505e-07,1.64145843277038e-05
2.968715437159315e-07,2.9122037772520163e-07,2.718446970775315e-07,1.6330041149892987e-05
2.9580959893506807e-07,2.8971260709121645e-07,2.7335033356894344e-07,1.6238450349739982e-05
2.948558931384564e-07,2.8820952372692683e-07,2.748265931331133e-07,1.61394074983611e-05
2.9401148965113664e-07,2.8670552325457286e-07,2.762584126861777e-07,1.6032560002923026e-05
2.9327727483573125e-07,2.8519766001726144e-07,2.776306256371732e-07,1.5917596970420857e-05
2.9265445481638515e-07,2.836861123122675e-07,2.789283406969903e-07,1.579423569487793e-05
2.921448421062228e-07,2.82172686665408e-07,2.801367690696286e-07,1.5662210410278776e-05
2.917499023008309e-07,2.806591914400875e-07,2.812414463776629e-07,1.5521266127837533e-05
2.9147113762306986e-07,2.7914727183030617e-07,2.822291464374861e-07,1.5371165026876315e-05
2.913117861091788e-07,2.776394619550765e-07,2.830888396410338e-07,1.5211707206182339e-05
2.91275961475546e-07,2.7613991279966896e-07,2.838125708634104e-07,1.5042755353851688e-05
2.9136556108618405e-07,2.746540373163238e-07,2.843953593673413e-07,1.4864247464275995e-05
2.915785370212592e-07,2.731877104022822e-07,2.8483383953159697e-07,1.4676212311082587e-05
2.9190934038245656e-07,2.717465955201982e-07,2.851252066572357e-07,1.4478811640047934e-05
2.923502691371835e-07,2.703357337370513e-07,2.8526704110767734e-07,1.427237635281073e-05
2.928928198174181e-07,2.6895884996906165e-07,2.852574757234372e-07,1.4057392708775906e-05
2.9352838801831517e-07,2.6761754517481087e-07,2.850955515225909e-07,1.3834447335911747e-05
2.9424784955508924e-07,2.663118092946704e-07,2.8478155344864504e-07,1.3604165333073755e-05
2.9504069057255625e-07,2.650414440536467e-07,2.843171959186503e-07,1.3367187143676594e-05
2.9589460676960685e-07,2.6380626656570375e-07,2.837056477943948e-07,1.312421463816232e-05
2.967953782228065e-07,2.62605005391148e-07,2.8295103947610376e-07,1.287606356753792e-05
2.9772693385885885e-07,2.614345400580955e-07,2.8205771095037714e-07,1.2623630172455787e-05
2.986720170882971e-07,2.602899619572982e-07,2.810304551369579e-07,1.2367802432846734e-05
2.9961309447613805e-07,2.5916500449333125e-07,2.7987606502090346e-07,1.2109410814021692e-05
3.005329485461889e-07,2.580525172655266e-07,2.7860463537833817e-07,1.1849249198697567e-05
3.014152189980865e-07,2.569449378688098e-07,2.772289818443468e-07,1.158814263507028e-05
3.022449701231888e-07,2.558351895682051e-07,2.757634310647303e-07,1.1326999478782401e-05
3.030088184817056e-07,2.547179707896593e-07,2.742245527244141e-07,1.1066785154675273e-05
3.0369467703760097e-07,2.5359054299411693e-07,2.7263204972190235e-07,1.080844327367078e-05
3.0429187036073126e-07,2.524524851091713e-07,2.7100671423906984e-07,1.0552846979739599e-05
3.047922402123753e-07,2.513046544406392e-07,2.693672548789539e-07,1.0300816004154527e-05
3.0519092019871075e-07,2.5014785559752367e-07,2.6772892457594237e-07,1.005318049697782e-05
3.0548507481548625e-07,2.489821403123645e-07,2.6610375421636164e-07,9.810872002761407e-06
3.056722603672853e-07,2.4780772834885805e-07,2.6450098524924076e-07,9.575004733827804e-06
3.057503955583465e-07,2.466269362430224e-07,2.629275422477695e-07,9.346872550612653e-06
3.0571810742184674e-07,2.4544522285521825e-07,2.613893561758601e-07,9.127835033333044e-06
3.0557448018626736e-07,2.442707026526061e-07,2.598924822256819e-07,8.919159809478976e-06
3.0531892080970345e-07,2.431125965242647e-07,2.5844220979209497e-07,8.72191249205727e-06
3.0495101819120215e-07,2.419792730132849e-07,2.5704167587860607e-07,8.536926802340942e-06
3.0447035657533675e-07,2.4087725454193657e-07,2.556922330136526e-07,8.364814734592867e-06
3.038769439029009e-07,2.398117597919016e-07,2.543949873314052e-07,8.205994694539196e-06
3.031717595324451e-07,2.3878753384533177e-07,2.5315216409583307e-07,8.060785993346377e-06
3.023566885114898e-07,2.3780910604554228e-07,2.5196749512127925e-07,7.929583478732278e-06
3.014339448506464e-07,2.368811654880751e-07,2.508452163272644e-07,7.812983606543444e-06
3.004052516809657e-07,2.3600926132594172e-07,2.497885697279877e-07,7.711722662261791e-06
2.9927158884740627e-07,2.3519968761125054e-07,2.487987724273097e-07,7.626486807184648e-06
2.980344847170675e-07,2.3445817321504426e-07,2.478743593941733e-07,7.557753643683241e-06
2.9669784674144375e-07,2.3378891854426255e-07,2.470113613545563e-07,7.505756372244916e-06
2.95267919987752e-07,2.331955548815285e-07,2.46204813913339e-07,7.470626378036839e-06
2.937514653132841e-07,2.3268276084810452e-07,2.454501653601809e-07,7.4526675037582505e-06
2.921546010243752e-07,2.322559630358057e-07,2.447432926586754e-07,7.452538077586798e-06
2.90482997061552e-07,2.3191978642397556e-07,2.440803510929748e-07,7.471195006151988e-06
2.887422677674893e-07,2.316780742840485e-07,2.4345837162933304e-07,7.509717782103154e-06
2.8693782064714067e-07,2.315350623622292e-07,2.428755388465051e-07,7.569165360619374e-06
2.850742325131537e-07,2.314949104890315e-07,2.4233076331733585e-07,7.650469623153157e-06
2.8315489305975945e-07,2.315601879561743e-07,2.4182286384539197e-07,7.754332110448328e-06
2.8118210698129397e-07,2.317318378093936e-07,2.413495177377123e-07,7.881146010878001e-06
2.7915703462982533e-07,2.3200995292848693e-07,2.4090720827559015e-07,8.03096584289407e-06
2.77079898973257e-07,2.3239362800373672e-07,2.404925955643185e-07,8.20351287246859e-06
2.7495137243434374e-07,2.328801778122386e-07,2.4010314876193443e-07,8.398198697161606e-06
2.7277433401928485e-07,2.334647731825647e-07,2.3973606605877426e-07,8.614143660932492e-06
2.705541661534328e-07,2.3414088365097548e-07,2.393872899667712e-07,8.850172933538612e-06
2.68297442134127e-07,2.349006883453476e-07,2.390513840375417e-07,9.10481913863012e-06
2.660103798296996e-07,2.3573559253904482e-07,2.3872168997732085e-07,9.37636847244019e-06
2.636978770075891e-07,2.3663847937766033e-07,2.383912817458432e-07,9.662942811387165e-06
2.613635090103586e-07,2.3760622104675503e-07,2.380549207565445e-07,9.962591849902277e-06
2.590103068299081e-07,2.3863935518731696e-07,2.3771010938424448e-07,1.0273370231778716e-05
2.566411484806809e-07,2.3973962145336534e-07,2.373559584214438e-07,1.0593370656014197e-05
2.5425829754509664e-07,2.409079434318266e-07,2.36991576717224e-07,1.0920719269932035e-05
2.518628101387084e-07,2.4214398345389575e-07,2.3661604643959841e-07,1.1253578213135604e-05
2.494545055957683e-07,2.434468601211597e-07,2.3622969759501013e-07,1.1590159079461622e-05
2.470326122785288e-07,2.4481563391130605e-07,2.358346748940434e-07,1.1928708940462916e-05
2.445964954209374e-07,2.4624855036252926e-07,2.3543374131297852e-07,1.2267480288401137e-05
2.421460234963696e-07,2.477417749751427e-07,2.3502856728221946e-07,1.2604732987052287e-05
2.3968176035829056e-07,2.4928946752555033e-07,2.346197878043729e-07,1.2938759698892367e-05
2.3720470620896425e-07,2.508852500310301e-07,2.3420983511707468e-07,1.32678951862843e-05
2.3471562060332203e-07,2.525229726868912e-07,2.3380543171810174e-07,1.3590515303806375e-05
2.322151289480743e-07,2.541964751727085e-07,2.334158687461276e-07,1.3905036171980279e-05
2.2970506482759232e-07,2.5589948955627444e-07,2.3304934465928282e-07,1.4209905086543772e-05
2.2719009949870963e-07,2.5762535663233053e-07,2.3271187340009942e-07,1.4503603447925364e-05
2.246780132327937e-07,2.593670784480948e-07,2.3240802895427237e-07,1.4784674954354922e-05
2.221776857069992e-07,2.611187008249723e-07,2.321410197565248e-07,1.5051752162037836e-05
2.196965635102742e-07,2.6287644430953734e-07,2.3191270822724122e-07,1.5303563541118314e-05
2.1723994904638414e-07,2.646383234144063e-07,2.3172426941484237e-07,1.5538939394797172e-05
2.148120740355021e-07,2.66402915931158e-07,2.315769667706489e-07,1.5756843250281813e-05
2.1241743646381225e-07,2.681680721278845e-07,2.3147291624388089e-07,1.5956424020173686e-05
2.1006094815500408e-07,2.69930970607522e-07,2.3141521687175342e-07,1.6137057182569323e-05
2.0774693496967565e-07,2.716899771026329e-07,2.3140716759859985e-07,1.629836626268536e-05
2.0547874778219238e-07,2.734459133819179e-07,2.31451053750496e-07,1.64402535063262e-05
2.032594779419991e-07,2.7520081945467573e-07,2.3154688247918692e-07,1.6562928040908635e-05
2.010924474382815e-07,2.7695559468930304e-07,2.316920840966333e-07,1.666685611106909e-05
1.9898156853144864e-07,2.787092156406945e-07,2.3188250505406798e-07,1.675262435242128e-05
1.9693278980899435e-07,2.8045976469203026e-07,2.3211356941964406e-07,1.682082036096572e-05
1.9495627545316687e-07,2.8220512195227734e-07,2.3238092374733572e-07,1.6872003470880047e-05
1.9306736046652237e-07,2.839424715435456e-07,2.326806150268414e-07,1.6906729098088903e-05
1.9128490396427861e-07,2.856675104836347e-07,2.3300887731572576e-07,1.6925569493694788e-05
1.896285837181704e-07,2.873739875215525e-07,2.3336176525171703e-07,1.6929106194775226e-05
1.8811728890915728e-07,2.8905356555526485e-07,2.337349447453072e-07,1.6917926433516206e-05
1.8676821381086406e-07,2.906962266431386e-07,2.3412341114302765e-07,1.689273017353035e-05
1.855957491632005e-07,2.922919348580712e-07,2.345211414174404e-07,1.6854518629068756e-05
1.846103385182332e-07,2.9383275087991254e-07,2.349211989010881e-07,1.6804631700627405e-05
1.838180033375359e-07,2.953132354225453e-07,2.3531598702446985e-07,1.6744568961735735e-05
1.8322105897807106e-07,2.967291375685952e-07,2.356973861498095e-07,1.6675779988512162e-05
1.8281921583251978e-07,2.9807620886424687e-07,2.3605718096690825e-07,1.6599567338367778e-05
1.8260981905292648e-07,2.993506080669097e-07,2.3638791902152648e-07,1.651716696379455e-05
1.8258781860545848e-07,3.005506861979435e-07,2.366840457669645e-07,1.6430003001894174e-05
1.8274701925101372e-07,3.0167781615540683e-07,2.36942224492589e-07,1.6339921175322918e-05
1.8308186310788625e-07,3.027355231242449e-07,2.3716016057458659e-07,1.6249191706607853e-05
1.835876768654889e-07,3.037281036761677e-07,2.37336244606417e-07,1.616032153802494e-05
1.8425948404963305e-07,3.046587986419665e-07,2.3747168585975252e-07,1.6075827318150288e-05
1.85091097006719e-07,3.0552832572781e-07,2.37571749495722e-07,1.5998049035129034e-05
1.8607528806569203e-07,3.063351386155941e-07,2.3764332651889148e-07,1.5929032090470817e-05
1.872049249312477e-07,3.070768972809523e-07,2.376921403549868e-07,1.5870462138736952e-05
1.8847487509286252e-07,3.077516163164773e-07,2.377225286062896e-07,1.582363214059886e-05
1.8988270464015287e-07,3.083572869511692e-07,2.377378637148449e-07,1.5789466548289803e-05
1.914262383504928e-07,3.088907896147339e-07,2.377403587986165e-07,1.5768602777218268e-05
1.931003996961378e-07,3.093486494151028e-07,2.377318780973849e-07,1.5761457191017284e-05
1.9489656361525371e-07,3.0972953855424254e-07,2.377154059691059e-07,1.576821630146604e-05
1.96804107855288e-07,3.1003509529846803e-07,2.376949586779604e-07,1.5788780806189854e-05
1.9881188863897406e-07,3.1026794146445763e-07,2.37674454182187e-07,1.582273484432058e-05
2.0090868057827026e-07,3.1043001618044746e-07,2.376578094338201e-07,1.5869388029399048e-05
2.0308411064988986e-07,3.1052388203629997e-07,2.376507273309245e-07,1.5927888605779557e-05
2.0533027277780305e-07,3.1055609388110253e-07,2.3766240688091704e-07,1.599736065436379e-05
2.0764158175641862e-07,3.105392303605897e-07,2.377048645257061e-07,1.607699611934743e-05
2.100128456101953e-07,3.104899151695173e-07,2.3779024525409046e-07,1.616607130611386e-05
2.1243811174933703e-07,3.104243083832572e-07,2.379297435803577e-07,1.6263929677432236e-05
2.1491063489831762e-07,3.1035551654266465e-07,2.3813533316170968e-07,1.6369974733973154e-05
2.1742265460922727e-07,3.1029471492664643e-07,2.3842106155329804e-07,1.6483665266981783e-05
2.1996529967143007e-07,3.102533684338893e-07,2.3880231231031763e-07,1.660449460062046e-05
2.2252986028086643e-07,3.1024411906264377e-07,2.392944740275592e-07,1.6731948010770464e-05
2.2510941943107332e-07,3.1028004396681404e-07,2.399115518872289e-07,1.6865435508578187e-05
2.2769832340820875e-07,3.103726197099084e-07,2.4066498962314036e-07,1.70042219914409e-05
2.3029013426129772e-07,3.105298836826993e-07,2.415639763083694e-07,1.71474012485556e-05
2.3287673922664403e-07,3.107559373407434e-07,2.4261780090062885e-07,1.7293913186491985e-05
2.3544897179623665e-07,3.1105097782575714e-07,2.438381326640373e-07,1.744255436966521e-05
2.3799783875581145e-07,3.1141126966921945e-07,2.4523807056131055e-07,1.7591976551980927e-05
2.405155121348837e-07,3.118294056927748e-07,2.4682928042153513e-07,1.7740708920130328e-05
2.429953602569044e-07,3.12295023178253e-07,2.4862068735345247e-07,1.7887206523547734e-05
2.4543122160577174e-07,3.1279588282710855e-07,2.506180040980608e-07,1.8029896207118835e-05
2.4781627448868125e-07,3.133186513864708e-07,2.5282273256470656e-07,1.816721587929728e-05
2.501419338389204e-07,3.138493213560119e-07,2.5523181083401537e-07,1.8297669931559965e-05
2.5239765815168056e-07,3.143747413743537e-07,2.578381933607029e-07,1.8419899106076213e-05
2.545717988399773e-07,3.148842379417078e-07,2.606312309264826e-07,1.853273413356028e-05
2.5665264979217574e-07,3.153688280607059e-07,2.63596394649716e-07,1.8635223365850562e-05
2.586289514401484e-07,3.158194820078256e-07,2.6671517256418663e-07,1.872666758070737e-05
2.604899041940961e-07,3.162264326473492e-07,2.699662431393309e-07,1.8806663686421524e-05
2.6222513928043925e-07,3.165789431017148e-07,2.733278747079301e-07,1.887508759616587e-05
2.6382488240043733e-07,3.168653722530131e-07,2.7678061768484306e-07,1.8931985145345653e-05
2.652804098650881e-07,3.1707417668564874e-07,2.803092916598291e-07,1.89774449511062e-05
2.665844967376611e-07,3.171954877679554e-07,2.839029688544493e-07,1.9011550251094026e-05
2.677313212822644e-07,3.17221817718467e-07,2.875524522143745e-07,1.903441919162787e-05
2.687160088778473e-07,3.171472728729996e-07,2.9124711271792826e-07,1.904625973222893e-05
2.695342097998671e-07,3.1696650225163806e-07,2.949736083934063e-07,1.904738296284632e-05
2.7018201635654513e-07,3.166746356884776e-07,2.9871650025748444e-07,1.9038174627177122e-05
2.706571168408705e-07,3.162679592538498e-07,3.0245858601359644e-07,1.9019077589784446e-05
2.709608398710447e-07,3.1574436572032306e-07,3.061803080049157e-07,1.8990626970098278e-05
2.71099088425567e-07,3.151033802677417e-07,3.09859769827587e-07,1.8953459865362922e-05
2.7108165129291037e-07,3.1434608894523525e-07,3.1347394344944804e-07,1.890821938378717e-05
2.7092051181018854e-07,3.1347478701962217e-07,3.1699999475270765e-07,1.8855430135581282e-05
2.7062772187057297e-07,3.124928645073582e-07,3.2041596657004993e-07,1.879546904092785e-05
2.702143363819336e-07,3.1140604704432694e-07,3.237012635804863e-07,1.872869434056581e-05
2.6969072783283553e-07,3.1022411831448405e-07,3.268373479659821e-07,1.8655706405949025e-05
2.6906680843524177e-07,3.0896161785877497e-07,3.29807972311618e-07,1.8577559623918893e-05
2.683520928536294e-07,3.076374248191749e-07,3.325983038503867e-07,1.8495744946944143e-05
2.6755636216862e-07,3.062734587558847e-07,3.3519364996206105e-07,1.8412003531181257e-05
2.6668992965823605e-07,3.0489307516301224e-07,3.3757891050437233e-07,1.832814602071429e-05
2.657630477635578e-07,3.035192853033536e-07,3.397391848866407e-07,1.824592687798033e-05
2.647857652512093e-07,3.021723952295025e-07,3.416615733339067e-07,1.81669418578544e-05
2.6376772537056214e-07,3.008684295491583e-07,3.433367041778186e-07,1.8092548530370176e-05
2.627171164976844e-07,2.9961928323935835e-07,3.4475814407306037e-07,1.8023820502524905e-05
2.616411920075857e-07,2.984330614931653e-07,3.459212163814079e-07,1.796152254331875e-05
2.605496929785853e-07,2.973138713572235e-07,3.4682307511764336e-07,1.7906094056758432e-05
2.594576930136363e-07,2.962619975781704e-07,3.4746260728131187e-07,1.7857647171191398e-05
2.583844916804791e-07,2.952746460803276e-07,3.4783969907789626e-07,1.7815991558828478e-05
2.573498255769412e-07,2.943467790041661e-07,3.4795543055423927e-07,1.778068382640211e-05
2.563707226255702e-07,2.934721639799744e-07,3.4781288714878587e-07,1.775108225797377e-05
2.554606904872255e-07,2.9264462267631175e-07,3.474171532637629e-07,1.772640106142226e-05
2.546301204406517e-07,2.9185838479920103e-07,3.467743889694647e-07,1.7705783160130907e-05
2.5388637568009004e-07,2.911070423162303e-07,3.458909516948072e-07,1.7688382289705376e-05
2.532337919557274e-07,2.903827460711757e-07,3.447736449715645e-07,1.7673401316219133e-05
2.5267395754785033e-07,2.896770954048577e-07,3.4343122242817445e-07,1.7660082724491625e-05
2.522066723207816e-07,2.889832131353466e-07,3.418754659041597e-07,1.7647723304316566e-05
2.518320139023041e-07,2.8829751472901827e-07,3.401201289527609e-07,1.7635737435060017e-05
2.5155230579459684e-07,2.8761953381844805e-07,3.3817869751900923e-07,1.7623707311816942e-05
2.5137224553605623e-07,2.869500297782243e-07,3.360630829303637e-07,1.7611379682047573e-05
2.5129743656089764e-07,2.862894238073432e-07,3.3378392194834105e-07,1.7598619550298125e-05
2.513326726317077e-07,2.8563717765075216e-07,3.3135155852797194e-07,1.758533195573107e-05
2.514803983651936e-07,2.8499152205706527e-07,3.287765832782777e-07,1.757137775496487e-05
2.5174020964653265e-07,2.8434958219731807e-07,3.2607009077309435e-07,1.7556534069224188e-05
2.5211020732897765e-07,2.837077634202751e-07,3.2324371668965005e-07,1.7540497951384592e-05
2.5258853468021864e-07,2.830617106703422e-07,3.2030928802069614e-07,1.7522876960880334e-05
2.531732737555628e-07,2.8240601159878997e-07,3.172786813523333e-07,1.7503163824282314e-05
2.538611243147328e-07,2.8173485584930337e-07,3.1416362129477573e-07,1.7480737844492165e-05
2.5464616782793197e-07,2.810442058695863e-07,3.1097537074271145e-07,1.7454895030646805e-05
2.5551974300895427e-07,2.803339192482552e-07,3.0772513248042305e-07,1.7424884835940576e-05
2.5647142995912036e-07,2.7960764369424517e-07,3.044248287005183e-07,1.7389949218092893e-05
2.574898085303024e-07,2.7887082588224324e-07,3.0108748447624177e-07,1.7349368405676892e-05
2.585621769797725e-07,2.781290351454412e-07,2.9772663312661647e-07,1.730250993365141e-05
2.5967406355010556e-07,2.7738703293293125e-07,2.943546787994584e-07,1.7248872131387133e-05
2.6080963669202885e-07,2.7664775285317e-07,2.909814343800497e-07,1.71881209764349e-05
2.6195314532705e-07,2.759124438727752e-07,2.8761400757870397e-07,1.7120131813123285e-05
2.6309037872673077e-07,2.751828238278903e-07,2.842584957299184e-07,1.7045031371403668e-05
2.642089441126262e-07,2.7446298794154146e-07,2.809229641682811e-07,1.6963192301380156e-05
2.6529745963060133e-07,2.737595526784591e-07,2.776191965267512e-07,1.6875143895509142e-05
2.6634492917585826e-07,2.730804956243149e-07,2.7436140202994297e-07,1.678144844501431e-05
2.67341513371878e-07,2.724333260117693e-07,2.7116392599820816e-07,1.6682641556534193e-05
2.6828082913017664e-07,2.718239542085907e-07,2.680402219590916e-07,1.6579259216708145e-05
2.6916202968047896e-07,2.712571103586783e-07,2.6500202761390137e-07,1.6471881245865813e-05
2.6998946753584466e-07,2.7073692093150336e-07,2.6205817024406326e-07,1.6361143906259913e-05
2.7077017003150805e-07,2.702667451345048e-07,2.592146885183967e-07,1.6247726686036905e-05
2.715111834441559e-07,2.698493099954032e-07,2.5647653599958984e-07,1.6132348880288954e-05
2.722178964411873e-07,2.6948717309170707e-07,2.5384902993798235e-07,1.6015820102619585e-05
2.7289319709284504e-07,2.6918266990515373e-07,2.513374716122939e-07,1.589907750809906e-05
2.735371950670341e-07,2.689380899652885e-07,2.489458103727265e-07,1.578309833713955e-05
2.7414773996167076e-07,2.687565315015132e-07,2.4667673037499036e-07,1.566874463533194e-05
2.747218486352143e-07,2.6864181533660514e-07,2.4453244269811524e-07,1.5556673274887767e-05
2.752569619450643e-07,2.6859691064703044e-07,2.4251397611925603e-07,1.544737749437711e-05
2.757511563039573e-07,2.6862271816691233e-07,2.406204576424803e-07,1.5341382518055938e-05
2.76202835982167e-07,2.6871779999617766e-07,2.3885052235030306e-07,1.5239491253962743e-05
2.766104683646819e-07,2.6887804061120875e-07,2.372043889420719e-07,1.5142876647368442e-05
2.7697271900165816e-07,2.690964069349626e-07,2.3568414464346708e-07,1.5052979955298953e-05
2.7728903522434e-07,2.6936321129414053e-07,2.3429260944825047e-07,1.4971347411291354e-05
2.7756021132746985e-07,2.696666845176348e-07,2.330327100865586e-07,1.489948897054212e-05
2.777892012923142e-07,2.699941417046575e-07,2.3190714666643802e-07,1.483875793676323e-05
2.7798228067817605e-07,2.7033332828897033e-07,2.3091756308771863e-07,1.4790250881083251e-05
2.781487892912411e-07,2.706728191768488e-07,2.3006406956087269e-07,1.4754743425538147e-05
2.7829837313859007e-07,2.710017353984503e-07,2.293450977468421e-07,1.473266551932182e-05
2.784380935677281e-07,2.713095506689979e-07,2.2875698480004807e-07,1.4724103519094276e-05
2.785718066683728e-07,2.715858712755237e-07,2.282940788351348e-07,1.4728824476922822e-05
2.7870072652642887e-07,2.718201756703364e-07,2.2794987966114808e-07,1.4746335321552408e-05
2.788234609928243e-07,2.720021279908565e-07,2.2771803759160095e-07,1.4775969309310236e-05
2.7893630393457287e-07,2.721229163955211e-07,2.2759206797710944e-07,1.4816958300927347e-05
2.7903485818698985e-07,2.7217658934594626e-07,2.2756452992447447e-07,1.4868473653155853e-05
2.791154112533482e-07,2.721601602554807e-07,2.276272970102193e-07,1.492965643765224e-05
2.791751063309788e-07,2.720736932324871e-07,2.2777301705081678e-07,1.4999654960680151e-05
2.7921253662717534e-07,2.7192128814355946e-07,2.2799565875123329e-07,1.5077665096856809e-05
2.792281498983661e-07,2.7171085569882534e-07,2.2828900932384695e-07,1.5162950292121967e-05
2.792231469072665e-07,2.714514597716505e-07,2.2864515612910146e-07,1.5254835466549456e-05
2.791986098348837e-07,2.711504331373179e-07,2.2905463021547657e-07,1.5352690318874686e-05
2.7915549467470736e-07,2.7081249771798216e-07,2.2950772899444017e-07,1.5455893622320903e-05
2.790942725911253e-07,2.704406190432823e-07,2.2999647967987394e-07,1.55637678348866e-05
2.790143900220866e-07,2.7003741250328536e-07,2.3051606218397628e-07,1.567552193345539e-05
2.7891444577242817e-07,2.696061463490707e-07,2.3106381887138058e-07,1.579024160178505e-05
2.7879304977976336e-07,2.691507020300886e-07,2.3163684050261172e-07,1.5906930739607242e-05
2.786491837724569e-07,2.686752234378525e-07,2.3223130064366088e-07,1.6024610407407875e-05
2.784813848015298e-07,2.681848456464548e-07,2.328436493688469e-07,1.614243312197439e-05
2.782866500808291e-07,2.676870497642996e-07,2.3347116296016946e-07,1.6259716832717386e-05
2.780598904155488e-07,2.671917641493903e-07,2.3411136701740608e-07,1.637589791280629e-05
2.7779454603271853e-07,2.667099697880263e-07,2.347614668629169e-07,1.6490492788067046e-05
2.774847847457709e-07,2.662520438747871e-07,2.354180290766108e-07,1.6603107746446348e-05
2.771277139375665e-07,2.658263884142779e-07,2.360768785112483e-07,1.671345745730382e-05
2.767240476920821e-07,2.65438589245935e-07,2.3673347848105745e-07,1.6821323902974487e-05
2.762774080719398e-07,2.6509170995758605e-07,2.3738350607407135e-07,1.6926449018116448e-05
2.7579251642791054e-07,2.647874511798637e-07,2.3802277748067603e-07,1.702845782133884e-05
2.752734114096977e-07,2.6452646267638125e-07,2.386465575464048e-07,1.712689192629205e-05
2.747228571700886e-07,2.6430740610171513e-07,2.392495058787556e-07,1.722132034363599e-05
2.74142975171914e-07,2.6412659048984015e-07,2.398265347209087e-07,1.7311467209279668e-05
2.735374650036329e-07,2.639790229118176e-07,2.4037329784748396e-07,1.7397327429811908e-05
2.729137210532565e-07,2.6385979496099877e-07,2.4088560525966804e-07,1.747921482396669e-05
2.722828072490667e-07,2.6376447968705365e-07,2.413589396856924e-07,1.7557693624093923e-05
2.71658583539092e-07,2.636885202315278e-07,2.4178939600060084e-07,1.7633427305042385e-05
2.7105610219313086e-07,2.6362645604779404e-07,2.4217450438936684e-07,1.7707010844010316e-05
2.704889910382349e-07,2.635716329945088e-07,2.4251213956647896e-07,1.7778832321621308e-05
2.699684653684128e-07,2.635173463176424e-07,2.427993028902896e-07,1.7849002500322643e-05
2.695041195878786e-07,2.6345871678369326e-07,2.430325751475022e-07,1.7917360261283033e-05
2.691044965024676e-07,2.63392984286846e-07,2.432091739265764e-07,1.7983539591647508e-05
2.687784593126575e-07,2.633185198770364e-07,2.4332747919694205e-07,1.804712902085458e-05
2.6853693736191976e-07,2.6323391719320576e-07,2.4338708925284705e-07,1.8107918597536e-05
2.683916372102106e-07,2.631371458637101e-07,2.433887256050477e-07,1.8166055998838808e-05
2.68351635706848e-07,2.630254455334789e-07,2.433342795475515e-07,1.822194986082025e-05
2.6842182578308664e-07,2.628961083636394e-07,2.4322664756739264e-07,1.8276025584854028e-05
2.6860408254758324e-07,2.62746729979374e-07,2.430693661103112e-07,1.8328540150037865e-05
2.6889943946980874e-07,2.625749939418681e-07,2.4286673533350585e-07,1.8379560635116142e-05
2.6930923943028364e-07,2.623791919987663e-07,2.426235008257985e-07,1.842914224539972e-05
2.6983448290887644e-07,2.621589938607153e-07,2.4234352824628804e-07,1.8477613016551982e-05
2.704748131058034e-07,2.6191547694847484e-07,2.4202916449792783e-07,1.8525743848720168e-05
2.712290416558739e-07,2.616502664654977e-07,2.416822145970946e-07,1.8574712144454442e-05
2.7209642103582933e-07,2.613641158026652e-07,2.4130556262645226e-07,1.862595843865688e-05
2.730768521287694e-07,2.610561206347436e-07,2.4090367672463704e-07,1.868102612016428e-05
2.7417085911604237e-07,2.607239113404576e-07,2.4048149776207927e-07,1.874141736947701e-05
2.7537976865563725e-07,2.603637798791545e-07,2.400440478555305e-07,1.88084884924739e-05
2.767048045750629e-07,2.599708516969429e-07,2.395983128488443e-07,1.8883376065505527e-05
2.781454524188859e-07,2.59539894266162e-07,2.3915452517149317e-07,1.8966936833170103e-05
2.796986447112801e-07,2.590659674819225e-07,2.387241436180198e-07,1.905970887690676e-05
2.813592342729965e-07,2.585446540824246e-07,2.383172634626153e-07,1.9161888185937085e-05
2.831202859073316e-07,2.579730012829095e-07,2.379426349341701e-07,1.927330723716196e-05
2.849727936378e-07,2.573504806896429e-07,2.3760810648711902e-07,1.9393446747087022e-05
2.8690778610388524e-07,2.5667832944169806e-07,2.373193189007357e-07,1.9521506309524727e-05
2.889205165529189e-07,2.559584882069727e-07,2.3707889672081717e-07,1.9656496632369885e-05
2.910110583854284e-07,2.551938632937455e-07,2.3688725616847586e-07,1.9797325169999248e-05
2.9317998863941346e-07,2.543893671807955e-07,2.367434955354529e-07,1.994288443559598e-05
2.9542416134030373e-07,2.5355213154924564e-07,2.3664627390871645e-07,2.009212128193092e-05
2.977357148205473e-07,2.5269020648166807e-07,2.3659484689808302e-07,2.0244056296617678e-05
3.0010338901797484e-07,2.5181111221902555e-07,2.365893055552194e-07,2.0397776509171465e-05
3.0251387169246424e-07,2.509221546667437e-07,2.366300499347624e-07,2.05524311475192e-05
3.049520821233483e-07,2.500320973262057e-07,2.3671727204480748e-07,2.070721347483085e-05
3.0740177593443287e-07,2.491513239903504e-07,2.368508639063943e-07,2.086131801703356e-05
3.0984721388689907e-07,2.48289858376312e-07,2.370310422420391e-07,2.1013903829174867e-05
3.122739444824515e-07,2.474556387341167e-07,2.372589582900055e-07,2.116407662587357e-05
3.146677125524412e-07,2.4665403565487344e-07,2.3753607845622802e-07,2.1310874712628336e-05
3.170133377057713e-07,2.458885464170092e-07,2.378631792100296e-07,2.1453282514909425e-05
3.192946112357072e-07,2.451620415707805e-07,2.3824012854244923e-07,2.159029647005012e-05
3.214944013958432e-07,2.444773026631614e-07,2.3866572070275284e-07,2.172098822338689e-05
3.235952033409927e-07,2.4383724866650944e-07,2.39137271832793e-07,2.184451549478005e-05
3.2558106588103754e-07,2.432452462043901e-07,2.396506257003464e-07,2.196011367415416e-05
3.274396714814967e-07,2.4270495346455113e-07,2.4020096276085e-07,2.206710175847452e-05
3.291631705596052e-07,2.422198486923717e-07,2.407842203818327e-07,2.2164886770803367e-05
3.3074857783982914e-07,2.4179334130042124e-07,2.4139744427042106e-07,2.2252935641921758e-05
3.321971718076002e-07,2.4143011915914713e-07,2.420375969307218e-07,2.2330719382187474e-05
3.3351231424275234e-07,2.411372103788952e-07,2.427012667620037e-07,2.239768357602699e-05
3.346976968465373e-07,2.409237634838679e-07,2.433859952536296e-07,2.2453277033359133e-05
3.357565859472784e-07,2.408009744894352e-07,2.440910955343937e-07,2.249701419069312e-05
3.366915832474412e-07,2.407816838322978e-07,2.448168734506071e-07,2.252855857920695e-05
3.375051517285943e-07,2.408783195137173e-07,2.455637609973333e-07,2.2547831349275424e-05
3.3820104919826933e-07,2.4110090251203067e-07,2.463327314643787e-07,2.255507056566959e-05
3.387861351574012e-07,2.4145715751591147e-07,2.471257178827214e-07,2.255074148366449e-05
3.392703033816804e-07,2.4195360942552016e-07,2.4794538743029606e-07,2.2535349558284696e-05
3.396637999836709e-07,2.4259553951736077e-07,2.4879548220985133e-07,2.2509315746424785e-05
3.399747429849043e-07,2.433860148935988e-07,2.49681124607156e-07,2.247297407664266e-05
3.402086308680376e-07,2.443260164839839e-07,2.506079525228363e-07,2.2426618961510682e-05
3.403688509183381e-07,2.4541619682426015e-07,2.5158117220698054e-07,2.2370526079946205e-05
3.4045735356693313e-07,2.4665786198767317e-07,2.5260530961820256e-07,2.2304932801972226e-05
3.4047559669606335e-07,2.480517506086444e-07,2.536839206291237e-07,2.2230040598379746e-05
3.404258379334289e-07,2.4959623456501927e-07,2.548189118227794e-07,2.214612604293203e-05
3.4031188470477574e-07,2.512870551332868e-07,2.560102309881052e-07,2.2053674005106454e-05
3.401379165109807e-07,2.5311931356249836e-07,2.572569290317775e-07,2.1953345190646376e-05
3.399064912488254e-07,2.550892656466785e-07,2.5855857447026e-07,2.1845815287911785e-05
3.3961829766991035e-07,2.5719317545789883e-07,2.5991510776741307e-07,2.173164731044383e-05
3.3927342526421105e-07,2.5942479264581105e-07,2.613256572237144e-07,2.161125660849556e-05
3.388720227580081e-07,2.617743274721702e-07,2.627877992028623e-07,2.148502638584418e-05
3.384139537574146e-07,2.6422919111508844e-07,2.642973015949339e-07,2.135356121428909e-05
3.378987324153948e-07,2.667752966151214e-07,2.6584781684533145e-07,2.1217856428415192e-05
3.3732594820095447e-07,2.6939869182185657e-07,2.6743100785037826e-07,2.107922517512884e-05
3.366953181646355e-07,2.720870246451592e-07,2.690378673468497e-07,2.0939098301310845e-05
3.360063139851677e-07,2.748290047131834e-07,2.706603815248854e-07,2.0798860796639964e-05
3.3525799712421626e-07,2.776127461372489e-07,2.7229207006079923e-07,2.065975288127498e-05
3.34449179571838e-07,2.804260745151383e-07,2.7392756213932084e-07,2.0522801955852573e-05
3.335783505727431e-07,2.8325793108560054e-07,2.755624096766622e-07,2.0388775336460103e-05
3.3264334595680323e-07,2.8609828038394453e-07,2.7719330245062854e-07,2.0258170129878465e-05
3.3164172899587013e-07,2.889375691997128e-07,2.788179215814157e-07,2.0131250671160103e-05
3.305723874660629e-07,2.917663102862603e-07,2.804342243720594e-07,2.0008103009085347e-05
3.2943665276201985e-07,2.945736243915596e-07,2.820394430743868e-07,1.9888653983320084e-05
3.282374974234775e-07,2.973461024068134e-07,2.8362935975028327e-07,1.977265441365708e-05
3.2697881405899306e-07,3.0006831674082125e-07,2.851986490818035e-07,1.965967416315854e-05
3.2566635909970584e-07,3.027241069351027e-07,2.86741829677396e-07,1.9549132738211965e-05
3.243089225367394e-07,3.0529755064989817e-07,2.882535935945149e-07,1.9440361156677386e-05
3.229179707385967e-07,3.0777291607574984e-07,2.89728660872472e-07,1.933268327697217e-05
3.215056856720305e-07,3.101339805682784e-07,2.911617892535482e-07,1.922548539130664e-05
3.200836969220132e-07,3.1236394964534017e-07,2.9254763864158957e-07,1.9118245209635504e-05
3.1866418447050404e-07,3.1444659407978425e-07,2.938807380531969e-07,1.9010533021891503e-05
3.172611922102898e-07,3.163681748836091e-07,2.951569941050992e-07,1.8902018928542147e-05
3.158894154228537e-07,3.181188721683993e-07,2.963763814197248e-07,1.879249496085757e-05
3.145617549637882e-07,3.1969268908235996e-07,2.9754353543884604e-07,1.8681890699562645e-05
3.132883436061589e-07,3.210859941073113e-07,2.9866479829803944e-07,1.857025774612846e-05
3.1207675705993225e-07,3.222956865069567e-07,2.997452580848243e-07,1.8457722037048684e-05
3.109320988884245e-07,3.2331816742057254e-07,3.007889379672729e-07,1.8344420942394107e-05
3.098567061007323e-07,3.241496969568979e-07,3.017995949961228e-07,1.8230446498232118e-05
3.088499392940331e-07,3.2478726182834767e-07,3.0277944622265364e-07,1.811581694211998e-05
3.079092699740916e-07,3.25228415281337e-07,3.037279683802145e-07,1.8000464683160312e-05
3.070325876950509e-07,3.254705535602153e-07,3.0464220386802677e-07,1.7884215211290094e-05
3.0621951873816327e-07,3.255113370461078e-07,3.05517135487369e-07,1.776677775345875e-05
3.054706959138207e-07,3.253494955161399e-07,3.063456230984017e-07,1.7647773972781853e-05
3.047860250035173e-07,3.249843837212111e-07,3.071185273145332e-07,1.7526790585413288e-05
3.0416326201673056e-07,3.244151691730318e-07,3.078252888909852e-07,1.740341385228869e-05
3.035978526936368e-07,3.236412117777269e-07,3.084544765395422e-07,1.7277218167709617e-05
3.030839526933644e-07,3.22663612473099e-07,3.089939422587914e-07,1.7147738412792334e-05
3.026157353960384e-07,3.2148691473041285e-07,3.0943153755270816e-07,1.7014468381048095e-05
3.0218803301479385e-07,3.201197902243185e-07,3.097574714660478e-07,1.6876888216768875e-05
3.0179559598685397e-07,3.18573970811546e-07,3.099670739021852e-07,1.6734513948990035e-05
3.014316639404119e-07,3.168621651929569e-07,3.10061255075958e-07,1.658696820409267e-05
3.010873441717525e-07,3.149967633780025e-07,3.100443604218598e-07,1.6434034262800746e-05
3.00752187869652e-07,3.129898530368796e-07,3.099214915096691e-07,1.6275633612623912e-05
3.004153087361651e-07,3.108538365187711e-07,3.096969180231861e-07,1.6111758230883992e-05
3.000660057251144e-07,3.086019422229126e-07,3.093743623520852e-07,1.594247079554213e-05
2.9969352757751245e-07,3.0624793956564306e-07,3.089586325577096e-07,1.5767987276006248e-05
2.992876453525444e-07,3.038054382720542e-07,3.084568637952643e-07,1.5588733296855225e-05
2.9884165184009236e-07,3.0128770468270284e-07,3.078785341646575e-07,1.5405316562231373e-05
2.9835511988186586e-07,2.9870749756895773e-07,3.072346840032333e-07,1.5218446664898425e-05
2.978324736718192e-07,2.9607639914660203e-07,3.065365998721969e-07,1.5028863623078186e-05
2.972796742219066e-07,2.934049890088994e-07,3.0579433416239965e-07,1.483737091248671e-05
2.967033328866531e-07,2.907045804280211e-07,3.050156792817565e-07,1.4644969056582792e-05
2.961107781162377e-07,2.8798816189739734e-07,3.042055382530943e-07,1.4452914517027835e-05
2.955087071785621e-07,2.852689258280068e-07,3.0336579624508236e-07,1.426261976554968e-05
2.949021461204368e-07,2.825584912417699e-07,3.0249608384863627e-07,1.4075501409957574e-05
2.942951924047769e-07,2.7986678927081854e-07,3.0159499174409525e-07,1.3892876002309693e-05
2.9369187412092444e-07,2.772031478701513e-07,3.006608538971458e-07,1.3715954553702412e-05
2.9309582352399394e-07,2.7457724694340786e-07,2.996916793850598e-07,1.3545966203894233e-05
2.925097973540771e-07,2.719990436228221e-07,2.9868486836234624e-07,1.338430137681171e-05
2.919360759785369e-07,2.694782719994234e-07,2.976377135932197e-07,1.3232499244671374e-05
2.9137777820100515e-07,2.670249524054491e-07,2.965482809585656e-07,1.3092092402739312e-05
2.908400331474935e-07,2.646502631237474e-07,2.954154969744317e-07,1.2964447707696694e-05
2.903292682483845e-07,2.623657349102795e-07,2.942382768356707e-07,1.2850669369202835e-05
2.898510162421596e-07,2.6018169754204196e-07,2.930144783146992e-07,1.275155656644848e-05
2.894084345998966e-07,2.581073141145613e-07,2.917406769094218e-07,1.266759271282265e-05
2.8900200132261e-07,2.561518246801081e-07,2.904128408046178e-07,1.2598958393108244e-05
2.886295161197491e-07,2.543251651552728e-07,2.890268843156889e-07,1.2545568763466413e-05
2.8828652202200923e-07,2.5263682188835357e-07,2.8757861986932056e-07,1.2507125976472762e-05
2.8796769123703735e-07,2.510938018753928e-07,2.860636818767225e-07,1.248315816041224e-05
2.876683764760825e-07,2.496998648014421e-07,2.844777098045809e-07,1.2473020850827953e-05
2.8738494180175427e-07,2.4845633269617873e-07,2.828167001349148e-07,1.2475892217717573e-05
2.8711397181642646e-07,2.473634526273073e-07,2.810776285212633e-07,1.2490802019583193e-05
2.8685180009877857e-07,2.464215629398877e-07,2.792591589119257e-07,1.2516686781531042e-05
2.865948833676176e-07,2.456315880843642e-07,2.773624029542197e-07,1.2552468268337312e-05
2.863398976684353e-07,2.449949045554479e-07,2.7539153490409765e-07,1.259715291004612e-05
2.860834246003965e-07,2.445127484239921e-07,2.733530053111231e-07,1.2649904010356196e-05
2.858223264022124e-07,2.4418569956918267e-07,2.712533759462104e-07,1.2710052106082165e-05
2.855542361107881e-07,2.440141299232311e-07,2.69098054940288e-07,1.2777068412917944e-05
2.852769368192648e-07,2.4399903762007377e-07,2.668919032380109e-07,1.2850526522886375e-05
2.8498761535157446e-07,2.441414094949169e-07,2.6463996425148604e-07,1.2930046804856733e-05
2.8468343725609777e-07,2.4444074761974e-07,2.623470814271595e-07,1.3015222511023118e-05
2.843623908182448e-07,2.44895142888239e-07,2.600172137753212e-07,1.310555125596143e-05
2.8402262653892076e-07,2.4550209242023807e-07,2.576531368360537e-07,1.3200405304671083e-05
2.836614152973175e-07,2.462585059771022e-07,2.5525675673672497e-07,1.329905580593958e-05
2.832759277806108e-07,2.471604535949318e-07,2.528301586032984e-07,1.3400730509661673e-05
2.828642904619968e-07,2.4820257361038843e-07,2.503767320577509e-07,1.350466062914478e-05
2.824246372908368e-07,2.493773369202897e-07,2.479022609129148e-07,1.3610096288727072e-05
2.819536924805938e-07,2.506752942317913e-07,2.454159095813841e-07,1.3716305253669982e-05
2.8144634792641466e-07,2.520856689948379e-07,2.4292985935085157e-07,1.3822571079108994e-05
2.808957752296529e-07,2.5359617409808285e-07,2.404579493845221e-07,1.3928207205031295e-05
2.8029438140145485e-07,2.5519263417765825e-07,2.3801541107783707e-07,1.4032573632716428e-05
2.7963586206894086e-07,2.568593302977887e-07,2.3561979924953818e-07,1.4135049461652757e-05
2.789170205014935e-07,2.585804577541721e-07,2.332915530628329e-07,1.4234972904728016e-05
2.781383525344515e-07,2.603420765456421e-07,2.3105331434265069e-07,1.4331609341255915e-05
2.773036259096241e-07,2.621326602152387e-07,2.289277862990961e-07,1.4424171317628055e-05
2.764183587205298e-07,2.639421396653825e-07,2.2693480942654838e-07,1.4511882782233453e-05
2.754879249889421e-07,2.6576176051556746e-07,2.250895541005569e-07,1.4594076742557168e-05
2.7451743185815237e-07,2.6758545097176897e-07,2.2340335701798754e-07,1.4670287664753534e-05
2.73513839250224e-07,2.6941043757972933e-07,2.2188631858006129e-07,1.4740263847302542e-05
2.7248752322586736e-07,2.7123535157304093e-07,2.205489309602729e-07,1.4803881281493589e-05
2.714506201571569e-07,2.7305772332908965e-07,2.1940161579018002e-07,1.4861051992210852e-05
2.704139158488236e-07,2.748734312654508e-07,2.1845357141146283e-07,1.4911714208781851e-05
2.693858490374283e-07,2.7667722609275864e-07,2.177122009963665e-07,1.4955876499392338e-05
2.6837436989202377e-07,2.7846293432648305e-07,2.1718289133934736e-07,1.499363462185329e-05
2.6738932524062057e-07,2.8022448810799737e-07,2.1686825215057302e-07,1.5025130337828146e-05
2.664422818670716e-07,2.819581446840418e-07,2.1676693589708876e-07,1.5050503441072486e-05
2.65543966320918e-07,2.836636332411445e-07,2.168734992219833e-07,1.5069943507363064e-05
2.647023696165416e-07,2.8534269106874123e-07,2.171799596710643e-07,1.5083837412677207e-05
2.6392270261188157e-07,2.8699648411714097e-07,2.1767741565296983e-07,1.5092823272103864e-05
2.632081385565673e-07,2.886241926921088e-07,2.1835611784361443e-07,1.509765335595182e-05
2.625605106300631e-07,2.9022302399314753e-07,2.1920492676369013e-07,1.5098997938493594e-05
2.619809724151289e-07,2.9178894974294747e-07,2.2021157677894358e-07,1.5097335830658444e-05
2.614707964683959e-07,2.933173925741191e-07,2.2136328511264905e-07,1.5092997927868267e-05
2.610322717180612e-07,2.9480331657112645e-07,2.2264682801829978e-07,1.5086363042030506e-05
2.606689963231184e-07,2.962413297025399e-07,2.2404838173184854e-07,1.5078057112806665e-05
2.6038514341958706e-07,2.976259631841541e-07,2.255539357125565e-07,1.5068977955884489e-05
2.6018506436855567e-07,2.989515952726657e-07,2.2715024482200022e-07,1.5060171452854474e-05
2.600735013371048e-07,3.002120230525657e-07,2.288253470591876e-07,1.5052693397452585e-05
2.6005500863909786e-07,3.0140004740168e-07,2.3056857664149193e-07,1.5047514184212313e-05
2.601333626724379e-07,3.0250794055708226e-07,2.3237085251601734e-07,1.5045464910480884e-05
2.6031182658014476e-07,3.0352872896521666e-07,2.3422447169078537e-07,1.5047210611196106e-05
2.6059278596236037e-07,3.0445653997520905e-07,2.3612155189774533e-07,1.505324005116447e-05
2.6097657943239606e-07,3.0528579801159e-07,2.3805248733319358e-07,1.5063868534976559e-05
2.614609492741532e-07,3.0601055274416473e-07,2.400059079569817e-07,1.507924626083576e-05
2.62041837105191e-07,3.0662425980053573e-07,2.4196997768578076e-07,1.50993600993334e-05
2.627156187164137e-07,3.071201107226134e-07,2.4393409373410674e-07,1.5124021291681742e-05
2.634806750760104e-07,3.0749163490812626e-07,2.458901332428448e-07,1.5152862781776443e-05
2.6433603750049045e-07,3.0773293321047685e-07,2.4783241724202516e-07,1.5185377169965512e-05
2.652795278703032e-07,3.078389723082558e-07,2.4975638345299845e-07,1.522098256897948e-05
2.663083642139375e-07,3.0780674219288374e-07,2.516574570790557e-07,1.5259089401863795e-05
2.674205962326118e-07,3.076364308007581e-07,2.53530813691806e-07,1.529915612912606e-05
2.6861556890916535e-07,3.073308857608595e-07,2.553715220959752e-07,1.5340710512889625e-05
2.698941856926115e-07,3.0689396388566945e-07,2.5717533314848015e-07,1.53833304061433e-05
2.7125888840691987e-07,3.063299957595309e-07,2.5893950829152717e-07,1.5426635053605163e-05
2.7271283063947155e-07,3.0564459605701297e-07,2.606623699390161e-07,1.5470320407056392e-05
2.742586048180644e-07,3.0484531418465575e-07,2.6234276316906404e-07,1.551419969455784e-05
2.7589681701129425e-07,3.0394218722356185e-07,2.639809199158018e-07,1.5558208740299726e-05
2.776253371662128e-07,3.029486877216705e-07,2.6557938868892057e-07,1.5602371330600428e-05
2.794396414640289e-07,3.018816257515157e-07,2.671426848068151e-07,1.5646724033139662e-05
2.81333417027655e-07,3.007595071102653e-07,2.686766320511031e-07,1.5691226829312548e-05
2.8329884077817264e-07,2.9960065420495074e-07,2.7018825350123786e-07,1.5735728726886856e-05
2.853265480011831e-07,2.984218136285848e-07,2.7168513823242913e-07,1.578000206248331e-05
2.874055705030797e-07,2.972370795070046e-07,2.731735572680768e-07,1.5823774065512084e-05
2.8952353019627554e-07,2.960570025671164e-07,2.7465713832023673e-07,1.5866723573414347e-05
2.9166711982502284e-07,2.948883364400668e-07,2.761375408687718e-07,1.590848280901941e-05
2.938223757390109e-07,2.937348101394404e-07,2.776152786424112e-07,1.5948670211586577e-05
2.959743630555202e-07,2.925984577425732e-07,2.7908893247607496e-07,1.598691660656058e-05
2.981070744068329e-07,2.914806058841465e-07,2.8055404899536184e-07,1.6022836090164194e-05
3.002040429709921e-07,2.903822256308736e-07,2.820037848154913e-07,1.6055988168528925e-05
3.022488044157839e-07,2.893040329194927e-07,2.834318495366199e-07,1.6085908524561934e-05
3.042249048547078e-07,2.882465597104809e-07,2.848354008788901e-07,1.611217517323721e-05
3.0611653745709945e-07,2.872101535991768e-07,2.862146863437516e-07,1.6134453367240165e-05
3.07909723366856e-07,2.861954428895441e-07,2.875706352603168e-07,1.6152550364232738e-05
3.095921990275993e-07,2.8520490020863234e-07,2.889031540433684e-07,1.6166480681553047e-05
3.111523397056093e-07,2.842446733268067e-07,2.9021060349022717e-07,1.6176454042200527e-05
3.125793228498569e-07,2.833250710370096e-07,2.914909280368971e-07,1.6182760872821476e-05
3.1386410519594587e-07,2.824591876906945e-07,2.9274299276203013e-07,1.6185642798578056e-05
3.150000860412919e-07,2.8166049902357304e-07,2.9396610672771093e-07,1.6185231756267025e-05
3.1598442125236605e-07,2.809408343134027e-07,2.951588654898332e-07,1.6181552058949952e-05
3.168193040799442e-07,2.803099611111549e-07,2.963184539735577e-07,1.6174529812306397e-05
3.17511187750583e-07,2.7977612371647394e-07,2.974413869748106e-07,1.6163994586867276e-05
3.180686419657339e-07,2.793460149330474e-07,2.985267261629288e-07,1.6149703977375052e-05
3.185005408366266e-07,2.790250751274113e-07,2.9957924505215764e-07,1.6131443670996398e-05
3.188149991794522e-07,2.7881850755236357e-07,3.006089666673058e-07,1.610919109230816e-05
3.1901881164460487e-07,2.7873140589153984e-07,3.016277827571562e-07,1.608318320494618e-05
3.1911697704054536e-07,2.7876817219803745e-07,3.0264606565651495e-07,1.6053790074189286e-05
3.1911218068770946e-07,2.7893199905994894e-07,3.03670632970408e-07,1.6021325420434643e-05
3.1900447658773326e-07,2.792242940175477e-07,3.047044688453018e-07,1.5985960192117826e-05
3.1879183667549464e-07,2.796443641649851e-07,3.0574742756893893e-07,1.594780450466212e-05
3.184721587130231e-07,2.801892621228379e-07,3.0679673162259565e-07,1.59071514702955e-05
3.180451755958809e-07,2.808533258707792e-07,3.078476255498807e-07,1.5864727880516368e-05
3.1751191520837805e-07,2.8162785766604945e-07,3.0889407810347e-07,1.5821729439041626e-05
3.1687258954227904e-07,2.825015899777656e-07,3.099288428953833e-07,1.5779643979787626e-05
3.161254754691173e-07,2.834614123870773e-07,3.109435183317764e-07,1.5740042179522894e-05
3.152677056496467e-07,2.844927792156929e-07,3.1192908780869326e-07,1.570442852609075e-05
3.1429743729072645e-07,2.8558071778447623e-07,3.1287707930286857e-07,1.5674151976237126e-05
3.1321581125309037e-07,2.8671117406012894e-07,3.137811134544181e-07,1.565035133333784e-05
3.1202736555293807e-07,2.8787070897553586e-07,3.1463753030166226e-07,1.5633903560867675e-05
3.107394012309052e-07,2.8904501694362026e-07,3.154447672945724e-07,1.5625383827381124e-05
3.0936125205648005e-07,2.902183312950779e-07,3.162019822064544e-07,1.5625067654546492e-05
3.0790362046658466e-07,2.913742537122469e-07,3.169073180106491e-07,1.563296057082234e-05
3.063785372407762e-07,2.924977362818789e-07,3.175568963713069e-07,1.564882125843029e-05
3.048001399558125e-07,2.9357680971137186e-07,3.1814493289343517e-07,1.5672185485596082e-05
3.0318451230717523e-07,2.946024595727438e-07,3.186642831224757e-07,1.570241111555466e-05
3.015478744330875e-07,2.955676728560084e-07,3.191071770889764e-07,1.573873750296396e-05
2.999050522224597e-07,2.964670193591169e-07,3.194660966673518e-07,1.5780350275487273e-05
2.982690906987592e-07,2.9729649834090016e-07,3.197341190192586e-07,1.5826452630558215e-05
2.966508122540037e-07,2.980531590660175e-07,3.199047882638833e-07,1.587632860722831e-05
2.950581605412875e-07,2.98734246357964e-07,3.199727649657388e-07,1.59293691402201e-05
2.9349620210152803e-07,2.9933660116903684e-07,3.1993474211083715e-07,1.5985056439265537e-05
2.919672555093759e-07,2.998568447043633e-07,3.197890020406937e-07,1.6042929237424332e-05
2.9047060864366067e-07,3.002914040012928e-07,3.195345836278465e-07,1.6102545875914945e-05
2.890026492992336e-07,3.006364120977941e-07,3.191720153370613e-07,1.6163456112504456e-05
2.875579680955505e-07,3.0088834413813627e-07,3.187050825903617e-07,1.622517966941876e-05
2.861312460486334e-07,3.010448377241018e-07,3.181420070434349e-07,1.6287173530983265e-05
2.8471875590968856e-07,3.0110515250475e-07,3.174952470688794e-07,1.6348809518573885e-05
2.8331817058657397e-07,3.010703518207723e-07,3.1677921347196137e-07,1.640941316069205e-05
2.819272704080343e-07,3.009429075183449e-07,3.160067921989035e-07,1.6468345086662684e-05
2.805430229976181e-07,3.0072610396961176e-07,3.151878330944087e-07,1.652505612401842e-05
2.7916164433185306e-07,3.0042363254171905e-07,3.143313577489328e-07,1.6579097085867718e-05
2.777791415726295e-07,3.0003877356298296e-07,3.134491500881432e-07,1.6630108941192478e-05
2.763913411353541e-07,2.995736826664203e-07,3.12556245365306e-07,1.667781914877545e-05
2.7499349363815666e-07,2.990306419193316e-07,3.116677792654475e-07,1.672203443411505e-05
2.73580430846588e-07,2.984153032282598e-07,3.107963636494099e-07,1.67625836037352e-05
2.721470334065442e-07,2.977386281277525e-07,3.099516918808514e-07,1.6799224889578523e-05
2.706880588750484e-07,2.9701495790282284e-07,3.0914070043577105e-07,1.6831610692939752e-05
2.6919784444714236e-07,2.962583688501156e-07,3.083680376616455e-07,1.6859350529667788e-05
2.676711409216413e-07,2.954804019120148e-07,3.076367521229493e-07,1.6882122035766965e-05
2.661047881146885e-07,2.946892824383083e-07,3.069478987169364e-07,1.6899776066577818e-05
2.644982493999991e-07,2.938900460471828e-07,3.062996188475924e-07,1.6912399112504066e-05
2.628526789365787e-07,2.930855191201781e-07,3.0568727216241193e-07,1.69202875494344e-05
2.6117086742946897e-07,2.922777963493444e-07,3.051047188424748e-07,1.6923829402686532e-05
2.5945780320391857e-07,2.914700026919846e-07,3.045461177785993e-07,1.692336608796793e-05
2.577194029760853e-07,2.9066792010150924e-07,3.040070199527677e-07,1.6919122637599564e-05
2.559604319407584e-07,2.898805786315519e-07,3.034840968698488e-07,1.6911215474033647e-05
2.541839249106057e-07,2.891198329450452e-07,3.0297545680003e-07,1.689966669464863e-05
2.5239241459363734e-07,2.8839928500894013e-07,3.024829136945935e-07,1.6884387473465632e-05
2.505898317411285e-07,2.877323859067873e-07,3.0201344312685826e-07,1.6865179464795914e-05
2.487819319836523e-07,2.871305327046351e-07,3.015769058897429e-07,1.6841845712391414e-05
2.469746960579846e-07,2.8660229051710904e-07,3.011818444116411e-07,1.6814411865556948e-05
2.451731373346352e-07,2.8615341205245923e-07,3.008329817033193e-07,1.6783264061235817e-05
2.433820677044128e-07,2.8578705710803306e-07,3.005311953869842e-07,1.6749042140526967e-05
2.416069115002573e-07,2.855043819276425e-07,3.0027500496433396e-07,1.671240323113877e-05
2.398533583272781e-07,2.853050072202559e-07,3.000625612688159e-07,1.6673866971613947e-05
2.3812786311952496e-07,2.851868167393244e-07,2.9989265546087345e-07,1.6633834835947783e-05
2.3643920403734932e-07,2.851461042877249e-07,2.9976409403132053e-07,1.659278029672579e-05
2.34798913531465e-07,2.8517821806569144e-07,2.9967433744429307e-07,1.6551482983134167e-05
2.3322046167628852e-07,2.852781277683785e-07,2.996187978986669e-07,1.6511094508700492e-05
2.3171788661392397e-07,2.854422696751234e-07,2.995915241127072e-07,1.6472998109123242e-05
2.3030414320327802e-07,2.856713647751711e-07,2.995860899042547e-07,1.6438620349868707e-05
2.2899078365492497e-07,2.859709330986178e-07,2.995953330824653e-07,1.6409292686398126e-05
2.277894269014728e-07,2.8634876190865933e-07,2.9961071520737036e-07,1.638614128210471e-05
2.2671230635363665e-07,2.868118145756247e-07,2.996225646334401e-07,1.6369985767248606e-05
2.2577034649426998e-07,2.8736415053129567e-07,2.996214474190744e-07,1.6361277286285595e-05
2.2497080045519095e-07,2.880060183581849e-07,2.9959971230164016e-07,1.6360101062554653e-05
2.24316492666988e-07,2.887345752405848e-07,2.995520532349952e-07,1.636622026982152e-05
2.2380661370155622e-07,2.895462318807216e-07,2.9947531993870557e-07,1.6379128924519762e-05
2.2343851002376615e-07,2.904389928798108e-07,2.9936763002930214e-07,1.639810896959501e-05
2.2320959327038412e-07,2.914126022713152e-07,2.992273833019753e-07,1.642230114734197e-05
2.231180691855884e-07,2.924667772272027e-07,2.990546500351783e-07,1.6450786381764732e-05
2.2316237745351834e-07,2.9360011058709326e-07,2.988535114564441e-07,1.6482655538399706e-05
2.233401561431811e-07,2.948098468937233e-07,2.9863077599775497e-07,1.651706025547446e-05
2.2364756782049142e-07,2.9609122794185077e-07,2.9839198383592803e-07,1.6553257811234382e-05
2.2407923843942608e-07,2.974373531525682e-07,2.981390715428405e-07,1.659063837361569e-05
2.2462813455513076e-07,2.988403893953569e-07,2.978707325898824e-07,1.662870337602488e-05
2.252855529551397e-07,3.002928053628908e-07,2.975840198327861e-07,1.6667010838812837e-05
2.260422948393317e-07,3.017871967966323e-07,2.972760010263342e-07,1.6705137370158566e-05
2.268906204855597e-07,3.0331557851115277e-07,2.969444447605629e-07,1.6742650915360647e-05
2.278249586190345e-07,3.0487006079785216e-07,2.9658722042703967e-07,1.677906194288658e-05
2.2884111550731765e-07,3.0644375017994197e-07,2.9620198390554287e-07,1.6813785672024902e-05
2.299359257516735e-07,3.0803004392534716e-07,2.9578679118239175e-07,1.6846164182192812e-05
2.3110706451578412e-07,3.096217460039791e-07,2.953405493667448e-07,1.68755473172637e-05
2.3235166804705858e-07,3.1121103503428285e-07,2.948635722839192e-07,1.6901404632987787e-05
2.336647336398798e-07,3.127894437020592e-07,2.9435790356522986e-07,1.6923405106321573e-05
2.3503877039754854e-07,3.143480425339829e-07,2.938261350211948e-07,1.6941396404631965e-05
2.3646504017216305e-07,3.158785422667286e-07,2.93270003936476e-07,1.6955310688788345e-05
2.3793545294661627e-07,3.173743626402512e-07,2.9269027813751094e-07,1.6965088422402847e-05
2.3944513143494005e-07,3.188303709314973e-07,2.9208725991437395e-07,1.6970667374665153e-05
2.4099598470229306e-07,3.2024269105889805e-07,2.9146092700265107e-07,1.6972005058944033e-05
2.425976888084547e-07,3.216106005639617e-07,2.908107484963828e-07,1.6969065534281336e-05
2.442642179994205e-07,3.229382254897511e-07,2.901357209376658e-07,1.696178366258771e-05
2.4601001731964644e-07,3.2423283062433145e-07,2.894345905975164e-07,1.6950122889106882e-05
2.4784783582241697e-07,3.255017223739316e-07,2.887063606417758e-07,1.693425202113205e-05
2.497874932089592e-07,3.267505661999586e-07,2.8795138179881503e-07,1.6914687034782277e-05
2.5183672811505963e-07,3.2798267289752157e-07,2.8717237881191824e-07,1.6892268068024704e-05
2.54003231022907e-07,3.2919893407444097e-07,2.863743893301349e-07,1.6868018849172753e-05
2.5629436315213307e-07,3.3039839755934874e-07,2.8556321569687564e-07,1.684299717575174e-05
2.5871482069945676e-07,3.3157847868830585e-07,2.8474339636005786e-07,1.6818178897915342e-05
2.612655569011651e-07,3.327346782708353e-07,2.8391707019809107e-07,1.6794373571678622e-05
2.639441342299309e-07,3.33860671201142e-07,2.830837162285887e-07,1.6772185405265106e-05
2.667445306632997e-07,3.3494852714173346e-07,2.822403408285694e-07,1.6752038057555105e-05
2.696568825632387e-07,3.359889435616004e-07,2.8138218756780217e-07,1.6734235761724968e-05
2.72668261566295e-07,3.3697251420906874e-07,2.805041665642117e-07,1.6719005766471936e-05
2.757636452685811e-07,3.3789133397579305e-07,2.7960299198291174e-07,1.670649502468342e-05
2.789270401024114e-07,3.3873895673723037e-07,2.7867895437885854e-07,1.6696772973326308e-05
2.8214335799174097e-07,3.395092432478583e-07,2.7773579179822265e-07,1.6689931847288367e-05
2.853992027219439e-07,3.4019650394048705e-07,2.767788453679984e-07,1.6686207367116496e-05
2.8868172064050245e-07,3.407971644338505e-07,2.7581306241272895e-07,1.6685949390376496e-05
2.91977589914929e-07,3.4131132151076357e-07,2.748420700391391e-07,1.668954454407653e-05
2.952726604257756e-07,3.417430779705668e-07,2.7386867043751925e-07,1.6697485354989136e-05
2.985516176991115e-07,3.420985846025682e-07,2.7289571873256644e-07,1.6710467839167984e-05
3.0179855057132303e-07,3.423824898438186e-07,2.7192601538339466e-07,1.672934114505458e-05
3.049983893434539e-07,3.425957719873589e-07,2.709616579935615e-07,1.6754972361335807e-05
3.081371065308629e-07,3.4273582014375487e-07,2.700043634369929e-07,1.6788130747855813e-05
3.1120035039037597e-07,3.427973498774597e-07,2.6905715437304395e-07,1.682940638570516e-05
3.141725432678928e-07,3.427732356904437e-07,2.681263261849978e-07,1.6879157720841747e-05
3.170371046471025e-07,3.42654999799033e-07,2.672216484718291e-07,1.693748300294272e-05
3.1977739000774805e-07,3.424334513138428e-07,2.663538545432128e-07,1.7004206660338302e-05
3.223779912940682e-07,3.420999088876153e-07,2.655317263811422e-07,1.7078876479568697e-05
3.248253827358291e-07,3.416472899221375e-07,2.6476098782443705e-07,1.7160779384521038e-05
3.2710753127743157e-07,3.4107115355321286e-07,2.6404425627017234e-07,1.7248975310096362e-05
3.2921316437793124e-07,3.403715036818433e-07,2.633816902011795e-07,1.7342333048776062e-05
3.3113132861157216e-07,3.3955344273788554e-07,2.62773093429811e-07,1.7439563152623218e-05
3.328511895613957e-07,3.38624738328465e-07,2.62219956107072e-07,1.7539258847697636e-05
3.3436186030783227e-07,3.3759321938841074e-07,2.6172485253688984e-07,1.7639957933638698e-05
3.3565266528982984e-07,3.364668406055253e-07,2.6128904966850357e-07,1.7740231150865446e-05
3.367137157616836e-07,3.352540421302916e-07,2.609114788382885e-07,1.7838775715546933e-05
3.3753668080015075e-07,3.3396216651701533e-07,2.6058943949736336e-07,1.7934471595576997e-05
3.381163880813599e-07,3.325959629470992e-07,2.6031902274018397e-07,1.8026386789658445e-05
3.384519524664023e-07,3.311580459928905e-07,2.600957384328256e-07,1.811375412749316e-05
3.385454253059266e-07,3.296499490937824e-07,2.599177020633349e-07,1.819594132224086e-05
3.3839915757616613e-07,3.280724190718957e-07,2.5978958365385204e-07,1.827242609398178e-05
3.3801450656175705e-07,3.264252887942334e-07,2.5972245453971246e-07,1.83427826720702e-05
3.3739236389833077e-07,3.247075404266144e-07,2.5972947909941867e-07,1.840667049847106e-05
3.3653405281823625e-07,3.2291836339749215e-07,2.5982221244966886e-07,1.8463801940142167e-05
3.3544141769018505e-07,3.2105862801196624e-07,2.60010645928514e-07,1.8513887290810172e-05
3.341164328297945e-07,3.191307788422673e-07,2.6030575280628836e-07,1.8556583769278384e-05
3.325612646920283e-07,3.171374735386661e-07,2.6072020484739407e-07,1.8591486899081765e-05
3.307788472298252e-07,3.150806708623941e-07,2.6126533779543576e-07,1.8618210504677898e-05
3.28773656586149e-07,3.12961364374323e-07,2.619484676156293e-07,1.863652659722837e-05
3.265527321866457e-07,3.107799444553495e-07,2.627740423356209e-07,1.864643519048997e-05
3.2412645175106313e-07,3.085373452061979e-07,2.63745927659906e-07,1.864809926914653e-05
3.215079208120769e-07,3.062365861954701e-07,2.648677008692341e-07,1.8641720564675845e-05
3.187113623160245e-07,3.0388412046900374e-07,2.661417783452403e-07,1.8627466228849167e-05
3.1575151677668374e-07,3.014894194886124e-07,2.675694122488589e-07,1.8605496842317748e-05
3.1264432282846284e-07,2.990624564631107e-07,2.691522047417216e-07,1.8576046841370223e-05
3.094075542751439e-07,2.966122951653432e-07,2.7089381070362504e-07,1.853946153662807e-05
3.060605590988709e-07,2.9414848088095997e-07,2.728002982448154e-07,1.849615672915265e-05
3.026228247231361e-07,2.9168253548578463e-07,2.74878266740562e-07,1.8446534622375493e-05
2.991127587326237e-07,2.8922733823607733e-07,2.771310424423222e-07,1.8390903435254692e-05
2.955479967242647e-07,2.8679568272805124e-07,2.795557796901776e-07,1.8329464576312384e-05
2.9194585222135767e-07,2.843993943632024e-07,2.8214347126181323e-07,1.8262409340025603e-05
2.88323018834235e-07,2.820482250535341e-07,2.848805779543548e-07,1.819005010961204e-05
2.846955397201004e-07,2.7974860003176533e-07,2.877501507361463e-07,1.811285729024399e-05
2.810787635979404e-07,2.7750363098679124e-07,2.907326485428459e-07,1.8031379725651795e-05
2.774869262995751e-07,2.753146993377653e-07,2.938083157984732e-07,1.7946127409238745e-05
2.739333971556061e-07,2.7318395674439825e-07,2.969600983331961e-07,1.785749651830849e-05
2.7043093235481703e-07,2.711161176516681e-07,3.001745176925185e-07,1.7765753670831666e-05
2.6699113078135217e-07,2.691180164802404e-07,3.0344066176188267e-07,1.767103746924084e-05
2.6362450968547626e-07,2.6719769430868936e-07,3.067488906519855e-07,1.7573368440154277e-05
2.6034142541523217e-07,2.6536498806252504e-07,3.100900391403083e-07,1.7472715919662344e-05
2.571522458496116e-07,2.636315258229949e-07,3.1345445990925214e-07,1.7369144400897302e-05
2.540664536313656e-07,2.620085971754009e-07,3.16830576178827e-07,1.7262953694740098e-05
2.510920043433257e-07,2.605048847381465e-07,3.202040024190436e-07,1.7154681522719212e-05
2.4823549524990894e-07,2.591259331970311e-07,3.235576432286059e-07,1.7044977136500258e-05
2.455026049416473e-07,2.578756566423602e-07,3.268724207415961e-07,1.693446401872543e-05
2.428983611573989e-07,2.567583977850192e-07,3.301283438199127e-07,1.682366803529061e-05
2.4042677575706136e-07,2.55779210990352e-07,3.333053455067039e-07,1.6713071607109837e-05
2.380905241523986e-07,2.549422010894271e-07,3.3638387765955484e-07,1.660330133809206e-05
2.3589154141203408e-07,2.5424887101872575e-07,3.393461413211626e-07,1.6495288194525485e-05
2.338311566304981e-07,2.536987050206355e-07,3.4217711761998977e-07,1.6390243887262823e-05
2.3190915334034262e-07,2.5329221742938573e-07,3.448635280087215e-07,1.628951184610102e-05
2.3012361501231732e-07,2.530333902825286e-07,3.473920604706329e-07,1.6194413979043233e-05
2.284723069362005e-07,2.529290926406603e-07,3.497494713641609e-07,1.6106117805169396e-05
2.269546646469779e-07,2.529869165323458e-07,3.519241487477107e-07,1.6025525532678562e-05
2.2557285279148754e-07,2.532133218931984e-07,3.539071127550343e-07,1.595321337296018e-05
2.243302127011577e-07,2.5361195401216694e-07,3.5569142540585214e-07,1.5889436686614247e-05
2.232283850624062e-07,2.5418209602396806e-07,3.572706687077318e-07,1.583417423245254e-05
2.222663284051796e-07,2.5491829140215764e-07,3.586381804385415e-07,1.5787175708724012e-05
2.214414396506451e-07,2.5581156091102285e-07,3.597871825143345e-07,1.5748012210397738e-05
2.20750916215692e-07,2.5685164151729943e-07,3.6071057562152575e-07,1.5716131747069847e-05
2.2019254289600572e-07,2.580296200908404e-07,3.6140071778640974e-07,1.569090044359135e-05
2.19765099023305e-07,2.593393744426714e-07,3.618504094818338e-07,1.567162693836499e-05
2.1946833111521268e-07,2.6077635609600266e-07,3.6205490805754827e-07,1.5657589392477565e-05
2.1930178047051286e-07,2.623357246875961e-07,3.620129271874704e-07,1.5648078426547527e-05
2.1926292034015445e-07,2.64012392984094e-07,3.617254513960278e-07,1.5642446859085952e-05
2.1934617991848692e-07,2.658021901512679e-07,3.6119436436329753e-07,1.564014082642148e-05
2.1954341324372567e-07,2.677022342670457e-07,3.6042225404502564e-07,1.5640707579652547e-05
2.198452816751801e-07,2.697093849562384e-07,3.5941272059112617e-07,1.5643799918113596e-05
2.202422422087357e-07,2.7181743216971714e-07,3.5817130497465493e-07,1.5649172343132308e-05
2.207245110346713e-07,2.7401543616985195e-07,3.5670594199319427e-07,1.5656638397986825e-05
2.2128198513983369e-07,2.762882735257594e-07,3.5502526532234543e-07,1.566599034651091e-05
2.2190439074206138e-07,2.7861835705006215e-07,3.531364868189351e-07,1.5676922814566157e-05
2.2258116261257066e-07,2.8098690877850924e-07,3.5104485858150357e-07,1.568901489168501e-05
2.2330131743200425e-07,2.8337422376627714e-07,3.487543538301641e-07,1.5701804257756128e-05
2.2405382418540453e-07,2.857598886397105e-07,3.4626911819422986e-07,1.5714906981691447e-05
2.248284320833809e-07,2.881230075628452e-07,3.435952798614325e-07,1.5728082140853512e-05
2.256161153826324e-07,2.904419779360928e-07,3.4074209284626176e-07,1.5741205483679616e-05
2.2640852913248573e-07,2.926948202485608e-07,3.377220565617766e-07,1.575420436410184e-05
2.2719704908565069e-07,2.9486053089239357e-07,3.345503095752449e-07,1.576701362038999e-05
2.279726492285381e-07,2.969200504197514e-07,3.3124334070577346e-07,1.5779567174120413e-05
2.287277075505281e-07,2.988564078422377e-07,3.2781781590559013e-07,1.579178445444821e-05
2.294584680067598e-07,3.0065529486444394e-07,3.242906592015e-07,1.580351756579941e-05
2.3016513607596908e-07,3.0230561858762603e-07,3.2067953445977567e-07,1.5814499358097534e-05
2.3085011417392463e-07,3.037991719352814e-07,3.1700207980677084e-07,1.5824334904929567e-05
2.3151721535891198e-07,3.051303461350931e-07,3.1327418951876533e-07,1.5832526075421226e-05
2.3217173465753694e-07,3.062954479916212e-07,3.095090997443326e-07,1.5838528365203335e-05
2.3281975302192306e-07,3.072909723914911e-07,3.0571823548649704e-07,1.5841847541040774e-05
2.3346664532041201e-07,3.081126412659299e-07,3.019125412334737e-07,1.5842120527555904e-05
2.3411619408154923e-07,3.087560265663952e-07,2.981026266621291e-07,1.5839102497437257e-05
2.347709029855e-07,3.092172313583872e-07,2.942986839149966e-07,1.583258251650868e-05
2.3543244122988328e-07,3.0949287757377393e-07,2.905113514110825e-07,1.5822327041161298e-05
2.3610183014043388e-07,3.0958023596432875e-07,2.867519687736194e-07,1.5808086005941144e-05
2.367799944285864e-07,3.094775903527852e-07,2.830315540104684e-07,1.5789610959635304e-05
2.3746840199709944e-07,3.091842002772817e-07,2.7936066215463534e-07,1.5766649707605466e-05
2.381694798160898e-07,3.0870082148514444e-07,2.7575092251608137e-07,1.5738929175951066e-05
2.388874041342954e-07,3.080312122425089e-07,2.722158837286059e-07,1.5706165929596454e-05
2.3962882855632e-07,3.071824010172952e-07,2.687698095845566e-07,1.5668173109148293e-05
2.404021443403437e-07,3.0616282672394944e-07,2.6542616101105586e-07,1.5625032343454328e-05
2.412152976139473e-07,3.0498067789188825e-07,2.621966274008712e-07,1.5577145409928473e-05
2.420735497005684e-07,3.0364411619116987e-07,2.5909015692178197e-07,1.5525095369214368e-05
2.4297855437927734e-07,3.021622026543709e-07,2.561127332703512e-07,1.5469459693499938e-05
2.439292874599536e-07,3.0054489980546e-07,2.53268493664569e-07,1.5410710946343785e-05
2.4492348179759177e-07,2.9880239390859536e-07,2.5056174785658004e-07,1.534926129609154e-05
2.459578881697992e-07,2.969445765649573e-07,2.479986566700531e-07,1.5285652186137344e-05
2.47027807926188e-07,2.949808827440433e-07,2.4558657673434854e-07,1.522075036970479e-05
2.481267274986402e-07,2.929205550542894e-07,2.4333181998548925e-07,1.5155759893067475e-05
2.4924627996137354e-07,2.907729667786275e-07,2.4123905269230397e-07,1.5092055396922174e-05
2.50377083993457e-07,2.8854744266695063e-07,2.393123438624575e-07,1.5030985387625587e-05
2.5150980478130513e-07,2.8625291928574176e-07,2.375551346728232e-07,1.4973724106151935e-05
2.52635376254062e-07,2.8389814873511554e-07,2.3596896235179571e-07,1.4921183224181226e-05
2.537454894720425e-07,2.814922314026557e-07,2.3455305072775559e-07,1.4873985148913794e-05
2.548346666833147e-07,2.7904511151448014e-07,2.3330477453059487e-07,1.4832473377423457e-05
2.5590239649369137e-07,2.765680981367935e-07,2.3221974163475718e-07,1.4796728218763828e-05
2.5695263309719555e-07,2.7407350662549405e-07,2.312932030532144e-07,1.476658313951691e-05
2.5799101115350504e-07,2.715728565993095e-07,2.305239993210844e-07,1.4741651847028045e-05
2.5902229101056816e-07,2.690755970833531e-07,2.2991647286258248e-07,1.4721373095711539e-05
2.6004902507995357e-07,2.66590651448344e-07,2.2947695934476729e-07,1.4705072715866916e-05
2.610713521665418e-07,2.6412918521743826e-07,2.2920944595522976e-07,1.4692035442261115e-05
2.620875127280225e-07,2.617043638936941e-07,2.2911487958345605e-07,1.4681578303411408e-05
2.630941338484743e-07,2.5932830781341964e-07,2.2919254470541306e-07,1.4673111353694505e-05
2.640859850657109e-07,2.570107391768612e-07,2.2944154129968124e-07,1.466616215468135e-05
2.6505587944548676e-07,2.547603757947887e-07,2.2986179651750807e-07,1.4660355617551654e-05
2.659950751419966e-07,2.5258614565341467e-07,2.3045375992713413e-07,1.4655379950477731e-05
2.6689388708815865e-07,2.5049669719128144e-07,2.312174942267756e-07,1.4650979076384427e-05
2.677424238524217e-07,2.4849910442784657e-07,2.321520032448789e-07,1.4646958488741996e-05
2.6853108685162017e-07,2.4659796914290906e-07,2.332542399722933e-07,1.4643156792208173e-05
2.692503988273039e-07,2.447957876636571e-07,2.345182115872006e-07,1.4639389536805413e-05
2.69890862042085e-07,2.430945169097237e-07,2.3593525208692603e-07,1.46354126183322e-05
2.7044334314938806e-07,2.4149684551329887e-07,2.3749522742780286e-07,1.4630917417658428e-05
2.708993218693306e-07,2.400062398873684e-07,2.39187839619768e-07,1.4625557852465945e-05
2.712505143410346e-07,2.3862622562672855e-07,2.410038659411613e-07,1.4619010773773545e-05
2.7148828141105817e-07,2.3735954272840282e-07,2.42935980420436e-07,1.4611019570851214e-05
2.7160353139820625e-07,2.3620830141244827e-07,2.4497819090825444e-07,1.4601375069368268e-05
2.715872012609859e-07,2.3517622928555746e-07,2.471242707461038e-07,1.4589875950822302e-05
2.7143074513724643e-07,2.3427126731627512e-07,2.4936664242677057e-07,1.4576333907360175e-05
2.711264679926944e-07,2.3350516471149072e-07,2.5169615757963126e-07,1.4560620991278271e-05
2.706684195209103e-07,2.3289036975477357e-07,2.541031844483175e-07,1.4542695078615015e-05
2.700538693835864e-07,2.3243694623643852e-07,2.5657953139233256e-07,1.4522576361804474e-05
2.692837724880511e-07,2.321505903861673e-07,2.591185284083505e-07,1.4500343874571286e-05
2.6836163225759076e-07,2.3203216856924529e-07,2.617133547203429e-07,1.4476183074100376e-05
2.672925259354405e-07,2.3207879603535343e-07,2.643563407759941e-07,1.4450404975873166e-05
2.66083045385834e-07,2.3228550611785307e-07,2.6703875484332053e-07,1.442339139056986e-05
2.6474135933642267e-07,2.326464062345822e-07,2.6975009753163925e-07,1.4395507962439593e-05
2.632775685478807e-07,2.3315478847226576e-07,2.724785262905527e-07,1.4367031609196329e-05
2.6170419629372805e-07,2.3380285496304694e-07,2.7521262077999724e-07,1.433810783695502e-05
2.6003615321718614e-07,2.3458185273994183e-07,2.779424374822932e-07,1.4308752417048896e-05
2.5828980698292515e-07,2.354828530936963e-07,2.806586301204415e-07,1.4278925098468154e-05
2.564808710890793e-07,2.3649768701868023e-07,2.833507667977649e-07,1.424864061084004e-05
2.546227649995425e-07,2.3761863771591821e-07,2.860067638005057e-07,1.4218013171902298e-05
2.527271104347846e-07,2.388374941851464e-07,2.8861352577606267e-07,1.4187203503330466e-05
2.5080514568068565e-07,2.401463774290099e-07,2.911578519974528e-07,1.4156337471087878e-05
2.4886852887168694e-07,2.415389921444956e-07,2.936271460833764e-07,1.412547516045108e-05
2.469300452432642e-07,2.4300920095075823e-07,2.9600998079795945e-07,1.4094704574460205e-05
2.450047098063284e-07,2.445484909717145e-07,2.982968378176792e-07,1.4064310905661887e-05
2.431096850489673e-07,2.461454896678941e-07,3.0048037916330986e-07,1.4034812688541278e-05
2.41262435246891e-07,2.477874240492724e-07,3.025547967889879e-07,1.4006846786076321e-05
2.394788787731029e-07,2.4946144040813234e-07,3.045151001279764e-07,1.398108318581148e-05
2.3777244452626863e-07,2.5115477989705987e-07,3.063567467655968e-07,1.3958179687197244e-05
2.361541125917336e-07,2.528550788670999e-07,3.0807590102026674e-07,1.3938708415469787e-05
2.3463340937196468e-07,2.54551667529058e-07,3.096700882280489e-07,1.3923089015350048e-05
2.3321944482782488e-07,2.562366343226954e-07,3.1113769626589516e-07,1.3911555543755261e-05
2.3192104229748125e-07,2.5790490712631565e-07,3.1247672644901337e-07,1.3904143836644214e-05
2.307460647940663e-07,2.5955472527766577e-07,3.136846434295905e-07,1.3900689504335181e-05
2.2970108182229943e-07,2.6118865549855424e-07,3.1475912697682836e-07,1.3900838966266282e-05
2.2879195805655388e-07,2.6281251610624284e-07,3.1569938367767875e-07,1.3904082435100666e-05
2.2802478411788535e-07,2.6443223696614204e-07,3.165081145787656e-07,1.3909799624607846e-05
2.2740602070225163e-07,2.660516024378918e-07,3.1719200787650765e-07,1.3917293689401983e-05
2.2694131094723425e-07,2.676714559055286e-07,3.1775969461863534e-07,1.392581039305675e-05
2.266348878148918e-07,2.692898775967042e-07,3.1822026928773643e-07,1.3934567922694816e-05
2.2649039898035106e-07,2.70903158846303e-07,3.185838498920053e-07,1.3942806848105685e-05
2.2651057080752949e-07,2.725065929116657e-07,3.1886116804423644e-07,1.3949822722431353e-05
2.266956636121375e-07,2.740949433380371e-07,3.190613270137333e-07,1.3954954336517825e-05
2.270430948095209e-07,2.7566291489359737e-07,3.191906526132168e-07,1.3957559150063973e-05
2.2754798033768917e-07,2.772050058598457e-07,3.192534078697625e-07,1.3957003129102052e-05
2.28203864484706e-07,2.787151877962854e-07,3.1925280020117413e-07,1.3952662700465079e-05
2.290038738323389e-07,2.8018762004425977e-07,3.191914884387949e-07,1.3943938678684545e-05
2.29941752138663e-07,2.816171596932116e-07,3.1907177790399607e-07,1.3930268398585751e-05
2.3101302047905732e-07,2.8299834033919894e-07,3.188961322962973e-07,1.3911122295518426e-05
2.3221625598318443e-07,2.843245867242443e-07,3.186676022148933e-07,1.3886001906867727e-05
2.3355297713168826e-07,2.8558897226165555e-07,3.183890543498014e-07,1.3854463276832547e-05
2.3502635943460655e-07,2.8678514177361694e-07,3.18061548170305e-07,1.381616034818486e-05
2.366402421503284e-07,2.8790740143059157e-07,3.1768326885261057e-07,1.377086700126468e-05
2.3839905531571637e-07,2.889503322994774e-07,3.1724959143502104e-07,1.3718450707234402e-05
2.403082715344109e-07,2.899083885706085e-07,3.167544778945506e-07,1.365882284249166e-05
2.423742061259613e-07,2.9077589923511e-07,3.161935659748281e-07,1.3591908873202652e-05
2.446029633021302e-07,2.915471164929139e-07,3.155668682280737e-07,1.3517673568943173e-05
2.469989976380332e-07,2.922160412310307e-07,3.1487808621074827e-07,1.3436192008939349e-05
2.4956347673425827e-07,2.927767811868509e-07,3.1413201775543923e-07,1.3347687593147947e-05
2.522929207407366e-07,2.9322409673008254e-07,3.1333305034329627e-07,1.3252507701710933e-05
2.551787526074994e-07,2.93553374891945e-07,3.1248441302037344e-07,1.3151096473392971e-05
2.5820796784406576e-07,2.9376060797870897e-07,3.1158760297783234e-07,1.3043965812669505e-05
2.613644238797151e-07,2.938422128755137e-07,3.10642600187958e-07,1.2931636378992876e-05
2.6463005429382217e-07,2.9379414439483804e-07,3.096484620019236e-07,1.2814605015274113e-05
2.679866253326529e-07,2.936117996136116e-07,3.086035605731116e-07,1.2693366643146242e-05
2.714203585353667e-07,2.932915465599089e-07,3.075062003942994e-07,1.2568423147501167e-05
2.7492746276045707e-07,2.928316744671707e-07,3.0635623355609226e-07,1.244025042711788e-05
2.785136694863821e-07,2.92231650468676e-07,3.051559712087975e-07,1.230927079646216e-05
2.8218806788899897e-07,2.914915755830202e-07,3.039095966296441e-07,1.2175874014750674e-05
2.859587671964423e-07,2.9061277536683265e-07,3.026229089045502e-07,1.2040497591234184e-05
2.8983395408906736e-07,2.895983318410784e-07,3.013036669072188e-07,1.190372810949303e-05
2.938265979054525e-07,2.884530551890555e-07,2.999612542078856e-07,1.1766340772602225e-05
2.979585252765201e-07,2.871841664732079e-07,2.986058525813608e-07,1.162923176937129e-05
3.0225969860776263e-07,2.858033665894192e-07,2.9724788257112174e-07,1.1493292172199635e-05
3.067628630719057e-07,2.843280676589116e-07,2.958979407403311e-07,1.135931263027742e-05
3.114975739418203e-07,2.8277909250856836e-07,2.9456697367735356e-07,1.1227954614136337e-05
3.1648596252236947e-07,2.8117660700020213e-07,2.9326622424611256e-07,1.1099755313500038e-05
3.2174021105210575e-07,2.795385650639494e-07,2.920070608742963e-07,1.0975136765049595e-05
3.2726230366875673e-07,2.7788217205854357e-07,2.9080049942164114e-07,1.0854428252085076e-05
3.330455689769033e-07,2.7622617825499714e-07,2.896558870085188e-07,1.0737937100269857e-05
3.390760138461285e-07,2.7459171157685616e-07,2.885795207670946e-07,1.0626077940215867e-05
3.453331679808504e-07,2.7300015302477105e-07,2.875742366075274e-07,1.0519458682095524e-05
3.517910645609107e-07,2.7147076661022573e-07,2.866403837479216e-07,1.041881430776994e-05
3.5841870211734377e-07,2.700213868265099e-07,2.857779743174929e-07,1.0324850019493711e-05
3.651799019558792e-07,2.686702593398082e-07,2.8498776551371014e-07,1.0238128299912514e-05
3.720337089607122e-07,2.674364004038577e-07,2.842701306565107e-07,1.0159083339837829e-05
3.7893593081423285e-07,2.6633927804032175e-07,2.836240692527981e-07,1.0088204895540302e-05
3.858419363740179e-07,2.653984498899328e-07,2.830474041568497e-07,1.0026289707838277e-05
3.927099889439534e-07,2.646325162022989e-07,2.825373400020237e-07,9.974528665880546e-06
3.9950262194843886e-07,2.640586212106844e-07,2.820912968828361e-07,9.934363395694971e-06
4.0618540661114457e-07,2.636938685987451e-07,2.817069009095785e-07,9.907277368330496e-06
4.1272614614216756e-07,2.6355620723189297e-07,2.813807468116095e-07,9.894659871413943e-06
4.190951405475168e-07,2.63662202753365e-07,2.8110832253572887e-07,9.897742806454992e-06
4.2526413729376136e-07,2.6402386810802694e-07,2.808853907384789e-07,9.917561581780637e-06
4.312047347316482e-07,2.646475956371016e-07,2.807086300465827e-07,9.95491022372177e-06
4.3688831406373824e-07,2.655358035767569e-07,2.8057494998392987e-07,1.001029770711962e-05
4.4228690759830683e-07,2.666903727957684e-07,2.804803034956347e-07,1.0083938653672502e-05
4.473742027184268e-07,2.681146031302127e-07,2.804190628055638e-07,1.0175781212930254e-05
4.5212751943621923e-07,2.698114095871212e-07,2.8038453749529555e-07,1.0285522194776163e-05
4.5653038648489073e-07,2.7178047712773574e-07,2.803703575618932e-07,1.0412587445994136e-05
4.605723955243869e-07,2.7401730815696075e-07,2.803715578225609e-07,1.0556127132881312e-05
4.642458676145098e-07,2.7651322566487537e-07,2.803842742461349e-07,1.0715069928214737e-05
4.6754388295984573e-07,2.7925556060951296e-07,2.8040497460843376e-07,1.0888226276118302e-05
4.704609770869522e-07,2.822289048863997e-07,2.804306824471461e-07,1.1074403647914633e-05
4.7299322504097607e-07,2.8541659241319924e-07,2.804600328757535e-07,1.127248676473815e-05
4.7513743623431273e-07,2.888009058480208e-07,2.8049435475990895e-07,1.148145759318725e-05
4.768921138735799e-07,2.923626323638821e-07,2.8053800744291053e-07,1.1700382039179234e-05
4.782590408802542e-07,2.960808549320057e-07,2.805973201805716e-07,1.1928388188430839e-05
4.792423826547375e-07,2.99932729962052e-07,2.8067891211861486e-07,1.2164620454256826e-05
4.798467824369782e-07,3.038938551708939e-07,2.807886584759305e-07,1.2408176150747675e-05
4.800767181025934e-07,3.079395279219804e-07,2.809313266335916e-07,1.2658070373872694e-05
4.799360184908805e-07,3.120452809755309e-07,2.811102690557579e-07,1.2913237383102836e-05
4.794272334867712e-07,3.161864782320356e-07,2.8132688807456175e-07,1.317252859528304e-05
4.785520768921135e-07,3.203383136328057e-07,2.81580974972616e-07,1.3434700598240013e-05
4.773127523459151e-07,3.244762460210728e-07,2.818721967570797e-07,1.369841905608049e-05
4.757132783106826e-07,3.285765258957348e-07,2.822005738324635e-07,1.3962270700304486e-05
4.7376071747926557e-07,3.326164492531429e-07,2.825657350545677e-07,1.4224768262235526e-05
4.71465870111496e-07,3.3657388993013765e-07,2.829667895180592e-07,1.448436523628107e-05
4.6884257466268674e-07,3.4042677774094085e-07,2.83402406619774e-07,1.473949300209917e-05
4.659058738008709e-07,3.441532761170676e-07,2.83869955467831e-07,1.4988599400775724e-05
4.6267028436662643e-07,3.477323982619671e-07,2.843645219622692e-07,1.5230161584003864e-05
4.591492441952517e-07,3.511440138494014e-07,2.8487866386693146e-07,1.5462680698383905e-05
4.553554620687552e-07,3.543682404664862e-07,2.854031487739754e-07,1.568468930269364e-05
4.5130136097456406e-07,3.57385670854152e-07,2.8592895999487297e-07,1.5894791630612784e-05
4.4699967587489674e-07,3.6017804754364755e-07,2.8644885750719445e-07,1.609173904497876e-05
4.424636996459589e-07,3.627281462404581e-07,2.869567777265304e-07,1.6274520121218024e-05
4.377065131982109e-07,3.650198803623857e-07,2.8744651797985805e-07,1.6442420614092346e-05
4.327403259939984e-07,3.670392983951189e-07,2.879110970652003e-07,1.65950058074249e-05
4.275768238639401e-07,3.6877548752020797e-07,2.8834266623659174e-07,1.673202072771482e-05
4.2222782717521405e-07,3.7022134279446247e-07,2.887333193322663e-07,1.6853274996422155e-05
4.167059577258314e-07,3.7137444797590007e-07,2.890766616360886e-07,1.695859581568402e-05
4.1102533299893963e-07,3.722369948744658e-07,2.893681158749816e-07,1.7047856957749748e-05
4.052013813353776e-07,3.728142975396215e-07,2.896032690798367e-07,1.712102303049195e-05
3.992493903841692e-07,3.7311287799275024e-07,2.897765667793073e-07,1.7178168792443114e-05
3.931829874309306e-07,3.731388038949008e-07,2.898814938340634e-07,1.7219469799820705e-05
3.8701386642254526e-07,3.7289667791387573e-07,2.899114065322538e-07,1.724520282014074e-05
3.8075277878675134e-07,3.723900222353869e-07,2.8986070385633865e-07,1.7255837719988e-05
3.744106576787885e-07,3.7162302197972615e-07,2.897260141697839e-07,1.7252171549309728e-05
3.679992430470346e-07,3.706023508996862e-07,2.8950682678663413e-07,1.7235319257024128e-05
3.615319312231515e-07,3.6933769244657773e-07,2.892061833407657e-07,1.7206545601597902e-05
3.550250014797859e-07,3.678409935108036e-07,2.8883171002763004e-07,1.716709138890017e-05
3.4849774656352896e-07,3.6612593103943613e-07,2.8839491963538854e-07,1.7118097991173082e-05
