3.158878470206816e-07,3.023694937314742e-07,3.2562452014716945e-07,9.439178763393803e-06
3.1427169631852195e-07,3.018942809633256e-07,3.243430398174686e-07,9.490065160528946e-06
3.127411887854332e-07,3.013961376643243e-07,3.230861971793472e-07,9.554845538096423e-06
3.112942532914087e-07,3.00873026246749e-07,3.2185565674299217e-07,9.63379979084334e-06
3.099279731595865e-07,3.003245088180929e-07,3.206530160933361e-07,9.726917604118182e-06
3.0863983947143216e-07,2.997507857294293e-07,3.1947794078271434e-07,9.833868320565182e-06
3.074274113873345e-07,2.991512216723072e-07,3.1832782291817424e-07,9.95402442043016e-06
3.0628697067754694e-07,2.985233920452559e-07,3.171982228963646e-07,1.0086518326271277e-05
3.052123891489804e-07,2.9786270427358625e-07,3.160829507828077e-07,1.0230294194010367e-05
3.0419557356620105e-07,2.971627566558553e-07,3.149744566945532e-07,1.0384140990074556e-05
3.032286505757963e-07,2.9641608347925355e-07,3.1386460825612764e-07,1.0546730745438703e-05
3.0230564871693504e-07,2.9561465489907807e-07,3.127449940842538e-07,1.0716693304595165e-05
3.014220347950462e-07,2.947504904581253e-07,3.116070992100519e-07,1.0892716342525564e-05
3.0057389162513014e-07,2.9381643830234017e-07,3.104432086850196e-07,1.1073619809728627e-05
2.9975813493678825e-07,2.928065682040154e-07,3.0924779447257857e-07,1.125836720785052e-05
2.989722761016401e-07,2.9171644694621637e-07,3.080191479475385e-07,1.144601959206808e-05
2.982133498935651e-07,2.9054317301810695e-07,3.067609229959501e-07,1.1635673991075585e-05
2.9747754918892857e-07,2.892848697061453e-07,3.054815041713829e-07,1.1826433117352825e-05
2.967603802829589e-07,2.879405214270016e-07,3.041913710678984e-07,1.2017419409937485e-05
2.9605646519797125e-07,2.8650975092483486e-07,3.029015589586309e-07,1.2207812654222675e-05
2.953592239352146e-07,2.8499199351725305e-07,3.0162304176288397e-07,1.2396882737746416e-05
2.9466095776579163e-07,2.8338679538627076e-07,3.003653407400278e-07,1.2583983640971033e-05
2.9395434048140337e-07,2.8169510719717887e-07,2.991353417348093e-07,1.2768490107295653e-05
2.9323477116103127e-07,2.799193493154014e-07,2.979378663379121e-07,1.294971244588288e-05
2.9250113977033904e-07,2.7806241502906325e-07,2.967781182491349e-07,1.3126856220848932e-05
2.917551729420941e-07,2.761269254056589e-07,2.9566383780513085e-07,1.329906582439431e-05
2.910017886446097e-07,2.7411481240431836e-07,2.946044842125948e-07,1.3465527204207918e-05
2.9024975591364733e-07,2.720271914174814e-07,2.9360856738282245e-07,1.3625538328585413e-05
2.895099972818284e-07,2.6986445322006807e-07,2.92682064355587e-07,1.3778481507286633e-05
2.887935657319318e-07,2.676265810212411e-07,2.918282186817877e-07,1.3923753336116973e-05
2.8811347224849485e-07,2.653141720329426e-07,2.910479169201748e-07,1.4060730229532706e-05
2.874876077390464e-07,2.6292954467800945e-07,2.9034022737446307e-07,1.4188781303797628e-05
2.8693675432002967e-07,2.604768367052241e-07,2.8970287674721897e-07,1.4307318917226825e-05
2.8647933845032373e-07,2.579614785660881e-07,2.891327783577508e-07,1.4415838918174966e-05
2.861291483074415e-07,2.553899182229577e-07,2.8862688124388945e-07,1.4513904372226776e-05
2.8589690733843963e-07,2.5276951958817746e-07,2.881835312172704e-07,1.4601102704019529e-05
2.857921618590925e-07,2.50108225488765e-07,2.878028026192978e-07,1.4677020272897202e-05
2.858233583566135e-07,2.474146384380359e-07,2.874847442039698e-07,1.4741239708692825e-05
2.859966075903518e-07,2.4469934459839137e-07,2.8722807055506074e-07,1.4793352901056185e-05
2.863146885740984e-07,2.4197598084598604e-07,2.870308253409931e-07,1.4832996582560376e-05
2.867766374682333e-07,2.392602178666266e-07,2.868909814689353e-07,1.4859904903794186e-05
2.873774693277801e-07,2.36568039859208e-07,2.868057820165079e-07,1.4873950951131116e-05
2.8810874134321943e-07,2.3391478919692112e-07,2.867710783554143e-07,1.4875170262371407e-05
2.889598225717825e-07,2.313144205245309e-07,2.867817419512144e-07,1.486376467173076e-05
2.899185107880205e-07,2.2877907516292342e-07,2.868326491291508e-07,1.4840066530434733e-05
2.909712072469204e-07,2.2631953431018948e-07,2.8691908696018876e-07,1.480446726524788e-05
2.921035801447286e-07,2.239465856866051e-07,2.870362038312355e-07,1.4757348758394723e-05
2.933012215748884e-07,2.2167245231865554e-07,2.871780677590484e-07,1.4699073725227774e-05
2.945498388469665e-07,2.195107651467804e-07,2.873369783589293e-07,1.4630088447338851e-05
2.958363728989629e-07,2.174754948546134e-07,2.8750367710048214e-07,1.4551070230129157e-05
2.9715138120934426e-07,2.1557994695846658e-07,2.876689011680272e-07,1.4462947127657095e-05
2.984901314849046e-07,2.1383561062687865e-07,2.8782561816165856e-07,1.4366783780135044e-05
2.9985103404187267e-07,2.1225168131171733e-07,2.879706426490257e-07,1.4263667240594235e-05
3.0123325675320505e-07,2.1083585037155977e-07,2.881044665366116e-07,1.4154624387965116e-05
3.026353543215064e-07,2.0959492636957327e-07,2.8822900935844945e-07,1.4040554822937807e-05
3.0405478935093897e-07,2.085342092477232e-07,2.883454080512842e-07,1.3922192999824228e-05
3.0548777963919976e-07,2.0765611498397e-07,2.884542365575403e-07,1.3800105748944764e-05
3.069291601946342e-07,2.0695944526132292e-07,2.885567254632245e-07,1.3674723011215573e-05
3.0837187692894244e-07,2.064398424920954e-07,2.8865414952573683e-07,1.3546376624026856e-05
3.098063103563085e-07,2.060913423227289e-07,2.887461834497449e-07,1.341531755896824e-05
3.1122004129405045e-07,2.0590894316125255e-07,2.888306078943761e-07,1.3281723142956281e-05
3.125984233937089e-07,2.058899444185749e-07,2.889040903712786e-07,1.3145711222400928e-05
3.13925881550208e-07,2.060322653491281e-07,2.8896274677221196e-07,1.3007351612659281e-05
3.151871959837122e-07,2.063321910053489e-07,2.890025093779025e-07,1.2866674834861067e-05
3.1636817542483093e-07,2.0678387062285174e-07,2.8901937909989356e-07,1.2723683579129375e-05
3.174560412737978e-07,2.073798510672532e-07,2.8900919860438344e-07,1.2578364324601328e-05
3.1844061505381125e-07,2.0811203560741863e-07,2.8896732820470576e-07,1.243070208720925e-05
3.1931627581709797e-07,2.089727989304428e-07,2.8888887728488396e-07,1.2280704345997482e-05
3.200822630694721e-07,2.0995520804534317e-07,2.8876897447327177e-07,1.21284342653944e-05
3.207403697656907e-07,2.110525242462108e-07,2.8860264060296e-07,1.1974030033933385e-05
3.212924034765879e-07,2.1225801447895612e-07,2.8838503933117517e-07,1.1817686808274866e-05
3.217392539429951e-07,2.135649543008021e-07,2.8811212994398656e-07,1.1659615872441993e-05
3.220807259442714e-07,2.1496648273001299e-07,2.877815255004848e-07,1.1500009686044073e-05
3.22314995099509e-07,2.1645544896461515e-07,2.873936631290192e-07,1.1339022062708356e-05
3.224384659406332e-07,2.180243136468953e-07,2.8695150318957626e-07,1.1176763559227652e-05
3.2244681313088e-07,2.196646608473055e-07,2.864580210168447e-07,1.1013319207061673e-05
3.223365747949399e-07,2.2136677370613762e-07,2.8591419188019747e-07,1.0848785302797715e-05
3.2210603821881597e-07,2.2312078410562873e-07,2.8531897368082565e-07,1.0683292980630051e-05
3.217544798789402e-07,2.249180358898571e-07,2.846700860179998e-07,1.0516999289198436e-05
3.2128107195232417e-07,2.2675036292490673e-07,2.8396489090561577e-07,1.0350083745116343e-05
3.20685253865911e-07,2.286085484016117e-07,2.8320160078112296e-07,1.0182781107816549e-05
3.199672416769016e-07,2.3048202809129253e-07,2.823805040002223e-07,1.0015427419154807e-05
3.1912715531430203e-07,2.3236009453303238e-07,2.815039426044068e-07,9.848487269394355e-06
3.1816429634483966e-07,2.3423335198700523e-07,2.805746940431073e-07,9.682530997119067e-06
3.170777645121107e-07,2.360941655901192e-07,2.7959482223605326e-07,9.518162827604821e-06
3.158673932080791e-07,2.379362233777709e-07,2.785659025956781e-07,9.35594874484064e-06
3.145342621889759e-07,2.3975377481450174e-07,2.774889276975107e-07,9.196378372973994e-06
3.130806344061717e-07,2.415409822570025e-07,2.7636350032247684e-07,9.039884062172694e-06
3.115094475579823e-07,2.432915103344035e-07,2.7518765964559014e-07,8.886911673359202e-06
3.0982421822963217e-07,2.4499812630896693e-07,2.739587017113544e-07,8.737964766041906e-06
3.0802913720896804e-07,2.466522764850872e-07,2.7267391375225e-07,8.593582989367555e-06
3.061283879086791e-07,2.4824402632984373e-07,2.713304112394613e-07,8.45431082943094e-06
3.041253113019338e-07,2.4976294803957855e-07,2.699248890647009e-07,8.320696868814705e-06
3.020225846696691e-07,2.5119983964659766e-07,2.684542595595212e-07,8.193313970538763e-06
2.998232332287467e-07,2.5254779062701487e-07,2.6691642928524785e-07,8.072766093996292e-06
2.9753128368954505e-07,2.5380134988420354e-07,2.653106988667293e-07,7.959646940167667e-06
2.951514976142334e-07,2.5495505829962485e-07,2.6363869610497817e-07,7.854468360445489e-06
2.926885942025967e-07,2.560033531490685e-07,2.619060109189123e-07,7.75760471997646e-06
2.901466283275086e-07,2.569418565192121e-07,2.601233917641942e-07,7.669268975768515e-06
2.8752909160500987e-07,2.577684578509048e-07,2.583055876438055e-07,7.5895174282842575e-06
2.848394108038529e-07,2.5848276185792905e-07,2.564676873391657e-07,7.5182776477574495e-06
2.820813173484869e-07,2.5908490509450624e-07,2.546226828079164e-07,7.455382749723938e-06
2.7925931080620237e-07,2.5957563039067423e-07,2.5278249536937234e-07,7.400596398179907e-06
2.763788112159686e-07,2.59956458203794e-07,2.5095961262154715e-07,7.3536447531407636e-06
2.7344574475085894e-07,2.602285718143955e-07,2.49166820371965e-07,7.314308482052843e-06
2.704670204056345e-07,2.6039200259663447e-07,2.4741651756518114e-07,7.282556238895998e-06
2.674520231467967e-07,2.6044601255240807e-07,2.457212478280007e-07,7.2585712961995655e-06
2.644130217653949e-07,2.6038967130737803e-07,2.440940830355146e-07,7.242624840641423e-06
2.613642782124229e-07,2.602227705933618e-07,2.425475206831238e-07,7.234938812816275e-06
2.5832117739562657e-07,2.599474042186807e-07,2.41092058264366e-07,7.2356247745259415e-06
2.5529902920499885e-07,2.5956849880194426e-07,2.397356215653936e-07,7.24466364940124e-06
2.52311450189265e-07,2.590930668876821e-07,2.3848393459161004e-07,7.261892031233157e-06
2.493697774891623e-07,2.585306106959435e-07,2.373416895292409e-07,7.287002106910408e-06
2.464838273195399e-07,2.5789428254970623e-07,2.3631325812690035e-07,7.3195678804976765e-06
2.4366287430747656e-07,2.5719967214763946e-07,2.3540214190710417e-07,7.359081504143033e-06
2.4091582081355645e-07,2.5646146075769703e-07,2.3461029347366925e-07,7.404983382923312e-06
2.3825066385121478e-07,2.5569147760792406e-07,2.3393787955941682e-07,7.456699489879171e-06
2.3567433622627453e-07,2.548993935199435e-07,2.333831792914164e-07,7.51369842471244e-06
2.331930240619043e-07,2.5409473497293676e-07,2.329427379479823e-07,7.5755468412609265e-06
2.3081266258774773e-07,2.532888225444295e-07,2.3261178798902067e-07,7.641932326831884e-06
2.2853981201398363e-07,2.524945751338676e-07,2.323848930217628e-07,7.712655594567717e-06
2.2638215184276696e-07,2.517239381421481e-07,2.3225700029058022e-07,7.787614901606226e-06
2.2434818984433823e-07,2.5098598005000875e-07,2.322243448449026e-07,7.866782182982296e-06
2.2244691520081864e-07,2.502870316192894e-07,2.322842184502429e-07,7.95015388385595e-06
2.2068723102324056e-07,2.496311322263717e-07,2.3243400167392512e-07,8.03769050405011e-06
2.1907750012675285e-07,2.4902007353384727e-07,2.326704924912974e-07,8.129277309153767e-06
2.1762657696533536e-07,2.484542165115572e-07,2.3298945746468893e-07,8.22471233459336e-06
2.1634496120804682e-07,2.4793376804803855e-07,2.333853543349845e-07,8.323709177518987e-06
2.1524317420337614e-07,2.474592262710155e-07,2.338520628845964e-07,8.425895227683466e-06
2.143286193258861e-07,2.470318702699293e-07,2.3438431304994055e-07,8.530798070232749e-06
2.1360445235961878e-07,2.466547061754449e-07,2.349782752606597e-07,8.637852456128587e-06
2.1307037777665148e-07,2.463327754550973e-07,2.356316274541585e-07,8.746449597378963e-06
2.1272337538478e-07,2.460731173165277e-07,2.363439207275284e-07,8.855996007312363e-06
2.125579317791395e-07,2.458845619806255e-07,2.371160697819829e-07,8.965938708877012e-06
2.1256650482429205e-07,2.4577673342898685e-07,2.379485973084404e-07,9.075756445090206e-06
2.1274065077012785e-07,2.457584291980612e-07,2.3884011989172394e-07,9.184954271217094e-06
2.1307203779288816e-07,2.4583646323301947e-07,2.397870717263945e-07,9.29307894281436e-06
2.135529558821549e-07,2.46015883248028e-07,2.4078399152285304e-07,9.399729820302609e-06
2.1417651317723686e-07,2.4630020743969844e-07,2.4182370654292866e-07,9.50453545820319e-06
2.1493657197834128e-07,2.466904250100084e-07,2.428984535282106e-07,9.607118486470211e-06
2.1582770780284667e-07,2.4718442703062404e-07,2.4400201377819147e-07,9.707106490721926e-06
2.1684465583283964e-07,2.4777791609394964e-07,2.451312594756904e-07,9.804167061942367e-06
2.179816040966733e-07,2.484654029476374e-07,2.4628622668272966e-07,9.897995986491612e-06
2.192324380256492e-07,2.49240413034237e-07,2.4746840893737746e-07,9.988289200009933e-06
2.205905480807332e-07,2.5009554900783145e-07,2.4867827256168624e-07,1.0074780134204953e-05
2.2204732743572801e-07,2.510228999085089e-07,2.4991394424199774e-07,1.0157307661690005e-05
2.2359156784741183e-07,2.5201455027165573e-07,2.511714168954219e-07,1.0235812355179343e-05
2.2521104188955427e-07,2.530628481666171e-07,2.5244542100490265e-07,1.031026922949221e-05
2.268941920194907e-07,2.5416026117713215e-07,2.5372991258269925e-07,1.038063932626936e-05
2.286299530613255e-07,2.552994050684619e-07,2.5501797154066697e-07,1.0446854265880527e-05
2.304073858410477e-07,2.5647431789445145e-07,2.5630196505736776e-07,1.0508799496531356e-05
2.3221767840522823e-07,2.576818066798041e-07,2.5757437197624266e-07,1.0566300686093737e-05
2.3405718520620522e-07,2.5892044602222617e-07,2.5882894153134125e-07,1.0619144285632859e-05
2.3592749644526295e-07,2.601882443050057e-07,2.60060776867094e-07,1.0667126419666735e-05
2.378316627384481e-07,2.6148151423881164e-07,2.6126483848192736e-07,1.0710102039020365e-05
2.397703024023738e-07,2.6279523950127525e-07,2.624350935361021e-07,1.0748011014945787e-05
2.417408531066368e-07,2.64124410959184e-07,2.6356534964924047e-07,1.0780851854548116e-05
2.437395109878254e-07,2.6546516956310444e-07,2.6465057490714195e-07,1.0808611411892956e-05
2.457630071110413e-07,2.6681419873004364e-07,2.6568811316103576e-07,1.0831215320946755e-05
2.4780833806121804e-07,2.6816721314639244e-07,2.666779435894684e-07,1.0848558457436845e-05
2.4987203948848987e-07,2.6951876950065415e-07,2.676210900371084e-07,1.086063735874356e-05
2.5195081966020705e-07,2.708632889602169e-07,2.685180234149333e-07,1.086772095431614e-05
2.540423074276677e-07,2.7219564449826304e-07,2.693691449939968e-07,1.08704012987283e-05
2.5614444067144193e-07,2.735117066585325e-07,2.70176050577161e-07,1.0869476960857659e-05
2.582544087893397e-07,2.7480964212151215e-07,2.7094146237048784e-07,1.0865797731855396e-05
2.6036876345210405e-07,2.7609002328150077e-07,2.716678828567062e-07,1.0860152412161987e-05
2.624843855177864e-07,2.773538568472e-07,2.7235607668955077e-07,1.0853191288620903e-05
2.645988452970349e-07,2.786008972099337e-07,2.730045867641177e-07,1.0845385551682516e-05
2.6670990251021517e-07,2.7982920121462677e-07,2.736118195828501e-07,1.0837027415543685e-05
2.6881507463902645e-07,2.810349936925473e-07,2.7417959270046426e-07,1.08282541874679e-05
2.7091164054783285e-07,2.822130092794279e-07,2.747136867010997e-07,1.0819074270137636e-05
2.729968142842067e-07,2.8335713835754967e-07,2.7522074612101444e-07,1.0809390270952353e-05
2.7506802566356447e-07,2.8446039982302085e-07,2.757056314909664e-07,1.0799025116366612e-05
2.771223929416141e-07,2.855145557598283e-07,2.7617056642519625e-07,1.0787738402941319e-05
2.7915521006575184e-07,2.865104417110489e-07,2.76614838662555e-07,1.0775221999809036e-05
2.811592213691405e-07,2.874391100356963e-07,2.770354594302185e-07,1.0761097632528699e-05
2.831249643757025e-07,2.882924213089778e-07,2.774292327679591e-07,1.0744937282155596e-05
2.850411271119698e-07,2.890625611694216e-07,2.777946487848151e-07,1.0726291939207174e-05
2.868949726150593e-07,2.8974230006106385e-07,2.781320142289296e-07,1.0704709654535913e-05
2.8867331565229765e-07,2.9032665498447947e-07,2.784424162510084e-07,1.0679750613328453e-05
2.9036431366296357e-07,2.908140173755267e-07,2.787271969409681e-07,1.0651007789904283e-05
2.919592241076872e-07,2.9120527912221605e-07,2.7898825952334235e-07,1.0618111085231156e-05
2.9345241244110896e-07,2.9150205780758136e-07,2.792280601632003e-07,1.0580703590112391e-05
2.948403518021297e-07,2.917065574788067e-07,2.7944941391819766e-07,1.0538420880496868e-05
2.9612173180824626e-07,2.918235309213932e-07,2.796558858134208e-07,1.0490896818114296e-05
2.972977625613492e-07,2.9186172216022853e-07,2.798517641578141e-07,1.0437790241928957e-05
2.983711643383096e-07,2.9183278775154034e-07,2.800410525173522e-07,1.0378819041058113e-05
2.993452629759418e-07,2.917491688259e-07,2.802264799317736e-07,1.0313785796285423e-05
3.0022426347743497e-07,2.9162295153410226e-07,2.8040986137849136e-07,1.0242587591869915e-05
3.010134471079515e-07,2.9146565554060487e-07,2.8059428455913077e-07,1.0165210602556495e-05
3.017187685321063e-07,2.912885441924643e-07,2.807860136534107e-07,1.0081714285746248e-05
3.023464765993108e-07,2.911028432007377e-07,2.809936035584887e-07,9.99221900774286e-06
3.029022588581725e-07,2.909188263509556e-07,2.812253035459473e-07,9.896909963952342e-06
3.033899257821413e-07,2.9074446801797005e-07,2.814878889526855e-07,9.796070192907995e-06
3.038116665007133e-07,2.9058535820251023e-07,2.817871675089119e-07,9.690138474368159e-06
3.0417037131862386e-07,2.9044564272650125e-07,2.821278043202416e-07,9.579732073603521e-06
3.044717333743948e-07,2.903283799230296e-07,2.825120275402204e-07,9.465578812297106e-06
3.047242660263237e-07,2.902350462667615e-07,2.8293872734251424e-07,9.348410633580183e-06
3.0493784184363516e-07,2.9016533038726024e-07,2.834036410806666e-07,9.22891062070068e-06
3.051227234203913e-07,2.901172774234405e-07,2.839002938988745e-07,9.107728256592818e-06
3.0528921539044816e-07,2.900871112919805e-07,2.8442118540117626e-07,8.985541169443457e-06
3.054470093460593e-07,2.9006970532386606e-07,2.849584853935338e-07,8.863132048912523e-06
3.056049238359831e-07,2.900600814137743e-07,2.855038607729323e-07,8.741409034300271e-06
3.05771352167088e-07,2.9005429531753857e-07,2.860481038580839e-07,8.62133455064563e-06
3.059542706927875e-07,2.900493604084233e-07,2.8658149498235094e-07,8.503823777546704e-06
3.061601181143044e-07,2.9004287583224356e-07,2.870949998779839e-07,8.389691326441459e-06
3.06392350197573e-07,2.900323960517565e-07,2.875809426049917e-07,8.279674685144702e-06
3.0665104430456805e-07,2.9001537837641484e-07,2.880325549152407e-07,8.1745242708543e-06
3.0693376376588137e-07,2.89989975605433e-07,2.884438281017345e-07,8.075104915384707e-06
3.072372267964633e-07,2.899549585460756e-07,2.888100064480468e-07,7.982415197048479e-06
3.0755926684273803e-07,2.899083948232177e-07,2.8912790798555865e-07,7.897492022631043e-06
3.0789951384658124e-07,2.898470646993091e-07,2.893953967937384e-07,7.821272656831468e-06
3.082581101960138e-07,2.8976734702566927e-07,2.8961011654294024e-07,7.754512502739073e-06
3.0863434077357576e-07,2.896663263362791e-07,2.897693367189164e-07,7.697796232373665e-06
3.090263384249468e-07,2.8954257265329644e-07,2.898707875209629e-07,7.651584023938995e-06
3.094308404304384e-07,2.893964785551112e-07,2.89912744010804e-07,7.616227056927261e-06
3.098426521451428e-07,2.8922954874055e-07,2.898941164820614e-07,7.5919976978989865e-06
3.1025495341322765e-07,2.890433707618896e-07,2.898145917245578e-07,7.57922014154849e-06
3.1066050655338413e-07,2.888392971127387e-07,2.896736993159622e-07,7.5784265433335645e-06
3.11052366401376e-07,2.886181491996604e-07,2.8946986054329427e-07,7.590351083457261e-06
3.114236327051522e-07,2.883796645085068e-07,2.8920031623393425e-07,7.615762047722047e-06
3.1176725643257077e-07,2.8812286709489695e-07,2.8886135317145296e-07,7.65529330568309e-06
3.120763245741609e-07,2.878477565517259e-07,2.8844859666412397e-07,7.709348803039478e-06
3.123438586831153e-07,2.8755661069770464e-07,2.87957370630704e-07,7.778129763635244e-06
3.125622165500494e-07,2.872533668700902e-07,2.8738285228961983e-07,7.86183952909939e-06
3.127240372166945e-07,2.86942236120471e-07,2.867202483079576e-07,7.960918335922518e-06
3.128246766111127e-07,2.866269883845501e-07,2.859662784839183e-07,8.076074001429059e-06
3.1286292595065497e-07,2.8631066371048266e-07,2.851216328505421e-07,8.208119252218355e-06
3.128390959917068e-07,2.859955072927384e-07,2.8419141709992343e-07,8.35779005496542e-06
3.1275344276896127e-07,2.8568291870571e-07,2.831834243014998e-07,8.525621074323137e-06
3.126066777896877e-07,2.853735426218636e-07,2.821069807653255e-07,8.71186286030242e-06
3.1240099283442816e-07,2.8506824980543765e-07,2.809722273818384e-07,8.916425114935657e-06
3.1213970661924237e-07,2.847689650087637e-07,2.797889082112108e-07,9.13884936207948e-06
3.1182600089839496e-07,2.844782112781009e-07,2.785660094207501e-07,9.378322395354934e-06
3.11461855635642e-07,2.841981016941351e-07,2.773124649928617e-07,9.633718086832004e-06
3.110472317295085e-07,2.8392948554304427e-07,2.7603746686341e-07,9.903640145569733e-06
3.105799706455358e-07,2.836718072868663e-07,2.747500752044383e-07,1.0186460609482314e-05
3.100569085157236e-07,2.834234008270895e-07,2.734588526834077e-07,1.0480363881057686e-05
3.0947560657402807e-07,2.831818335604024e-07,2.7217139096248745e-07,1.0783391389980267e-05
3.0883584366120065e-07,2.829455320174513e-07,2.7089383044338695e-07,1.109347700580018e-05
3.081401184176287e-07,2.827160754816432e-07,2.6963151511101606e-07,1.1408492668541827e-05
3.073930819447543e-07,2.8249808537355215e-07,2.6838980177536147e-07,1.172632207461891e-05
3.0660079909609445e-07,2.8229685572461e-07,2.671736943143497e-07,1.2044923447604891e-05
3.057698035333969e-07,2.8211686771260607e-07,2.6598772083599246e-07,1.236234241345388e-05
3.049057194890444e-07,2.8196155200509055e-07,2.6483613658752e-07,1.2676699454505713e-05
3.040127839916068e-07,2.8183278949809744e-07,2.6372221216243854e-07,1.2986179004386896e-05
3.030943710586496e-07,2.817301836116974e-07,2.626474754734551e-07,1.3289018190974832e-05
3.0215364229452857e-07,2.8165074247394424e-07,2.616116905059164e-07,1.3583505038228516e-05
3.0119465906768516e-07,2.815895174376472e-07,2.6061320110875487e-07,1.3867997262474506e-05
3.0022294034349377e-07,2.815409538760049e-07,2.59649482589928e-07,1.4140965185823777e-05
2.9924431486278824e-07,2.814993537608497e-07,2.5871743483978085e-07,1.4401067409667996e-05
2.982635934594041e-07,2.8145803469203174e-07,2.578135975444848e-07,1.4647230064545731e-05
2.972845278387645e-07,2.814091778699985e-07,2.5693547991199607e-07,1.4878663350246161e-05
2.9631039985812283e-07,2.813454202031152e-07,2.560827976059941e-07,1.5094808794089246e-05
2.953443897724383e-07,2.812612428483227e-07,2.5525623036682674e-07,1.5295272191564235e-05
2.943907654287465e-07,2.811524972777967e-07,2.54454957119206e-07,1.5479766054579487e-05
2.93456891201516e-07,2.810152594683143e-07,2.536757333499434e-07,1.5648062764387342e-05
2.925533558824077e-07,2.8084546955515763e-07,2.529136862029328e-07,1.5799970698548782e-05
2.916913186501186e-07,2.806389385351347e-07,2.521634424015337e-07,1.59353362288276e-05
2.9087941982241656e-07,2.803916420683446e-07,2.5141990667504485e-07,1.6054073164193368e-05
2.9012255560266136e-07,2.8010092715428054e-07,2.506784646770366e-07,1.615622461276033e-05
2.8942262483128e-07,2.797663331360156e-07,2.499346454153441e-07,1.6242047977118458e-05
2.887803092764924e-07,2.793890432091736e-07,2.491849627264877e-07,1.6312098792659602e-05
2.881968190364584e-07,2.789713211372509e-07,2.484299007396032e-07,1.6367282844600007e-05
2.8767448917836773e-07,2.7851624753803355e-07,2.476759646120041e-07,1.6408834369178928e-05
2.8721612218453625e-07,2.780275114166109e-07,2.469344453374373e-07,1.643819467598337e-05
2.868235151657337e-07,2.775105668042841e-07,2.462193299317452e-07,1.6456834630916527e-05
2.86495981384553e-07,2.7697430565687984e-07,2.455461743130779e-07,1.6466093573805688e-05
2.862297876415257e-07,2.764301481571644e-07,2.449312984767876e-07,1.6467082421546032e-05
2.860183126617039e-07,2.758892244271861e-07,2.443914798589183e-07,1.646066871115827e-05
2.858524970837497e-07,2.7536158360212176e-07,2.4394387380272997e-07,1.6447516334076467e-05
2.8572133250740625e-07,2.748582282822693e-07,2.436052238933453e-07,1.64281316099914e-05
2.856120398687608e-07,2.7439238289098074e-07,2.4339017751924466e-07,1.64029067983279e-05
2.855101280397971e-07,2.7397737382870704e-07,2.4330925789276e-07,1.6372218138407377e-05
2.853998774659653e-07,2.736235720038789e-07,2.4336780170845217e-07,1.633658548430494e-05
2.852656220119448e-07,2.733380968279085e-07,2.435664803546439e-07,1.629674452810896e-05
2.850933063292409e-07,2.731265042950225e-07,2.4390259633668464e-07,1.6253530810541587e-05
2.848710318318032e-07,2.729939217664605e-07,2.443717512581179e-07,1.62077026142326e-05
2.845885402416286e-07,2.729456882500798e-07,2.449703226638439e-07,1.6159897713723984e-05
2.842369436450701e-07,2.7298805390894125e-07,2.4569759786425096e-07,1.6110798400331613e-05
2.838094159218008e-07,2.731281585117767e-07,2.465554170502112e-07,1.6061386878495326e-05
2.8330207018513736e-07,2.73372495179397e-07,2.4754599341582927e-07,1.6013055233825957e-05
2.827137579851277e-07,2.7372484621371694e-07,2.4867078928542826e-07,1.596748269178324e-05
2.820453634281329e-07,2.7418568786186986e-07,2.4993125364349496e-07,1.5926413800208992e-05
2.812997331198267e-07,2.747532438747762e-07,2.5132945415918157e-07,1.5891465253833768e-05
2.8048153320953576e-07,2.7542462804597125e-07,2.5286733128882973e-07,1.5863989980752367e-05
2.7959676485571107e-07,2.761963904866205e-07,2.5454544760098524e-07,1.5844993263927995e-05
2.7865259042729805e-07,2.770659178970089e-07,2.563625115083601e-07,1.5835091658430246e-05
2.776573290488976e-07,2.7803391098862944e-07,2.5831562981752944e-07,1.5834515341004504e-05
2.766202413033466e-07,2.791051395639946e-07,2.604000717245258e-07,1.5843147140924828e-05
2.7555073631593643e-07,2.8028710839735197e-07,2.626084154968643e-07,1.5860569026526403e-05
2.744571779176828e-07,2.8158942119932484e-07,2.6493002136035873e-07,1.5886105680579983e-05
2.733462717382856e-07,2.830234498116282e-07,2.673509738701703e-07,1.5918888331134258e-05
2.722233809479403e-07,2.846004870664104e-07,2.698547525554103e-07,1.5957942665487132e-05
2.710933494101061e-07,2.863301865273078e-07,2.7242434440095266e-07,1.6002267345458577e-05
2.6996123498346e-07,2.882203909162649e-07,2.750443705677548e-07,1.6050885763041074e-05
2.688323663759535e-07,2.902768133657444e-07,2.777009453920073e-07,1.610289361163001e-05
2.6771210609698657e-07,2.925020728842805e-07,2.803804345984148e-07,1.615751143292074e-05
2.6660621088488303e-07,2.948947710693509e-07,2.8306891315881696e-07,1.6214106097028e-05
2.655216355872713e-07,2.974507511631993e-07,2.8575145332859267e-07,1.6272164307601578e-05
2.644668010212735e-07,3.001670270748516e-07,2.884114088631918e-07,1.6331253066109633e-05
2.634504714142809e-07,3.030437383056131e-07,2.910311482416665e-07,1.639099192152597e-05
2.624802631373002e-07,3.0608153289441554e-07,2.93593572096465e-07,1.6451028802783762e-05
2.615630711127573e-07,3.092780999388984e-07,2.960827577245892e-07,1.6511009378016482e-05
2.6070611697754013e-07,3.126276036627617e-07,2.98483586121984e-07,1.657053599202625e-05
2.599160176520134e-07,3.1612302102026294e-07,3.0078131934605604e-07,1.6629125184653672e-05
2.591973994168725e-07,3.197589866833538e-07,3.029613955721199e-07,1.668620924190599e-05
2.585528585797766e-07,3.235329125143328e-07,3.050091139985998e-07,1.6741220757193736e-05
2.579836828027445e-07,3.2744383977847355e-07,3.0690989397002337e-07,1.6793704679245325e-05
2.574904537032843e-07,3.31489667868861e-07,3.0865036293640344e-07,1.684335731596333e-05
2.570728766903805e-07,3.356642124523568e-07,3.102189747583232e-07,1.6889986363385806e-05
2.567293568280148e-07,3.399558832001025e-07,3.116059449966669e-07,1.6933468949193952e-05
2.564572341505804e-07,3.4434929828906104e-07,3.128030913858932e-07,1.6973745967552976e-05
2.562528713759953e-07,3.48828725792311e-07,3.138037811629191e-07,1.7010835541216488e-05
2.561110514635436e-07,3.5337931425040724e-07,3.146040866401198e-07,1.7044842253109526e-05
2.5602482249865926e-07,3.579846793741169e-07,3.152045306280313e-07,1.7075929111003454e-05
2.559860056770486e-07,3.626243873273267e-07,3.156098168261886e-07,1.7104232926521425e-05
2.559857735097229e-07,3.67273868107353e-07,3.1582669157965853e-07,1.7129767530079845e-05
2.5601525834350864e-07,3.7190587299018004e-07,3.1586193875470626e-07,1.7152388400761014e-05
2.560655874615683e-07,3.7649203506246564e-07,3.157215664414187e-07,1.7171853837994955e-05
2.5612769896428964e-07,3.810036424193799e-07,3.154109396678522e-07,1.718795175205182e-05
2.561935277062941e-07,3.8541234940141395e-07,3.1493479017253763e-07,1.7200598568100682e-05
2.5625745863896056e-07,3.896923376987311e-07,3.142972065876957e-07,1.720982911025844e-05
2.563162058599582e-07,3.9382234939629973e-07,3.1350194220333873e-07,1.7215697827253275e-05
2.5636821286606513e-07,3.977849365485709e-07,3.125523188376389e-07,1.7218175223801398e-05
2.564135606104994e-07,4.015640634950838e-07,3.114512159612327e-07,1.7217099001290647e-05
2.564538901414853e-07,4.051435801557823e-07,3.102019609850248e-07,1.7212186939399602e-05
2.5649221194711176e-07,4.085068374394133e-07,3.088088611491972e-07,1.720307288696213e-05
2.565325628406469e-07,4.116367907034925e-07,3.0727678315681117e-07,1.7189356150904782e-05
2.5657956140635467e-07,4.145166042686784e-07,3.05611222248345e-07,1.7170738623404457e-05
2.5663805242593907e-07,4.1713081258256286e-07,3.0381907844751e-07,1.714724584975671e-05
2.567125059594974e-07,4.1946601990672187e-07,3.019090368211768e-07,1.7119337484071047e-05
2.56806495138668e-07,4.21510296041757e-07,2.9989126946956496e-07,1.7087781002451473e-05
2.5692274387006944e-07,4.2325244605106456e-07,2.977768915556092e-07,1.705341648503013e-05
2.570629915064004e-07,4.246824478623021e-07,2.955779351081278e-07,1.701698050212663e-05
2.572278486474915e-07,4.257923286536883e-07,2.933078431060539e-07,1.697905528355806e-05
2.574176692007589e-07,4.2657622636873384e-07,2.9098155889197214e-07,1.6940191449000683e-05
2.5763393441405664e-07,4.2702969127383243e-07,2.8861538540487226e-07,1.6901147013743515e-05
2.578801062875184e-07,4.2714895066883814e-07,2.862265678528193e-07,1.6863015207204658e-05
2.5816116014711496e-07,4.269304989866419e-07,2.838317151546859e-07,1.6827137193990892e-05
2.584815208926279e-07,4.263712113757089e-07,2.8144534425880226e-07,1.6794937611442543e-05
2.5884301570790804e-07,4.254689859713025e-07,2.7908015073599767e-07,1.6767800863188307e-05
2.5924500721888585e-07,4.242231653801875e-07,2.767478759900898e-07,1.6746984903092688e-05
2.596863491268161e-07,4.226339947513513e-07,2.74459486565008e-07,1.6733548163620836e-05
2.6016638879015797e-07,4.207020410298517e-07,2.722253875410683e-07,1.6728285775018832e-05
2.606839907244014e-07,4.1842879617132437e-07,2.700560377328514e-07,1.6731683652143922e-05
2.612365666568538e-07,4.158175733939061e-07,2.6796218414092326e-07,1.674389681384898e-05
2.618200466569041e-07,4.128736188830481e-07,2.6595474634320195e-07,1.6764756311838265e-05
2.624290034836768e-07,4.096039000127903e-07,2.640442831093523e-07,1.679381410598999e-05
2.630570540163702e-07,4.06016882125868e-07,2.622397238450005e-07,1.6830413272194495e-05
2.636976423091e-07,4.0212200463058894e-07,2.6054753505942984e-07,1.6873742336690242e-05
2.6434428527248894e-07,3.9792896361689575e-07,2.589723371003345e-07,1.6922857508927677e-05
2.649903083859005e-07,3.93447492331477e-07,2.575178425771375e-07,1.6976710875589786e-05
2.6562869912183497e-07,3.886878868807303e-07,2.5618695043689744e-07,1.7034226858723264e-05
2.6625184538518285e-07,3.8366147293395703e-07,2.549819067584055e-07,1.7094401968723213e-05
2.668511209336894e-07,3.7838050993953643e-07,2.5390452386959045e-07,1.715636145107334e-05
2.6741675463896817e-07,3.728580068610508e-07,2.52955177795699e-07,1.721936321555542e-05
2.6793814829067e-07,3.6710785005711066e-07,2.5213177882928984e-07,1.7282793648053945e-05
2.684044436110803e-07,3.611448847642e-07,2.5142983073106084e-07,1.7346172805074967e-05
2.688050957556124e-07,3.549846623070044e-07,2.508425833406284e-07,1.7409145094033487e-05
2.69130321509281e-07,3.4864388882604426e-07,2.503613044639552e-07,1.7471434205390084e-05
2.693711177091693e-07,3.4214196848211306e-07,2.4997597850287037e-07,1.7532767194906044e-05
2.695190507694767e-07,3.3550151368353874e-07,2.496756954113162e-07,1.7592800933714676e-05
2.695664634667098e-07,3.2874663759901985e-07,2.4944886702484196e-07,1.7651104506340797e-05
2.6950707250774326e-07,3.219007209254549e-07,2.492840147954073e-07,1.7707200705494503e-05
2.6933669989707284e-07,3.1498547352457585e-07,2.491709488151568e-07,1.7760594975709772e-05
2.6905369242378725e-07,3.08022144685513e-07,2.4910212240165185e-07,1.781076356081438e-05
2.6865835635191656e-07,3.0103455453518553e-07,2.490736735263476e-07,1.7857147660304013e-05
2.681521834616128e-07,2.940513023525233e-07,2.490846152696149e-07,1.789917645166824e-05
2.675384304000817e-07,2.871052009005988e-07,2.491348842668437e-07,1.7936295417344534e-05
2.668236654094948e-07,2.802313684439508e-07,2.492245542952785e-07,1.7967969862188e-05
2.660183106510049e-07,2.734649131003121e-07,2.49353406893706e-07,1.7993654083836246e-05
2.651350534293567e-07,2.668381511135592e-07,2.49519542206778e-07,1.801275392916631e-05
2.6418629044951496e-07,2.6037932012576504e-07,2.497184754243879e-07,1.802461713505614e-05
2.6318275380255973e-07,2.5411336883269075e-07,2.499439227215645e-07,1.8028559338024124e-05
2.621335713332198e-07,2.480622114655177e-07,2.501896373858756e-07,1.802393297391703e-05
2.6104660102050146e-07,2.422435266653664e-07,2.504513329639709e-07,1.801022973142786e-05
2.5992855090898764e-07,2.366701308119873e-07,2.5072747839628826e-07,1.7987140695841952e-05
2.5878506434146645e-07,2.3135120484156828e-07,2.5101807009266177e-07,1.795450937763146e-05
2.5762090923121693e-07,2.2629433918835568e-07,2.5132266516576507e-07,1.7912237252711005e-05
2.5644009265057933e-07,2.2150661807142768e-07,2.5163959219244525e-07,1.7860254088837588e-05
2.552460313626325e-07,2.169943062761263e-07,2.5196628915652733e-07,1.7798556837769333e-05
2.540420395760847e-07,2.127625615570509e-07,2.522994802772293e-07,1.7727231326572303e-05
2.528315560491618e-07,2.0881615152601935e-07,2.5263470686258715e-07,1.7646421674440947e-05
2.5161786766797316e-07,2.0515962844032054e-07,2.5296609931513533e-07,1.7556288732699492e-05
2.504047958085472e-07,2.017960860145765e-07,2.5328728444607657e-07,1.7457044305625953e-05
2.491993457620399e-07,1.987265245846368e-07,2.535925109733068e-07,1.7349109816996702e-05
2.480142213607916e-07,1.9595030819876828e-07,2.538765289435109e-07,1.7233257586125514e-05
2.4686740027633627e-07,1.9346514541363312e-07,2.541343010644e-07,1.7110547413578758e-05
2.45779202906851e-07,1.9126695508323532e-07,2.543624035680284e-07,1.6982117748023985e-05
2.4476935551262193e-07,1.893505873610241e-07,2.545608569354217e-07,1.6849015327110052e-05
2.4385491876115604e-07,1.877108362317452e-07,2.5473268432512195e-07,1.6712159546355794e-05
2.4304878302434677e-07,1.8634289306223773e-07,2.5488144225794097e-07,1.6572486355674738e-05
2.423593838771363e-07,1.852422570061427e-07,2.5500919417530426e-07,1.643119500223244e-05
2.4179215915699877e-07,1.844049049182554e-07,2.5511591686593997e-07,1.6289870152371577e-05
2.4135184993268085e-07,1.8382749265959682e-07,2.551997045547617e-07,1.6150385153277333e-05
2.4104402340803465e-07,1.835063056632947e-07,2.5525698782838213e-07,1.60147187551097e-05
2.4087473521470145e-07,1.8343548122175145e-07,2.5528253682819084e-07,1.5884798202328682e-05
2.408486032192908e-07,1.8360644708219961e-07,2.5526981097050296e-07,1.5762378882182324e-05
2.409669602765977e-07,1.8400889790946149e-07,2.552119058311613e-07,1.5648956136972876e-05
2.412276723103324e-07,1.8463182595152442e-07,2.551024022568137e-07,1.5545703301733716e-05
2.4162604157545826e-07,1.854641654947225e-07,2.5493564277226964e-07,1.5453434260791832e-05
2.421551204094812e-07,1.864954358981129e-07,2.547067447682138e-07,1.5372601165910212e-05
2.428054988286461e-07,1.877153205791699e-07,2.544115346784561e-07,1.5303321829018956e-05
2.435660053893583e-07,1.891120032548847e-07,2.540464029926632e-07,1.5245423617133936e-05
2.444261382509863e-07,1.9067142614791285e-07,2.536090858707417e-07,1.5198503589506103e-05
2.453790629963017e-07,1.923791284524596e-07,2.531005619999281e-07,1.5162000320057001e-05
2.4642209491735365e-07,1.9422334435365863e-07,2.5252536283078644e-07,1.5135264712687286e-05
2.475542576206096e-07,1.961959777290421e-07,2.518896490375025e-07,1.5117622034430355e-05
2.487743911040033e-07,1.98290717926356e-07,2.512000170412384e-07,1.5108423630633694e-05
2.5008043341876976e-07,2.0050079715403687e-07,2.504631574210392e-07,1.5107090795517847e-05
2.5146834177061557e-07,2.0281780920164692e-07,2.496847351724318e-07,1.5113144886500556e-05
2.529321378185189e-07,2.0523119737243048e-07,2.488684546773417e-07,1.5126207132735376e-05
2.544659392375993e-07,2.077281177633813e-07,2.480161657705373e-07,1.5145965986465353e-05
2.560657773923029e-07,2.102939690618361e-07,2.471286789753094e-07,1.5172126420512228e-05
2.577290952516791e-07,2.1291320123425452e-07,2.4620688749811987e-07,1.5204354511740992e-05
2.59453092175873e-07,2.1556974348114133e-07,2.452525156129419e-07,1.5242229642403906e-05
2.6123579377394296e-07,2.1824761696369987e-07,2.4426812338849386e-07,1.5285221668987514e-05
2.63079850835818e-07,2.209320191156284e-07,2.432563584191223e-07,1.533273059579278e-05
2.6499453976277836e-07,2.2360985101825236e-07,2.422192232437116e-07,1.5384200043104627e-05
2.6699450966470406e-07,2.2626934482224517e-07,2.4115860359051906e-07,1.543921435247905e-05
2.690970476586955e-07,2.2890047984020338e-07,2.4007745698038076e-07,1.5497484355159917e-05
2.713184839022966e-07,2.314966307814111e-07,2.389802145359179e-07,1.5558749479342824e-05
2.736706464001363e-07,2.3405494449152654e-07,2.378726003757472e-07,1.5622676879840264e-05
2.7615889543884165e-07,2.365749454096263e-07,2.3676131016147018e-07,1.568880067747021e-05
2.787822154966023e-07,2.390572820023923e-07,2.3565340027368627e-07,1.5756533479485183e-05
2.815355816856503e-07,2.4150300206050173e-07,2.3455578461466516e-07,1.5825257688670327e-05
2.8441329414027186e-07,2.439129352967547e-07,2.3347481843681502e-07,1.589441758374989e-05
2.8741026215021076e-07,2.46286871685738e-07,2.3241573229336506e-07,1.596353397420925e-05
2.905210632576423e-07,2.4862276992685516e-07,2.3138289543308362e-07,1.6032170469881634e-05
2.937398054467705e-07,2.509170477392885e-07,2.3038098382164856e-07,1.6099894797723255e-05
2.970611058510641e-07,2.5316559478679444e-07,2.2941530242542852e-07,1.61662345043565e-05
3.0047951496270555e-07,2.5536429434196895e-07,2.2849089214808988e-07,1.623064889106285e-05
3.039876643184061e-07,2.575088278012288e-07,2.276118425429831e-07,1.6292534406773082e-05
3.075754493281786e-07,2.595940428781397e-07,2.267819058941119e-07,1.6351243431846034e-05
3.112300735730491e-07,2.616135019473443e-07,2.2600620974612079e-07,1.6406102590877066e-05
3.14935867481529e-07,2.63559667689718e-07,2.2529170261762896e-07,1.6456441358922672e-05
3.186741806190909e-07,2.654253256603048e-07,2.2464487326649605e-07,1.6501639645690334e-05
3.224238324104452e-07,2.672062566887586e-07,2.2406929447367197e-07,1.6541163668156494e-05
3.2616164538685195e-07,2.689024675125078e-07,2.235652430919747e-07,1.6574565824580712e-05
3.298626036078016e-07,2.705163042601364e-07,2.231307268757033e-07,1.6601472272243776e-05
3.335000863478095e-07,2.720498880068998e-07,2.2276299962013002e-07,1.6621567915042093e-05
3.3704654100858464e-07,2.7350396791155875e-07,2.2245971188632078e-07,1.663456263941755e-05
3.4047431254706004e-07,2.748778488164128e-07,2.2221899814667263e-07,1.664015099571441e-05
3.4375644999941977e-07,2.761698782300956e-07,2.2203944712830654e-07,1.6637989481771567e-05
3.468681265937336e-07,2.7737825510387693e-07,2.2192066241550408e-07,1.6627689683112343e-05
3.4978873316158966e-07,2.785023670356143e-07,2.2186322004681849e-07,1.6608828083309433e-05
3.5250245997607004e-07,2.7954427069318085e-07,2.2186754331274147e-07,1.6581005621722305e-05
3.5499662476785164e-07,2.80508546074617e-07,2.219330683743297e-07,1.6543987281407107e-05
3.572609707302107e-07,2.8140081417113105e-07,2.220584313148581e-07,1.6497844149172707e-05
3.592898877670942e-07,2.8222654417835625e-07,2.222420070446617e-07,1.6442950517957962e-05
3.610852246072871e-07,2.829900528741045e-07,2.2248266379576997e-07,1.6379848667208395e-05
3.626565167452649e-07,2.836938839179028e-07,2.2278091586089787e-07,1.6309120971783686e-05
3.640182672886682e-07,2.84338861276738e-07,2.2313920065014962e-07,1.6231319086372644e-05
3.651869130391775e-07,2.8492426684539405e-07,2.2356034001771327e-07,1.6146925495004145e-05
3.6617955249191886e-07,2.8544797303715585e-07,2.240456259892682e-07,1.6056331252403545e-05
3.6701376371531524e-07,2.859066763310989e-07,2.2459435220594816e-07,1.5959826689427607e-05
3.6770689812222143e-07,2.862964892923725e-07,2.2520451586648712e-07,1.5857601344939834e-05
3.682744519541842e-07,2.866135040804777e-07,2.2587309376521988e-07,1.574975366207482e-05
3.6872874911415183e-07,2.8685445947590306e-07,2.2659589815820818e-07,1.5636327052148886e-05
3.69079152021085e-07,2.870185599810836e-07,2.2736799760422512e-07,1.5517368785415194e-05
3.693331314073765e-07,2.871087045067077e-07,2.2818410318167213e-07,1.5392965530834316e-05
3.69496814211834e-07,2.871298030177236e-07,2.2903856036656432e-07,1.526322519082302e-05
3.695748625354511e-07,2.870860514860305e-07,2.2992583466778568e-07,1.5128238975460965e-05
3.6957008581385756e-07,2.869797763923629e-07,2.3084092286824125e-07,1.4988066081770435e-05
3.694836975779232e-07,2.868117958432796e-07,2.317788445806553e-07,1.4842744041061469e-05
3.6931773805081713e-07,2.8658274279655673e-07,2.3273471580195732e-07,1.46923116047614e-05
3.690781441064688e-07,2.862948690609036e-07,2.3370492760903873e-07,1.4536841026710752e-05
3.687745165109713e-07,2.859528647166479e-07,2.346872814220058e-07,1.437649008659298e-05
3.684168329093515e-07,2.8556306880567697e-07,2.3567990537920998e-07,1.4211556737397937e-05
3.6801288276381175e-07,2.8513215752068026e-07,2.3668083670252075e-07,1.4042487610454786e-05
3.675678515429749e-07,2.846662642616985e-07,2.3768811957097105e-07,1.3869825276946176e-05
3.6708455892256986e-07,2.8417055668016845e-07,2.387000658312997e-07,1.3694128330580376e-05
3.665631060795404e-07,2.836489185214306e-07,2.39716163482812e-07,1.3515905681039314e-05
3.660007985734167e-07,2.831039459914856e-07,2.407369428550222e-07,1.3335588277887245e-05
3.653933246950554e-07,2.8253713342783514e-07,2.417620047497187e-07,1.3153536189112735e-05
3.647364643079089e-07,2.819489327850044e-07,2.427886918665716e-07,1.2970060502525654e-05
3.640270124667682e-07,2.813396064926484e-07,2.4381234034114853e-07,1.2785442979117274e-05
3.632621977606457e-07,2.807102143324495e-07,2.448269501253504e-07,1.2599952367248646e-05
3.624385448515101e-07,2.800620592872522e-07,2.4582620342846544e-07,1.2413868646899273e-05
3.6155174473091006e-07,2.793954848289557e-07,2.468049479461626e-07,1.2227516754131697e-05
3.605968781320361e-07,2.7870958702684324e-07,2.4776026341148637e-07,1.2041299690362864e-05
3.5956787011711113e-07,2.780031415170677e-07,2.486909232825208e-07,1.1855716554732265e-05
3.584572462907188e-07,2.7727572170184133e-07,2.4959543870209516e-07,1.1671338096086105e-05
3.5725704403001364e-07,2.7652788062656e-07,2.504708982487325e-07,1.1488750869080936e-05
3.559601457368287e-07,2.757608821322122e-07,2.513132608843994e-07,1.130852021481223e-05
3.545612343478842e-07,2.749767292060976e-07,2.521173728884798e-07,1.113117291620932e-05
3.530568485843521e-07,2.7417820278954967e-07,2.528763806862177e-07,1.0957182195160665e-05
3.514446059948545e-07,2.733682431273317e-07,2.5358186188959143e-07,1.0786971784270776e-05
3.497223727640088e-07,2.7254875732614843e-07,2.542252598682315e-07,1.062093438042765e-05
3.4788784833214677e-07,2.717198701405132e-07,2.547993554162386e-07,1.0459446993595855e-05
3.4593859657998255e-07,2.70880324487677e-07,2.552981804505743e-07,1.0302880849187331e-05
3.438724536903288e-07,2.700286765360057e-07,2.557161306559331e-07,1.015158706024014e-05
3.4168831137670324e-07,2.6916437333794173e-07,2.560480493500091e-07,1.00058641921781e-05
3.393869416141493e-07,2.682879173541641e-07,2.562898669354024e-07,9.865945503687613e-06
3.369708345397205e-07,2.6739981735984077e-07,2.564387861472423e-07,9.732002369803217e-06
3.344431788964929e-07,2.664992330022066e-07,2.564938633541145e-07,9.604135552286133e-06
3.3180709308186896e-07,2.6558390770209133e-07,2.5645763528231693e-07,9.482353407511363e-06
3.290652479658312e-07,2.6465174942754986e-07,2.563376504276836e-07,9.366559149957626e-06
3.2621984579635225e-07,2.6370241340922706e-07,2.561458553092116e-07,9.256563667501311e-06
3.2327288859568963e-07,2.627370377544497e-07,2.5589542823949305e-07,9.152117660420693e-06
3.202263261589808e-07,2.6175722402724484e-07,2.5559822948825925e-07,9.05294416109404e-06
3.1708216281867326e-07,2.6076538318338407e-07,2.5526524511633674e-07,8.958767517350566e-06
3.1384250840118286e-07,2.597652123175376e-07,2.549077706602711e-07,8.86936395390718e-06
3.105096664226109e-07,2.587606476038589e-07,2.545368432595932e-07,8.784668360154235e-06
3.070875050501472e-07,2.5775455390756477e-07,2.541621239302177e-07,8.704895504638877e-06
3.035837551673359e-07,2.567482692062136e-07,2.537920397259001e-07,8.630531593467529e-06
3.000104153088125e-07,2.557416150141727e-07,2.534345037100534e-07,8.56216578390262e-06
2.9638207552189667e-07,2.547336643363068e-07,2.5309687826728565e-07,8.500326116731447e-06
2.927145947322565e-07,2.537245190909207e-07,2.527852516485495e-07,8.445426645132429e-06
2.890242881679812e-07,2.527162832284418e-07,2.525037495463789e-07,8.397773343012749e-06
2.8532662627320647e-07,2.5171265676070565e-07,2.5225475698436843e-07,8.35755590248519e-06
2.816351249893002e-07,2.5071950555707056e-07,2.520403195362629e-07,8.324828966262964e-06
2.779614458298984e-07,2.497462507867643e-07,2.5186303359153326e-07,8.299522244174212e-06
2.7431638631703263e-07,2.488048223865088e-07,2.517253133341478e-07,8.281473890286612e-06
2.707104448591407e-07,2.4790620271073443e-07,2.516282026404664e-07,8.270458380765404e-06
2.671536148744128e-07,2.470582573240243e-07,2.5157060514615886e-07,8.266215198925081e-06
2.636553918014364e-07,2.462662989526197e-07,2.515491263030437e-07,8.268499675423906e-06
2.602253186155225e-07,2.455350917284927e-07,2.5155873174514204e-07,8.277142021835475e-06
2.56873657181954e-07,2.4487076206444714e-07,2.515937561701852e-07,8.292074383266105e-06
2.5361174386853035e-07,2.442804801676439e-07,2.5164881190212194e-07,8.31331649968089e-06
2.504515325335781e-07,2.437699121714518e-07,2.517198389845923e-07,8.340948974219111e-06
2.474048664565636e-07,2.4334162291908e-07,2.518050203611609e-07,8.375083840117663e-06
2.444833356534334e-07,2.429954821133461e-07,2.519045979625112e-07,8.415814257454648e-06
2.4169811913871e-07,2.427291359338734e-07,2.520197669410737e-07,8.463152706753706e-06
2.390598837409693e-07,2.425380380497682e-07,2.52151709844755e-07,8.516990526208044e-06
2.3657992828478512e-07,2.4241634367185017e-07,2.5230090978852263e-07,8.577087753061004e-06
2.342710983287168e-07,2.423582543132861e-07,2.524666403223837e-07,8.64308200548064e-06
2.3214594679727731e-07,2.423584899174469e-07,2.5264742044391106e-07,8.714497629369989e-06
2.3021373980933504e-07,2.4241283560021525e-07,2.528423607913782e-07,8.790745290923566e-06
2.2847943243947266e-07,2.4251917648842e-07,2.5305190755326264e-07,8.871137362769063e-06
2.2694423355260162e-07,2.4267788416296766e-07,2.532780811470885e-07,8.954938956851726e-06
2.256061806903933e-07,2.4289184974150673e-07,2.535249254135205e-07,9.04142762374752e-06
2.2446064890227681e-07,2.431663714110714e-07,2.5379787039871716e-07,9.129920950931703e-06
2.2350123841302182e-07,2.435082912449168e-07,2.541017028595913e-07,9.21976670084651e-06
2.2272106273244968e-07,2.439244160111204e-07,2.54438970098032e-07,9.310329127361824e-06
2.2211371745537386e-07,2.444201738579474e-07,2.548098214138483e-07,9.400993960583028e-06
2.2167375130600481e-07,2.449995888134818e-07,2.552123978416891e-07,9.491176869764058e-06
2.213967489597743e-07,2.456653849832584e-07,2.556430809740784e-07,9.580309890118096e-06
2.2127896326319442e-07,2.464178810513996e-07,2.560976668201585e-07,9.667823092560003e-06
2.213169745014555e-07,2.4725433247555033e-07,2.565734172413404e-07,9.753171708537323e-06
2.2150704024926423e-07,2.481698649797657e-07,2.570702951021339e-07,9.835885386992817e-06
2.2184440189632048e-07,2.49158486110825e-07,2.5759077582275764e-07,9.915565776758479e-06
2.223235964968892e-07,2.5021318587774427e-07,2.5813826724073647e-07,9.991848990570996e-06
2.229384711562068e-07,2.5132599980758197e-07,2.587149559238212e-07,1.0064414700373993e-05
2.2368091756039768e-07,2.524885986636993e-07,2.593206239964815e-07,1.0133037301201296e-05
2.2454033118806557e-07,2.536929274028349e-07,2.599527816990149e-07,1.019759190744787e-05
2.255051639775925e-07,2.549314780223287e-07,2.606075060794425e-07,1.0258002833200067e-05
2.2656465963775612e-07,2.561970570289165e-07,2.612799909016496e-07,1.0314199722565676e-05
2.277087203994748e-07,2.5748266577849557e-07,2.619644991435689e-07,1.0366099064026393e-05
2.289275166332309e-07,2.5878262927637425e-07,2.626545366552061e-07,1.0413585485409661e-05
2.3021349534348588e-07,2.600938065043702e-07,2.633436815242547e-07,1.0456501054229013e-05
2.315644488555924e-07,2.614145128303544e-07,2.640267693887401e-07,1.0494674436415164e-05
2.329834857906494e-07,2.6274220962969684e-07,2.6470001499563215e-07,1.0527981129716346e-05
2.344750008929277e-07,2.640724202952911e-07,2.65359482918131e-07,1.055639674525626e-05
2.3604059911252226e-07,2.6539921964017247e-07,2.660000194051359e-07,1.0580013357595793e-05
2.376784236128308e-07,2.6671684354346124e-07,2.66615807708214e-07,1.0598994660338885e-05
2.393851858324764e-07,2.680210792118216e-07,2.672017586534136e-07,1.0613487135684241e-05
2.4115778019748585e-07,2.693087775428581e-07,2.677552019009813e-07,1.0623562450350161e-05
2.429928062795045e-07,2.7057640433148196e-07,2.682765298831548e-07,1.0629258229044199e-05
2.448858124706545e-07,2.7181981178010264e-07,2.687675991651472e-07,1.0630727596445692e-05
2.4683202476007673e-07,2.730350824722709e-07,2.6922988926491644e-07,1.0628411618350079e-05
2.4882720733948897e-07,2.7421890334673036e-07,2.6966472995762077e-07,1.0623072491511188e-05
2.508671571272644e-07,2.753689356400025e-07,2.700744342662306e-07,1.0615655056698426e-05
2.529467825474132e-07,2.7648500165701644e-07,2.704622325338612e-07,1.0607118622973683e-05
2.5506033066603496e-07,2.775692089535234e-07,2.7083090383395517e-07,1.0598324026849088e-05
2.572023992041829e-07,2.78624091101193e-07,2.711811494894054e-07,1.0589962425581267e-05
2.593682387609237e-07,2.7965100703068874e-07,2.7151110216135104e-07,1.0582521123056333e-05
2.615530444763725e-07,2.8064971382852695e-07,2.718185870521513e-07,1.0576286628240982e-05
2.637513656082094e-07,2.8161813478235257e-07,2.721048345662537e-07,1.0571366030173967e-05
2.65957228618726e-07,2.8255245636477253e-07,2.723750783909914e-07,1.0567709212503336e-05
2.6816460142538265e-07,2.834476211118895e-07,2.726355314671677e-07,1.0565140117037593e-05
2.703679852404766e-07,2.8429742610964487e-07,2.728909000854354e-07,1.0563401086268954e-05
2.725620982460776e-07,2.850943215096589e-07,2.7314354008021693e-07,1.0562179552514527e-05
2.747403022481634e-07,2.858297707530089e-07,2.73392916259528e-07,1.0561101795722733e-05
2.7689368048477484e-07,2.864953843428211e-07,2.7363603941190554e-07,1.05597231724946e-05
2.790112697980986e-07,2.870836047548848e-07,2.738694964358111e-07,1.0557537633939534e-05
2.810803145301435e-07,2.8758733930388517e-07,2.740914036605289e-07,1.0553997641454235e-05
2.830866095458745e-07,2.8800022728175674e-07,2.7430163844526317e-07,1.0548533708874588e-05
2.850155370309777e-07,2.8831822425266505e-07,2.745008947428587e-07,1.0540580093754432e-05
2.8685397968290987e-07,2.885406927466974e-07,2.7469016709804364e-07,1.0529606779312307e-05
2.8859215618291624e-07,2.8866956564574945e-07,2.748710524153402e-07,1.0515129373755698e-05
2.9022358302287226e-07,2.8870757372058e-07,2.750457889903384e-07,1.0496684868387739e-05
2.917439164704798e-07,2.886580204045134e-07,2.752170004209741e-07,1.0473806815490166e-05
2.931509258944516e-07,2.885266591798973e-07,2.7538790328720716e-07,1.0446027335149589e-05
2.944447493901089e-07,2.883231101530561e-07,2.7556223055693497e-07,1.0412904025967283e-05
2.9562701093156066e-07,2.880597528537169e-07,2.757433215578237e-07,1.0374056292924147e-05
2.967002015100091e-07,2.877495441552375e-07,2.759332045404584e-07,1.0329190158371433e-05
2.97668083612527e-07,2.874048885639377e-07,2.76132948096928e-07,1.0278105057757836e-05
2.985357424432953e-07,2.870375305620953e-07,2.7634476821967247e-07,1.0220687963445323e-05
2.99309029588374e-07,2.8665898012240463e-07,2.7657387255734647e-07,1.0156902182781414e-05
2.9999417199599837e-07,2.8628078694499716e-07,2.76827624389952e-07,1.008678219342276e-05
3.0059693318441524e-07,2.859136230328101e-07,2.7711304054474567e-07,1.0010441428563156e-05
3.0112128525333717e-07,2.85565918730642e-07,2.7743568469795657e-07,9.928104123845307e-06
3.015696455318245e-07,2.852437701504409e-07,2.778002278491642e-07,9.840159993428917e-06
3.0194518686533673e-07,2.849518541124276e-07,2.782103280563049e-07,9.747183254715193e-06
3.022539455826179e-07,2.8469373211116204e-07,2.7866734062422054e-07,9.649860704778537e-06
3.025048374638919e-07,2.844713248915952e-07,2.791693673058461e-07,9.548882137070629e-06
3.027082245314371e-07,2.8428471688016444e-07,2.79711374502135e-07,9.444886257860868e-06
3.028750148335485e-07,2.8413231689326763e-07,2.802860809766705e-07,9.338476804568736e-06
3.030163003566069e-07,2.840106803610868e-07,2.808851853792052e-07,9.230285512415422e-06
3.0314262860891616e-07,2.839149403757703e-07,2.815001889468667e-07,9.121048586391922e-06
3.03263741276964e-07,2.8384025562050336e-07,2.8212228204705036e-07,9.0116248233245e-06
3.0338906201490604e-07,2.8378270644694645e-07,2.8274192857470906e-07,8.902922793422652e-06
3.035277078076637e-07,2.837392688344423e-07,2.833491622743901e-07,8.795801241284022e-06
3.0368732494098486e-07,2.837074733140985e-07,2.839347300602832e-07,8.691021729527737e-06
3.03872584512883e-07,2.836847781398416e-07,2.844907473937747e-07,8.5892777978019e-06
3.0408474347739164e-07,2.836684935151987e-07,2.850102956604013e-07,8.491285676875475e-06
3.043224733232241e-07,2.836565434368371e-07,2.8548736294218716e-07,8.397881814047158e-06
3.045834849419923e-07,2.836474038102645e-07,2.859173901547502e-07,8.310036640924424e-06
3.0486646115177865e-07,2.836388468863971e-07,2.862975500914452e-07,8.228755077357937e-06
3.051717646362621e-07,2.836273824091609e-07,2.866261101470917e-07,8.154939570143307e-06
3.0550020296204585e-07,2.836090960532048e-07,2.869010736776993e-07,8.089313893676061e-06
3.0585165455059574e-07,2.8358071253916717e-07,2.8711999351621626e-07,8.032440443355409e-06
3.062247264771489e-07,2.835403786398268e-07,2.872808126781197e-07,7.98476936953141e-06
3.0661649758840443e-07,2.834880262222811e-07,2.8738197504015777e-07,7.946654548666603e-06
3.070219976078597e-07,2.8342468216394447e-07,2.87422550646218e-07,7.918383572200289e-06
3.0743451500676865e-07,2.833514718591129e-07,2.874023966203561e-07,7.900308191885092e-06
3.0784684455918694e-07,2.832693494170181e-07,2.8732121763519416e-07,7.893000916780443e-06
3.0825208249925123e-07,2.8317878061541035e-07,2.8717760197283284e-07,7.897250951004495e-06
3.0864341509097e-07,2.830790874528223e-07,2.869689545572596e-07,7.913898344367984e-06
3.090138798913245e-07,2.829687671869092e-07,2.866917229513181e-07,7.943664709072878e-06
3.093565604758235e-07,2.828472288494494e-07,2.863416277888745e-07,7.987052861205144e-06
3.0966430615611e-07,2.8271616419145643e-07,2.859139486778925e-07,8.04436676709742e-06
3.0992914085607336e-07,2.825789650493461e-07,2.854037000553307e-07,8.115910518950919e-06
3.101433084024333e-07,2.8243930929434163e-07,2.8480586544470575e-07,8.20222282314646e-06
3.10301816865626e-07,2.823003723151855e-07,2.841168765925044e-07,8.304112574230616e-06
3.1040320901558945e-07,2.8216450817585497e-07,2.833370646339895e-07,8.422500180085237e-06
3.104476448333989e-07,2.8203321930591296e-07,2.824711559519702e-07,8.558234236963515e-06
3.104352933794836e-07,2.8190713706843074e-07,2.8152660292361205e-07,8.711961671673306e-06
3.1036679382665e-07,2.8178611061947533e-07,2.8051245260626586e-07,8.884040846186681e-06
3.102442387835159e-07,2.816701901685504e-07,2.794386127766118e-07,9.074483005520178e-06
3.100708053322665e-07,2.815604824252468e-07,2.783146130379877e-07,9.282923348446041e-06
3.098494802655025e-07,2.81458726829062e-07,2.771492488650553e-07,9.508633011476198e-06
3.0958194756646013e-07,2.813662922598525e-07,2.75951319939988e-07,9.750560794489412e-06
3.092677144072477e-07,2.812832940716777e-07,2.7472994392529093e-07,1.000737715160456e-05
3.089040422966795e-07,2.812084156149601e-07,2.734941407321055e-07,1.0277515194401184e-05
3.0848717736221586e-07,2.811391821818328e-07,2.7225245310330204e-07,1.0559217875818524e-05
3.080141407735721e-07,2.81072326543904e-07,2.7101246926148066e-07,1.085058410652405e-05
3.0748417089142307e-07,2.81005474869908e-07,2.697803042733369e-07,1.1149603244036957e-05
3.0689916713060737e-07,2.8093949509123074e-07,2.685611952411056e-07,1.1454199063833945e-05
3.062631303332917e-07,2.808784195108441e-07,2.673603078801095e-07,1.1762301815076985e-05
3.055814607268498e-07,2.8082709126020586e-07,2.661824288890877e-07,1.207190848890032e-05
3.048600194012273e-07,2.8078967010652406e-07,2.650319031967389e-07,1.23810923934138e-05
3.041037246700729e-07,2.8076936712434743e-07,2.6391287261557196e-07,1.2687988884626221e-05
3.0331606883079164e-07,2.8076792188622434e-07,2.628285733230916e-07,1.299078600743185e-05
3.024996889331069e-07,2.807848703090548e-07,2.6178056585273966e-07,1.328771701096963e-05
3.016570881150132e-07,2.8081722127079905e-07,2.607686933705617e-07,1.3577062212275854e-05
3.0079180012559995e-07,2.8086007864000513e-07,2.5979140175078483e-07,1.3857169583642276e-05
2.999089593741352e-07,2.8090798443247706e-07,2.588462457923031e-07,1.4126497587509733e-05
2.9901413374617725e-07,2.809553719182062e-07,2.579301336154779e-07,1.4383690291838915e-05
2.9811197203395535e-07,2.809957071289433e-07,2.5703955352740946e-07,1.4627656702797916e-05
2.97206130672862e-07,2.81021342760339e-07,2.561719645949252e-07,1.4857587614699317e-05
2.9629982367116807e-07,2.8102514324072844e-07,2.553270753776365e-07,1.5072902260544434e-05
2.9539616983580657e-07,2.8100189559893745e-07,2.545056043378461e-07,1.5273179948844448e-05
2.944993874850073e-07,2.809478217792698e-07,2.537068028857414e-07,1.5458101666034627e-05
2.936168262794166e-07,2.808593958225391e-07,2.529275406754102e-07,1.5627403103882184e-05
2.9275911066551e-07,2.807329504568066e-07,2.521631216695736e-07,1.5780851485028775e-05
2.919374809764833e-07,2.805646718133782e-07,2.514083965833196e-07,1.5918249826803338e-05
2.91160706374712e-07,2.803509002361644e-07,2.506584965578784e-07,1.603946939940199e-05
2.9043388003497646e-07,2.8008934165013644e-07,2.4990901458172197e-07,1.6144513023549654e-05
2.8975917289917887e-07,2.797798778186329e-07,2.491556741532528e-07,1.623359955074597e-05
2.89137586674218e-07,2.794240030311441e-07,2.4839517944638425e-07,1.6307246561607148e-05
2.8857065429183624e-07,2.7902425852279594e-07,2.4762820487576324e-07,1.6366321434565964e-05
2.880609956173192e-07,2.785839810156769e-07,2.468614530160464e-07,1.6412018897209252e-05
2.8761164366282763e-07,2.781071066846653e-07,2.4610644072985174e-07,1.6445739634984785e-05
2.8722459869097253e-07,2.775993237918951e-07,2.4537743675937574e-07,1.6468913231868025e-05
2.868993876289311e-07,2.7706973295193137e-07,2.446903374939388e-07,1.648283790651061e-05
2.866325008380221e-07,2.765299433050957e-07,2.4406182923792424e-07,1.6488585208773024e-05
2.864175268126319e-07,2.759912732766329e-07,2.4350903872681927e-07,1.648698713758651e-05
2.8624559141036825e-07,2.7546396296338767e-07,2.430494276862685e-07,1.6478676946439287e-05
2.86105853153749e-07,2.74959197791276e-07,2.426999950665972e-07,1.6464134610556575e-05
2.8598569927301603e-07,2.744903697515853e-07,2.424755924353449e-07,1.644372890294715e-05
2.85870821073651e-07,2.7407096052434374e-07,2.423869044066298e-07,1.6417814313765285e-05
2.8574570357018844e-07,2.737114868939108e-07,2.424394005353512e-07,1.6386890541973997e-05
2.855949081895769e-07,2.734191932887648e-07,2.4263385384875713e-07,1.6351675586765892e-05
2.85404628915652e-07,2.731997258903733e-07,2.429676168975477e-07,1.6312990441934982e-05
2.8516322938928666e-07,2.730582688751163e-07,2.434362852404017e-07,1.6271580542977695e-05
2.848607150191376e-07,2.7300019801054397e-07,2.440361926897761e-07,1.6228069810936082e-05
2.844884592232276e-07,2.73031793751268e-07,2.447665659354037e-07,1.618312485868815e-05
2.8403989655316894e-07,2.731602267985004e-07,2.456291805144577e-07,1.6137711549477798e-05
2.8351140311993927e-07,2.73392026203636e-07,2.466261827445564e-07,1.6093206056997786e-05
2.8290209239113905e-07,2.73731021355918e-07,2.4775896032553353e-07,1.6051272683650287e-05
2.822130880323237e-07,2.741777456475903e-07,2.490288752150243e-07,1.6013642449517665e-05
2.814474252994884e-07,2.7473047326256014e-07,2.504378946039281e-07,1.5981920337436254e-05
2.806098963122277e-07,2.7538634335272173e-07,2.5198784942194555e-07,1.595745005162732e-05
2.79706577664782e-07,2.761419033072162e-07,2.536791941054288e-07,1.594123113177657e-05
2.787446819425536e-07,2.769945160370846e-07,2.555105433793925e-07,1.5933878205411e-05
2.777325766252202e-07,2.779448498297512e-07,2.574789401310436e-07,1.5935621678160732e-05
2.766795822006409e-07,2.789976502855719e-07,2.595796308136812e-07,1.594634429586002e-05
2.755951739363677e-07,2.801604172853042e-07,2.61805204676894e-07,1.596562703224935e-05
2.744877630703705e-07,2.8144277778303127e-07,2.641450503097113e-07,1.5992793879295475e-05
2.7336406327537086e-07,2.828561667815761e-07,2.6658529587355645e-07,1.6026977095675344e-05
2.722294086424075e-07,2.8441198295296943e-07,2.6910948208100984e-07,1.60672063276292e-05
2.710885952132825e-07,2.861200175312992e-07,2.717006641126339e-07,1.6112487609110862e-05
2.6994662882427624e-07,2.879882644596499e-07,2.743435213486497e-07,1.6161854261966046e-05
2.688087839915097e-07,2.90022581420394e-07,2.770242052373744e-07,1.6214413063125978e-05
2.6768036808587425e-07,2.9222571327470806e-07,2.7972909653510177e-07,1.6269395937305182e-05
2.665670852291372e-07,2.9459637180050296e-07,2.8244427082147644e-07,1.6326181098566305e-05
2.654758413653828e-07,2.9713050179895486e-07,2.851547966434681e-07,1.638426624279259e-05
2.6441501848164693e-07,2.998252131304308e-07,2.878440204667353e-07,1.6443228678628776e-05
2.6339336981132217e-07,3.026807436469752e-07,2.904942901231807e-07,1.6502697349498004e-05
2.624185450046761e-07,3.056978553179477e-07,2.930884662432343e-07,1.6562328300370232e-05
2.614975122614712e-07,3.0887437635670424e-07,2.9561056986810176e-07,1.662177329185535e-05
2.6063758443585357e-07,3.122046367651707e-07,2.980454118779253e-07,1.668063809046533e-05
2.598454615931269e-07,3.156817943322918e-07,3.003781589467636e-07,1.673844027284228e-05
2.591258230461341e-07,3.1930066093444565e-07,3.025941088046691e-07,1.6794612275675238e-05
2.584812822416987e-07,3.230588077231892e-07,3.046783757676345e-07,1.684858779080114e-05
2.579131171530268e-07,3.2695540774405023e-07,3.066161776671543e-07,1.6899914506732808e-05
2.574218845626673e-07,3.309884599808125e-07,3.083939503678303e-07,1.6948292300401254e-05
2.5700726458126124e-07,3.3515184997867014e-07,3.0999997472324465e-07,1.6993532022044053e-05
2.56667645507898e-07,3.3943403594066025e-07,3.1142430912997406e-07,1.7035512977724584e-05
2.564003549309463e-07,3.4381967480833603e-07,3.126586225962079e-07,1.707417747634831e-05
2.5620174374723505e-07,3.482930727765839e-07,3.1369613597219855e-07,1.7109544618941198e-05
2.560665856153556e-07,3.5283941662056797e-07,3.145327759460983e-07,1.7141719632277326e-05
2.559879238966397e-07,3.5744235374277507e-07,3.151689148907457e-07,1.7170865941265647e-05
2.5595757913915076e-07,3.620814711178328e-07,3.1560908902198425e-07,1.7197120880311018e-05
2.559667169118991e-07,3.6673221094003994e-07,3.158598577072524e-07,1.7220499486276932e-05
2.560064348703441e-07,3.7136732773929995e-07,3.159278136114306e-07,1.7240859755114813e-05
2.5606778610035425e-07,3.7595844024819907e-07,3.1581878700300175e-07,1.7257964002481062e-05
2.561416126316768e-07,3.8047679374254544e-07,3.155379857381664e-07,1.727160519595251e-05
2.5621975924558394e-07,3.848939678446858e-07,3.150900031832257e-07,1.7281705182475994e-05
2.562965319713869e-07,3.891840446144355e-07,3.144788003571681e-07,1.7288304101227426e-05
2.563685654877637e-07,3.9332565292849676e-07,3.1370800510172557e-07,1.729146155331753e-05
2.564342190133203e-07,3.973012267620321e-07,3.127808158202031e-07,1.7291153612100935e-05
2.5649348652345147e-07,4.0109461042339116e-07,3.11699997934528e-07,1.7287224793897742e-05
2.565479171000577e-07,4.0468953220761106e-07,3.1046878055391843e-07,1.72794011848075e-05
2.5660041879534286e-07,4.080692233971981e-07,3.090913931410925e-07,1.7267325999811502e-05
2.5665491571548423e-07,4.1121652551290433e-07,3.075726507240833e-07,1.7250608373421484e-05
2.5671591313272057e-07,4.141144936098037e-07,3.0591802515125897e-07,1.7228960104908898e-05
2.567881513952485e-07,4.167475556934974e-07,3.041344175313936e-07,1.7202416692195027e-05
2.568760028943756e-07,4.1910221392615596e-07,3.022305352839572e-07,1.7171447907388478e-05
2.569829426064765e-07,4.2116644145574397e-07,3.002165948871231e-07,1.7136831520037802e-05
2.571115993809389e-07,4.2292895083337226e-07,2.981037731133296e-07,1.7099417983880994e-05
2.5726363229853227e-07,4.2437962725922974e-07,2.9590416906144825e-07,1.7059954142858568e-05
2.574395907579424e-07,4.2551039972417386e-07,2.9363129386682053e-07,1.7019031924574876e-05
2.576397793675373e-07,4.263153038408833e-07,2.9130016571110077e-07,1.6977210392152553e-05
2.5786562994809143e-07,4.267897903557856e-07,2.8892717379511125e-07,1.6935254452595112e-05
2.581205486033999e-07,4.2692999499210894e-07,2.8652966022239707e-07,1.6894262968134682e-05
2.584094524394586e-07,4.2673232986881523e-07,2.841243373936188e-07,1.6855582005523145e-05
2.587367148502975e-07,4.2619359567248656e-07,2.817258301113089e-07,1.6820640856757152e-05
2.5910412405912577e-07,4.253116238719221e-07,2.793469502395851e-07,1.6790828733774232e-05
2.5951101382259673e-07,4.2408570043890156e-07,2.7699957121636005e-07,1.6767408913659048e-05
2.599562139020738e-07,4.225160211434433e-07,2.746948081064016e-07,1.6751445937682295e-05
2.604390525356056e-07,4.2060310346934977e-07,2.724432216947245e-07,1.6743741784704227e-05
2.609583817898813e-07,4.183483871327163e-07,2.7025542327007106e-07,1.6744789492315565e-05
2.6151160817895977e-07,4.157551329319313e-07,2.6814230572523873e-07,1.6754750848176575e-05
2.6209466442009485e-07,4.128285374005248e-07,2.6611492886832103e-07,1.677346285236334e-05
2.627021360764694e-07,4.095755229617681e-07,2.6418398603613054e-07,1.6800482404575987e-05
2.6332766550846357e-07,4.0600451479042507e-07,2.623585352369179e-07,1.6835156551676527e-05
2.6396473106300374e-07,4.0212491647026316e-07,2.606451674516301e-07,1.6876676970578877e-05
2.646068833626179e-07,3.979463961396477e-07,2.5904862625588e-07,1.6924102402392138e-05
2.6524747633642764e-07,3.934786709064739e-07,2.5757274611158924e-07,1.6976387137414318e-05
2.6587952444918905e-07,3.8873202784511977e-07,2.5622054217789805e-07,1.7032457810543157e-05
2.664954481002148e-07,3.8371778173125243e-07,2.549943656764677e-07,1.7091313321812393e-05
2.6708666165599806e-07,3.784481776634006e-07,2.5389611810821885e-07,1.715208133698686e-05
2.676434386056231e-07,3.7293621088329296e-07,2.52926246309173e-07,1.7214021883092694e-05
2.681552265117954e-07,3.671957578524428e-07,2.520827160837707e-07,1.7276522823720767e-05
2.6861121892833656e-07,3.612416612523746e-07,2.513610761291486e-07,1.7339104715818198e-05
2.6900093497161173e-07,3.550894807967349e-07,2.507546116392994e-07,1.7401411064318667e-05
2.6931466800877284e-07,3.487559420836524e-07,2.502546171045549e-07,1.7463162882504378e-05
2.6954349963710843e-07,3.4226047673445626e-07,2.498510997856557e-07,1.7524082789162062e-05
2.696790816939632e-07,3.3562572968323987e-07,2.495331736371341e-07,1.758382194072663e-05
2.697138372341239e-07,3.288758505628964e-07,2.492892772176805e-07,1.764194312607372e-05
2.6964155759355003e-07,3.2203425840370175e-07,2.4910796064772694e-07,1.7697962828081806e-05
2.69458135274052e-07,3.151226988216859e-07,2.489790616861271e-07,1.7751380382721682e-05
2.6916198325651017e-07,3.081624514487113e-07,2.4889505596929577e-07,1.7801666068036366e-05
2.6875346948861604e-07,3.011773632375288e-07,2.488520974563148e-07,1.784825514993088e-05
2.6823414762779284e-07,2.941960616836483e-07,2.4884921247955496e-07,1.7890570809354515e-05
2.676073434905057e-07,2.872513935498666e-07,2.4888635116544014e-07,1.7928052295355565e-05
2.66879702388123e-07,2.8037851938275254e-07,2.489636002641813e-07,1.7960158185618102e-05
2.660617252975801e-07,2.7361259721522453e-07,2.4908075275489416e-07,1.7986335405736947e-05
2.651661731090367e-07,2.669859960195443e-07,2.4923592069556387e-07,1.8005981928121717e-05
2.6420550693297964e-07,2.605270037904181e-07,2.494246319737857e-07,1.801843759467561e-05
2.631905141387945e-07,2.542606145380184e-07,2.496406127217064e-07,1.802301069048504e-05
2.6213037075304326e-07,2.482087817496009e-07,2.498776230346653e-07,1.801904702017918e-05
2.6103297695130424e-07,2.423892183627273e-07,2.501313835208413e-07,1.8006032070836363e-05
2.5990507467855346e-07,2.3681477211356987e-07,2.504003718454521e-07,1.798365080055841e-05
2.5875233016724554e-07,2.3149465287864552e-07,2.506845932653364e-07,1.7951740591306415e-05
2.5757952538740484e-07,2.2643647828420781e-07,2.509836116895949e-07,1.7910197018669126e-05
2.563906766906092e-07,2.2164735990666023e-07,2.512957594246544e-07,1.7858944500133927e-05
2.5518920593743574e-07,2.1713359088638592e-07,2.516184744753626e-07,1.7797975359177575e-05
2.539784261011221e-07,2.1290035764918165e-07,2.519484744621865e-07,1.7727371489478077e-05
2.527617669739952e-07,2.0895245596736783e-07,2.522812837306208e-07,1.7647273661931605e-05
2.515424983253117e-07,2.0529446424471425e-07,2.526110059672909e-07,1.7557839838792746e-05
2.503244148889532e-07,2.0192949780363266e-07,2.529312365644842e-07,1.7459279220101457e-05
2.4911448506158147e-07,1.9885857143097285e-07,2.532361925680768e-07,1.7352010760438336e-05
2.4792536753676854e-07,1.9608105453771547e-07,2.535205940102757e-07,1.72368044692229e-05
2.4677499037436874e-07,1.935946527087673e-07,2.537793753826181e-07,1.7114718142742223e-05
2.4568362423204434e-07,1.9139527762954628e-07,2.5400908418360085e-07,1.6986888646985018e-05
2.4467094942912757e-07,1.8947777189546175e-07,2.5420970857669603e-07,1.685436154947221e-05
2.437539865454888e-07,1.8783692224906736e-07,2.543842362438084e-07,1.6718055269415687e-05
2.429455907014576e-07,1.8646791219055973e-07,2.545361878288486e-07,1.6578904668860714e-05
2.422541637426942e-07,1.8536623205037497e-07,2.546675920325059e-07,1.6438107689486368e-05
2.4168510905357773e-07,1.8452784988337786e-07,2.547783930950876e-07,1.6297247590641613e-05
2.4124313359432865e-07,1.8394941354763387e-07,2.548666560410336e-07,1.6158196373993662e-05
2.40933773065127e-07,1.83627200375862e-07,2.5492878525719727e-07,1.60229316438175e-05
2.4076305423481003e-07,1.8355533815045022e-07,2.549595258834451e-07,1.5893379803010814e-05
2.4073556767280736e-07,1.8372524342730948e-07,2.5495231276022765e-07,1.5771295751666157e-05
2.4085262236836507e-07,1.84126598827486e-07,2.549002195873167e-07,1.565817469441347e-05
2.4111195788023285e-07,1.847484822822764e-07,2.5479671962227385e-07,1.555519061047597e-05
2.415087889988573e-07,1.8558028839385193e-07,2.546357782724365e-07,1.5463163323020382e-05
2.420373420865476e-07,1.866125651177751e-07,2.544120393152961e-07,1.5382570130241526e-05
2.4269173101563696e-07,1.8783651825774732e-07,2.541214531720393e-07,1.5313586245074167e-05
2.4346545124286273e-07,1.8924245707508445e-07,2.53761578020424e-07,1.5256118845801013e-05
2.443513934748855e-07,1.908196278252712e-07,2.533322617718438e-07,1.5209842913886948e-05
2.4534354773648647e-07,1.9255821645886584e-07,2.5283765597350825e-07,1.5174263836832375e-05
2.4643777275031385e-07,1.94451323970152e-07,2.522867290411182e-07,1.5148795090742566e-05
2.4763015744792186e-07,1.964944573206195e-07,2.5169102786300716e-07,1.5132827566995157e-05
2.4891545095819077e-07,1.9868359549717766e-07,2.510635045246609e-07,1.5125784248441575e-05
2.502872708853761e-07,2.010143725121084e-07,2.5041845681530473e-07,1.5127162590999527e-05
2.517386632356959e-07,2.034819093756115e-07,2.497695177515314e-07,1.5136559145555115e-05
2.532621685382268e-07,2.0607981387850442e-07,2.491275727120831e-07,1.5153661157488128e-05
2.548503910081868e-07,2.087990301466997e-07,2.4850093196403697e-07,1.5178204282386542e-05
2.564969077236572e-07,2.116281563151284e-07,2.4789624125578533e-07,1.5209918690231222e-05
2.581959203982963e-07,2.1455460349815603e-07,2.473191203473065e-07,1.524848398021716e-05
2.5994096650450346e-07,2.175646929278639e-07,2.467753111575764e-07,1.5293497964981198e-05
2.6172477043068786e-07,2.2064324679335032e-07,2.4627220555356674e-07,1.5344451466427137e-05
2.6353986363497557e-07,2.2377375891738067e-07,2.4581928128619925e-07,1.5400709091119337e-05
2.6537850490156925e-07,2.2693837855896158e-07,2.45426726529712e-07,1.5461533109076754e-05
2.6723282874596374e-07,2.3011748243275093e-07,2.45103393941814e-07,1.5526161469211953e-05
2.6909579811314147e-07,2.3328996271521028e-07,2.4485566185215524e-07,1.5593867699319908e-05
2.7096191000703586e-07,2.364345311364253e-07,2.4468755686383186e-07,1.566395223823916e-05
2.72827270217292e-07,2.395306913414026e-07,2.4460121914795827e-07,1.5735702182018406e-05
2.74689468015146e-07,2.42558535019298e-07,2.445972638992228e-07,1.5808365467113558e-05
2.7654781697774854e-07,2.4549824038593996e-07,2.446760871038944e-07,1.5881154895325633e-05
2.784033244733625e-07,2.4833012154713587e-07,2.448399242060832e-07,1.595329842813222e-05
2.8025713005558327e-07,2.510349727675284e-07,2.450934789047435e-07,1.602412521229268e-05
2.821086848033509e-07,2.535941388738841e-07,2.454425174347834e-07,1.609311425138378e-05
2.8395547244428847e-07,2.5598972042044084e-07,2.4589179481350064e-07,1.6159876347001882e-05
2.857935778790775e-07,2.5820580352133496e-07,2.4644396163426383e-07,1.6224117647674344e-05
2.876181241994238e-07,2.602296835933189e-07,2.4710022799750826e-07,1.6285593538085655e-05
2.894234933916489e-07,2.620512449186118e-07,2.478611142107589e-07,1.6344038823470976e-05
2.9120315977565505e-07,2.6366132855925283e-07,2.487261453145232e-07,1.639910162712785e-05
2.929490721648469e-07,2.650511601532263e-07,2.496936875467939e-07,1.645031912454623e-05
2.946511094543076e-07,2.662133590861028e-07,2.5076056169656657e-07,1.6497161048662797e-05
2.962970399883621e-07,2.671438051319763e-07,2.51920878703568e-07,1.6539132103876207e-05
2.978729224662418e-07,2.6784236073374555e-07,2.531655973929584e-07,1.6575871091461465e-05
2.9936470581238927e-07,2.6831136539281997e-07,2.5448294780166643e-07,1.6607181383485233e-05
3.00761309012732e-07,2.685542897907189e-07,2.5585887584601996e-07,1.6632993070889918e-05
3.020563464467081e-07,2.685766763620556e-07,2.5727815272325566e-07,1.6653292894347947e-05
3.032469699814133e-07,2.683878345163219e-07,2.587264661334677e-07,1.666805956780843e-05
3.0433261520001824e-07,2.6800081193795034e-07,2.6019210566234426e-07,1.6677254230332478e-05
3.053145532231628e-07,2.6743104274918225e-07,2.616663814336506e-07,1.6680855856198777e-05
3.0619483882928876e-07,2.6669558878461817e-07,2.6314351836657285e-07,1.6678885641930553e-05
3.0697579591544045e-07,2.6581306957671835e-07,2.6461990098139594e-07,1.6671403188674156e-05
3.0766077718147533e-07,2.6480349158371354e-07,2.660921141920604e-07,1.6658469229596685e-05
3.082543975412593e-07,2.6368722825508673e-07,2.675555252725329e-07,1.664008942682381e-05
3.087615385070515e-07,2.624831317259449e-07,2.690048068751297e-07,1.6616181389680343e-05
3.091859302940636e-07,2.612074522785511e-07,2.7043468083301604e-07,1.658658180783732e-05
3.0952923127839216e-07,2.598740427291488e-07,2.718394293697994e-07,1.6551075566843935e-05
3.0979129126814707e-07,2.584946876015447e-07,2.732122950928092e-07,1.650941432977836e-05
3.099707159055697e-07,2.5707929555397957e-07,2.745455153088009e-07,1.646130807207899e-05
3.100648868637576e-07,2.5563601853291066e-07,2.758304070906633e-07,1.6406411270489387e-05
3.1007042503892823e-07,2.541712279023021e-07,2.770577467592861e-07,1.6344331560524416e-05
3.099839347439469e-07,2.5268953927768767e-07,2.7821881921622873e-07,1.6274651061172934e-05
3.098017545409185e-07,2.511939128854975e-07,2.7930627598952307e-07,1.6196941175397087e-05
3.095192720067067e-07,2.4968625817752856e-07,2.8031406902917233e-07,1.611077562652934e-05
3.091311321786855e-07,2.481689727597141e-07,2.812369730497696e-07,1.6015744063039482e-05
3.086323216724634e-07,2.4664590683518245e-07,2.820706035176707e-07,1.5911459994425367e-05
3.080185965143891e-07,2.4512156977524737e-07,2.8281187589518746e-07,1.57975707950055e-05
3.072858868193067e-07,2.436004725932607e-07,2.834590165617565e-07,1.5673774298700353e-05
3.064308478772785e-07,2.420878662288029e-07,2.840110699724421e-07,1.553982421794888e-05
3.05452655195297e-07,2.405901742443236e-07,2.844678711766114e-07,1.5395519156689407e-05
3.043530358685753e-07,2.3911383719456577e-07,2.848309912247041e-07,1.5240700296162534e-05
3.0313445098056413e-07,2.376639248980132e-07,2.851049248802368e-07,1.5075275102865073e-05
3.0179934843852694e-07,2.3624425486885662e-07,2.8529694055545256e-07,1.4899255830626224e-05
3.003506761876163e-07,2.3485855612146678e-07,2.8541578476755805e-07,1.4712790458604043e-05
2.987919022860379e-07,2.3351122066259304e-07,2.8547160845241034e-07,1.451617305075675e-05
2.97126801086135e-07,2.3220685088891038e-07,2.8547658820463305e-07,1.4309840882203674e-05
2.953596722273684e-07,2.3094932983935646e-07,2.8544384671797204e-07,1.4094369983127923e-05
2.9349515020597354e-07,2.2974208620047212e-07,2.8538581002974556e-07,1.3870460124517254e-05
2.9153758478561337e-07,2.2858916312206445e-07,2.853136033815376e-07,1.363889425707723e-05
2.8949145168661735e-07,2.2749643130435534e-07,2.852366680976156e-07,1.340048105701924e-05
2.8736321802899963e-07,2.2647390000282607e-07,2.8516204623119447e-07,1.3156025235201485e-05
2.851629418170385e-07,2.2553727883958286e-07,2.850940315058609e-07,1.2906359838766385e-05
2.829037821568121e-07,2.247063763398375e-07,2.850347730987613e-07,1.2652384457990473e-05
2.8060038929772985e-07,2.2400201146306173e-07,2.8498470367440574e-07,1.2395033382548147e-05
2.782679172576946e-07,2.2344355748997106e-07,2.8494204624918187e-07,1.2135204917076536e-05
2.759212391047501e-07,2.230479285707019e-07,2.849029264454123e-07,1.1873721768556727e-05
2.735742703289505e-07,2.228294204504239e-07,2.8486235934121045e-07,1.1611342717733212e-05
2.712398882537513e-07,2.227988205566401e-07,2.848149628943656e-07,1.1348826147122628e-05
2.689297427675673e-07,2.2296281907617612e-07,2.847555576099537e-07,1.1087009027637249e-05
2.666540123626334e-07,2.2332487748556442e-07,2.8467971698189987e-07,1.0826825839059797e-05
2.6442154965665545e-07,2.2388586081566077e-07,2.845839588568773e-07,1.0569249980220326e-05
2.622395510754123e-07,2.2464371070587521e-07,2.84466281049031e-07,1.0315214720687516e-05
2.601129488327769e-07,2.2559323405141567e-07,2.843272968310952e-07,1.0065560035477544e-05
2.5804490798998237e-07,2.267265425787641e-07,2.8417082193936986e-07,9.821027839152824e-06
2.5603783050597076e-07,2.280341771306045e-07,2.8400320880837414e-07,9.582327870616127e-06
2.5409356874722985e-07,2.2950633605444012e-07,2.838319169502216e-07,9.350230569253425e-06
2.5221405512775877e-07,2.3113303541683712e-07,2.8366432812002824e-07,9.125577351202516e-06
2.504031579388648e-07,2.3290340039115592e-07,2.835075251439609e-07,8.909189733255498e-06
2.4866719508641574e-07,2.348054978981607e-07,2.83367983174023e-07,8.701774755384464e-06
2.47013067421521e-07,2.3682652064880427e-07,2.8325034601737427e-07,8.503886771368766e-06
2.45446637846274e-07,2.389527051097836e-07,2.831565802470266e-07,8.3159274624221e-06
2.439728089014296e-07,2.4116999590711693e-07,2.8308590724721033e-07,8.138155040302964e-06
2.425963400185733e-07,2.434648466091206e-07,2.8303482756547067e-07,7.970693514876492e-06
2.4132250359442164e-07,2.4582370498335104e-07,2.829973941661549e-07,7.813576524810921e-06
2.401575348517377e-07,2.482325684218784e-07,2.8296624510733764e-07,7.66688010660913e-06
2.3910855973859985e-07,2.506779232864044e-07,2.8293465955008587e-07,7.530884644224013e-06
2.381824908959052e-07,2.531482553356245e-07,2.828983752148016e-07,7.406108938551717e-06
2.373845028040705e-07,2.556347929780204e-07,2.828551405995401e-07,7.293193279916877e-06
2.367168863206859e-07,2.5813086790629684e-07,2.828029276062613e-07,7.192752929998157e-06
2.3617834947240571e-07,2.606304952713905e-07,2.827394566843175e-07,7.105288093072136e-06
2.3576390735576988e-07,2.631272538022317e-07,2.82662728237353e-07,7.031196694196844e-06
2.3546571697770949e-07,2.6561426743284323e-07,2.8257069102468073e-07,6.970913211298141e-06
2.3527458591379052e-07,2.680851705475924e-07,2.824604153557211e-07,6.9250582711247755e-06
2.3518080134299735e-07,2.705350307663266e-07,2.823281869668692e-07,6.894429616091174e-06
2.3517384064282256e-07,2.72960271006394e-07,2.821704704049897e-07,6.87986259769082e-06
2.352424118175867e-07,2.753576929105696e-07,2.819845000732144e-07,6.882106956117949e-06
2.353751231120636e-07,2.777234102602084e-07,2.817683026160501e-07,6.9017551481409015e-06
2.3556100972352872e-07,2.800519467325069e-07,2.8152091959115705e-07,6.939179035384378e-06
2.357900655072793e-07,2.823360710145051e-07,2.812424358433907e-07,6.9944698067726335e-06
2.3605364876923556e-07,2.845683313933578e-07,2.809334889535767e-07,7.067413328562877e-06
2.3634468796995531e-07,2.86743059195296e-07,2.805952284843958e-07,7.157510799413707e-06
2.3665802660614052e-07,2.888564055964667e-07,2.80230273498388e-07,7.264023872463327e-06
2.369909246895431e-07,2.9090480019368656e-07,2.798437224906581e-07,7.3860243618536574e-06
2.3734356601779023e-07,2.9288434237163575e-07,2.794430552522925e-07,7.522432066145012e-06
2.3771836690569878e-07,2.947914923410294e-07,2.7903727019100443e-07,7.672030499817963e-06
2.381174522342453e-07,2.96623289201198e-07,2.786358346358715e-07,7.833470338460734e-06
2.385403549990293e-07,2.9837667669714725e-07,2.782475543997501e-07,8.005286938496298e-06
2.3898373001590264e-07,3.0004786425244173e-07,2.778797683910475e-07,8.185951213540303e-06
2.3944214755405985e-07,3.0163177321656373e-07,2.7753800753984947e-07,8.3739417717493e-06
2.399087592443268e-07,3.031217491423997e-07,2.7722615231278573e-07,8.567806663045618e-06
2.4037647978970764e-07,3.0451062802580297e-07,2.769465510170379e-07,8.766199423836159e-06
2.4083982203274033e-07,3.057925422972757e-07,2.766993782181247e-07,8.967891521394434e-06
2.4129561021805384e-07,3.069633118947385e-07,2.7648186201862967e-07,9.171755506965829e-06
2.41741971989903e-07,3.0801928669401934e-07,2.762881586759895e-07,9.376713439064516e-06
2.421770754104864e-07,3.0895639542795893e-07,2.761098770824522e-07,9.58167507197054e-06
2.425989134404355e-07,3.0976994033883107e-07,2.759370212748793e-07,9.785507317636446e-06
2.430070315485174e-07,3.1045450250195353e-07,2.757591100135198e-07,9.987052579508199e-06
2.4340520662442984e-07,3.110040465398133e-07,2.7556636181492373e-07,1.0185190729081334e-05
2.4380189852559464e-07,3.114129025638847e-07,2.7535055047055944e-07,1.0378913675916099e-05
2.442088133369452e-07,3.116782232817947e-07,2.7510500527876026e-07,1.0567344022386149e-05
2.4464057554057745e-07,3.1180277752441217e-07,2.748241715834847e-07,1.0749675606935427e-05
2.4511456207049504e-07,3.117952944799449e-07,2.745032826116765e-07,1.0925107136456924e-05
2.456488910187183e-07,3.116683304740702e-07,2.741376950780049e-07,1.1092835479015887e-05
2.4625958803546826e-07,3.114359023151189e-07,2.7372212268753904e-07,1.1252105370872504e-05
2.4695920060586254e-07,3.111117379998723e-07,2.7325087336222324e-07,1.1402256211194976e-05
2.4775798690558525e-07,3.107082574793076e-07,2.7271873567555466e-07,1.154270557496606e-05
2.486653080569344e-07,3.1023634667158514e-07,2.7212187115567824e-07,1.1672894835730927e-05
2.4968916645158593e-07,3.097056805087088e-07,2.7145896063020825e-07,1.1792273799715527e-05
2.508358689505449e-07,3.091250858467611e-07,2.707317648374966e-07,1.1900328847873782e-05
2.521100345698005e-07,3.085025075276815e-07,2.699443737545965e-07,1.199661039813866e-05
2.5351324173184425e-07,3.0784485649646525e-07,2.691018378824855e-07,1.208077408002917e-05
2.550427250945286e-07,3.071583209525856e-07,2.682092988434903e-07,1.2152656277512514e-05
2.566917741571085e-07,3.0644907851890047e-07,2.672724987947539e-07,1.2212318853555929e-05
2.5845146205972445e-07,3.0572394874614946e-07,2.662981399605526e-07,1.226000265156584e-05
2.603121696429597e-07,3.049907054897474e-07,2.652923078456617e-07,1.229602758018224e-05
2.622633641744583e-07,3.042576058929313e-07,2.642587684169477e-07,1.2320721322436694e-05
2.6429273161374456e-07,3.0353265650649507e-07,2.6319896522190906e-07,1.233441628713976e-05
2.6638618348776087e-07,3.028235753934225e-07,2.6211277616575754e-07,1.2337476690442821e-05
2.6852817193407397e-07,3.02137876091648e-07,2.609991611877092e-07,1.2330293994408627e-05
2.7070187114203066e-07,3.014831933857383e-07,2.5985717340887854e-07,1.2313273421278698e-05
2.728892522239005e-07,3.0086850335266327e-07,2.5868709777443444e-07,1.2286925464854586e-05
2.7507105583812666e-07,3.003044251430543e-07,2.574906803251169e-07,1.2252056122361118e-05
2.7722724080122207e-07,2.9980170666282617e-07,2.562713054686293e-07,1.2209841665868932e-05
2.7933852355330336e-07,2.9937030629871364e-07,2.550357457595559e-07,1.2161683184225847e-05
2.813881746816616e-07,2.990193528951284e-07,2.537960663190745e-07,1.2108991518320805e-05
2.833620019482133e-07,2.9875606456934984e-07,2.5256886423761736e-07,1.205305328515537e-05
2.852468231089127e-07,2.985847661357604e-07,2.5137181756804045e-07,1.1995041157840575e-05
2.87030032851621e-07,2.985076642628596e-07,2.502202313018044e-07,1.1936190267067054e-05
2.8870029878194864e-07,2.985258007116922e-07,2.4912601437602297e-07,1.1878010382218499e-05
2.9024768966704716e-07,2.9863864469572193e-07,2.480988312793159e-07,1.182232942945929e-05
2.9166333699311446e-07,2.988438882713306e-07,2.471468596945032e-07,1.17711554796367e-05
2.9293925791037304e-07,2.9913860636672936e-07,2.462761478907264e-07,1.1726493741620235e-05
2.940685726006525e-07,2.995196042102242e-07,2.4549043563342664e-07,1.1690198230006098e-05
2.950468489384696e-07,2.9998219660914977e-07,2.447918853484423e-07,1.1663863763216173e-05
2.958744493591112e-07,3.0051987675852697e-07,2.441814951430409e-07,1.1648747601396726e-05
2.9655756149407225e-07,3.011254027561984e-07,2.436598809652609e-07,1.1645718044755808e-05
2.9710602247616297e-07,3.0179223500611236e-07,2.432295832579005e-07,1.1655242167035505e-05
2.975299574077021e-07,3.0251549507133e-07,2.428973767106227e-07,1.1677416968684768e-05
2.978388477674904e-07,3.032908425788657e-07,2.426737709270342e-07,1.1712024059104195e-05
2.980427057884249e-07,3.041124239414456e-07,2.425702370562328e-07,1.1758591143009841e-05
2.981523319255068e-07,3.0497305478960747e-07,2.425975090081789e-07,1.1816464479823625e-05
2.981780354447876e-07,3.058659147035353e-07,2.4276594204505966e-07,1.1884893398441713e-05
2.981284046359088e-07,3.0678501114594925e-07,2.4308601405175804e-07,1.196311755643632e-05
2.980107198480059e-07,3.0772408206137965e-07,2.435674112139936e-07,1.2050449303626512e-05
2.978331371844184e-07,3.0867542265705426e-07,2.442172658722962e-07,1.2146334575178813e-05
2.976059417597463e-07,3.0962974758020485e-07,2.450389082070295e-07,1.2250361536247425e-05
2.973398946862938e-07,3.105769112776091e-07,2.460319137319243e-07,1.2362209301185107e-05
2.970439368855317e-07,3.115068495320633e-07,2.4719377289972036e-07,1.2481580172667627e-05
2.967245538364691e-07,3.124104372593993e-07,2.4852205248448404e-07,1.2608165732326175e-05
2.963861919695369e-07,3.1327946595974405e-07,2.5001473454960386e-07,1.2741640332587405e-05
2.960320217376773e-07,3.1410536612482875e-07,2.516686056793309e-07,1.2881632657469999e-05
2.9566496879112894e-07,3.148784846555601e-07,2.5347840382260816e-07,1.3027659689690884e-05
2.9528819480212623e-07,3.155891135557276e-07,2.554381399279457e-07,1.3179076235441009e-05
2.9490451100653674e-07,3.1622850799125016e-07,2.575433401155756e-07,1.3335119780095353e-05
2.9451541240466305e-07,3.1678859515126765e-07,2.597923467451797e-07,1.3495060298913978e-05
2.94120355805076e-07,3.1726147089052037e-07,2.621853756381224e-07,1.3658333876089067e-05
2.9371682663056085e-07,3.176392477759243e-07,2.6472239178868947e-07,1.3824541498480045e-05
2.9330202433224184e-07,3.179144986507201e-07,2.674015038689095e-07,1.3993358966658405e-05
2.9287502894050433e-07,3.1808252868825997e-07,2.702179855406002e-07,1.4164468528669263e-05
2.924367708869853e-07,3.1814381497992287e-07,2.731650988903209e-07,1.4337533867832038e-05
2.919880629024919e-07,3.1810326792517053e-07,2.7623626681295967e-07,1.4512172618036993e-05
2.9152833373617804e-07,3.1796695970481385e-07,2.794250809335257e-07,1.4687893212604244e-05
2.910557950658689e-07,3.177393193232376e-07,2.8272331220905856e-07,1.4864031148984771e-05
2.9056814504231764e-07,3.1742258681029136e-07,2.8611997755291875e-07,1.5039751574554548e-05
2.9006290240690646e-07,3.170184401906449e-07,2.8960165134235177e-07,1.5214122903325375e-05
2.8953716030558964e-07,3.1652997577634424e-07,2.931526019967589e-07,1.53862120158391e-05
2.889877920487246e-07,3.159621039635044e-07,2.967548976959721e-07,1.5555177355716636e-05
2.884119688821128e-07,3.153201422669469e-07,3.0038917958081287e-07,1.5720353825303917e-05
