2.525324338470328e-07,2.006019223323063e-07,2.4078317380699496e-07,1.1955373158986738e-05
2.5135691452040426e-07,2.0033741921551482e-07,2.4243406234421375e-07,1.2198410628326413e-05
2.503209359206473e-07,2.0003187977987058e-07,2.4409631086531174e-07,1.2441787214301715e-05
2.494273579807788e-07,1.9969012864867601e-07,2.457612549144421e-07,1.2684707084395185e-05
2.4867825373862373e-07,1.9932154920181361e-07,2.4742095318426645e-07,1.2926354689388789e-05
2.480753663500893e-07,1.9893818205545443e-07,2.4906927067134645e-07,1.3165861568825325e-05
2.4761958649275784e-07,1.985531929440928e-07,2.507023755561312e-07,1.3402297878565221e-05
2.4731103056422446e-07,1.981801647382013e-07,2.5231923757645606e-07,1.3634699330599174e-05
2.471500361648836e-07,1.9783235128225488e-07,2.539227428809025e-07,1.3862152872127575e-05
2.4713691424559604e-07,1.975221468898013e-07,2.5551921678668536e-07,1.4083881867821938e-05
2.47270912037138e-07,1.9726210357345323e-07,2.5711662162217533e-07,1.4299259787025144e-05
2.4755057609905896e-07,1.9706615433954338e-07,2.5872419643780677e-07,1.4507771586851105e-05
2.4797426568130087e-07,1.969487782462287e-07,2.603530307275784e-07,1.4708976302772674e-05
2.485393640714933e-07,1.969229625021816e-07,2.620160030775161e-07,1.4902491353470182e-05
2.4924194897411753e-07,1.969987870732744e-07,2.637266483815164e-07,1.5087973503134365e-05
2.500774607198942e-07,1.971828172875861e-07,2.654969593291479e-07,1.5265065130785758e-05
2.510410204653466e-07,1.9747814087065465e-07,2.673357384214129e-07,1.5433340279301457e-05
2.521276163142814e-07,1.978852767080936e-07,2.6924848172052e-07,1.5592313823617652e-05
2.5333199417407415e-07,1.9840351365110625e-07,2.712375624452479e-07,1.5741509399316017e-05
2.546476157956589e-07,1.9903248537622212e-07,2.733022375716849e-07,1.5880534100925322e-05
2.560661173487938e-07,1.9977437731980114e-07,2.7543902712985746e-07,1.600914627875237e-05
2.575778657846252e-07,2.0063493165482977e-07,2.7764263841729266e-07,1.612731643854173e-05
2.591725389214625e-07,2.0162134592815518e-07,2.799070653743818e-07,1.6235225570837528e-05
2.608398121575993e-07,2.0273938524134808e-07,2.822258403702641e-07,1.6333170510078964e-05
2.625702785453852e-07,2.0399303123010878e-07,2.8459122848385576e-07,1.642143782298429e-05
2.643551508288761e-07,2.053861262731648e-07,2.869937004693266e-07,1.6500213780664484e-05
2.6618469515069426e-07,2.0692317164281552e-07,2.894225261283092e-07,1.6569557646868772e-05
2.680477904275882e-07,2.086088726682286e-07,2.9186656185313137e-07,1.662942902276552e-05
2.699326134166098e-07,2.104471569171916e-07,2.94314037792856e-07,1.6679721940182285e-05
2.718263166034213e-07,2.1243933010744906e-07,2.96751869880819e-07,1.6720287156110626e-05
2.7371421340937517e-07,2.1458238730876718e-07,2.9916575850365465e-07,1.6751004662988768e-05
2.755799886575715e-07,2.1686910636008172e-07,3.015407195583148e-07,1.6771934867418666e-05
2.774065982333348e-07,2.1929029456576338e-07,3.038615202891932e-07,1.6783417645173543e-05
2.791775641429341e-07,2.2183722402303948e-07,3.061133654989329e-07,1.678599379000029e-05
2.808794287486178e-07,2.2450141933267374e-07,3.0828203185243867e-07,1.6780231631631883e-05
2.8250404474412215e-07,2.2727260273153176e-07,3.1035318579693305e-07,1.6766619258999204e-05
2.840475970815421e-07,2.3013746590869013e-07,3.123121870160128e-07,1.6745616346906905e-05
2.8550730595558105e-07,2.3307995812632128e-07,3.141444453836483e-07,1.671788429833215e-05
2.8687986305663746e-07,2.360824353122694e-07,3.158357013549045e-07,1.668454255902019e-05
2.8816210051978685e-07,2.391266277625687e-07,3.173724640168779e-07,1.6647211499332308e-05
2.893518654312303e-07,2.4219376242192195e-07,3.187431641344896e-07,1.6607818962682682e-05
2.904487574212304e-07,2.452648733928148e-07,3.1993943939821e-07,1.65683538743426e-05
2.914544086393647e-07,2.4832237989455e-07,3.209556938791649e-07,1.653068147628365e-05
2.923713547548096e-07,2.513512169714388e-07,3.217872234179733e-07,1.649640606486394e-05
2.9320142516118866e-07,2.543387988542768e-07,3.224293884798852e-07,1.6466765500437674e-05
2.9394547068243643e-07,2.572758659309814e-07,3.228787881934332e-07,1.6442588063986774e-05
2.946044938901807e-07,2.601573773327859e-07,3.231352210975984e-07,1.6424322109804755e-05
2.9518016436684323e-07,2.629815826006504e-07,3.232024204036961e-07,1.6412089156562814e-05
2.9567360489306304e-07,2.6574916474814036e-07,3.2308677883874423e-07,1.6405722228572022e-05
2.960842200308399e-07,2.6846382837132127e-07,3.2279543059857023e-07,1.6404809115942873e-05
2.9641023052834964e-07,2.711317135697847e-07,3.223353178294076e-07,1.6408747610313625e-05
2.9665090755704657e-07,2.737581283731005e-07,3.2171330791568716e-07,1.6416781838228592e-05
2.968089419839868e-07,2.7634463249605105e-07,3.20936319229547e-07,1.6428025137205373e-05
2.9689038110342877e-07,2.788887308486785e-07,3.200107836974259e-07,1.6441514023270387e-05
2.969025949768189e-07,2.8138481354010657e-07,3.189417750818021e-07,1.6456294224370436e-05
2.968532967790445e-07,2.838249548800094e-07,3.177328317486567e-07,1.6471483970775167e-05
2.96750597844094e-07,2.8619957116416365e-07,3.1638736524204857e-07,1.6486281576955316e-05
2.9660201086450987e-07,2.884978450071582e-07,3.149106464589788e-07,1.6499947167315783e-05
2.964131452467326e-07,2.907077155359603e-07,3.133100095399593e-07,1.6511800164323826e-05
2.9618778180714194e-07,2.928159724995261e-07,3.115934099981421e-07,1.6521226412859347e-05
2.9592834565511324e-07,2.9480908702455723e-07,3.097683781707729e-07,1.6527663895757907e-05
2.9563569328826285e-07,2.966743645711948e-07,3.078416049196148e-07,1.6530564898581118e-05
2.9530951056891745e-07,2.984004255733124e-07,3.058188826595643e-07,1.652935784976283e-05
2.949503063677856e-07,2.9997769044927194e-07,3.037060922922276e-07,1.652344350310875e-05
2.9456135887570693e-07,3.013999408845352e-07,3.0151039566268576e-07,1.6512255228114685e-05
2.9414887937743093e-07,3.02665027365512e-07,2.992398474712654e-07,1.649534600250827e-05
2.9372061595741375e-07,3.0377299723201497e-07,2.969026913204765e-07,1.6472414597995865e-05
2.932836437274337e-07,3.0472349516842585e-07,2.9450939372901545e-07,1.6443248433818373e-05
2.9284255323622734e-07,3.0551457425031354e-07,2.9207604473382694e-07,1.6407641075897517e-05
2.923993793119776e-07,3.061429495773652e-07,2.896240454968981e-07,1.6365342851968292e-05
2.9195462763388967e-07,3.066048321469222e-07,2.8717638913527464e-07,1.6316061296978697e-05
2.915077951975439e-07,3.0689655998845345e-07,2.8475549251838196e-07,1.625949626521007e-05
2.9105747108517705e-07,3.07014696995031e-07,2.8238288137672377e-07,1.61953909461281e-05
2.9060176634051505e-07,3.0695616483583734e-07,2.800787408285192e-07,1.6123583723620172e-05
2.901386461748053e-07,3.067188367002223e-07,2.778617412952633e-07,1.6044047278057626e-05
2.896658751662367e-07,3.0630181501611126e-07,2.7574892164373744e-07,1.5956912384439916e-05
2.8918074696118737e-07,3.057049335038632e-07,2.737552037413796e-07,1.5862498798023293e-05
2.886797370341276e-07,3.04928139713404e-07,2.7189289415638536e-07,1.5761369423682285e-05
2.881588921829135e-07,3.039716072697626e-07,2.7017117226054787e-07,1.565434858286817e-05
2.8761487310588003e-07,3.028367774086967e-07,2.6859621577512805e-07,1.554243131995981e-05
2.870454524527122e-07,3.0152732033399853e-07,2.6717207591506466e-07,1.542662469292768e-05
2.864495773785356e-07,3.0004946867035926e-07,2.6590097633473944e-07,1.5307832374138407e-05
2.8582725918090217e-07,2.984118486277372e-07,2.647829744278002e-07,1.5186825965234918e-05
2.851790360076205e-07,2.966243145275343e-07,2.638162487941783e-07,1.5064258931817362e-05
2.845056417581604e-07,2.946966416960076e-07,2.629981933331028e-07,1.4940678106986872e-05
2.8380805407063014e-07,2.926383069646325e-07,2.62326163810994e-07,1.4816535292268055e-05
2.8308738329010896e-07,2.904585681491605e-07,2.617971850665467e-07,1.4692261165526325e-05
2.8234449589525705e-07,2.881662851226852e-07,2.614074704599184e-07,1.456843951602992e-05
2.815799165605629e-07,2.857698927955314e-07,2.6115236421976516e-07,1.444594414297576e-05
2.8079435060558554e-07,2.832779295077761e-07,2.6102618643493817e-07,1.4325874629170844e-05
2.799886355843779e-07,2.8070009048490463e-07,2.610220845001695e-07,1.4209355929090594e-05
2.7916278123688536e-07,2.780474195589708e-07,2.611322704798012e-07,1.4097372204945288e-05
2.783155846894434e-07,2.75331149929214e-07,2.613484979977366e-07,1.3990738523748354e-05
2.7744474424184985e-07,2.7256194785883606e-07,2.6166307648513687e-07,1.3890265915654514e-05
2.765464296095022e-07,2.6975029666684745e-07,2.620696442010743e-07,1.3797033633886466e-05
2.756153000595057e-07,2.669075392704424e-07,2.625623792629129e-07,1.3712523017449793e-05
2.746464183856832e-07,2.6404749837586443e-07,2.631349863325909e-07,1.363850559376756e-05
2.736374705457135e-07,2.6118777930863373e-07,2.6378089932334173e-07,1.3576830999512848e-05
2.725886500787332e-07,2.583492575227376e-07,2.644943971676536e-07,1.3529263327041992e-05
2.7150113649175875e-07,2.555541396166116e-07,2.652717548470882e-07,1.349737677183943e-05
2.703762788475561e-07,2.528247876823503e-07,2.661107323663501e-07,1.3482464940709067e-05
2.6921540575833344e-07,2.501837190982676e-07,2.670084305668497e-07,1.3485454186563956e-05
2.6802023030876344e-07,2.476532138021067e-07,2.679599860929947e-07,1.3506858302780407e-05
2.6679373094988106e-07,2.452541810650837e-07,2.689593110103234e-07,1.3546793578503745e-05
2.655400769867404e-07,2.430050549524288e-07,2.700005611660792e-07,1.3605016844168656e-05
2.642639987273525e-07,2.409209384852025e-07,2.7107851181977147e-07,1.3680944780830785e-05
2.6297203490951534e-07,2.390129248127197e-07,2.721878611314505e-07,1.3773663458690525e-05
2.61674889027287e-07,2.3728855099250451e-07,2.733228862808309e-07,1.3881962898754185e-05
2.6038695689651136e-07,2.357538839021493e-07,2.7447773899000465e-07,1.4004405582977303e-05
2.591228925817699e-07,2.3441517522635132e-07,2.756463363105598e-07,1.4139412563611417e-05
2.5789511753974927e-07,2.332785328895031e-07,2.768221334210596e-07,1.4285356728566626e-05
2.567133616418739e-07,2.3234839191876827e-07,2.779989944586169e-07,1.444065444381084e-05
2.555844970851552e-07,2.3162589964121656e-07,2.7917157625525124e-07,1.460382897413741e-05
2.5451244112480695e-07,2.3110811340798678e-07,2.803336274260157e-07,1.4773529797134016e-05
2.534984946900825e-07,2.3078871214762398e-07,2.814764753997693e-07,1.4948525879360818e-05
2.5254177968953485e-07,2.3066012371645183e-07,2.825896123778026e-07,1.5127685717978812e-05
2.516404869542434e-07,2.3071554867764048e-07,2.836622174894233e-07,1.530992814225158e-05
2.507938905641985e-07,2.3095001923720642e-07,2.84683763742915e-07,1.5494144874282924e-05
2.500025743679573e-07,2.313610558580434e-07,2.856434464969197e-07,1.5679138007103565e-05
2.4926657380838497e-07,2.319480805137273e-07,2.8653034407975195e-07,1.5863621239756175e-05
2.485842400447389e-07,2.327103519753307e-07,2.873353243039731e-07,1.6046304203628428e-05
2.479523407873412e-07,2.336453228500844e-07,2.8805223159114057e-07,1.6226005819238893e-05
2.4736636249715573e-07,2.3474777386989087e-07,2.886767304445021e-07,1.640169518604629e-05
2.4682140250682877e-07,2.3600895086369552e-07,2.892048320539083e-07,1.6572437909189352e-05
2.463132675660432e-07,2.3741645124691085e-07,2.896325969310264e-07,1.6737312060826784e-05
2.4583885320137626e-07,2.389560856638272e-07,2.8995628913758665e-07,1.6895352115058655e-05
2.4539610008517017e-07,2.4061509720026733e-07,2.9017207636574303e-07,1.7045542587993893e-05
2.4498342635752806e-07,2.4238402966742054e-07,2.902756464636177e-07,1.7186845272319157e-05
2.445986266149136e-07,2.4425606982996266e-07,2.902628440981337e-07,1.7318235444737226e-05
2.4423868208435644e-07,2.462255495340137e-07,2.901307396428616e-07,1.7438757925966818e-05
2.439013180447338e-07,2.482868701193994e-07,2.8987738118616236e-07,1.7547633043609923e-05
2.435864543175321e-07,2.504342819008145e-07,2.8950050464051845e-07,1.764437610910312e-05
2.4329540706823483e-07,2.5266256744910326e-07,2.889971972580665e-07,1.7728826804168455e-05
2.430289956985592e-07,2.549670913461757e-07,2.8836507477615297e-07,1.7801061673407542e-05
2.4278648370653985e-07,2.57342393777181e-07,2.8760356691210443e-07,1.7861259362953166e-05
2.425651272800019e-07,2.597809857678738e-07,2.867142580080196e-07,1.7909579720735027e-05
2.4236026105875656e-07,2.622732586373144e-07,2.8570095581270137e-07,1.79461054665709e-05
2.4216654004714543e-07,2.648079620008221e-07,2.8457013076003965e-07,1.7970875198180467e-05
2.419792649596015e-07,2.673728429059391e-07,2.8333091373467716e-07,1.7983958054050268e-05
2.417944713035938e-07,2.699549466473339e-07,2.819946004066349e-07,1.7985486401017816e-05
2.416096097685488e-07,2.725407169784366e-07,2.805742755899313e-07,1.7975625810643923e-05
2.414258025495789e-07,2.7511621257815585e-07,2.79083858942994e-07,1.7954530029136982e-05
2.4124789520099e-07,2.7766692933215185e-07,2.7753679363337174e-07,1.792236514657581e-05
2.410810447760256e-07,2.801771692345157e-07,2.759456301699472e-07,1.7879460215429014e-05
2.4092816797053125e-07,2.8262969642745e-07,2.7432220366989716e-07,1.782647089339924e-05
2.407905989814492e-07,2.850062652469208e-07,2.7267761938214423e-07,1.7764348744630374e-05
2.4067005771895425e-07,2.8728904157127427e-07,2.710218926506252e-07,1.7694159473551535e-05
2.405696052795377e-07,2.8946210441845816e-07,2.693634211926539e-07,1.761701802194321e-05
2.404930718866888e-07,2.9151241876212364e-07,2.677088562011519e-07,1.7534177181425305e-05
2.4044408608948877e-07,2.934308046176088e-07,2.660634234008064e-07,1.7447050578094448e-05
2.404260689952266e-07,2.952120250643235e-07,2.644310553145938e-07,1.73571052030205e-05
2.4044321762429316e-07,2.968529174660254e-07,2.628144841186493e-07,1.7265737477799628e-05
2.4050068093445765e-07,2.983509763257558e-07,2.612155902163184e-07,1.7174200018128313e-05
2.406032824173505e-07,2.997046301404408e-07,2.5963565870626977e-07,1.708358036923958e-05
2.407545886802716e-07,3.0091296309006534e-07,2.580757840635504e-07,1.6994811024761926e-05
2.4095693974491637e-07,3.0197435390078895e-07,2.5653760644887965e-07,1.690868143114461e-05
2.412116945588125e-07,3.02885778172491e-07,2.550240192227632e-07,1.682583849080995e-05
2.415195718319973e-07,3.0364355369234584e-07,2.535393948262376e-07,1.6746786836350668e-05
2.418809755874852e-07,3.042449280765604e-07,2.5208914897049897e-07,1.6671900101125734e-05
2.4229600383377683e-07,3.0468989433481693e-07,2.506790652722518e-07,1.6601441223697714e-05
2.4276374761561266e-07,3.0498194976768173e-07,2.493142582336617e-07,1.6535582638856012e-05
2.4328135833370604e-07,3.051268187573055e-07,2.479983611122187e-07,1.6474399306925306e-05
2.438443717703787e-07,3.0513103916926327e-07,2.4673433725928605e-07,1.6417827922031438e-05
2.444480892429329e-07,3.0500182619028066e-07,2.4552543620285895e-07,1.636565792579302e-05
2.450882143280761e-07,3.047466777984745e-07,2.44374182658982e-07,1.631761011777577e-05
2.457605446976221e-07,3.043721143081557e-07,2.432808775343225e-07,1.6273446960758943e-05
2.4646074344382e-07,3.03883053205184e-07,2.422438685428169e-07,1.623302501530051e-05
2.471843989517437e-07,3.032833796955944e-07,2.4126127314998777e-07,1.6196285269597738e-05
2.479273232287739e-07,3.025767414954681e-07,2.4033204580709284e-07,1.6163232637117975e-05
2.486857538339716e-07,3.017668628038187e-07,2.3945540051476346e-07,1.6133935440309312e-05
2.494560888915709e-07,3.0085742745737163e-07,2.38629946399118e-07,1.6108544174288722e-05
2.5023455808316164e-07,2.998518978590797e-07,2.378537834139678e-07,1.6087303032134423e-05
2.510168961637841e-07,2.9875345198441176e-07,2.3712530849111214e-07,1.607052316647975e-05
2.517984205213561e-07,2.9756473361810534e-07,2.3644359182507552e-07,1.6058523430587927e-05
2.52575636777245e-07,2.962874651745911e-07,2.3580761715217863e-07,1.6051564747162547e-05
2.533482055825777e-07,2.9492269616249785e-07,2.352152400459652e-07,1.6049790514003705e-05
2.5411858260917137e-07,2.9347199527057327e-07,2.3466289066378021e-07,1.6053193280020566e-05
2.5488940030604107e-07,2.9193854606045907e-07,2.3414651272910252e-07,1.606162647993114e-05
2.556611871162071e-07,2.90326863523559e-07,2.336637087788198e-07,1.6074827568789374e-05
2.56432423304652e-07,2.886417788479518e-07,2.332151121097857e-07,1.609240957836239e-05
2.572016251568993e-07,2.8688837557977746e-07,2.328029961814552e-07,1.6113837375799187e-05
2.579687695069625e-07,2.8507283296309446e-07,2.3242863931534876e-07,1.6138430768626113e-05
2.5873418412363565e-07,2.832031177629432e-07,2.3209116347946225e-07,1.6165414611387342e-05
2.594965468517593e-07,2.8128919661432827e-07,2.3178806983435077e-07,1.6193981915425748e-05
2.602519207712392e-07,2.793427855698608e-07,2.315162555501979e-07,1.6223309426793165e-05
2.609938286231061e-07,2.7737660909310194e-07,2.312730928589984e-07,1.62525267732844e-05
2.617144161353497e-07,2.75403042344667e-07,2.3105723991397205e-07,1.62806897621111e-05
2.624060542372865e-07,2.734328622876177e-07,2.308685112019353e-07,1.6306793530030096e-05
2.63061749231832e-07,2.7147556992147016e-07,2.3070740476671928e-07,1.6329827212208646e-05
2.636747248486835e-07,2.69540427564958e-07,2.305746431416222e-07,1.6348843236780426e-05
2.642384387340393e-07,2.67636432521653e-07,2.304704305400493e-07,1.6363013938616597e-05
2.6474647341410324e-07,2.657718096953454e-07,2.303948281230317e-07,1.6371672487963502e-05
2.651918698138748e-07,2.6395356119732033e-07,2.3034947991708798e-07,1.6374358615595417e-05
2.655668589690836e-07,2.621868073189104e-07,2.3033783076921672e-07,1.6370876139952266e-05
2.6586340005931144e-07,2.604745134192964e-07,2.303631147966405e-07,1.6361323122609383e-05
2.660740766696377e-07,2.5881800759002976e-07,2.3042712422336558e-07,1.6346051386886332e-05
2.66192854914958e-07,2.572181015987321e-07,2.3053101035527802e-07,1.632555667098614e-05
2.6621502815494533e-07,2.556761636386705e-07,2.3067675270059648e-07,1.6300341438847142e-05
2.6613634283551964e-07,2.5419426692600844e-07,2.308679159429946e-07,1.6270838327386526e-05
2.659526781959737e-07,2.5277423258065205e-07,2.311084554050361e-07,1.6237440041144535e-05
2.656609854354324e-07,2.51416405682201e-07,2.3140037771149845e-07,1.6200540625894435e-05
2.652598547266761e-07,2.5011957511560106e-07,2.317425372636476e-07,1.61605182195986e-05
2.6474875308458266e-07,2.488818826143255e-07,2.3213095058753763e-07,1.6117698331226557e-05
2.641275300399935e-07,2.477012756966108e-07,2.325598800342341e-07,1.6072320217780675e-05
2.6339692861608625e-07,2.465752569868104e-07,2.330230139067285e-07,1.602453115271037e-05
2.625594536888753e-07,2.455006377248096e-07,2.3351379260363922e-07,1.5974428065739878e-05
2.6161974519229004e-07,2.444739691130749e-07,2.3402476017678185e-07,1.5922108825163105e-05
2.605833867964021e-07,2.434921448019269e-07,2.345472505769404e-07,1.5867702096792314e-05
2.594555835818035e-07,2.42552088461825e-07,2.3507223120042964e-07,1.5811376886027142e-05
2.5824220920709467e-07,2.416503841992775e-07,2.355911142644432e-07,1.575333777357397e-05
2.5695178131228097e-07,2.407841391991361e-07,2.3609552044173256e-07,1.5693799513993707e-05
2.555953476546701e-07,2.399520203211949e-07,2.365769343494155e-07,1.5632940095603887e-05
2.5418465395369923e-07,2.3915390279154137e-07,2.3702722415706253e-07,1.557085905047117e-05
2.527309637228549e-07,2.383903617984592e-07,2.3744017348181238e-07,1.5507562320844306e-05
2.512453118645881e-07,2.376638024045548e-07,2.3781313558253733e-07,1.5442960745969297e-05
2.49738938199527e-07,2.369791619165752e-07,2.3814683750968946e-07,1.5376861918699092e-05
2.4822275814184264e-07,2.36342093528192e-07,2.3844359105803924e-07,1.5308967099636562e-05
2.467066192423143e-07,2.3575716268243842e-07,2.3870645269185126e-07,1.5238900510074094e-05
2.451994887531591e-07,2.352281638083569e-07,2.389397569584972e-07,1.5166266966458651e-05
2.4371000535940605e-07,2.3475879274963308e-07,2.391501380256416e-07,1.5090704359887728e-05
2.4224629420125735e-07,2.3435201939319163e-07,2.3934796846134864e-07,1.501190408859659e-05
2.408154652367632e-07,2.3400925839658424e-07,2.3954795356708457e-07,1.4929599961735004e-05
2.3942427316717106e-07,2.3373113838363609e-07,2.397676438633729e-07,1.4843542418041433e-05
2.3808108858068286e-07,2.3351876325332842e-07,2.400247585026009e-07,1.4753468155748831e-05
2.367974188750681e-07,2.333733389924901e-07,2.4033445079393947e-07,1.4659074964087973e-05
2.3558807275634762e-07,2.332951160068624e-07,2.4070744895061496e-07,1.456002001030499e-05
2.3447031889131784e-07,2.3328300425819425e-07,2.4115027106437105e-07,1.4455949141848426e-05
2.334616500215149e-07,2.3333444590302692e-07,2.416675805473464e-07,1.4346534902154626e-05
2.3257678403004962e-07,2.3344539322515343e-07,2.422650186530528e-07,1.4231486846379078e-05
2.3182635837873522e-07,2.336104882067669e-07,2.42949954010655e-07,1.4110537289213345e-05
2.31218459651852e-07,2.3382319537609558e-07,2.437295155479491e-07,1.3983445049866268e-05
2.3076081143690768e-07,2.340759284000386e-07,2.446085746516719e-07,1.3850036656077927e-05
2.3046080505126767e-07,2.343606119835185e-07,2.455891782677881e-07,1.3710259189621094e-05
2.3032418791959967e-07,2.3466961028640255e-07,2.4667052696338364e-07,1.3564192390051551e-05
2.3035419348607458e-07,2.3499592229061817e-07,2.478493245628873e-07,1.3412004571658608e-05
2.3055076300321714e-07,2.3533241372955307e-07,2.491203601008505e-07,1.3253915254832327e-05
2.3091017949944616e-07,2.3567149759867028e-07,2.504774668749678e-07,1.3090208769752814e-05
2.3142588714283748e-07,2.3600584299369465e-07,2.519151488667575e-07,1.2921271196682816e-05
2.320895186094707e-07,2.3632877543938646e-07,2.5342918299920576e-07,1.2747636354897804e-05
2.3289091343707532e-07,2.3663353181852774e-07,2.5501534164647286e-07,1.2570033140802934e-05
2.338174689720852e-07,2.3691270156844355e-07,2.5666769222101824e-07,1.2389374683304918e-05
2.348542332942266e-07,2.3715871447467322e-07,2.583778174810842e-07,1.2206658215654414e-05
2.359853707525444e-07,2.373645937497661e-07,2.6013540352162105e-07,1.202283943482842e-05
2.371954454597888e-07,2.375249034425398e-07,2.619291506386733e-07,1.1838761137914253e-05
2.3846932524310664e-07,2.3763665375630702e-07,2.6374678329831123e-07,1.1655165435337309e-05
2.397917949813225e-07,2.376986962924313e-07,2.6557485040109226e-07,1.1472780639004034e-05
2.411474109803005e-07,2.3771012753079215e-07,2.673991488469408e-07,1.129241501835563e-05
2.4252044135550014e-07,2.3767031948534078e-07,2.692050571510444e-07,1.11149516343266e-05
2.438952083223949e-07,2.3758047984327422e-07,2.709773389394976e-07,1.0941243756308372e-05
2.452566432119955e-07,2.3744407902636127e-07,2.727005947509943e-07,1.0772021037625792e-05
2.46590863654877e-07,2.3726633875496868e-07,2.743608547402634e-07,1.060785845676132e-05
2.478856034581618e-07,2.3705449157817125e-07,2.7594686719318105e-07,1.0449173164223513e-05
2.491302163430998e-07,2.36817637044388e-07,2.774501153097847e-07,1.0296224487855504e-05
2.503155299682837e-07,2.365652637556505e-07,2.7886406238690497e-07,1.014912711169808e-05
2.5143359519999177e-07,2.3630590085623173e-07,2.80182932693565e-07,1.000791346136804e-05
2.524770723369461e-07,2.36046810323334e-07,2.8140033970385985e-07,9.872688147286678e-06
2.534386899716294e-07,2.3579437038820025e-07,2.8250885235517264e-07,9.74381317073496e-06
2.5431104214247605e-07,2.3555449618453695e-07,2.8350034656619547e-07,9.621959332988694e-06
2.5508644108829143e-07,2.3533237992590948e-07,2.8436610530714606e-07,9.507983892839088e-06
2.557570894340438e-07,2.351316520499525e-07,2.850968111154045e-07,9.402766166206146e-06
2.5631552830209466e-07,2.3495407745558137e-07,2.856830093231704e-07,9.307094278929518e-06
2.567551090860074e-07,2.3480079237087322e-07,2.861163459712545e-07,9.221622627965816e-06
2.570712765631659e-07,2.3467483614836715e-07,2.863905896995921e-07,9.146955054553327e-06
2.57263395206313e-07,2.3458262101083626e-07,2.8650131900863825e-07,9.083821134798504e-06
2.5733506527435365e-07,2.345329070096295e-07,2.8644611358627355e-07,9.033159896231746e-06
2.5729229418705744e-07,2.3453552678775412e-07,2.862262970447203e-07,8.996041986310577e-06
2.5714129539976066e-07,2.3460138903531466e-07,2.8584760212335644e-07,8.973529681928996e-06
2.5688760707916266e-07,2.347419672888291e-07,2.8531869611064405e-07,8.966541175064914e-06
2.565363131051345e-07,2.349672527207685e-07,2.84649118476305e-07,8.975738275547351e-06
2.560922612894191e-07,2.352840275674741e-07,2.838475603702204e-07,9.001455064680002e-06
2.5556025916923044e-07,2.356961321571085e-07,2.829213632669675e-07,9.04367466694989e-06
2.5494548169878377e-07,2.3620581382182268e-07,2.818776588691624e-07,9.102054069019341e-06
2.542535671530581e-07,2.3681427867955555e-07,2.807247473788998e-07,9.175984223676456e-06
2.534905028038186e-07,2.3752123657733613e-07,2.794724598012365e-07,9.264652174917237e-06
2.526623332598868e-07,2.383246839803676e-07,2.7813154864622327e-07,9.367073757932488e-06
2.517741694553751e-07,2.3922133752899513e-07,2.76712546926762e-07,9.482102379482393e-06
2.508292665020164e-07,2.4020683643123624e-07,2.75224826683606e-07,9.608438665277847e-06
2.498290229412759e-07,2.4127519680435137e-07,2.7367647434016136e-07,9.744654666926235e-06
2.4877348825821976e-07,2.424183274925227e-07,2.720746007129302e-07,9.889245119713867e-06
2.4766304580935085e-07,2.4362624614153397e-07,2.704252845021056e-07,1.0040701002956793e-05
2.465018349053027e-07,2.4488746452399674e-07,2.6873310307154165e-07,1.0197570218789869e-05
2.452994100815472e-07,2.4618969557178447e-07,2.670011553122774e-07,1.0358490823434344e-05
2.4406796005902147e-07,2.4752146842468227e-07,2.652327870962235e-07,1.0522207806790488e-05
2.428186880754426e-07,2.4887377174225164e-07,2.634342689781824e-07,1.0687556766096907e-05
2.4156085698499125e-07,2.502404636193556e-07,2.616157008114553e-07,1.0853403482883686e-05
2.403025386677319e-07,2.5161692538344016e-07,2.597897042536037e-07,1.1018586433810394e-05
2.390515198768382e-07,2.529979886194139e-07,2.579698262414733e-07,1.118190773313883e-05
2.3781599573738736e-07,2.543773796217462e-07,2.561694757160873e-07,1.1342170054069544e-05
2.3660510620525361e-07,2.557486667508452e-07,2.5440129510239764e-07,1.1498252038748755e-05
2.3542883409259938e-07,2.571060134291687e-07,2.526767199058453e-07,1.164920100855208e-05
2.342970477846533e-07,2.584441972620224e-07,2.510053703750068e-07,1.1794274223644197e-05
2.3321897941403388e-07,2.597580110633904e-07,2.493949847013949e-07,1.1932892241556944e-05
2.322029688357099e-07,2.6104181063956516e-07,2.478525105756564e-07,1.2064554387431246e-05
2.3125531854812122e-07,2.6228987576962327e-07,2.463849521662944e-07,1.2188779113555914e-05
2.3037947157104845e-07,2.634973680019717e-07,2.449987577471202e-07,1.2305088558066548e-05
2.2957652626774978e-07,2.646611849557096e-07,2.436984752428979e-07,1.2413018697543742e-05
2.288465606715893e-07,2.657793268121602e-07,2.424859866598059e-07,1.251214079501613e-05
2.2819017649285823e-07,2.668489450262239e-07,2.413612581577903e-07,1.2602100657835976e-05
2.276090975125898e-07,2.6786507718645547e-07,2.4032408667280925e-07,1.2682661336293249e-05
2.2710515935288921e-07,2.688205267714413e-07,2.393755733697961e-07,1.27537258259258e-05
2.266788410430432e-07,2.697060810368737e-07,2.385192862353764e-07,1.2815346016109305e-05
2.2632871035796927e-07,2.7051092561581807e-07,2.3776154371893763e-07,1.2867749142099006e-05
2.2605176845071997e-07,2.7122352111701424e-07,2.3710988583513122e-07,1.2911388799363561e-05
2.2584411240942468e-07,2.718329210059189e-07,2.365716346543781e-07,1.2946955271603385e-05
2.2570217779366622e-07,2.723297407569517e-07,2.3615503214604912e-07,1.297528762680028e-05
2.256241289370953e-07,2.727058641105632e-07,2.358713145522676e-07,1.2997227798741666e-05
2.2560960405068517e-07,2.72953365321484e-07,2.357335606418695e-07,1.3013506997342426e-05
2.256579430066733e-07,2.730639958250461e-07,2.3575271331662203e-07,1.3024722751023273e-05
2.257669021629611e-07,2.730295440170413e-07,2.3593521013608126e-07,1.3031382149453535e-05
2.259323981882845e-07,2.7284216606677624e-07,2.362830413906061e-07,1.3033937402530125e-05
2.2614859153663925e-07,2.724942347046661e-07,2.367943574769191e-07,1.30327920671733e-05
2.2640855232350802e-07,2.719787150358773e-07,2.374642005753612e-07,1.3028334368747227e-05
2.267060879154527e-07,2.712908098720611e-07,2.382854051180325e-07,1.302103390507255e-05
2.2703726962840318e-07,2.7042934560238127e-07,2.392496211046269e-07,1.3011516224026495e-05
2.2739972850684538e-07,2.693960443727274e-07,2.4034811704858084e-07,1.3000513680120813e-05
2.2779064667600822e-07,2.6819360161195733e-07,2.4157159532093303e-07,1.2988735378828195e-05
2.2820552285149807e-07,2.668247386405066e-07,2.4290919415030307e-07,1.2976764843769815e-05
2.2863799531366077e-07,2.652924842100293e-07,2.443476280337021e-07,1.2965075844057187e-05
2.290802076891137e-07,2.636008113144934e-07,2.458710242341308e-07,1.2954218476323468e-05
2.295239922684993e-07,2.617551079132414e-07,2.474623456244093e-07,1.2945054483084935e-05
2.2996245056351577e-07,2.597621692505154e-07,2.491066521430307e-07,1.2938818974454112e-05
2.3039065380605005e-07,2.576299639127759e-07,2.507936433221509e-07,1.2936975998425087e-05
2.3080560191060038e-07,2.553672533330672e-07,2.525182209315282e-07,1.2941013081364153e-05
2.3120640701659042e-07,2.5298301451731484e-07,2.54280605009025e-07,1.2952270386272815e-05
2.315949634189238e-07,2.5048659400537246e-07,2.560852430340604e-07,1.2971819629942454e-05
2.319762995133104e-07,2.478884668599661e-07,2.5793837383137657e-07,1.3000400134923475e-05
2.323572498025545e-07,2.4520035652209297e-07,2.59846819508702e-07,1.3038411779199886e-05
2.3274397982951568e-07,2.4243521753813227e-07,2.6181831254051964e-07,1.3085940678184551e-05
2.3314082114806122e-07,2.3960760465110857e-07,2.638623573057801e-07,1.3142795127837755e-05
2.335513564546896e-07,2.3673309369456328e-07,2.6599044246898825e-07,1.3208542372377126e-05
2.3398002214467588e-07,2.3382694760757108e-07,2.682138755168765e-07,1.3282534396546582e-05
2.344327498869913e-07,2.309039186154809e-07,2.705403201772381e-07,1.336393122743791e-05
2.3491724054192e-07,2.2797881181765375e-07,2.729718017728777e-07,1.3451748985290986e-05
2.3544272254947382e-07,2.2506653956786882e-07,2.755045688370461e-07,1.3544934883107209e-05
2.3601833348424e-07,2.2218219520360307e-07,2.781297123928689e-07,1.3642453362879084e-05
2.3665159975707325e-07,2.193414448113993e-07,2.808339066329789e-07,1.3743364704085009e-05
2.373484065324823e-07,2.1656061383707107e-07,2.836001147755207e-07,1.3846863909150781e-05
2.3811405233164912e-07,2.138562693244821e-07,2.8640850832703426e-07,1.3952266320547366e-05
2.389546968763182e-07,2.112441440678952e-07,2.8923793544360665e-07,1.40589756845971e-05
2.398777622475275e-07,2.0873788772433015e-07,2.920678287297264e-07,1.4166471156664484e-05
2.408911443156944e-07,2.0634905006957567e-07,2.9487924627149055e-07,1.4274302243159839e-05
2.42002975930044e-07,2.0408810054422893e-07,2.976543685898154e-07,1.4382063591936386e-05
2.4322154576668575e-07,2.019649856001441e-07,3.003761208542387e-07,1.4489353582805304e-05
2.4455415186733826e-07,1.9998913295148165e-07,3.030286373817323e-07,1.4595739490088953e-05
2.4600574986223804e-07,1.9816947362606725e-07,3.055978085978063e-07,1.470073872849734e-05
2.4757814256260906e-07,1.9651434542889303e-07,3.080715704103944e-07,1.4803835378761124e-05
2.4926950570984073e-07,1.950311502003738e-07,3.104393758936624e-07,1.4904535588156345e-05
2.510743790460733e-07,1.937260978350942e-07,3.126912137781924e-07,1.5002402880117786e-05
2.529847426963038e-07,1.92604567566615e-07,3.148176702341155e-07,1.5097037481197233e-05
2.549921579021863e-07,1.916719498855284e-07,3.1681106243841e-07,1.5188042785645264e-05
2.5708923503868284e-07,1.9093389328319892e-07,3.186658109226262e-07,1.527502684489242e-05
2.592698398292613e-07,1.903955287134656e-07,3.203775699802941e-07,1.5357624594029172e-05
2.615298314989532e-07,1.9006089031463613e-07,3.219430003671569e-07,1.5435480435790865e-05
2.638681366805597e-07,1.899336302715353e-07,3.233609490496299e-07,1.550818308207976e-05
2.6628590102179087e-07,1.9001784242130173e-07,3.246337824080535e-07,1.5575224607300887e-05
2.687836594495813e-07,1.9031712125340254e-07,3.257678076058647e-07,1.5636025859850435e-05
2.7135904681603577e-07,1.9083295659561308e-07,3.267724677491859e-07,1.5689992675416932e-05
2.7400671707505824e-07,1.9156513504479266e-07,3.276584566483841e-07,1.5736583123500905e-05
2.767190005289449e-07,1.9251345269387861e-07,3.2843599856004e-07,1.5775402587742715e-05
2.7948582145579193e-07,1.936780576215633e-07,3.291147976468093e-07,1.580626458463923e-05
2.8229523670716304e-07,1.9505824890022945e-07,3.297048413026521e-07,1.5829127697891958e-05
2.851347794109941e-07,1.966508792028751e-07,3.302157025123922e-07,1.5843976135100946e-05
2.879914769713159e-07,1.984489633197605e-07,3.3065451010156805e-07,1.5850782887016878e-05
2.9085112835566824e-07,2.0044140240480559e-07,3.310256680000221e-07,1.584955288762786e-05
2.936987989050405e-07,2.0261410978532764e-07,3.313335201918128e-07,1.5840359727396353e-05
2.965196884754645e-07,2.049518714874471e-07,3.315854754862506e-07,1.5823350804244714e-05
2.992997063963886e-07,2.074406706069853e-07,3.3179305691413977e-07,1.5798736009045936e-05
3.0202682493998214e-07,2.100690477885559e-07,3.3197008352094026e-07,1.5766815159378506e-05
3.046930283766045e-07,2.128269840886657e-07,3.321291333131703e-07,1.572810309558813e-05
3.0729499374909127e-07,2.1570406465613775e-07,3.322791673097944e-07,1.56834443741147e-05
3.098319938861894e-07,2.1868920205592688e-07,3.324257449257141e-07,1.5633959216541673e-05
3.1230268661290734e-07,2.2177176935707523e-07,3.325729051884928e-07,1.5580869412687232e-05
3.1470408548175997e-07,2.24942365912787e-07,3.32725276141424e-07,1.552533545818529e-05
3.170321397273572e-07,2.281921541784996e-07,3.328889629226737e-07,1.5468371248168107e-05
3.1928144985816677e-07,2.315119632685929e-07,3.33070576360002e-07,1.541090791328726e-05
3.214447316397361e-07,2.348918035008597e-07,3.332753003631168e-07,1.5353987077657407e-05
3.2351328085479924e-07,2.3832012798752502e-07,3.3350533157740286e-07,1.529888797812209e-05
3.2547825638445576e-07,2.417833752465151e-07,3.33759424436939e-07,1.5247069458312586e-05
3.2733251796751754e-07,2.4526645929421313e-07,3.3403375793884804e-07,1.5200025224391906e-05
3.290721147327402e-07,2.4875387355020234e-07,3.343230849174439e-07,1.5159165505965644e-05
3.306968253124273e-07,2.5223095697756443e-07,3.346208846810124e-07,1.512573658821474e-05
3.3220986414078605e-07,2.55684691530888e-07,3.3491966459817227e-07,1.5100762456236325e-05
3.3361605229854017e-07,2.591031025581736e-07,3.352122636375789e-07,1.5085012429946392e-05
3.3491921730574327e-07,2.624735226797389e-07,3.354923223652711e-07,1.5079000982560974e-05
3.361213514936839e-07,2.657817729894533e-07,3.357535040287881e-07,1.508301182222312e-05
3.372239484401626e-07,2.6901308653393603e-07,3.35989002836872e-07,1.5097128095050393e-05
3.382295304214211e-07,2.72153403366044e-07,3.361912071147293e-07,1.5121242103433445e-05
3.391416441472477e-07,2.751905218926322e-07,3.363512634190692e-07,1.5155035091148105e-05
3.399641280385799e-07,2.781156089250703e-07,3.364595961826651e-07,1.5197959966940787e-05
3.407014933282344e-07,2.809237155534112e-07,3.3650682239838464e-07,1.5249261075381873e-05
3.413592671592931e-07,2.836124273701829e-07,3.3648381082862397e-07,1.53080300100148e-05
3.4194260190527394e-07,2.861811803372455e-07,3.363815091729152e-07,1.537327881507578e-05
3.424547811044796e-07,2.8863133701910964e-07,3.361915326684721e-07,1.5444005307204698e-05
3.428972166287832e-07,2.909643736410193e-07,3.3590761265276087e-07,1.5519241519014323e-05
3.4327040624168547e-07,2.9318000594272215e-07,3.355268797234887e-07,1.559811519958262e-05
3.4357540779595943e-07,2.9527776672667145e-07,3.35049529541519e-07,1.5679929341441886e-05
3.4381523846463484e-07,2.972604091270867e-07,3.344773379350836e-07,1.5764201109964592e-05
3.439952530605961e-07,2.9913436997636125e-07,3.338127711015367e-07,1.58506216023841e-05
3.441226674964901e-07,3.009065400257776e-07,3.330591203257465e-07,1.593897177601408e-05
3.442052908274896e-07,3.025812060827263e-07,3.322208222472429e-07,1.6029040482591192e-05
3.442493657638389e-07,3.0415954154530183e-07,3.3130307418091146e-07,1.612055639977095e-05
3.4425788648821893e-07,3.056407324185544e-07,3.303110018264554e-07,1.6213158584646434e-05
3.442306338850047e-07,3.070229169074204e-07,3.29249174546443e-07,1.630642127518207e-05
3.441655253583163e-07,3.0830323580753777e-07,3.2812125024544356e-07,1.6399883559126573e-05
3.440599141058507e-07,3.094777325154657e-07,3.26929681487472e-07,1.6493054884135447e-05
3.439108803654939e-07,3.1054161600249013e-07,3.256763706234231e-07,1.658542846635931e-05
3.437153226902445e-07,3.114898688548726e-07,3.2436461924648754e-07,1.6676511823104015e-05
3.434711319019989e-07,3.12318010908871e-07,3.230005957666801e-07,1.676584606090354e-05
3.431779956492964e-07,3.1302234339063244e-07,3.215922819700056e-07,1.685298546844588e-05
3.428359595723384e-07,3.135994603644185e-07,3.201472492975369e-07,1.6937438356451422e-05
3.424439525482257e-07,3.1404636644612784e-07,3.1867153986419485e-07,1.7018612536341373e-05
3.4200089468131337e-07,3.143630132376453e-07,3.171694741059853e-07,1.7095804167821466e-05
3.415078765139419e-07,3.145556254760353e-07,3.1564395802574027e-07,1.7168235841110342e-05
3.409685742867839e-07,3.1463647785459737e-07,3.140968479069303e-07,1.7235147494186878e-05
3.403881965494978e-07,3.146209043826664e-07,3.125289151322319e-07,1.7295927417493804e-05
3.397727435624388e-07,3.145257675857309e-07,3.1094055593334053e-07,1.7350210786839712e-05
3.391277807320461e-07,3.143686240133564e-07,3.093328265740359e-07,1.739786150378236e-05
3.384562826828421e-07,3.1416526988281787e-07,3.0770681564105696e-07,1.7438846992524038e-05
3.377576782690676e-07,3.1392734537984616e-07,3.060625073499551e-07,1.7473113379671662e-05
3.370292348570496e-07,3.1366209817257746e-07,3.043991794587241e-07,1.7500540547867313e-05
3.3626846071991136e-07,3.133734593985089e-07,3.027163775979569e-07,1.752094995794514e-05
3.3547422164337074e-07,3.130628036956853e-07,3.010144769623024e-07,1.7534106366792214e-05
3.3464629005783074e-07,3.1272952939783677e-07,2.9929561016651614e-07,1.7539711904776465e-05
3.337848096253562e-07,3.12371877786629e-07,2.9756495104627906e-07,1.7537457961749718e-05
3.328895901102053e-07,3.1198724425427684e-07,2.9583124141186524e-07,1.7527187645401702e-05
3.31958977437167e-07,3.115720249306272e-07,2.941057010911847e-07,1.7509062669969323e-05
3.309894389358345e-07,3.111221319587055e-07,2.92399695225064e-07,1.7483548942908926e-05
3.2997710584820035e-07,3.1063420095991513e-07,2.9072286842367505e-07,1.745123070224149e-05
3.289214110004979e-07,3.10106666109066e-07,2.8908280510046325e-07,1.7412628378879487e-05
3.2782794991187874e-07,3.09540726847066e-07,2.8748547158329073e-07,1.7368151208198205e-05
3.2670730741668056e-07,3.089414190512821e-07,2.859353094347126e-07,1.7318236888466714e-05
3.255710212687592e-07,3.08317959655062e-07,2.8443562802547515e-07,1.726359469756796e-05
3.244280376767349e-07,3.076829720580462e-07,2.829903026066022e-07,1.7205335783631605e-05
3.232831871795467e-07,3.070510352014652e-07,2.8160526169267147e-07,1.7144887921604725e-05
3.2213804576438286e-07,3.064366647283449e-07,2.802886458966178e-07,1.7083800041999885e-05
3.209944122494391e-07,3.058525888297943e-07,2.790506412238831e-07,1.702357227492902e-05
3.1985804402701697e-07,3.053091490301333e-07,2.779033206887972e-07,1.6965556866312154e-05
3.187383516378224e-07,3.048140771246875e-07,2.768602237137645e-07,1.6910907759348646e-05
3.176448214000863e-07,3.0437225024126127e-07,2.759351841824216e-07,1.6860552643514818e-05
3.165849008232098e-07,3.039859959757775e-07,2.7514055706906693e-07,1.681517886276081e-05
3.155639037833797e-07,3.036557199348171e-07,2.7448640051851803e-07,1.6775227941191236e-05
3.145850510082893e-07,3.033803528753695e-07,2.739811760978373e-07,1.6740896019573807e-05
3.136494329741597e-07,3.031580496347732e-07,2.7363361405219304e-07,1.6712147465747318e-05
3.127562398876436e-07,3.029872086604629e-07,2.7345437711799693e-07,1.6688753749262726e-05
3.119034653707212e-07,3.028668192768721e-07,2.7345465206925923e-07,1.6670351793093406e-05
3.110883393715668e-07,3.027958563164537e-07,2.736420922085729e-07,1.6656497169527814e-05
3.103072674136899e-07,3.027734659187432e-07,2.7401826093723804e-07,1.6646704964482687e-05
3.0955660655480573e-07,3.028006148280876e-07,2.7457903678857323e-07,1.6640489495858147e-05
3.088337572583428e-07,3.028804779284404e-07,2.753164753684017e-07,1.6637391627825133e-05
3.081368582650948e-07,3.0301691808736373e-07,2.762215764782457e-07,1.6636975135390883e-05
3.074641560765375e-07,3.0321385053977827e-07,2.772865937844296e-07,1.6638808029088635e-05
3.068150745351305e-07,3.034757962727088e-07,2.785045823890214e-07,1.6642455042628365e-05
3.061924488165833e-07,3.038078942527481e-07,2.7986731772533664e-07,1.6647477935268132e-05
3.056033909539454e-07,3.042148524405403e-07,2.8136443667213247e-07,1.665342111918692e-05
3.050568764969835e-07,3.046998064708629e-07,2.8298412597805607e-07,1.6659779806586926e-05
3.0455990018607697e-07,3.0526525541742877e-07,2.8471375826482865e-07,1.6665973275661484e-05
3.041158902911899e-07,3.059157677043014e-07,2.865401142041781e-07,1.6671343474915153e-05
3.0372562122621606e-07,3.066580500877204e-07,2.884504980475549e-07,1.6675199278088943e-05
3.033885064267943e-07,3.074975203730086e-07,2.904338572841123e-07,1.6676911591228787e-05
3.0310304529194265e-07,3.0843617323078124e-07,2.9247995331833766e-07,1.6675993363687804e-05
3.028666279311396e-07,3.0947302377972934e-07,2.9457779954911324e-07,1.6672092799675668e-05
3.0267622496688326e-07,3.106042857787044e-07,2.967150527614439e-07,1.6664935766437755e-05
3.025303707530364e-07,3.1182319804211305e-07,2.988783288155647e-07,1.6654289439709793e-05
3.024306719172988e-07,3.131210287773534e-07,3.01054559340747e-07,1.6639947045333578e-05
3.023819684385825e-07,3.1448820310257394e-07,3.032327241991451e-07,1.6621697033687414e-05
3.023911802688928e-07,3.1591414251568786e-07,3.054038745137505e-07,1.6599276746199167e-05
3.024645870297138e-07,3.1738677636626246e-07,3.075590264128561e-07,1.657235495755195e-05
3.026052898690197e-07,3.188926435166248e-07,3.096872028310204e-07,1.6540587353358083e-05
3.028129546912992e-07,3.20417544496881e-07,3.117751586799571e-07,1.650374936038351e-05
3.0308473425437734e-07,3.2194788485182016e-07,3.1380799676952674e-07,1.646188500609635e-05
3.034155743419575e-07,3.234721233032496e-07,3.157697646984977e-07,1.6415368628805562e-05
3.037980686775103e-07,3.249815388044139e-07,3.176444461385243e-07,1.6364841357360522e-05
3.0422297816267856e-07,3.264709905725968e-07,3.1941801689776285e-07,1.6311080794488708e-05
3.046815202003627e-07,3.279392975553687e-07,3.2107994608151086e-07,1.6254865802623572e-05
3.0516897323823607e-07,3.2938739087246926e-07,3.2262197727465936e-07,1.6196876568440892e-05
3.0568622432759576e-07,3.308154716441875e-07,3.2403610878110625e-07,1.6137668804853172e-05
3.062369321767807e-07,3.3222138708673876e-07,3.253145609442127e-07,1.6077710986972742e-05
3.068234955733016e-07,3.3359992329381737e-07,3.264509671062653e-07,1.601742406573412e-05
3.0744592407566307e-07,3.349428134904076e-07,3.2744111591191566e-07,1.5957178451331596e-05
3.081027446657891e-07,3.3623974645430943e-07,3.282826737521871e-07,1.5897275813877563e-05
3.087913067444313e-07,3.3748017848654773e-07,3.289743371940114e-07,1.5838012916819005e-05
3.0950775232242444e-07,3.386549892341068e-07,3.295149597974616e-07,1.5779806281761577e-05
3.102479146849211e-07,3.397563181315552e-07,3.299028369051661e-07,1.572320387013151e-05
3.1100839353208706e-07,3.407766405534519e-07,3.301360796321325e-07,1.5668761456137584e-05
3.117867289827601e-07,3.4171031553094824e-07,3.302134590452775e-07,1.5616960757310427e-05
3.1258078289266747e-07,3.425565062559175e-07,3.3013393717201163e-07,1.5568298078047502e-05
3.133878030700474e-07,3.433194762121946e-07,3.298958555177317e-07,1.552347947621076e-05
3.1420374762641e-07,3.440060573364574e-07,3.294973862180657e-07,1.5483517248453742e-05
3.150233358426675e-07,3.4462291403963924e-07,3.28937881042834e-07,1.5449641635776033e-05
3.158412033348917e-07,3.451758539042941e-07,3.2821895472588026e-07,1.5423141756824962e-05
3.1665371472691287e-07,3.456708647411928e-07,3.2734452917470286e-07,1.5405231262028867e-05
3.174601786378668e-07,3.4611363701295466e-07,3.2632041070211094e-07,1.539694846714279e-05
3.1826312462779043e-07,3.465073196490416e-07,3.251545863420153e-07,1.5399087871351857e-05
3.190672565573313e-07,3.46852174509532e-07,3.238579683033644e-07,1.5412153103644025e-05
3.1987681712499657e-07,3.471476370163034e-07,3.2244434090588e-07,1.5436323048464718e-05
3.206934417837504e-07,3.473933413108171e-07,3.2092896381286173e-07,1.5471438441561816e-05
3.215162931349116e-07,3.4758824926896007e-07,3.193264882547689e-07,1.5517017959154292e-05
3.2234363388435487e-07,3.477305969236859e-07,3.176500278246601e-07,1.5572303499463574e-05
3.2317410253467844e-07,3.478187420689996e-07,3.1591186484744054e-07,1.5636323912001307e-05
3.2400632681357585e-07,3.478509774769207e-07,3.141240754464531e-07,1.570796217675384e-05
3.2483755585189885e-07,3.4782568917638306e-07,3.12298488801097e-07,1.5786019086497906e-05
3.256630974311089e-07,3.477429221963777e-07,3.1044623470835817e-07,1.586928601095934e-05
3.264767126405046e-07,3.4760455064944446e-07,3.085768354997524e-07,1.59566338631411e-05
3.2727207911089447e-07,3.474121942880053e-07,3.066981941885383e-07,1.6047083716040062e-05
3.280447963024752e-07,3.4716587550834843e-07,3.048187081457221e-07,1.6139822030345776e-05
3.287929289196017e-07,3.468649859929924e-07,3.029497831432935e-07,1.6234167702648742e-05
3.295160320943989e-07,3.465105848833187e-07,3.011059569817285e-07,1.632952384101907e-05
3.302137299978289e-07,3.461074754105181e-07,2.99303133449709e-07,1.6425352523585816e-05
3.308850782850525e-07,3.4566503629608486e-07,2.9755743322941043e-07,1.6521186469782818e-05
3.315300849487699e-07,3.451963695238218e-07,2.958842418280628e-07,1.6616641986536514e-05
3.3215115501792933e-07,3.447156030269929e-07,2.942964410478611e-07,1.6711393921508893e-05
3.327515616289809e-07,3.4423483329135426e-07,2.928037007243565e-07,1.6805109040601895e-05
3.333326559497553e-07,3.437628769439636e-07,2.914134095402998e-07,1.689737477510852e-05
3.338925023484393e-07,3.433059740007984e-07,2.9013200232878407e-07,1.6987701215130464e-05
3.344264311539977e-07,3.4286881927043856e-07,2.8896693858839486e-07,1.7075612019372662e-05
3.349289646790004e-07,3.424544397840802e-07,2.879279275536531e-07,1.7160713753552286e-05
3.353959140937326e-07,3.420634966521518e-07,2.870252449884565e-07,1.7242671159647907e-05
3.3582518501409533e-07,3.4169481182597663e-07,2.862678001135788e-07,1.7321137906633272e-05
3.362158544655243e-07,3.4134700319953534e-07,2.856632134639169e-07,1.7395692469533427e-05
3.365672991620076e-07,3.4101971085221427e-07,2.852172572566803e-07,1.746580593437139e-05
3.3688033341662557e-07,3.407138663568783e-07,2.8493196288896925e-07,1.7530867155449473e-05
3.3715871316085026e-07,3.40431035353808e-07,2.848053501507689e-07,1.7590236796232422e-05
3.374081671867007e-07,3.401719344812446e-07,2.848334474313186e-07,1.7643302393493797e-05
3.376340454876464e-07,3.3993514347887047e-07,2.850118470049388e-07,1.7689539411312085e-05
3.378406940891821e-07,3.397171459147869e-07,2.8533499528442497e-07,1.772853647037989e-05
3.3803266342612056e-07,3.3951309491686303e-07,2.8579498619487147e-07,1.7759948545485153e-05
3.382153414479209e-07,3.393171667725237e-07,2.86381677289315e-07,1.778342144219574e-05
3.3839441798442194e-07,3.3912281101782265e-07,2.8708366523677695e-07,1.779854308330993e-05
3.385753276954509e-07,3.389233985518223e-07,2.878898735787897e-07,1.7804833105205263e-05
3.3876248278165805e-07,3.387129281425612e-07,2.8879108390652964e-07,1.7801764857539288e-05
3.38958184371211e-07,3.384870233724057e-07,2.8977977742489727e-07,1.778882493748715e-05
3.391623782686556e-07,3.382441613425867e-07,2.908487898649765e-07,1.776559313684213e-05
3.393735415246544e-07,3.379850931078065e-07,2.919906297745356e-07,1.7731796745025787e-05
3.3959012907517463e-07,3.377101934037029e-07,2.9319850816895485e-07,1.7687317427236184e-05
3.398127702054205e-07,3.374179620407545e-07,2.9446852957243035e-07,1.763215261447428e-05
3.400465498759657e-07,3.371063924913389e-07,2.9580005366510824e-07,1.7566372952856438e-05
3.403004969576913e-07,3.36775351569955e-07,2.971929780400535e-07,1.749017245724435e-05
3.405840371452679e-07,3.364269450602816e-07,2.986449243752384e-07,1.7403972191481008e-05
3.4090428962773854e-07,3.360631638552575e-07,3.0015036104221536e-07,1.7308411365200734e-05
3.4126591024061106e-07,3.3568346749725257e-07,3.017014832127124e-07,1.7204284186112973e-05
3.416715849881843e-07,3.352844185641109e-07,3.032907836444607e-07,1.7092558267461317e-05
3.42121947661505e-07,3.3486087456803445e-07,3.049132745517653e-07,1.6974361136848115e-05
3.426152995574928e-07,3.3440761304663145e-07,3.065655771149878e-07,1.685085041442488e-05
3.431478578041953e-07,3.339210634332312e-07,3.082430574119881e-07,1.67230740154049e-05
3.437148875907864e-07,3.334003947713809e-07,3.099380265869584e-07,1.6591897496637404e-05
3.44311642296316e-07,3.328467910691206e-07,3.116396661562173e-07,1.6457988314147615e-05
3.449330750044654e-07,3.3226191962499254e-07,3.13335040154148e-07,1.6321826003833317e-05
3.455730433596477e-07,3.3164767949927513e-07,3.150110446204957e-07,1.6183723159905084e-05
3.462239321114432e-07,3.310075391467303e-07,3.166573109304311e-07,1.6043848307863363e-05
3.4687691266969947e-07,3.3034712347547997e-07,3.182697441061161e-07,1.5902239284899388e-05
3.47523091820947e-07,3.296724558544769e-07,3.198527133085618e-07,1.5758815846700243e-05
3.481558717699798e-07,3.289887420322405e-07,3.214169070132969e-07,1.5613400170970573e-05
3.487731323195935e-07,3.2830133758260326e-07,3.229736016752592e-07,1.546573931207225e-05
3.493765906777324e-07,3.276158749172986e-07,3.2452990934370606e-07,1.5315529275565193e-05
3.499689114120833e-07,3.269367348457377e-07,3.260875629621368e-07,1.5162446830972e-05
3.505516477920582e-07,3.262665584454129e-07,3.2764435982644356e-07,1.500619997745151e-05
3.51124571556537e-07,3.256071948451404e-07,3.2919647378231405e-07,1.484659386329093e-05
3.5168515704207557e-07,3.249605861310564e-07,3.307398220219105e-07,1.468357396586303e-05
3.522282443000147e-07,3.243294140219556e-07,3.322697453645808e-07,1.4517216318965167e-05
3.527466417130625e-07,3.237171913949499e-07,3.337800492659178e-07,1.4347683431680201e-05
3.532326359715443e-07,3.2312728721389087e-07,3.352627084629041e-07,1.4175186679522312e-05
3.536792663123053e-07,3.225614900689635e-07,3.3670844332850184e-07,1.3999971882565063e-05
3.540805284388268e-07,3.220191064801435e-07,3.381072748781846e-07,1.3822317622558054e-05
3.5443154119907456e-07,3.214974314472581e-07,3.39448346374208e-07,1.364254201167451e-05
3.547291549656482e-07,3.2099286859789853e-07,3.4071999397186143e-07,1.3461009975737171e-05
3.5497180935081157e-07,3.205010931380788e-07,3.4191159202395925e-07,1.3278112259987187e-05
3.551589160237108e-07,3.2001701226445553e-07,3.430158204406668e-07,1.309421533685338e-05
3.5529047720650895e-07,3.1953628802214927e-07,3.440285313102671e-07,1.2909620531627296e-05
3.553665488671592e-07,3.1905722963011496e-07,3.4494687936666297e-07,1.2724569545823234e-05
3.5538652765657633e-07,3.1858015521846977e-07,3.457679198061043e-07,1.2539321122910018e-05
3.553482785649535e-07,3.181045176081387e-07,3.464876791662283e-07,1.235426909291429e-05
3.5524744600667844e-07,3.1762683514251734e-07,3.471006347379881e-07,1.2169992586397255e-05
3.5507784407533907e-07,3.171406671161579e-07,3.476005156482645e-07,1.1987171025743566e-05
3.548328525824275e-07,3.166380638150425e-07,3.479826206446324e-07,1.1806445125411882e-05
3.5450663418700755e-07,3.161118667648202e-07,3.4824641902332786e-07,1.1628342349526352e-05
3.540942663381109e-07,3.1555774673387043e-07,3.483957758186172e-07,1.1453296495167038e-05
3.535911718790187e-07,3.149745288884632e-07,3.484359472284493e-07,1.128172523697108e-05
3.529926108163247e-07,3.14362629629347e-07,3.483705919972911e-07,1.1114086704226798e-05
3.5229337763861536e-07,3.1372273599250705e-07,3.482013247606017e-07,1.0950867865162327e-05
3.5148786329360445e-07,3.130569990185716e-07,3.4792907930157646e-07,1.0792572704175176e-05
3.505703305943995e-07,3.123715239376773e-07,3.475559632261634e-07,1.0639760069199742e-05
3.495352856037229e-07,3.116765516627477e-07,3.470859999091139e-07,1.04930724826979e-05
3.483786865774193e-07,3.109839254761809e-07,3.465239471223198e-07,1.0353222490952076e-05
3.4709962242279876e-07,3.1030469422683055e-07,3.4587382703124236e-07,1.022096227947151e-05
3.457007706157231e-07,3.0964828362145906e-07,3.451385232260451e-07,1.0097033005980837e-05
3.441869472996288e-07,3.090223921999587e-07,3.443201725056496e-07,9.982088042997736e-06
3.425636359931633e-07,3.084323390839656e-07,3.434207734584005e-07,9.876638490805596e-06
3.408378428081121e-07,3.0788044100327075e-07,3.4244242301652645e-07,9.781050553666403e-06
3.390197977003603e-07,3.0736665100706855e-07,3.413873542739861e-07,9.69554988304752e-06
3.3712343801208183e-07,3.068892870449725e-07,3.4025871732120126e-07,9.620201871472085e-06
3.3516632438657325e-07,3.064446209867187e-07,3.390617878929783e-07,9.55489227817809e-06
3.331683438716258e-07,3.060266665005725e-07,3.378039113578967e-07,9.49935050388375e-06
3.311485518230116e-07,3.0562826409042174e-07,3.3649378674432913e-07,9.453266829689148e-06
3.291229422994431e-07,3.052422034729701e-07,3.3514229762074734e-07,9.416450513127372e-06
3.271049993831485e-07,3.048614166129781e-07,3.337636079201921e-07,9.388878231834013e-06
3.251072734580817e-07,3.044789025542181e-07,3.323736961879469e-07,9.370676085385235e-06
3.231427975973684e-07,3.040879962659745e-07,3.3098693133795525e-07,9.362180353417808e-06
3.2122591880968487e-07,3.036834023323699e-07,3.2961369423472925e-07,9.363987622044755e-06
3.1937085130619177e-07,3.0326249634811866e-07,3.282603531388157e-07,9.376875727445776e-06
3.1758895816325587e-07,3.028247828168171e-07,3.2693025852001466e-07,9.401675897355292e-06
3.158878470206816e-07,3.023694937314742e-07,3.2562452014716945e-07,9.439178763393803e-06
3.1427169631852195e-07,3.018942809633256e-07,3.243430398174686e-07,9.490065160528946e-06
3.127411887854332e-07,3.013961376643243e-07,3.230861971793472e-07,9.554845538096423e-06
3.112942532914087e-07,3.00873026246749e-07,3.2185565674299217e-07,9.63379979084334e-06
3.099279731595865e-07,3.003245088180929e-07,3.206530160933361e-07,9.726917604118182e-06
3.0863983947143216e-07,2.997507857294293e-07,3.1947794078271434e-07,9.833868320565182e-06
3.074274113873345e-07,2.991512216723072e-07,3.1832782291817424e-07,9.95402442043016e-06
3.0628697067754694e-07,2.985233920452559e-07,3.171982228963646e-07,1.0086518326271277e-05
3.052123891489804e-07,2.9786270427358625e-07,3.160829507828077e-07,1.0230294194010367e-05
3.0419557356620105e-07,2.971627566558553e-07,3.149744566945532e-07,1.0384140990074556e-05
3.032286505757963e-07,2.9641608347925355e-07,3.1386460825612764e-07,1.0546730745438703e-05
3.0230564871693504e-07,2.9561465489907807e-07,3.127449940842538e-07,1.0716693304595165e-05
3.014220347950462e-07,2.947504904581253e-07,3.116070992100519e-07,1.0892716342525564e-05
3.0057389162513014e-07,2.9381643830234017e-07,3.104432086850196e-07,1.1073619809728627e-05
2.9975813493678825e-07,2.928065682040154e-07,3.0924779447257857e-07,1.125836720785052e-05
2.989722761016401e-07,2.9171644694621637e-07,3.080191479475385e-07,1.144601959206808e-05
2.982133498935651e-07,2.9054317301810695e-07,3.067609229959501e-07,1.1635673991075585e-05
2.9747754918892857e-07,2.892848697061453e-07,3.054815041713829e-07,1.1826433117352825e-05
2.967603802829589e-07,2.879405214270016e-07,3.041913710678984e-07,1.2017419409937485e-05
2.9605646519797125e-07,2.8650975092483486e-07,3.029015589586309e-07,1.2207812654222675e-05
2.953592239352146e-07,2.8499199351725305e-07,3.0162304176288397e-07,1.2396882737746416e-05
2.9466095776579163e-07,2.8338679538627076e-07,3.003653407400278e-07,1.2583983640971033e-05
2.9395434048140337e-07,2.8169510719717887e-07,2.991353417348093e-07,1.2768490107295653e-05
2.9323477116103127e-07,2.799193493154014e-07,2.979378663379121e-07,1.294971244588288e-05
2.9250113977033904e-07,2.7806241502906325e-07,2.967781182491349e-07,1.3126856220848932e-05
2.917551729420941e-07,2.761269254056589e-07,2.9566383780513085e-07,1.329906582439431e-05
2.910017886446097e-07,2.7411481240431836e-07,2.946044842125948e-07,1.3465527204207918e-05
2.9024975591364733e-07,2.720271914174814e-07,2.9360856738282245e-07,1.3625538328585413e-05
2.895099972818284e-07,2.6986445322006807e-07,2.92682064355587e-07,1.3778481507286633e-05
2.887935657319318e-07,2.676265810212411e-07,2.918282186817877e-07,1.3923753336116973e-05
2.8811347224849485e-07,2.653141720329426e-07,2.910479169201748e-07,1.4060730229532706e-05
2.874876077390464e-07,2.6292954467800945e-07,2.9034022737446307e-07,1.4188781303797628e-05
2.8693675432002967e-07,2.604768367052241e-07,2.8970287674721897e-07,1.4307318917226825e-05
2.8647933845032373e-07,2.579614785660881e-07,2.891327783577508e-07,1.4415838918174966e-05
2.861291483074415e-07,2.553899182229577e-07,2.8862688124388945e-07,1.4513904372226776e-05
2.8589690733843963e-07,2.5276951958817746e-07,2.881835312172704e-07,1.4601102704019529e-05
2.857921618590925e-07,2.50108225488765e-07,2.878028026192978e-07,1.4677020272897202e-05
2.858233583566135e-07,2.474146384380359e-07,2.874847442039698e-07,1.4741239708692825e-05
2.859966075903518e-07,2.4469934459839137e-07,2.8722807055506074e-07,1.4793352901056185e-05
2.863146885740984e-07,2.4197598084598604e-07,2.870308253409931e-07,1.4832996582560376e-05
2.867766374682333e-07,2.392602178666266e-07,2.868909814689353e-07,1.4859904903794186e-05
2.873774693277801e-07,2.36568039859208e-07,2.868057820165079e-07,1.4873950951131116e-05
2.8810874134321943e-07,2.3391478919692112e-07,2.867710783554143e-07,1.4875170262371407e-05
2.889598225717825e-07,2.313144205245309e-07,2.867817419512144e-07,1.486376467173076e-05
2.899185107880205e-07,2.2877907516292342e-07,2.868326491291508e-07,1.4840066530434733e-05
2.909712072469204e-07,2.2631953431018948e-07,2.8691908696018876e-07,1.480446726524788e-05
2.921035801447286e-07,2.239465856866051e-07,2.870362038312355e-07,1.4757348758394723e-05
2.933012215748884e-07,2.2167245231865554e-07,2.871780677590484e-07,1.4699073725227774e-05
2.945498388469665e-07,2.195107651467804e-07,2.873369783589293e-07,1.4630088447338851e-05
2.958363728989629e-07,2.174754948546134e-07,2.8750367710048214e-07,1.4551070230129157e-05
2.9715138120934426e-07,2.1557994695846658e-07,2.876689011680272e-07,1.4462947127657095e-05
2.984901314849046e-07,2.1383561062687865e-07,2.8782561816165856e-07,1.4366783780135044e-05
2.9985103404187267e-07,2.1225168131171733e-07,2.879706426490257e-07,1.4263667240594235e-05
3.0123325675320505e-07,2.1083585037155977e-07,2.881044665366116e-07,1.4154624387965116e-05
3.026353543215064e-07,2.0959492636957327e-07,2.8822900935844945e-07,1.4040554822937807e-05
3.0405478935093897e-07,2.085342092477232e-07,2.883454080512842e-07,1.3922192999824228e-05
3.0548777963919976e-07,2.0765611498397e-07,2.884542365575403e-07,1.3800105748944764e-05
3.069291601946342e-07,2.0695944526132292e-07,2.885567254632245e-07,1.3674723011215573e-05
3.0837187692894244e-07,2.064398424920954e-07,2.8865414952573683e-07,1.3546376624026856e-05
3.098063103563085e-07,2.060913423227289e-07,2.887461834497449e-07,1.341531755896824e-05
3.1122004129405045e-07,2.0590894316125255e-07,2.888306078943761e-07,1.3281723142956281e-05
3.125984233937089e-07,2.058899444185749e-07,2.889040903712786e-07,1.3145711222400928e-05
3.13925881550208e-07,2.060322653491281e-07,2.8896274677221196e-07,1.3007351612659281e-05
3.151871959837122e-07,2.063321910053489e-07,2.890025093779025e-07,1.2866674834861067e-05
3.1636817542483093e-07,2.0678387062285174e-07,2.8901937909989356e-07,1.2723683579129375e-05
3.174560412737978e-07,2.073798510672532e-07,2.8900919860438344e-07,1.2578364324601328e-05
3.1844061505381125e-07,2.0811203560741863e-07,2.8896732820470576e-07,1.243070208720925e-05
3.1931627581709797e-07,2.089727989304428e-07,2.8888887728488396e-07,1.2280704345997482e-05
3.200822630694721e-07,2.0995520804534317e-07,2.8876897447327177e-07,1.21284342653944e-05
3.207403697656907e-07,2.110525242462108e-07,2.8860264060296e-07,1.1974030033933385e-05
3.212924034765879e-07,2.1225801447895612e-07,2.8838503933117517e-07,1.1817686808274866e-05
3.217392539429951e-07,2.135649543008021e-07,2.8811212994398656e-07,1.1659615872441993e-05
3.220807259442714e-07,2.1496648273001299e-07,2.877815255004848e-07,1.1500009686044073e-05
3.22314995099509e-07,2.1645544896461515e-07,2.873936631290192e-07,1.1339022062708356e-05
3.224384659406332e-07,2.180243136468953e-07,2.8695150318957626e-07,1.1176763559227652e-05
3.2244681313088e-07,2.196646608473055e-07,2.864580210168447e-07,1.1013319207061673e-05
3.223365747949399e-07,2.2136677370613762e-07,2.8591419188019747e-07,1.0848785302797715e-05
3.2210603821881597e-07,2.2312078410562873e-07,2.8531897368082565e-07,1.0683292980630051e-05
3.217544798789402e-07,2.249180358898571e-07,2.846700860179998e-07,1.0516999289198436e-05
3.2128107195232417e-07,2.2675036292490673e-07,2.8396489090561577e-07,1.0350083745116343e-05
3.20685253865911e-07,2.286085484016117e-07,2.8320160078112296e-07,1.0182781107816549e-05
3.199672416769016e-07,2.3048202809129253e-07,2.823805040002223e-07,1.0015427419154807e-05
3.1912715531430203e-07,2.3236009453303238e-07,2.815039426044068e-07,9.848487269394355e-06
3.1816429634483966e-07,2.3423335198700523e-07,2.805746940431073e-07,9.682530997119067e-06
3.170777645121107e-07,2.360941655901192e-07,2.7959482223605326e-07,9.518162827604821e-06
3.158673932080791e-07,2.379362233777709e-07,2.785659025956781e-07,9.35594874484064e-06
3.145342621889759e-07,2.3975377481450174e-07,2.774889276975107e-07,9.196378372973994e-06
3.130806344061717e-07,2.415409822570025e-07,2.7636350032247684e-07,9.039884062172694e-06
3.115094475579823e-07,2.432915103344035e-07,2.7518765964559014e-07,8.886911673359202e-06
3.0982421822963217e-07,2.4499812630896693e-07,2.739587017113544e-07,8.737964766041906e-06
3.0802913720896804e-07,2.466522764850872e-07,2.7267391375225e-07,8.593582989367555e-06
3.061283879086791e-07,2.4824402632984373e-07,2.713304112394613e-07,8.45431082943094e-06
3.041253113019338e-07,2.4976294803957855e-07,2.699248890647009e-07,8.320696868814705e-06
3.020225846696691e-07,2.5119983964659766e-07,2.684542595595212e-07,8.193313970538763e-06
2.998232332287467e-07,2.5254779062701487e-07,2.6691642928524785e-07,8.072766093996292e-06
2.9753128368954505e-07,2.5380134988420354e-07,2.653106988667293e-07,7.959646940167667e-06
2.951514976142334e-07,2.5495505829962485e-07,2.6363869610497817e-07,7.854468360445489e-06
2.926885942025967e-07,2.560033531490685e-07,2.619060109189123e-07,7.75760471997646e-06
2.901466283275086e-07,2.569418565192121e-07,2.601233917641942e-07,7.669268975768515e-06
2.8752909160500987e-07,2.577684578509048e-07,2.583055876438055e-07,7.5895174282842575e-06
2.848394108038529e-07,2.5848276185792905e-07,2.564676873391657e-07,7.5182776477574495e-06
2.820813173484869e-07,2.5908490509450624e-07,2.546226828079164e-07,7.455382749723938e-06
2.7925931080620237e-07,2.5957563039067423e-07,2.5278249536937234e-07,7.400596398179907e-06
2.763788112159686e-07,2.59956458203794e-07,2.5095961262154715e-07,7.3536447531407636e-06
2.7344574475085894e-07,2.602285718143955e-07,2.49166820371965e-07,7.314308482052843e-06
2.704670204056345e-07,2.6039200259663447e-07,2.4741651756518114e-07,7.282556238895998e-06
2.674520231467967e-07,2.6044601255240807e-07,2.457212478280007e-07,7.2585712961995655e-06
2.644130217653949e-07,2.6038967130737803e-07,2.440940830355146e-07,7.242624840641423e-06
2.613642782124229e-07,2.602227705933618e-07,2.425475206831238e-07,7.234938812816275e-06
2.5832117739562657e-07,2.599474042186807e-07,2.41092058264366e-07,7.2356247745259415e-06
2.5529902920499885e-07,2.5956849880194426e-07,2.397356215653936e-07,7.24466364940124e-06
2.52311450189265e-07,2.590930668876821e-07,2.3848393459161004e-07,7.261892031233157e-06
2.493697774891623e-07,2.585306106959435e-07,2.373416895292409e-07,7.287002106910408e-06
2.464838273195399e-07,2.5789428254970623e-07,2.3631325812690035e-07,7.3195678804976765e-06
2.4366287430747656e-07,2.5719967214763946e-07,2.3540214190710417e-07,7.359081504143033e-06
2.4091582081355645e-07,2.5646146075769703e-07,2.3461029347366925e-07,7.404983382923312e-06
2.3825066385121478e-07,2.5569147760792406e-07,2.3393787955941682e-07,7.456699489879171e-06
2.3567433622627453e-07,2.548993935199435e-07,2.333831792914164e-07,7.51369842471244e-06
2.331930240619043e-07,2.5409473497293676e-07,2.329427379479823e-07,7.5755468412609265e-06
2.3081266258774773e-07,2.532888225444295e-07,2.3261178798902067e-07,7.641932326831884e-06
2.2853981201398363e-07,2.524945751338676e-07,2.323848930217628e-07,7.712655594567717e-06
2.2638215184276696e-07,2.517239381421481e-07,2.3225700029058022e-07,7.787614901606226e-06
2.2434818984433823e-07,2.5098598005000875e-07,2.322243448449026e-07,7.866782182982296e-06
2.2244691520081864e-07,2.502870316192894e-07,2.322842184502429e-07,7.95015388385595e-06
2.2068723102324056e-07,2.496311322263717e-07,2.3243400167392512e-07,8.03769050405011e-06
2.1907750012675285e-07,2.4902007353384727e-07,2.326704924912974e-07,8.129277309153767e-06
2.1762657696533536e-07,2.484542165115572e-07,2.3298945746468893e-07,8.22471233459336e-06
2.1634496120804682e-07,2.4793376804803855e-07,2.333853543349845e-07,8.323709177518987e-06
2.1524317420337614e-07,2.474592262710155e-07,2.338520628845964e-07,8.425895227683466e-06
2.143286193258861e-07,2.470318702699293e-07,2.3438431304994055e-07,8.530798070232749e-06
2.1360445235961878e-07,2.466547061754449e-07,2.349782752606597e-07,8.637852456128587e-06
2.1307037777665148e-07,2.463327754550973e-07,2.356316274541585e-07,8.746449597378963e-06
2.1272337538478e-07,2.460731173165277e-07,2.363439207275284e-07,8.855996007312363e-06
2.125579317791395e-07,2.458845619806255e-07,2.371160697819829e-07,8.965938708877012e-06
2.1256650482429205e-07,2.4577673342898685e-07,2.379485973084404e-07,9.075756445090206e-06
2.1274065077012785e-07,2.457584291980612e-07,2.3884011989172394e-07,9.184954271217094e-06
2.1307203779288816e-07,2.4583646323301947e-07,2.397870717263945e-07,9.29307894281436e-06
2.135529558821549e-07,2.46015883248028e-07,2.4078399152285304e-07,9.399729820302609e-06
2.1417651317723686e-07,2.4630020743969844e-07,2.4182370654292866e-07,9.50453545820319e-06
2.1493657197834128e-07,2.466904250100084e-07,2.428984535282106e-07,9.607118486470211e-06
2.1582770780284667e-07,2.4718442703062404e-07,2.4400201377819147e-07,9.707106490721926e-06
2.1684465583283964e-07,2.4777791609394964e-07,2.451312594756904e-07,9.804167061942367e-06
2.179816040966733e-07,2.484654029476374e-07,2.4628622668272966e-07,9.897995986491612e-06
2.192324380256492e-07,2.49240413034237e-07,2.4746840893737746e-07,9.988289200009933e-06
2.205905480807332e-07,2.5009554900783145e-07,2.4867827256168624e-07,1.0074780134204953e-05
2.2204732743572801e-07,2.510228999085089e-07,2.4991394424199774e-07,1.0157307661690005e-05
2.2359156784741183e-07,2.5201455027165573e-07,2.511714168954219e-07,1.0235812355179343e-05
2.2521104188955427e-07,2.530628481666171e-07,2.5244542100490265e-07,1.031026922949221e-05
2.268941920194907e-07,2.5416026117713215e-07,2.5372991258269925e-07,1.038063932626936e-05
2.286299530613255e-07,2.552994050684619e-07,2.5501797154066697e-07,1.0446854265880527e-05
2.304073858410477e-07,2.5647431789445145e-07,2.5630196505736776e-07,1.0508799496531356e-05
2.3221767840522823e-07,2.576818066798041e-07,2.5757437197624266e-07,1.0566300686093737e-05
2.3405718520620522e-07,2.5892044602222617e-07,2.5882894153134125e-07,1.0619144285632859e-05
2.3592749644526295e-07,2.601882443050057e-07,2.60060776867094e-07,1.0667126419666735e-05
2.378316627384481e-07,2.6148151423881164e-07,2.6126483848192736e-07,1.0710102039020365e-05
2.397703024023738e-07,2.6279523950127525e-07,2.624350935361021e-07,1.0748011014945787e-05
2.417408531066368e-07,2.64124410959184e-07,2.6356534964924047e-07,1.0780851854548116e-05
2.437395109878254e-07,2.6546516956310444e-07,2.6465057490714195e-07,1.0808611411892956e-05
2.457630071110413e-07,2.6681419873004364e-07,2.6568811316103576e-07,1.0831215320946755e-05
2.4780833806121804e-07,2.6816721314639244e-07,2.666779435894684e-07,1.0848558457436845e-05
2.4987203948848987e-07,2.6951876950065415e-07,2.676210900371084e-07,1.086063735874356e-05
2.5195081966020705e-07,2.708632889602169e-07,2.685180234149333e-07,1.086772095431614e-05
2.540423074276677e-07,2.7219564449826304e-07,2.693691449939968e-07,1.08704012987283e-05
2.5614444067144193e-07,2.735117066585325e-07,2.70176050577161e-07,1.0869476960857659e-05
2.582544087893397e-07,2.7480964212151215e-07,2.7094146237048784e-07,1.0865797731855396e-05
2.6036876345210405e-07,2.7609002328150077e-07,2.716678828567062e-07,1.0860152412161987e-05
2.624843855177864e-07,2.773538568472e-07,2.7235607668955077e-07,1.0853191288620903e-05
2.645988452970349e-07,2.786008972099337e-07,2.730045867641177e-07,1.0845385551682516e-05
2.6670990251021517e-07,2.7982920121462677e-07,2.736118195828501e-07,1.0837027415543685e-05
2.6881507463902645e-07,2.810349936925473e-07,2.7417959270046426e-07,1.08282541874679e-05
2.7091164054783285e-07,2.822130092794279e-07,2.747136867010997e-07,1.0819074270137636e-05
2.729968142842067e-07,2.8335713835754967e-07,2.7522074612101444e-07,1.0809390270952353e-05
2.7506802566356447e-07,2.8446039982302085e-07,2.757056314909664e-07,1.0799025116366612e-05
2.771223929416141e-07,2.855145557598283e-07,2.7617056642519625e-07,1.0787738402941319e-05
2.7915521006575184e-07,2.865104417110489e-07,2.76614838662555e-07,1.0775221999809036e-05
2.811592213691405e-07,2.874391100356963e-07,2.770354594302185e-07,1.0761097632528699e-05
2.831249643757025e-07,2.882924213089778e-07,2.774292327679591e-07,1.0744937282155596e-05
2.850411271119698e-07,2.890625611694216e-07,2.777946487848151e-07,1.0726291939207174e-05
2.868949726150593e-07,2.8974230006106385e-07,2.781320142289296e-07,1.0704709654535913e-05
2.8867331565229765e-07,2.9032665498447947e-07,2.784424162510084e-07,1.0679750613328453e-05
2.9036431366296357e-07,2.908140173755267e-07,2.787271969409681e-07,1.0651007789904283e-05
2.919592241076872e-07,2.9120527912221605e-07,2.7898825952334235e-07,1.0618111085231156e-05
2.9345241244110896e-07,2.9150205780758136e-07,2.792280601632003e-07,1.0580703590112391e-05
2.948403518021297e-07,2.917065574788067e-07,2.7944941391819766e-07,1.0538420880496868e-05
2.9612173180824626e-07,2.918235309213932e-07,2.796558858134208e-07,1.0490896818114296e-05
2.972977625613492e-07,2.9186172216022853e-07,2.798517641578141e-07,1.0437790241928957e-05
2.983711643383096e-07,2.9183278775154034e-07,2.800410525173522e-07,1.0378819041058113e-05
2.993452629759418e-07,2.917491688259e-07,2.802264799317736e-07,1.0313785796285423e-05
3.0022426347743497e-07,2.9162295153410226e-07,2.8040986137849136e-07,1.0242587591869915e-05
3.010134471079515e-07,2.9146565554060487e-07,2.8059428455913077e-07,1.0165210602556495e-05
3.017187685321063e-07,2.912885441924643e-07,2.807860136534107e-07,1.0081714285746248e-05
3.023464765993108e-07,2.911028432007377e-07,2.809936035584887e-07,9.99221900774286e-06
3.029022588581725e-07,2.909188263509556e-07,2.812253035459473e-07,9.896909963952342e-06
3.033899257821413e-07,2.9074446801797005e-07,2.814878889526855e-07,9.796070192907995e-06
3.038116665007133e-07,2.9058535820251023e-07,2.817871675089119e-07,9.690138474368159e-06
3.0417037131862386e-07,2.9044564272650125e-07,2.821278043202416e-07,9.579732073603521e-06
3.044717333743948e-07,2.903283799230296e-07,2.825120275402204e-07,9.465578812297106e-06
3.047242660263237e-07,2.902350462667615e-07,2.8293872734251424e-07,9.348410633580183e-06
3.0493784184363516e-07,2.9016533038726024e-07,2.834036410806666e-07,9.22891062070068e-06
3.051227234203913e-07,2.901172774234405e-07,2.839002938988745e-07,9.107728256592818e-06
3.0528921539044816e-07,2.900871112919805e-07,2.8442118540117626e-07,8.985541169443457e-06
3.054470093460593e-07,2.9006970532386606e-07,2.849584853935338e-07,8.863132048912523e-06
3.056049238359831e-07,2.900600814137743e-07,2.855038607729323e-07,8.741409034300271e-06
3.05771352167088e-07,2.9005429531753857e-07,2.860481038580839e-07,8.62133455064563e-06
3.059542706927875e-07,2.900493604084233e-07,2.8658149498235094e-07,8.503823777546704e-06
3.061601181143044e-07,2.9004287583224356e-07,2.870949998779839e-07,8.389691326441459e-06
3.06392350197573e-07,2.900323960517565e-07,2.875809426049917e-07,8.279674685144702e-06
3.0665104430456805e-07,2.9001537837641484e-07,2.880325549152407e-07,8.1745242708543e-06
3.0693376376588137e-07,2.89989975605433e-07,2.884438281017345e-07,8.075104915384707e-06
3.072372267964633e-07,2.899549585460756e-07,2.888100064480468e-07,7.982415197048479e-06
3.0755926684273803e-07,2.899083948232177e-07,2.8912790798555865e-07,7.897492022631043e-06
3.0789951384658124e-07,2.898470646993091e-07,2.893953967937384e-07,7.821272656831468e-06
3.082581101960138e-07,2.8976734702566927e-07,2.8961011654294024e-07,7.754512502739073e-06
3.0863434077357576e-07,2.896663263362791e-07,2.897693367189164e-07,7.697796232373665e-06
3.090263384249468e-07,2.8954257265329644e-07,2.898707875209629e-07,7.651584023938995e-06
3.094308404304384e-07,2.893964785551112e-07,2.89912744010804e-07,7.616227056927261e-06
3.098426521451428e-07,2.8922954874055e-07,2.898941164820614e-07,7.5919976978989865e-06
3.1025495341322765e-07,2.890433707618896e-07,2.898145917245578e-07,7.57922014154849e-06
3.1066050655338413e-07,2.888392971127387e-07,2.896736993159622e-07,7.5784265433335645e-06
3.11052366401376e-07,2.886181491996604e-07,2.8946986054329427e-07,7.590351083457261e-06
3.114236327051522e-07,2.883796645085068e-07,2.8920031623393425e-07,7.615762047722047e-06
3.1176725643257077e-07,2.8812286709489695e-07,2.8886135317145296e-07,7.65529330568309e-06
3.120763245741609e-07,2.878477565517259e-07,2.8844859666412397e-07,7.709348803039478e-06
3.123438586831153e-07,2.8755661069770464e-07,2.87957370630704e-07,7.778129763635244e-06
3.125622165500494e-07,2.872533668700902e-07,2.8738285228961983e-07,7.86183952909939e-06
3.127240372166945e-07,2.86942236120471e-07,2.867202483079576e-07,7.960918335922518e-06
3.128246766111127e-07,2.866269883845501e-07,2.859662784839183e-07,8.076074001429059e-06
3.1286292595065497e-07,2.8631066371048266e-07,2.851216328505421e-07,8.208119252218355e-06
3.128390959917068e-07,2.859955072927384e-07,2.8419141709992343e-07,8.35779005496542e-06
3.1275344276896127e-07,2.8568291870571e-07,2.831834243014998e-07,8.525621074323137e-06
3.126066777896877e-07,2.853735426218636e-07,2.821069807653255e-07,8.71186286030242e-06
3.1240099283442816e-07,2.8506824980543765e-07,2.809722273818384e-07,8.916425114935657e-06
3.1213970661924237e-07,2.847689650087637e-07,2.797889082112108e-07,9.13884936207948e-06
3.1182600089839496e-07,2.844782112781009e-07,2.785660094207501e-07,9.378322395354934e-06
3.11461855635642e-07,2.841981016941351e-07,2.773124649928617e-07,9.633718086832004e-06
3.110472317295085e-07,2.8392948554304427e-07,2.7603746686341e-07,9.903640145569733e-06
3.105799706455358e-07,2.836718072868663e-07,2.747500752044383e-07,1.0186460609482314e-05
3.100569085157236e-07,2.834234008270895e-07,2.734588526834077e-07,1.0480363881057686e-05
3.0947560657402807e-07,2.831818335604024e-07,2.7217139096248745e-07,1.0783391389980267e-05
3.0883584366120065e-07,2.829455320174513e-07,2.7089383044338695e-07,1.109347700580018e-05
3.081401184176287e-07,2.827160754816432e-07,2.6963151511101606e-07,1.1408492668541827e-05
3.073930819447543e-07,2.8249808537355215e-07,2.6838980177536147e-07,1.172632207461891e-05
3.0660079909609445e-07,2.8229685572461e-07,2.671736943143497e-07,1.2044923447604891e-05
3.057698035333969e-07,2.8211686771260607e-07,2.6598772083599246e-07,1.236234241345388e-05
3.049057194890444e-07,2.8196155200509055e-07,2.6483613658752e-07,1.2676699454505713e-05
3.040127839916068e-07,2.8183278949809744e-07,2.6372221216243854e-07,1.2986179004386896e-05
3.030943710586496e-07,2.817301836116974e-07,2.626474754734551e-07,1.3289018190974832e-05
3.0215364229452857e-07,2.8165074247394424e-07,2.616116905059164e-07,1.3583505038228516e-05
3.0119465906768516e-07,2.815895174376472e-07,2.6061320110875487e-07,1.3867997262474506e-05
3.0022294034349377e-07,2.815409538760049e-07,2.59649482589928e-07,1.4140965185823777e-05
2.9924431486278824e-07,2.814993537608497e-07,2.5871743483978085e-07,1.4401067409667996e-05
2.982635934594041e-07,2.8145803469203174e-07,2.578135975444848e-07,1.4647230064545731e-05
2.972845278387645e-07,2.814091778699985e-07,2.5693547991199607e-07,1.4878663350246161e-05
2.9631039985812283e-07,2.813454202031152e-07,2.560827976059941e-07,1.5094808794089246e-05
2.953443897724383e-07,2.812612428483227e-07,2.5525623036682674e-07,1.5295272191564235e-05
2.943907654287465e-07,2.811524972777967e-07,2.54454957119206e-07,1.5479766054579487e-05
2.93456891201516e-07,2.810152594683143e-07,2.536757333499434e-07,1.5648062764387342e-05
2.925533558824077e-07,2.8084546955515763e-07,2.529136862029328e-07,1.5799970698548782e-05
2.916913186501186e-07,2.806389385351347e-07,2.521634424015337e-07,1.59353362288276e-05
2.9087941982241656e-07,2.803916420683446e-07,2.5141990667504485e-07,1.6054073164193368e-05
2.9012255560266136e-07,2.8010092715428054e-07,2.506784646770366e-07,1.615622461276033e-05
2.8942262483128e-07,2.797663331360156e-07,2.499346454153441e-07,1.6242047977118458e-05
2.887803092764924e-07,2.793890432091736e-07,2.491849627264877e-07,1.6312098792659602e-05
2.881968190364584e-07,2.789713211372509e-07,2.484299007396032e-07,1.6367282844600007e-05
2.8767448917836773e-07,2.7851624753803355e-07,2.476759646120041e-07,1.6408834369178928e-05
2.8721612218453625e-07,2.780275114166109e-07,2.469344453374373e-07,1.643819467598337e-05
2.868235151657337e-07,2.775105668042841e-07,2.462193299317452e-07,1.6456834630916527e-05
2.86495981384553e-07,2.7697430565687984e-07,2.455461743130779e-07,1.6466093573805688e-05
2.862297876415257e-07,2.764301481571644e-07,2.449312984767876e-07,1.6467082421546032e-05
2.860183126617039e-07,2.758892244271861e-07,2.443914798589183e-07,1.646066871115827e-05
2.858524970837497e-07,2.7536158360212176e-07,2.4394387380272997e-07,1.6447516334076467e-05
2.8572133250740625e-07,2.748582282822693e-07,2.436052238933453e-07,1.64281316099914e-05
2.856120398687608e-07,2.7439238289098074e-07,2.4339017751924466e-07,1.64029067983279e-05
2.855101280397971e-07,2.7397737382870704e-07,2.4330925789276e-07,1.6372218138407377e-05
2.853998774659653e-07,2.736235720038789e-07,2.4336780170845217e-07,1.633658548430494e-05
2.852656220119448e-07,2.733380968279085e-07,2.435664803546439e-07,1.629674452810896e-05
2.850933063292409e-07,2.731265042950225e-07,2.4390259633668464e-07,1.6253530810541587e-05
2.848710318318032e-07,2.729939217664605e-07,2.443717512581179e-07,1.62077026142326e-05
2.845885402416286e-07,2.729456882500798e-07,2.449703226638439e-07,1.6159897713723984e-05
2.842369436450701e-07,2.7298805390894125e-07,2.4569759786425096e-07,1.6110798400331613e-05
2.838094159218008e-07,2.731281585117767e-07,2.465554170502112e-07,1.6061386878495326e-05
2.8330207018513736e-07,2.73372495179397e-07,2.4754599341582927e-07,1.6013055233825957e-05
2.827137579851277e-07,2.7372484621371694e-07,2.4867078928542826e-07,1.596748269178324e-05
2.820453634281329e-07,2.7418568786186986e-07,2.4993125364349496e-07,1.5926413800208992e-05
2.812997331198267e-07,2.747532438747762e-07,2.5132945415918157e-07,1.5891465253833768e-05
2.8048153320953576e-07,2.7542462804597125e-07,2.5286733128882973e-07,1.5863989980752367e-05
2.7959676485571107e-07,2.761963904866205e-07,2.5454544760098524e-07,1.5844993263927995e-05
2.7865259042729805e-07,2.770659178970089e-07,2.563625115083601e-07,1.5835091658430246e-05
2.776573290488976e-07,2.7803391098862944e-07,2.5831562981752944e-07,1.5834515341004504e-05
2.766202413033466e-07,2.791051395639946e-07,2.604000717245258e-07,1.5843147140924828e-05
2.7555073631593643e-07,2.8028710839735197e-07,2.626084154968643e-07,1.5860569026526403e-05
2.744571779176828e-07,2.8158942119932484e-07,2.6493002136035873e-07,1.5886105680579983e-05
2.733462717382856e-07,2.830234498116282e-07,2.673509738701703e-07,1.5918888331134258e-05
2.722233809479403e-07,2.846004870664104e-07,2.698547525554103e-07,1.5957942665487132e-05
2.710933494101061e-07,2.863301865273078e-07,2.7242434440095266e-07,1.6002267345458577e-05
2.6996123498346e-07,2.882203909162649e-07,2.750443705677548e-07,1.6050885763041074e-05
2.688323663759535e-07,2.902768133657444e-07,2.777009453920073e-07,1.610289361163001e-05
2.6771210609698657e-07,2.925020728842805e-07,2.803804345984148e-07,1.615751143292074e-05
2.6660621088488303e-07,2.948947710693509e-07,2.8306891315881696e-07,1.6214106097028e-05
2.655216355872713e-07,2.974507511631993e-07,2.8575145332859267e-07,1.6272164307601578e-05
2.644668010212735e-07,3.001670270748516e-07,2.884114088631918e-07,1.6331253066109633e-05
2.634504714142809e-07,3.030437383056131e-07,2.910311482416665e-07,1.639099192152597e-05
2.624802631373002e-07,3.0608153289441554e-07,2.93593572096465e-07,1.6451028802783762e-05
2.615630711127573e-07,3.092780999388984e-07,2.960827577245892e-07,1.6511009378016482e-05
2.6070611697754013e-07,3.126276036627617e-07,2.98483586121984e-07,1.657053599202625e-05
2.599160176520134e-07,3.1612302102026294e-07,3.0078131934605604e-07,1.6629125184653672e-05
2.591973994168725e-07,3.197589866833538e-07,3.029613955721199e-07,1.668620924190599e-05
2.585528585797766e-07,3.235329125143328e-07,3.050091139985998e-07,1.6741220757193736e-05
2.579836828027445e-07,3.2744383977847355e-07,3.0690989397002337e-07,1.6793704679245325e-05
2.574904537032843e-07,3.31489667868861e-07,3.0865036293640344e-07,1.684335731596333e-05
2.570728766903805e-07,3.356642124523568e-07,3.102189747583232e-07,1.6889986363385806e-05
2.567293568280148e-07,3.399558832001025e-07,3.116059449966669e-07,1.6933468949193952e-05
2.564572341505804e-07,3.4434929828906104e-07,3.128030913858932e-07,1.6973745967552976e-05
2.562528713759953e-07,3.48828725792311e-07,3.138037811629191e-07,1.7010835541216488e-05
2.561110514635436e-07,3.5337931425040724e-07,3.146040866401198e-07,1.7044842253109526e-05
2.5602482249865926e-07,3.579846793741169e-07,3.152045306280313e-07,1.7075929111003454e-05
2.559860056770486e-07,3.626243873273267e-07,3.156098168261886e-07,1.7104232926521425e-05
2.559857735097229e-07,3.67273868107353e-07,3.1582669157965853e-07,1.7129767530079845e-05
2.5601525834350864e-07,3.7190587299018004e-07,3.1586193875470626e-07,1.7152388400761014e-05
2.560655874615683e-07,3.7649203506246564e-07,3.157215664414187e-07,1.7171853837994955e-05
2.5612769896428964e-07,3.810036424193799e-07,3.154109396678522e-07,1.718795175205182e-05
2.561935277062941e-07,3.8541234940141395e-07,3.1493479017253763e-07,1.7200598568100682e-05
2.5625745863896056e-07,3.896923376987311e-07,3.142972065876957e-07,1.720982911025844e-05
2.563162058599582e-07,3.9382234939629973e-07,3.1350194220333873e-07,1.7215697827253275e-05
2.5636821286606513e-07,3.977849365485709e-07,3.125523188376389e-07,1.7218175223801398e-05
2.564135606104994e-07,4.015640634950838e-07,3.114512159612327e-07,1.7217099001290647e-05
2.564538901414853e-07,4.051435801557823e-07,3.102019609850248e-07,1.7212186939399602e-05
2.5649221194711176e-07,4.085068374394133e-07,3.088088611491972e-07,1.720307288696213e-05
2.565325628406469e-07,4.116367907034925e-07,3.0727678315681117e-07,1.7189356150904782e-05
2.5657956140635467e-07,4.145166042686784e-07,3.05611222248345e-07,1.7170738623404457e-05
2.5663805242593907e-07,4.1713081258256286e-07,3.0381907844751e-07,1.714724584975671e-05
2.567125059594974e-07,4.1946601990672187e-07,3.019090368211768e-07,1.7119337484071047e-05
2.56806495138668e-07,4.21510296041757e-07,2.9989126946956496e-07,1.7087781002451473e-05
2.5692274387006944e-07,4.2325244605106456e-07,2.977768915556092e-07,1.705341648503013e-05
2.570629915064004e-07,4.246824478623021e-07,2.955779351081278e-07,1.701698050212663e-05
2.572278486474915e-07,4.257923286536883e-07,2.933078431060539e-07,1.697905528355806e-05
2.574176692007589e-07,4.2657622636873384e-07,2.9098155889197214e-07,1.6940191449000683e-05
2.5763393441405664e-07,4.2702969127383243e-07,2.8861538540487226e-07,1.6901147013743515e-05
2.578801062875184e-07,4.2714895066883814e-07,2.862265678528193e-07,1.6863015207204658e-05
2.5816116014711496e-07,4.269304989866419e-07,2.838317151546859e-07,1.6827137193990892e-05
2.584815208926279e-07,4.263712113757089e-07,2.8144534425880226e-07,1.6794937611442543e-05
2.5884301570790804e-07,4.254689859713025e-07,2.7908015073599767e-07,1.6767800863188307e-05
2.5924500721888585e-07,4.242231653801875e-07,2.767478759900898e-07,1.6746984903092688e-05
2.596863491268161e-07,4.226339947513513e-07,2.74459486565008e-07,1.6733548163620836e-05
2.6016638879015797e-07,4.207020410298517e-07,2.722253875410683e-07,1.6728285775018832e-05
2.606839907244014e-07,4.1842879617132437e-07,2.700560377328514e-07,1.6731683652143922e-05
2.612365666568538e-07,4.158175733939061e-07,2.6796218414092326e-07,1.674389681384898e-05
2.618200466569041e-07,4.128736188830481e-07,2.6595474634320195e-07,1.6764756311838265e-05
2.624290034836768e-07,4.096039000127903e-07,2.640442831093523e-07,1.679381410598999e-05
2.630570540163702e-07,4.06016882125868e-07,2.622397238450005e-07,1.6830413272194495e-05
2.636976423091e-07,4.0212200463058894e-07,2.6054753505942984e-07,1.6873742336690242e-05
2.6434428527248894e-07,3.9792896361689575e-07,2.589723371003345e-07,1.6922857508927677e-05
2.649903083859005e-07,3.93447492331477e-07,2.575178425771375e-07,1.6976710875589786e-05
2.6562869912183497e-07,3.886878868807303e-07,2.5618695043689744e-07,1.7034226858723264e-05
2.6625184538518285e-07,3.8366147293395703e-07,2.549819067584055e-07,1.7094401968723213e-05
2.668511209336894e-07,3.7838050993953643e-07,2.5390452386959045e-07,1.715636145107334e-05
2.6741675463896817e-07,3.728580068610508e-07,2.52955177795699e-07,1.721936321555542e-05
2.6793814829067e-07,3.6710785005711066e-07,2.5213177882928984e-07,1.7282793648053945e-05
2.684044436110803e-07,3.611448847642e-07,2.5142983073106084e-07,1.7346172805074967e-05
2.688050957556124e-07,3.549846623070044e-07,2.508425833406284e-07,1.7409145094033487e-05
2.69130321509281e-07,3.4864388882604426e-07,2.503613044639552e-07,1.7471434205390084e-05
2.693711177091693e-07,3.4214196848211306e-07,2.4997597850287037e-07,1.7532767194906044e-05
2.695190507694767e-07,3.3550151368353874e-07,2.496756954113162e-07,1.7592800933714676e-05
2.695664634667098e-07,3.2874663759901985e-07,2.4944886702484196e-07,1.7651104506340797e-05
2.6950707250774326e-07,3.219007209254549e-07,2.492840147954073e-07,1.7707200705494503e-05
2.6933669989707284e-07,3.1498547352457585e-07,2.491709488151568e-07,1.7760594975709772e-05
2.6905369242378725e-07,3.08022144685513e-07,2.4910212240165185e-07,1.781076356081438e-05
2.6865835635191656e-07,3.0103455453518553e-07,2.490736735263476e-07,1.7857147660304013e-05
2.681521834616128e-07,2.940513023525233e-07,2.490846152696149e-07,1.789917645166824e-05
2.675384304000817e-07,2.871052009005988e-07,2.491348842668437e-07,1.7936295417344534e-05
2.668236654094948e-07,2.802313684439508e-07,2.492245542952785e-07,1.7967969862188e-05
2.660183106510049e-07,2.734649131003121e-07,2.49353406893706e-07,1.7993654083836246e-05
2.651350534293567e-07,2.668381511135592e-07,2.49519542206778e-07,1.801275392916631e-05
2.6418629044951496e-07,2.6037932012576504e-07,2.497184754243879e-07,1.802461713505614e-05
2.6318275380255973e-07,2.5411336883269075e-07,2.499439227215645e-07,1.8028559338024124e-05
2.621335713332198e-07,2.480622114655177e-07,2.501896373858756e-07,1.802393297391703e-05
2.6104660102050146e-07,2.422435266653664e-07,2.504513329639709e-07,1.801022973142786e-05
2.5992855090898764e-07,2.366701308119873e-07,2.5072747839628826e-07,1.7987140695841952e-05
2.5878506434146645e-07,2.3135120484156828e-07,2.5101807009266177e-07,1.795450937763146e-05
2.5762090923121693e-07,2.2629433918835568e-07,2.5132266516576507e-07,1.7912237252711005e-05
2.5644009265057933e-07,2.2150661807142768e-07,2.5163959219244525e-07,1.7860254088837588e-05
2.552460313626325e-07,2.169943062761263e-07,2.5196628915652733e-07,1.7798556837769333e-05
2.540420395760847e-07,2.127625615570509e-07,2.522994802772293e-07,1.7727231326572303e-05
2.528315560491618e-07,2.0881615152601935e-07,2.5263470686258715e-07,1.7646421674440947e-05
2.5161786766797316e-07,2.0515962844032054e-07,2.5296609931513533e-07,1.7556288732699492e-05
2.504047958085472e-07,2.017960860145765e-07,2.5328728444607657e-07,1.7457044305625953e-05
2.491993457620399e-07,1.987265245846368e-07,2.535925109733068e-07,1.7349109816996702e-05
2.480142213607916e-07,1.9595030819876828e-07,2.538765289435109e-07,1.7233257586125514e-05
2.4686740027633627e-07,1.9346514541363312e-07,2.541343010644e-07,1.7110547413578758e-05
2.45779202906851e-07,1.9126695508323532e-07,2.543624035680284e-07,1.6982117748023985e-05
2.4476935551262193e-07,1.893505873610241e-07,2.545608569354217e-07,1.6849015327110052e-05
2.4385491876115604e-07,1.877108362317452e-07,2.5473268432512195e-07,1.6712159546355794e-05
2.4304878302434677e-07,1.8634289306223773e-07,2.5488144225794097e-07,1.6572486355674738e-05
2.423593838771363e-07,1.852422570061427e-07,2.5500919417530426e-07,1.643119500223244e-05
2.4179215915699877e-07,1.844049049182554e-07,2.5511591686593997e-07,1.6289870152371577e-05
2.4135184993268085e-07,1.8382749265959682e-07,2.551997045547617e-07,1.6150385153277333e-05
2.4104402340803465e-07,1.835063056632947e-07,2.5525698782838213e-07,1.60147187551097e-05
2.4087473521470145e-07,1.8343548122175145e-07,2.5528253682819084e-07,1.5884798202328682e-05
2.408486032192908e-07,1.8360644708219961e-07,2.5526981097050296e-07,1.5762378882182324e-05
2.409669602765977e-07,1.8400889790946149e-07,2.552119058311613e-07,1.5648956136972876e-05
2.412276723103324e-07,1.8463182595152442e-07,2.551024022568137e-07,1.5545703301733716e-05
2.4162604157545826e-07,1.854641654947225e-07,2.5493564277226964e-07,1.5453434260791832e-05
