1.1831565483888462e-06,3.5961157773078314e-06,4.7517368426812887e-07,1.4871021711094086e-05
1.1942232920879357e-06,3.590873094585997e-06,4.743712208403264e-07,1.4782014497602668e-05
1.2051542023800025e-06,3.584333889135505e-06,4.7380085283475006e-07,1.4693567413983459e-05
1.2158904770972078e-06,3.576430492224746e-06,4.734723838556082e-07,1.4607038120234463e-05
1.2263786207883035e-06,3.5670909541951256e-06,4.7338925452331255e-07,1.452385303252924e-05
1.2365684985556259e-06,3.5562359374409486e-06,4.7355070829556037e-07,1.4445341728632116e-05
1.2464087546033977e-06,3.5437822056211157e-06,4.73959346509416e-07,1.4372653080254305e-05
1.255845380479157e-06,3.529655879843402e-06,4.74627882602188e-07,1.4306838666679874e-05
1.2648291291053828e-06,3.513808349366633e-06,4.7557763800965176e-07,1.424900532267936e-05
1.2733291709951986e-06,3.4962242889193794e-06,4.7683139352658004e-07,1.420034234547832e-05
1.281341680598924e-06,3.476915763308153e-06,4.784093856174521e-07,1.4161995049303671e-05
1.288887055614e-06,3.4559059809215417e-06,4.803312725821216e-07,1.4134905937571856e-05
1.2960001635656838e-06,3.4332190046176504e-06,4.826192259918132e-07,1.4119702642475534e-05
1.3027188510300965e-06,3.4088879790130835e-06,4.852969560441324e-07,1.4116667172870346e-05
1.3090747621027377e-06,3.3829700721743616e-06,4.883844931475502e-07,1.4125785042843525e-05
1.3150893038582178e-06,3.3555469303815562e-06,4.918940068572743e-07,1.4146833523428045e-05
1.3207724632450753e-06,3.3267095920021908e-06,4.95832671217391e-07,1.417946899646402e-05
1.3261215572596942e-06,3.296543248293939e-06,5.002104709452707e-07,1.4223270814631134e-05
1.331121110845971e-06,3.2651209030728482e-06,5.050438659467854e-07,1.4277714047416327e-05
1.3357463957393374e-06,3.232504995165805e-06,5.103519452540233e-07,1.4342104524631437e-05
1.3399709758593771e-06,3.1987536311151023e-06,5.161492954735932e-07,1.4415544477915484e-05
1.3437750897731049e-06,3.163925720979558e-06,5.224403223126496e-07,1.4496955008499802e-05
1.3471494409850336e-06,3.1280797243041186e-06,5.292170083377936e-07,1.4585128246882691e-05
1.3500914032881763e-06,3.09126807462904e-06,5.364596002963988e-07,1.4678780444781049e-05
1.35259646006207e-06,3.0535334924746828e-06,5.44139487895316e-07,1.4776593575336715e-05
1.3546518336438401e-06,3.01490993257562e-06,5.522218649900333e-07,1.4877234010604465e-05
1.3562380343104252e-06,2.975428106180544e-06,5.606658705661631e-07,1.4979344582958465e-05
1.3573365707295448e-06,2.9351244245354215e-06,5.694237734093035e-07,1.5081532178710174e-05
1.3579357222808142e-06,2.8940494115204936e-06,5.784405919909124e-07,1.5182377969318334e-05
1.3580292834953256e-06,2.8522732508245387e-06,5.876548751688029e-07,1.5280467624023125e-05
1.3576126328959466e-06,2.809890303120953e-06,5.97002509590197e-07,1.5374414725188902e-05
1.356684204692082e-06,2.767021022042833e-06,6.064231999027305e-07,1.5462866044186396e-05
1.355250747284401e-06,2.7238050016415558e-06,6.158670269676205e-07,1.5544516890027405e-05
1.3533268406468663e-06,2.68038648146948e-06,6.252988344822886e-07,1.5618163608259568e-05
1.3509281318290548e-06,2.6369058190257343e-06,6.346983162335526e-07,1.5682787300238746e-05
1.3480666567054328e-06,2.5935034077997304e-06,6.440547602935826e-07,1.5737648077891254e-05
1.344751426224046e-06,2.550323975849255e-06,6.533593762671131e-07,1.5782333468417853e-05
1.3409905390359077e-06,2.5075112709855785e-06,6.626011981507257e-07,1.581670196618049e-05
1.3367903852195738e-06,2.465201914873527e-06,6.717696148764286e-07,1.5840762855406978e-05
1.332152209998083e-06,2.423530642182827e-06,6.808607434636489e-07,1.5854578776479333e-05
1.32707318763627e-06,2.382641923739136e-06,6.898824466177408e-07,1.5858210461889937e-05
1.32155762486582e-06,2.342693783941695e-06,6.988544286757554e-07,1.5851686692327107e-05
1.3156319084859348e-06,2.3038485327218603e-06,7.078060328353016e-07,1.583499766050686e-05
1.309350230573366e-06,2.266255827401485e-06,7.167769880334383e-07,1.58081136887896e-05
1.302787155640106e-06,2.2300416320704965e-06,7.258182460387421e-07,1.577102580126728e-05
1.2960250311217242e-06,2.1953158756527906e-06,7.349866329965392e-07,1.5723801500632582e-05
1.2891450015742032e-06,2.162196658686148e-06,7.443345063932338e-07,1.5666643077768217e-05
1.2822223665373378e-06,2.130837648933826e-06,7.539003134506552e-07,1.559994644553477e-05
1.2753239159277818e-06,2.1014447668694296e-06,7.637050149905224e-07,1.552435181364332e-05
1.2685117639329263e-06,2.0742665328664316e-06,7.737556587354241e-07,1.5440730983126403e-05
1.261856934268767e-06,2.0495567937557343e-06,7.840518830065145e-07,1.535007957095404e-05
1.2554527918670427e-06,2.02754363269724e-06,7.945905841982541e-07,1.5253375530977586e-05
1.2494183413664487e-06,2.0084281943704813e-06,8.053687062601117e-07,1.515149159011589e-05
1.243893541270743e-06,1.992388021776228e-06,8.163849226347859e-07,1.5045184713062177e-05
1.2390305263001814e-06,1.979564711065124e-06,8.276388824782397e-07,1.4935119924563873e-05
1.2349800410500357e-06,1.9700561326857868e-06,8.391281663127749e-07,1.4821883673373734e-05
1.231874331899853e-06,1.9639336733839283e-06,8.508454425949691e-07,1.4705990903602384e-05
1.2298131479052976e-06,1.961274765084856e-06,8.62777792098411e-07,1.4587961235540826e-05
1.228859838295913e-06,1.962182980061787e-06,8.749067245840131e-07,1.4468495772493186e-05
1.2290470965598978e-06,1.966776676372649e-06,8.872062755906055e-07,1.43485986911766e-05
1.2303851390220456e-06,1.975153415906344e-06,8.996404302602617e-07,1.4229491626082135e-05
1.2328661293285869e-06,1.9873609997710544e-06,9.12162183771537e-07,1.4112399544015866e-05
1.2364640995977734e-06,2.0033991537540816e-06,9.247143904498396e-07,1.3998378600070618e-05
1.2411334939271166e-06,2.0232411868330413e-06,9.372323387257427e-07,1.3888300438456146e-05
1.2468101443298948e-06,2.04684969892318e-06,9.496478680696328e-07,1.3783036335752703e-05
1.25341742790893e-06,2.074178996906612e-06,9.618934736623518e-07,1.3683717629490045e-05
1.2608770855010571e-06,2.105170557187545e-06,9.739042796135556e-07,1.3591846225652804e-05
1.26912145256774e-06,2.1397435758447547e-06,9.856177480073448e-07,1.350920288787548e-05
1.278103417442407e-06,2.1777827644716384e-06,9.96973103914799e-07,1.3437688836478772e-05
1.287798969384109e-06,2.2191308588572863e-06,1.0079113956302241e-06,1.3379197820011596e-05
1.298198579289526e-06,2.2635887013248573e-06,1.0183748914696994e-06,1.3335512631592136e-05
1.309291572507765e-06,2.3109182738493753e-06,1.0283056922248145e-06,1.3308194693967544e-05
1.3210527556582731e-06,2.360847760710848e-06,1.0376460909487128e-06,1.3298466106378412e-05
1.333436349651823e-06,2.4130830724492763e-06,1.0463414204680354e-06,1.3307123198866005e-05
1.3463778794569665e-06,2.467320619364338e-06,1.054342677059117e-06,1.3334519191657304e-05
1.359803348413026e-06,2.5232497343069203e-06,1.0616078540116398e-06,1.3380600691185333e-05
1.3736410832357006e-06,2.580553667874372e-06,1.068105056873313e-06,1.3444950531385095e-05
1.3878303922076349e-06,2.6389282529729485e-06,1.0738165870330065e-06,1.3526826653045682e-05
1.402326082444604e-06,2.698110364468285e-06,1.0787367783649058e-06,1.3625212126255259e-05
1.4171008882154481e-06,2.75789083095357e-06,1.0828641518964875e-06,1.3738870891315609e-05
1.4321440314526732e-06,2.8180989865723165e-06,1.0861971736388175e-06,1.3866414195576709e-05
1.4474516078715946e-06,2.878568631637429e-06,1.0887348916335363e-06,1.4006403025370358e-05
1.46301377589348e-06,2.939115125951455e-06,1.0904768840205344e-06,1.415747475022747e-05
1.4788104362181397e-06,2.999541191729406e-06,1.0914225764042109e-06,1.4318443540189429e-05
1.494814421665685e-06,3.0596556641888013e-06,1.0915729677994508e-06,1.4488351281033334e-05
1.5109921807551803e-06,3.1192845734222216e-06,1.0909338652977498e-06,1.4666479685524888e-05
1.5273024912496331e-06,3.178266166372353e-06,1.0895172407317613e-06,1.4852323574991987e-05
1.5436982228455117e-06,3.236432071417056e-06,1.0873398181821906e-06,1.5045526759026847e-05
1.5601276434335082e-06,3.293591454567451e-06,1.084421930924561e-06,1.5245799726698694e-05
1.5765309047193448e-06,3.34952990832322e-06,1.0807878719707976e-06,1.5452818070875087e-05
1.5928349989211159e-06,3.4040165359966163e-06,1.0764646567280766e-06,1.566610866571144e-05
1.6089524014482509e-06,3.456814877748453e-06,1.0714788285517387e-06,1.5884997198696792e-05
1.6247836954575536e-06,3.5076981646887543e-06,1.065855612670351e-06,1.6108651194575062e-05
1.6402226576628945e-06,3.556461871104654e-06,1.0596206767126779e-06,1.6336134792898042e-05
1.6551624346887976e-06,3.60292830187424e-06,1.0528004466141629e-06,1.6566417712192984e-05
1.6694995523727463e-06,3.646948550567794e-06,1.0454219859528718e-06,1.679837089539313e-05
1.683133989888131e-06,3.6884078275450316e-06,1.0375150109481276e-06,1.7030774577517108e-05
1.695967165570248e-06,3.727228187561969e-06,1.029112788811583e-06,1.7262329889787452e-05
1.7079018577585496e-06,3.763358482430519e-06,1.020249069976802e-06,1.7491658483824246e-05
1.718846502792253e-06,3.796765070879528e-06,1.0109540486009687e-06,1.771729309571633e-05
1.728719163271849e-06,3.82745341658494e-06,1.0012535749119235e-06,1.7937686710719953e-05
1.737445394569358e-06,3.855517003511116e-06,9.911712777028034e-07,1.815125377669375e-05
1.7449541708579705e-06,3.8811699791312484e-06,9.807295861850788e-07,1.835643525638305e-05
1.7511798253718918e-06,3.904732704530311e-06,9.699485843777503e-07,1.8551785928870828e-05
1.7560675461375783e-06,3.926579956065468e-06,9.588460887209402e-07,1.873606799184488e-05
1.7595737950203548e-06,3.947080590360963e-06,9.474416833867628e-07,1.8908284657896537e-05
1.761663184779761e-06,3.9665525931766315e-06,9.357635630224676e-07,1.906760852862074e-05
1.7623106893594399e-06,3.985242411767676e-06,9.238535149695448e-07,1.921328814706172e-05
1.7615078080095799e-06,4.003323394065689e-06,9.117662507689249e-07,1.934464378703352e-05
1.759262411547624e-06,4.020909149479156e-06,8.995638091103918e-07,1.946112292811197e-05
1.7555933564238415e-06,4.03808011409862e-06,8.87307917593981e-07,1.95623224228762e-05
1.750532769939236e-06,4.0549083687996616e-06,8.750540656506916e-07,1.9647955704093162e-05
1.7441361919098388e-06,4.0714595245496634e-06,8.62851775274859e-07,1.971779848755473e-05
1.7364858541656072e-06,4.087771176384299e-06,8.507519421327042e-07,1.9771687770172585e-05
1.7276820591545924e-06,4.103831867825372e-06,8.38814328271857e-07,1.980963179184688e-05
1.7178309174091274e-06,4.1195808571064625e-06,8.271060569633053e-07,1.983191941067998e-05
1.707034286393071e-06,4.1349277801066994e-06,8.156920463797369e-07,1.9839067667938355e-05
1.6953836264133855e-06,4.149777578621017e-06,8.046265228988741e-07,1.9831657849782942e-05
1.6829599896414524e-06,4.1640419789259416e-06,7.939501944405171e-07,1.9810206661508207e-05
1.6698411230110892e-06,4.1776317723176595e-06,7.836918151149659e-07,1.9775138695772484e-05
1.6561111945559283e-06,4.1904455620752636e-06,7.738712193720945e-07,1.972692265375877e-05
1.641862348229551e-06,4.202368356456341e-06,7.645010164845515e-07,1.966634742809917e-05
1.627184947345389e-06,4.213274530101182e-06,7.555869506251566e-07,1.959470074283188e-05
1.6121589916577346e-06,4.223027275201387e-06,7.471280783335745e-07,1.9513681492169863e-05
1.5968551961058012e-06,4.231480855232669e-06,7.391175309817452e-07,1.9425165007460747e-05
1.5813394003568346e-06,4.2384941157078765e-06,7.315454673211231e-07,1.9330993200451573e-05
1.5656733520925915e-06,4.243948084155677e-06,7.244032913715797e-07,1.9232838236306147e-05
1.549912643049582e-06,4.2477520014293585e-06,7.176852580886413e-07,1.913213638528615e-05
1.5341060660904028e-06,4.2498323103860565e-06,7.113864066858027e-07,1.9030078884236693e-05
1.5182962624306543e-06,4.2501172941579e-06,7.055001406822327e-07,1.892763027822288e-05
1.502517316264329e-06,4.2485309978378305e-06,7.000184479794056e-07,1.8825544443588967e-05
1.4867912840975825e-06,4.2449940127221234e-06,6.949336690903655e-07,1.8724370615018718e-05
1.4711298194967478e-06,4.2394297246992836e-06,6.902397393215732e-07,1.8624460333214205e-05
1.455539563284631e-06,4.23177649777959e-06,6.859345920478236e-07,1.852598605836645e-05
1.4400254311195585e-06,4.221992733353957e-06,6.820249867915097e-07,1.8428973581406287e-05
1.42459310120735e-06,4.210054959412976e-06,6.785292620530384e-07,1.8333345233009534e-05
1.4092547882091988e-06,4.195968602718959e-06,6.754734919104916e-07,1.8238974158050962e-05
1.3940343648406445e-06,4.179788669484967e-06,6.728832464887136e-07,1.8145751906132128e-05
1.378967050649323e-06,4.161625924783977e-06,6.707777108282233e-07,1.805365380360115e-05
1.3640954772081317e-06,4.1416305362482434e-06,6.691694525742508e-07,1.7962760456396718e-05
1.3494644445921494e-06,4.119966555931082e-06,6.680664853714735e-07,1.7873217935532464e-05
1.3351142284425358e-06,4.0967913688345455e-06,6.674731733614903e-07,1.7785176686017467e-05
1.3210749851131337e-06,4.072244491522116e-06,6.673897800855847e-07,1.7698746653413155e-05
1.3073657939363742e-06,4.046444393152784e-06,6.678116650487564e-07,1.7613967805179112e-05
1.2939967026912334e-06,4.019489519243645e-06,6.687299739992162e-07,1.75307970895035e-05
1.2809713167175022e-06,3.99146108550867e-06,6.701343312574715e-07,1.7449110884619712e-05
1.2682901907907823e-06,3.962432580110589e-06,6.720138273802129e-07,1.7368707716059984e-05
1.2559541622032198e-06,3.932487868599699e-06,6.743534139997048e-07,1.7289336198328705e-05
1.2439648754629323e-06,3.9017332807897895e-06,6.771299464436297e-07,1.7210769291865493e-05
1.2323210801443042e-06,3.8702873799013575e-06,6.803126618156846e-07,1.7132857225327033e-05
1.221013912374687e-06,3.838256877280808e-06,6.838658688301154e-07,1.7055506232308177e-05
1.2100273984416755e-06,3.8057252245528955e-06,6.877498192596788e-07,1.697863329355817e-05
1.1993468901273871e-06,3.7727671825763414e-06,6.919195744090152e-07,1.6902160674486013e-05
1.1889707075607012e-06,3.7394812248308013e-06,6.963242070700809e-07,1.6826038720072238e-05
1.1789166027166093e-06,3.7060208907616697e-06,7.009079611201827e-07,1.6750240846260172e-05
1.169219139844832e-06,3.6726016669877104e-06,7.056128160416674e-07,1.6674748555537776e-05
1.1599211349463024e-06,3.639471605373381e-06,7.103821589403071e-07,1.6599593380129627e-05
1.151063716888871e-06,3.6068659134241484e-06,7.151655559351836e-07,1.6524920617747596e-05
1.14267910948376e-06,3.5749788077671768e-06,7.199221936719222e-07,1.6450994852270978e-05
1.1347917668940131e-06,3.543958455066977e-06,7.246204111009829e-07,1.6378155715133518e-05
1.1274277626746536e-06,3.5139114767297448e-06,7.292330949336317e-07,1.6306769774299234e-05
1.1206234199398672e-06,3.484913557309087e-06,7.33732228492097e-07,1.623718841656673e-05
1.1144269695550283e-06,3.457020902719001e-06,7.380872294696156e-07,1.6169701336978463e-05
1.1088948230566994e-06,3.430271551253405e-06,7.422659144255857e-07,1.6104488243798842e-05
1.104086794147051e-06,3.4046878316564656e-06,7.462351087459345e-07,1.6041597900722365e-05
1.1000642945405272e-06,3.3802984211960108e-06,7.499642288607469e-07,1.598096998542825e-05
1.096892097575167e-06,3.3571698190250664e-06,7.53434598716603e-07,1.5922459747979607e-05
1.0946383896806914e-06,3.335426380656798e-06,7.566485093449264e-07,1.5865827713713933e-05
1.0933669349313886e-06,3.3152503492503906e-06,7.59629149620079e-07,1.581072474609269e-05
1.093124650615616e-06,3.2968612027597803e-06,7.624111143539358e-07,1.5756749186503734e-05
1.0939356628611824e-06,3.2804845362659294e-06,7.65029696094009e-07,1.5703642517473168e-05
1.0958050435400247e-06,3.266324480304355e-06,7.675156111042594e-07,1.5651548563279545e-05
1.0987239106568131e-06,3.2545429447739605e-06,7.698964672308319e-07,1.5601074742244615e-05
1.1026695952662874e-06,3.245251445228827e-06,7.722015177075053e-07,1.555305097938557e-05
1.1076041523197651e-06,3.2385223653580816e-06,7.744623382707848e-07,1.5508236298945568e-05
1.1134761780446469e-06,3.234405184674875e-06,7.767080400543975e-07,1.5467179162300673e-05
1.1202261304950994e-06,3.2329304316912013e-06,7.789647121116861e-07,1.543019534344799e-05
1.1277946223846734e-06,3.2341035333703165e-06,7.812636178865163e-07,1.5397416237089194e-05
1.1361318865240771e-06,3.237894952119274e-06,7.836484617938212e-07,1.5368890729999415e-05
1.1452010951635876e-06,3.2442324624299243e-06,7.861745038995629e-07,1.5344704285042402e-05
1.1549705316056037e-06,3.253004932585419e-06,7.8890335408512e-07,1.532508236400896e-05
1.1654005807973637e-06,3.2640766355674717e-06,7.918969511164929e-07,1.531042341304436e-05
1.1764358205777427e-06,3.277300462494654e-06,7.952110035742734e-07,1.5301240655529197e-05
1.188006509025715e-06,3.2925251936901112e-06,7.98890181421003e-07,1.5298073914651792e-05
1.2000358989258995e-06,3.3095967477081625e-06,8.029659510010402e-07,1.5301421748293378e-05
1.2124453412277043e-06,3.3283510730477837e-06,8.074551004832063e-07,1.531168617407548e-05
1.2251541124011221e-06,3.3486056538657482e-06,8.123589193833326e-07,1.5329108434256245e-05
1.2380808565422786e-06,3.37016226238769e-06,8.176645139015891e-07,1.5353782586721802e-05
1.251149843001676e-06,3.392820035661198e-06,8.233482105298681e-07,1.5385910148077512e-05
1.2642945035079478e-06,3.416388506242155e-06,8.293790513215975e-07,1.5426135416253275e-05
1.2774548499447294e-06,3.4406939036549834e-06,8.357200677178334e-07,1.5475577345271617e-05
1.290574646182258e-06,3.4655792345436903e-06,8.423285671945116e-07,1.553556314966649e-05
1.3036009020538332e-06,3.4909044775319197e-06,8.491611874757626e-07,1.5607324046777053e-05
1.316482267460182e-06,3.516549240650632e-06,8.561861737274977e-07,1.5691777798758525e-05
1.32916559030511e-06,3.54241194219664e-06,8.633949946370777e-07,1.578945780212684e-05
1.3415932339676285e-06,3.568402685624327e-06,8.70803437187438e-07,1.5900609936186112e-05
1.3537027304703422e-06,3.5944348352059752e-06,8.784426698923037e-07,1.6025427613669968e-05
1.3654287826747959e-06,3.6204160406619455e-06,8.863475259184444e-07,1.616431949192208e-05
1.3767053505403422e-06,3.6462393872353517e-06,8.945460488362459e-07,1.631801800963798e-05
1.387464911894194e-06,3.671791597440348e-06,9.030517385013396e-07,1.6487475843196138e-05
1.3976367386715729e-06,3.6969826454241682e-06,9.118613479829579e-07,1.6673682467966337e-05
1.4071481183424824e-06,3.7217660718604202e-06,9.209582780098635e-07,1.6877484530729823e-05
1.415927524410875e-06,3.746132272682728e-06,9.303168010862543e-07,1.7099442256245508e-05
1.4239080853797467e-06,3.7700913180766562e-06,9.399043552208507e-07,1.7339832788180733e-05
1.4310319267593306e-06,3.793659830549843e-06,9.496831924101666e-07,1.7598776793867372e-05
1.4372535218366742e-06,3.816853741304723e-06,9.596126425032877e-07,1.7876226934717403e-05
1.4425417986110159e-06,3.839683585614846e-06,9.696510942831185e-07,1.8171775993382496e-05
1.4468838922272362e-06,3.8621449354579466e-06,9.797559633455885e-07,1.8484545156321e-05
1.450289071194286e-06,3.8842032243158805e-06,9.898827532996371e-07,1.8813238438730167e-05
1.4527881902574438e-06,3.905783598825336e-06,9.999866013033836e-07,1.9156240409954277e-05
1.4544268318751155e-06,3.92677703345657e-06,1.0100271023083009e-06,1.9511689068488653e-05
1.455257557474228e-06,3.947060835194226e-06,1.0199720595953483e-06,1.9877511971929325e-05
1.4553421140709366e-06,3.966515643348996e-06,1.0297951110547812e-06,2.025143063062841e-05
1.4547614214114837e-06,3.985025263037065e-06,1.0394696911257867e-06,2.0630973272739112e-05
1.4536157535286894e-06,4.002465808356491e-06,1.048965970432198e-06,2.101351586622465e-05
1.4520096204150669e-06,4.018699221897973e-06,1.0582521790353494e-06,2.1396339635046934e-05
1.4500343378451746e-06,4.0335784182045255e-06,1.067297793740106e-06,2.1776708372129275e-05
1.4477593984122592e-06,4.046956138684169e-06,1.0760764664164492e-06,2.215196208662536e-05
1.4452345101814889e-06,4.058685029503728e-06,1.084566791569472e-06,2.2519593890617832e-05
1.4424996240005138e-06,4.068610731071842e-06,1.0927490471182804e-06,2.287729170494229e-05
1.439596113999962e-06,4.076569250103453e-06,1.1005992711968722e-06,2.3222951304872447e-05
1.4365720552918176e-06,4.082394124548146e-06,1.1080856673263044e-06,2.355465797388879e-05
1.4334827279802003e-06,4.085929977109936e-06,1.1151691458851316e-06,2.387065962477597e-05
1.4303920169378522e-06,4.087041874511e-06,1.1218050713905818e-06,2.4169353577216705e-05
1.4273730377779237e-06,4.085615614295443e-06,1.127944443089286e-06,2.4449250840546352e-05
1.4245005997758062e-06,4.081562825328718e-06,1.1335354792652705e-06,2.470891619408447e-05
1.4218384669958944e-06,4.0748422673635385e-06,1.138526594483771e-06,2.4946934860146745e-05
1.4194351488304429e-06,4.065483573584504e-06,1.1428696680205969e-06,2.516192856887048e-05
1.417332578689125e-06,4.053594456847344e-06,1.1465211808035678e-06,2.5352606952764707e-05
1.4155795451314052e-06,4.0393472450361986e-06,1.1494416631048995e-06,2.551782540008907e-05
1.4142422693129925e-06,4.0229486210232715e-06,1.1515965987256576e-06,2.5656620156863345e-05
1.41340827334743e-06,4.0046061287115136e-06,1.1529595334514072e-06,2.576819015566989e-05
1.4131826319023536e-06,3.984518159651416e-06,1.1535163907284443e-06,2.585183586575853e-05
1.4136782245752183e-06,3.962895868159075e-06,1.1532692923953184e-06,2.590691970538303e-05
1.415002123538758e-06,3.939988522817378e-06,1.1522351459511897e-06,2.5932873583219064e-05
1.4172411905075537e-06,3.916088823349154e-06,1.1504386172660931e-06,2.5929220385737727e-05
1.4204522042895163e-06,3.891526823470224e-06,1.1479079860352012e-06,2.589560663745685e-05
1.4246599030391863e-06,3.86665997511564e-06,1.1446775765792744e-06,2.583189408303267e-05
1.4298595420133266e-06,3.841847623638648e-06,1.1407901052246422e-06,2.5738309065115094e-05
1.4360203397788124e-06,3.817410934348155e-06,1.1362949758204229e-06,2.561554657248716e-05
1.44308958478237e-06,3.793604434030249e-06,1.1312457698262459e-06,2.54647462784224e-05
1.4509973531044747e-06,3.770612584112094e-06,1.1256996158164543e-06,2.5287390464351638e-05
1.4596651854698426e-06,3.7485572595420736e-06,1.1197178091040571e-06,2.508522493855287e-05
1.46901865942488e-06,3.7275060580546866e-06,1.1133657649164186e-06,2.486021942323713e-05
1.4789940407154963e-06,3.707482493819085e-06,1.1067103931285697e-06,2.461450123702138e-05
1.4895354234256785e-06,3.6884741286379777e-06,1.099814870975154e-06,2.4350228724058345e-05
1.5005915909945406e-06,3.670435149549425e-06,1.092733382450262e-06,2.406946433004393e-05
1.5121180386300488e-06,3.6532877782688455e-06,1.0855086295427528e-06,2.377413388910461e-05
1.5240775189565381e-06,3.636929811118789e-06,1.0781731898913234e-06,2.346607354716958e-05
1.5364331438477164e-06,3.6212519627802194e-06,1.0707528925837535e-06,2.314708085127665e-05
1.549138100862334e-06,3.6061611395924018e-06,1.0632682219845147e-06,2.2818911335395292e-05
1.5621289403216963e-06,3.5916040399465364e-06,1.0557338536633765e-06,2.248324223654996e-05
1.57532674790905e-06,3.5775932305816284e-06,1.048160306044198e-06,2.2141697752683482e-05
1.5886459824848817e-06,3.5642385893710722e-06,1.0405572424205628e-06,2.17959798689772e-05
1.6020031064942057e-06,3.5517662224114265e-06,1.0329345241663011e-06,2.14479461684732e-05
1.6153176671737617e-06,3.5404911194261367e-06,1.0253003214941664e-06,2.1099485485460687e-05
1.628508919042893e-06,3.530745999262378e-06,1.0176595516029178e-06,2.0752329988346754e-05
1.6414956413460975e-06,3.522826116457354e-06,1.0100150456374909e-06,2.040801428589105e-05
1.6542000810052691e-06,3.5169914520505097e-06,1.0023694198684024e-06,2.0068014300928773e-05
1.6665494280425204e-06,3.5134945753207725e-06,9.947248474613e-07,1.9734000275796802e-05
1.678471681659466e-06,3.5125882558703597e-06,9.870809172375237e-07,1.9408058393299112e-05
1.6898910212445988e-06,3.5145095797516266e-06,9.794324529886385e-07,1.9092705261111944e-05
1.7007268921720913e-06,3.5194621740386253e-06,9.71769003870775e-07,1.8790702100886718e-05
1.7108954747535382e-06,3.5276075742196814e-06,9.640763869313831e-07,1.8504817192349137e-05
1.7203120856226452e-06,3.539058223719268e-06,9.563397100324103e-07,1.8237621871780506e-05
1.7288963368423697e-06,3.553863676321794e-06,9.485489711393007e-07,1.7991328874161036e-05
1.7365796667162919e-06,3.5719941592670144e-06,9.40705874642391e-07,1.7767672690116586e-05
1.7433087340323573e-06,3.593332698751236e-06,9.328244250589123e-07,1.756784372913034e-05
1.7490410332787117e-06,3.6176834767025316e-06,9.249240776841713e-07,1.7392482758291295e-05
1.7537389217014431e-06,3.6447999104429153e-06,9.170241995701807e-07,1.7241720592152757e-05
1.757368812126408e-06,3.674428991782495e-06,9.091430569165148e-07,1.7115245997774114e-05
1.7599029700065006e-06,3.7063488430504533e-06,9.012965837628357e-07,1.7012387976136883e-05
1.7613187863332634e-06,3.7403724074618593e-06,8.93496080011714e-07,1.693219288526411e-05
1.761596256426902e-06,3.7763306555973883e-06,8.857481860306679e-07,1.687346980274347e-05
1.7607160219515948e-06,3.814078446008792e-06,8.780564921894422e-07,1.6834809356364838e-05
1.7586588238793426e-06,3.853528609681174e-06,8.704221015546942e-07,1.681464069147403e-05
1.7554076966483276e-06,3.894674996217427e-06,8.628443777508329e-07,1.6811345555142205e-05
1.7509537515924056e-06,3.937575832379156e-06,8.553226641775648e-07,1.682335630388973e-05
1.745301923378173e-06,3.982304011849524e-06,8.47856542803112e-07,1.6849200440771325e-05
1.7384695663049874e-06,4.0288919520016866e-06,8.404446934943269e-07,1.6887524211381158e-05
1.7304784841642226e-06,4.07729623263795e-06,8.330843234333312e-07,1.6937106048803088e-05
1.7213493056643669e-06,4.1273883837590664e-06,8.25770579714374e-07,1.6996839021749444e-05
1.7111007291850953e-06,4.178964431273126e-06,8.184953168911925e-07,1.706568952394873e-05
1.6997491711359856e-06,4.2317641252933725e-06,8.112467297241563e-07,1.7142666139799405e-05
1.6873082405248654e-06,4.285494060825347e-06,8.040111019559156e-07,1.722679912432744e-05
1.6737908514762046e-06,4.339851713245264e-06,7.967764728484121e-07,1.7317096805580876e-05
1.6592127601804337e-06,4.394543889669802e-06,7.895366815538429e-07,1.7412484636830665e-05
1.643594395789269e-06,4.449291314031575e-06,7.822929098708734e-07,1.7511774430397962e-05
1.6269636447098213e-06,4.5038203173327856e-06,7.750514368022924e-07,1.7613677938711637e-05
1.609360644067206e-06,4.557854215952197e-06,7.678217675619449e-07,1.7716832886762584e-05
1.5908373093694112e-06,4.611117620836248e-06,7.606191245638278e-07,1.7819815187984136e-05
1.5714511257528359e-06,4.6633520928528135e-06,7.534665394853178e-07,1.7921143673694513e-05
1.5512642553270162e-06,4.714328438442146e-06,7.463906252335234e-07,1.80193030593601e-05
1.530352281701561e-06,4.7638452039103484e-06,7.394148208800001e-07,1.811281387680296e-05
1.5088115440166637e-06,4.811714685501385e-06,7.325564067540636e-07,1.8200335821467746e-05
1.4867529763352336e-06,4.85775080701817e-06,7.258270135121813e-07,1.8280733347429015e-05
1.464286743717747e-06,4.901778566935259e-06,7.192339899273926e-07,1.8353071729453373e-05
1.4415120989105703e-06,4.94366250207332e-06,7.127814086446456e-07,1.8416587429174773e-05
1.4185163039726232e-06,4.983323437050364e-06,7.064697072967966e-07,1.8470687032750987e-05
1.395375645301783e-06,5.020720825873218e-06,7.002947936486721e-07,1.851498807117898e-05
1.3721560980156394e-06,5.055812915952508e-06,6.942490998349626e-07,1.854933579391856e-05
1.3489161798481295e-06,5.088525814044309e-06,6.883239238015749e-07,1.8573725869137813e-05
1.3257109048601506e-06,5.11875007934971e-06,6.825107503718561e-07,1.8588184346491047e-05
1.302595030946953e-06,5.146362930315453e-06,6.7680272326704e-07,1.8592718774348567e-05
1.279630435077245e-06,5.171260049541986e-06,6.71196634696648e-07,1.858735950903996e-05
1.2569017831114219e-06,5.193371758631462e-06,6.656933034129372e-07,1.8572210336853987e-05
1.23453002716625e-06,5.2126512641015155e-06,6.602994964954507e-07,1.8547459356158363e-05
1.2126691557786391e-06,5.229057546581888e-06,6.550341152304408e-07,1.8513362509275697e-05
1.1914905420956016e-06,5.242561460193518e-06,6.499307129412453e-07,1.8470235008026288e-05
1.1711715455947928e-06,5.253163140301605e-06,6.45032237949474e-07,1.8418498897201043e-05
1.1518910770383181e-06,5.260887623509266e-06,6.403864731633934e-07,1.8358735531307898e-05
1.1338206396328523e-06,5.265757627171607e-06,6.360450187371125e-07,1.829161831901436e-05
1.1171113228682336e-06,5.2677735763877815e-06,6.320597056831511e-07,1.8217764245980287e-05
1.101889968628348e-06,5.266921385180703e-06,6.284766125234099e-07,1.8137655099948507e-05
1.0882653998874495e-06,5.263195157078632e-06,6.253343073390212e-07,1.8051692957773666e-05
1.0763342011459286e-06,5.256606630840991e-06,6.22667917626534e-07,1.796039395241732e-05
1.0661828364934624e-06,5.2471809020454025e-06,6.205130820551405e-07,1.7864636690050353e-05
1.0578903384819164e-06,5.234963369505794e-06,6.189047147213754e-07,1.776576442895903e-05
1.0515316385501231e-06,5.2200376561397556e-06,6.178720174811171e-07,1.766546584798948e-05
1.047176298342518e-06,5.202525011971876e-06,6.17434330210919e-07,1.7565578820059257e-05
1.0448811474732454e-06,5.182558237904807e-06,6.176006143984854e-07,1.7467942486838794e-05
1.044681400227445e-06,5.160261063117336e-06,6.183718527973224e-07,1.7374296341486733e-05
1.0465842043276545e-06,5.13575107177337e-06,6.197429149037943e-07,1.7286200308550674e-05
1.0505652266920748e-06,5.109144117950621e-06,6.217020467760479e-07,1.7204971709422554e-05
1.0565697964755951e-06,5.080545102870653e-06,6.242303734091285e-07,1.7131639645055566e-05
1.0645199628364238e-06,5.05004092815242e-06,6.273039182613296e-07,1.7066929667902e-05
1.0743231464434977e-06,5.0177022392896866e-06,6.30898338676388e-07,1.7011281709201482e-05
1.085876372862524e-06,4.9835815328264665e-06,6.349935497613721e-07,1.696486587948765e-05
1.0990649979620695e-06,4.947707419623438e-06,6.395728948391639e-07,1.6927579177964813e-05
1.1137597524085108e-06,4.9100870637833886e-06,6.446179071154263e-07,1.6899060029121453e-05
1.1298175250659128e-06,4.870721143153688e-06,6.501080162673875e-07,1.687874918001232e-05
1.1470866294174783e-06,4.8296243454031055e-06,6.560273979437812e-07,1.6865975280943565e-05
1.165411595323472e-06,4.786838893985143e-06,6.623697401996085e-07,1.686002614019904e-05
1.1846343285147638e-06,4.742435694848376e-06,6.691351874298186e-07,1.6860185384208497e-05
1.2045939614178933e-06,4.696506438329419e-06,6.763224920398387e-07,1.6865741007363463e-05
1.2251300186032685e-06,4.649148213159979e-06,6.839226354305358e-07,1.6875990645644472e-05
1.2460895255410995e-06,4.600446942838824e-06,6.919180841875011e-07,1.6890256339564127e-05
1.2673313509581615e-06,4.550474684400669e-06,7.002865118295546e-07,1.6907899565097944e-05
1.2887224672748286e-06,4.499303968223865e-06,7.090054215469048e-07,1.6928337678056274e-05
1.3101319326311786e-06,4.447022476792166e-06,7.180543151090075e-07,1.6951067800701127e-05
1.331430043189563e-06,4.3937352000670754e-06,7.274131406615277e-07,1.697567050341864e-05
1.3524900524818606e-06,4.339558754721811e-06,7.370589443737439e-07,1.7001763437608353e-05
1.3731902459211658e-06,4.284612809171299e-06,7.469621739942678e-07,1.7028936309782653e-05
1.3934201639908535e-06,4.229008810041937e-06,7.57083625083722e-07,1.7056716870883792e-05
1.4130880089649706e-06,4.172846559249225e-06,7.673742887784372e-07,1.708455419806896e-05
1.4321210888725251e-06,4.116225496104509e-06,7.777787328921052e-07,1.7111793637077344e-05
1.4504589621193085e-06,4.059253341887128e-06,7.882393598670991e-07,1.7137668491508536e-05
1.468045295036201e-06,4.002038568676243e-06,7.986978590684958e-07,1.716132271681219e-05
1.484822978878473e-06,3.944681956134103e-06,8.090936627430916e-07,1.7181854132823765e-05
1.5007357988709196e-06,3.8872789537147885e-06,8.193626971674144e-07,1.719839123137989e-05
1.5157362834564506e-06,3.829920691127403e-06,8.294392753443595e-07,1.7210188777910807e-05
1.5297903281672227e-06,3.7726900302964187e-06,8.392642558199156e-07,1.721667851746194e-05
1.5428711651465325e-06,3.7156652674908303e-06,8.487974921755997e-07,1.7217460111809667e-05
1.5549498690065663e-06,3.658930127428711e-06,8.580236349029677e-07,1.7212284307061425e-05
1.5659946113470497e-06,3.6025741793537583e-06,8.669468568271795e-07,1.7201083724725297e-05
1.575978946791602e-06,3.546681280748633e-06,8.755811003058893e-07,1.7184055974093633e-05
1.5848869622728418e-06,3.491325131417234e-06,8.839402888129086e-07,1.7161706776932038e-05
1.5927081348145438e-06,3.436582329348491e-06,8.920306521850859e-07,1.713475443993353e-05
1.5994304387954725e-06,3.3825453385361906e-06,8.998475412107535e-07,1.7103945074914833e-05
1.6050422099240725e-06,3.329318561649711e-06,9.073757125258301e-07,1.7069923912575808e-05
1.6095416362920509e-06,3.2770017167979508e-06,9.14591462306324e-07,1.7033224922277327e-05
1.612947950207187e-06,3.2256738701444167e-06,9.214662624566685e-07,1.6994324509685528e-05
1.6153102886613742e-06,3.17539028474872e-06,9.279713304148294e-07,1.6953690282525562e-05
1.6167104541221952e-06,3.1261933124312737e-06,9.340827196644242e-07,1.6911782329002834e-05
1.6172574614474076e-06,3.078123825356342e-06,9.397850660955893e-07,1.6869016849939654e-05
1.6170734361202759e-06,3.0312200069920486e-06,9.450701185576792e-07,1.682577875712028e-05
1.6162742557411915e-06,2.985505867341937e-06,9.499305286426365e-07,1.678248239214866e-05
1.6149547715157731e-06,2.9409820248781507e-06,9.543555565993307e-07,1.6739545227820307e-05
1.6131842355660782e-06,2.8976261396174113e-06,9.583310458529728e-07,1.6697263853398246e-05
1.6110078834434963e-06,2.8554016227441536e-06,9.618397173632224e-07,1.6655726075544316e-05
1.6084500390212197e-06,2.814267122367504e-06,9.648613752463094e-07,1.6614848329956782e-05
1.6055178471094652e-06,2.774180423089443e-06,9.673743896238207e-07,1.6574577142584887e-05
1.6022074828027036e-06,2.735106517962061e-06,9.69356077886072e-07,1.6535182556015352e-05
1.5985140992653297e-06,2.6970447296556947e-06,9.707816024740988e-07,1.6497415921586412e-05
1.5944401327664014e-06,2.660063067464529e-06,9.716242602577645e-07,1.646241097182101e-05
1.5899948477980724e-06,2.624309800512168e-06,9.718567989158232e-07,1.6431452878396208e-05
1.585188737440317e-06,2.5899886461078157e-06,9.71451631390156e-07,1.6405773428894995e-05
1.580030660040901e-06,2.5573121329827374e-06,9.70380997375907e-07,1.638641976141765e-05
1.5745275214326597e-06,2.526467267509616e-06,9.686185324671495e-07,1.6374183926280225e-05
1.5686874546538882e-06,2.497612192966056e-06,9.66140896280496e-07,1.6369582944537062e-05
1.562530071805825e-06,2.470882909971836e-06,9.629286223776242e-07,1.6372885645154153e-05
1.556097547853612e-06,2.446387803982102e-06,9.589670095620279e-07,1.6384163994509366e-05
1.5494563949398853e-06,2.424198765870884e-06,9.542463707005672e-07,1.6403335272131782e-05
1.5426881732027831e-06,2.404352046888112e-06,9.487620355361936e-07,1.643016692373892e-05
1.5358759854334094e-06,2.386852414620901e-06,9.425177198684844e-07,1.6464241329437367e-05
1.5290933811425708e-06,2.3716734964759564e-06,9.355325029214412e-07,1.6504922155184732e-05
1.5223965878525503e-06,2.358760260555334e-06,9.27844825150943e-07,1.6551361772102734e-05
1.5158221719986644e-06,2.348033304976464e-06,9.195081642859793e-07,1.6602554394061167e-05
1.5093941489594855e-06,2.339388230106268e-06,9.105818797852041e-07,1.6657419704616313e-05
1.5031349417018075e-06,2.332697586831376e-06,9.011240178493744e-07,1.6714878213515554e-05
1.4970679169104945e-06,2.327825251983961e-06,8.911886823189369e-07,1.677388881911357e-05
1.4912120342537502e-06,2.3246468673079338e-06,8.808276699837617e-07,1.6833466911335986e-05
1.485581651494246e-06,2.3230655779704497e-06,8.700948898292563e-07,1.6892708414039754e-05
1.4801931601202268e-06,2.323018135468703e-06,8.590512523379496e-07,1.6950811523979806e-05
1.4750669201951368e-06,2.32446623460878e-06,8.477680944646275e-07,1.7007082459597115e-05
1.4702250865373362e-06,2.327375054668944e-06,8.363283062046493e-07,1.7060931006950945e-05
1.465697878592775e-06,2.331697984538469e-06,8.248267122818563e-07,1.711185684958275e-05
1.4615371928864902e-06,2.337379663590866e-06,8.133694119094624e-07,1.7159415044206285e-05
1.457823539887563e-06,2.3443626695258685e-06,8.02066852873191e-07,1.7203170255970513e-05
1.454658386889943e-06,2.3525810961310485e-06,7.910218023891777e-07,1.7242676088023953e-05
1.4521446839424498e-06,2.3619485456679287e-06,7.803224429724305e-07,1.727748336468046e-05
1.450366152067632e-06,2.372362674884006e-06,7.700435501942156e-07,1.7307140651763845e-05
1.4493757352448343e-06,2.383734069622654e-06,7.602481489776191e-07,1.7331183155578825e-05
1.4491949654349185e-06,2.396020761969046e-06,7.50985540832964e-07,1.7349138384023593e-05
1.4498200672922553e-06,2.409240437927371e-06,7.422892607024933e-07,1.7360549052096146e-05
1.4512280247944616e-06,2.4234480108268768e-06,7.341775080396962e-07,1.7364982041331994e-05
1.4533777314901258e-06,2.43869582466474e-06,7.266545591071237e-07,1.7362009429649987e-05
1.456208995777217e-06,2.4550122179241853e-06,7.197130979146534e-07,1.7351186612998106e-05
1.4596434870789154e-06,2.4724136776238565e-06,7.133390585765961e-07,1.733206143189554e-05
1.463588576556532e-06,2.4909271560832693e-06,7.075165182428155e-07,1.7304238007765395e-05
1.4679460763011948e-06,2.5105951324039825e-06,7.02228506903368e-07,1.7267488122374164e-05
1.4726265628904973e-06,2.531463449070679e-06,6.974549870203122e-07,1.722184334371777e-05
1.4775652545993533e-06,2.553565983182841e-06,6.931717573689875e-07,1.716759101159483e-05
1.48273336322315e-06,2.5769127317005144e-06,6.893517852174845e-07,1.7105175342841984e-05
1.4881394742828629e-06,2.601480602461314e-06,6.859685187827936e-07,1.7035070523842258e-05
1.493819690101627e-06,2.6272069764501518e-06,6.829981082595173e-07,1.6957697343795647e-05
1.499820324157059e-06,2.653990201001114e-06,6.804180527465225e-07,1.6873419594294503e-05
1.5061790144399406e-06,2.6816969177870328e-06,6.782045270590519e-07,1.6782579075415338e-05
1.512911900708031e-06,2.7101681770229143e-06,6.763313748880921e-07,1.6685496845717597e-05
1.5200131654825441e-06,2.7392269187661112e-06,6.747706208459673e-07,1.6582439680064074e-05
1.5274678088548984e-06,2.7686972035829984e-06,6.734933620995578e-07,1.6473641506457926e-05
1.5352687336782698e-06,2.7984256865165766e-06,6.724697892046377e-07,1.6359458824180273e-05
1.5434205174440129e-06,2.828282839763545e-06,6.716677153115981e-07,1.6240561571141396e-05
1.5519272936686702e-06,2.8581433644850153e-06,6.7105154852698e-07,1.6117957902698346e-05
1.560784476095728e-06,2.887873863156755e-06,6.705825895941184e-07,1.599283978090388e-05
1.5699839149902337e-06,2.9173478691319693e-06,6.702195867692596e-07,1.586640405796827e-05
1.5795205720307968e-06,2.946474885553164e-06,6.699207759846037e-07,1.5739782791243707e-05
1.589390406662262e-06,2.9752197559968965e-06,6.696483635314565e-07,1.5614158664813598e-05
1.5995817424659403e-06,3.0036033310339887e-06,6.693727895316668e-07,1.5490958836836815e-05
1.6100680741436516e-06,3.03168654948315e-06,6.690733224174706e-07,1.5371892418340553e-05
1.6208062444776518e-06,3.0595423811447935e-06,6.687348691962058e-07,1.525880523600162e-05
1.6317372516155957e-06,3.0872271938687684e-06,6.683448863688527e-07,1.5153509105058456e-05
1.6427891708161659e-06,3.1147760458338866e-06,6.678926397145139e-07,1.5057661824913183e-05
1.6538842629349709e-06,3.1422286404958322e-06,6.67368975799104e-07,1.4972678276756302e-05
1.6649455235102474e-06,3.1696513319904264e-06,6.667656331215476e-07,1.4899652435091498e-05
1.6758958289176275e-06,3.197125559632649e-06,6.660751915724231e-07,1.4839305218510932e-05
1.6866519444978869e-06,3.2247147590746512e-06,6.652916865626453e-07,1.4791981015352121e-05
1.6971211144314506e-06,3.252436019564069e-06,6.644113007201657e-07,1.4757685573381415e-05
1.7072040259441775e-06,3.2802490415314906e-06,6.634342362654489e-07,1.4736138211754847e-05
1.7168047119046723e-06,3.3080596334199747e-06,6.623671853838964e-07,1.4726812768070456e-05
1.7258441974510135e-06,3.335730295411236e-06,6.612229571186275e-07,1.4728960055623969e-05
1.7342685859078983e-06,3.3630954885006216e-06,6.600171978510642e-07,1.4741629501758375e-05
1.7420476404605825e-06,3.3899770508816094e-06,6.587646808061578e-07,1.4763715734162778e-05
1.7491697144955303e-06,3.416189872737922e-06,6.574760567961833e-07,1.4794040695720361e-05
1.7556358058055787e-06,3.441539838251323e-06,6.561567030418325e-07,1.4831443652983667e-05
1.7614528211750644e-06,3.465824983199134e-06,6.548088919977857e-07,1.487483018902145e-05
1.766628977283601e-06,3.4888409362384866e-06,6.534356748307832e-07,1.4923172956849417e-05
1.7711710453897067e-06,3.5103895253206184e-06,6.520441431347846e-07,1.4975500022531226e-05
1.775083473022395e-06,3.5302908743755533e-06,6.506457443025635e-07,1.5030892304327146e-05
1.7783710593527936e-06,3.548392683417926e-06,6.492540169539356e-07,1.508848657316717e-05
1.781039981422876e-06,3.5645717675980865e-06,6.478831274289802e-07,1.5147466536974305e-05
1.7830931306175889e-06,3.5787266351273233e-06,6.465470555943232e-07,1.5207023367405191e-05
1.7845268496562431e-06,3.590764880767756e-06,6.452571747571098e-07,1.526629867728718e-05
1.7853384245956337e-06,3.6005978812379334e-06,6.440201849032387e-07,1.5324360519743302e-05
1.7855381956599942e-06,3.608145555884578e-06,6.428397134602549e-07,1.538026199217848e-05
1.7851505360514473e-06,3.6133398765743074e-06,6.417205745300013e-07,1.5433159677086182e-05
1.7842094097831592e-06,3.6161262140457084e-06,6.406717011113469e-07,1.548239018158224e-05
1.7827638821388981e-06,3.616471414959175e-06,6.397059267023345e-07,1.5527450078652928e-05
1.7808866965758359e-06,3.614376501981402e-06,6.388372273597711e-07,1.5567922001307433e-05
1.7786746916924683e-06,3.6098824322412805e-06,6.380766497710275e-07,1.5603395493032752e-05
1.776240259747103e-06,3.603060905348674e-06,6.374292259872721e-07,1.5633409665068288e-05
1.7736945258720092e-06,3.5939928196341127e-06,6.368938742531873e-07,1.5657441679518364e-05
1.7711313471496673e-06,3.5827468923422927e-06,6.36466484589288e-07,1.567493659241665e-05
1.7686261204923394e-06,3.5693699627258803e-06,6.361449092122764e-07,1.568535591655224e-05
1.7662464746058701e-06,3.553891428413722e-06,6.359340056200454e-07,1.5688239596875353e-05
1.764056892467701e-06,3.536337144480488e-06,6.358473952339215e-07,1.5683269835019548e-05
1.7621106438108574e-06,3.516743876618309e-06,6.359021863109337e-07,1.5670314976354973e-05
1.760441419360732e-06,3.4951642038725785e-06,6.361107377830735e-07,1.564947268369855e-05
1.7590624506291134e-06,3.471658290716993e-06,6.364777095431733e-07,1.562111532049408e-05
1.7579665281951645e-06,3.44628216615616e-06,6.370017529932296e-07,1.5585857061758516e-05
1.7571249755706348e-06,3.419086750946713e-06,6.376770600826007e-07,1.5544415458757653e-05
1.7564930546497611e-06,3.3901273201970994e-06,6.384940193169242e-07,1.549747615275618e-05
1.7560237585553336e-06,3.3594709340884565e-06,6.39438840809251e-07,1.5445648629097927e-05
1.75568006676351e-06,3.3271996444703206e-06,6.404924860540171e-07,1.5389484177896972e-05
1.755434153910334e-06,3.2934163790216437e-06,6.416311914868594e-07,1.5329500336774743e-05
1.7552559719553287e-06,3.258252525557718e-06,6.428291561261282e-07,1.5266183638482593e-05
1.7551056423590038e-06,3.2218702767046965e-06,6.44061841616523e-07,1.519998357746898e-05
1.7549380033844261e-06,3.1844544901427293e-06,6.453090286852165e-07,1.5131375349273237e-05
1.7547138579525348e-06,3.146201966385084e-06,6.465558934694864e-07,1.5060975519439687e-05
1.7544079458840267e-06,3.1073308066100984e-06,6.477897665827228e-07,1.4989541343856064e-05
1.7540081172871003e-06,3.0681099988609014e-06,6.489954943118168e-07,1.4917823780435928e-05
1.753506713166943e-06,3.0288727199626662e-06,6.501544654487998e-07,1.4846431082890513e-05
1.7528918002172585e-06,2.9899885722469023e-06,6.512464029200037e-07,1.4775791641145932e-05
1.7521441623872692e-06,2.951817057115585e-06,6.522508945343757e-07,1.47062500559768e-05
1.751236280455982e-06,2.914683280614458e-06,6.531482546360148e-07,1.4638321038035267e-05
1.7501304043958095e-06,2.878884923205565e-06,6.53919589593792e-07,1.4572941190485502e-05
1.7487800941553345e-06,2.8447047790757414e-06,6.545473116574674e-07,1.4511488070338599e-05
1.7471364745611847e-06,2.812407402865961e-06,6.55017586046669e-07,1.4455591667708576e-05
1.7451564880277382e-06,2.782220849912265e-06,6.553214201246744e-07,1.4406929729925181e-05
1.7428130945590332e-06,2.754318955119653e-06,6.554519302024236e-07,1.436709466201969e-05
1.7401050046360112e-06,2.728817877884817e-06,6.55401671914374e-07,1.4337509906219074e-05
1.7370562616064098e-06,2.7057838287827772e-06,6.551625438962614e-07,1.4319360499861218e-05
1.7337024239350427e-06,2.685239455461855e-06,6.547259092801265e-07,1.4313534347511547e-05
1.7300802184787083e-06,2.667166070313392e-06,6.540821687567835e-07,1.4320596053482105e-05
1.7262362784246055e-06,2.651511335780183e-06,6.532217234032679e-07,1.4340795411443387e-05
1.7222427410790946e-06,2.638208082416006e-06,6.521370677210997e-07,1.4374081971620135e-05
1.7181976360243016e-06,2.627191088670905e-06,6.508243467606491e-07,1.4420117592724909e-05
1.7142081853532119e-06,2.618394389206486e-06,6.492851777555832e-07,1.4478315745402606e-05
1.7103723089401683e-06,2.611737684192932e-06,6.475287515055847e-07,1.4547914440687188e-05
1.7067691569529894e-06,2.607133170210947e-06,6.455709955765118e-07,1.4628059184004385e-05
1.703456135539857e-06,2.6045249236685903e-06,6.434301562567718e-07,1.4717890947855255e-05
1.7004679074725089e-06,2.6039319975171984e-06,6.411228741109621e-07,1.4816635944198584e-05
1.6978196737098796e-06,2.6054596127729e-06,6.386637636135582e-07,1.4923661206208496e-05
1.6955148771709632e-06,2.609272034129771e-06,6.360673225619369e-07,1.5038481612857031e-05
1.6935502987250175e-06,2.615545016898973e-06,6.333489247675062e-07,1.516075710648999e-05
1.6919145251661204e-06,2.6244270130207763e-06,6.305230602695537e-07,1.5290293778294488e-05
1.6905836164671084e-06,2.63603022608063e-06,6.276013537647409e-07,1.542701895055815e-05
1.6895190890711543e-06,2.6504376624168123e-06,6.245950374034221e-07,1.557092590045405e-05
1.6886691937899827e-06,2.667696934056887e-06,6.215214875084951e-07,1.5722002556545964e-05
1.6879712190981591e-06,2.6877994430961587e-06,6.184087101361763e-07,1.5880140749731657e-05
1.6873535033139963e-06,2.7106672126700448e-06,6.152947543344197e-07,1.6045044778387046e-05
1.6867392040939804e-06,2.7361630252387097e-06,6.122241702556336e-07,1.6216195958441556e-05
1.6860534772559972e-06,2.764123156639126e-06,6.092426842396011e-07,1.6392886695232377e-05
1.6852317387620469e-06,2.7943991902111616e-06,6.063919131716691e-07,1.6574274288885693e-05
1.6842258672641502e-06,2.826887726187028e-06,6.037080083496769e-07,1.6759420181156853e-05
1.6830067951987048e-06,2.8615311848747382e-06,6.012239209080344e-07,1.6947323682070932e-05
1.6815615619752072e-06,2.8982910034147026e-06,5.989719973525935e-07,1.7136966671252038e-05
1.679884590844269e-06,2.937112653938015e-06,5.969858690654966e-07,1.7327337583260884e-05
1.677971628446572e-06,2.9779011392664574e-06,5.953003947497475e-07,1.7517389367812672e-05
1.675824015323979e-06,3.0205115269264412e-06,5.939484856284256e-07,1.7705990195165494e-05
1.6734558857981658e-06,3.0647566116854882e-06,5.929577636874934e-07,1.7891971821191986e-05
1.670896077579434e-06,3.110431795415911e-06,5.923494139121642e-07,1.807425296101481e-05
1.668189740681506e-06,3.1573388662111763e-06,5.921372456202166e-07,1.8251914049666243e-05
1.6654067612920113e-06,3.2052859866607435e-06,5.92326966772115e-07,1.8424169479700414e-05
1.6626519526002422e-06,3.254066143027932e-06,5.929172047701104e-07,1.8590280122092307e-05
1.6600602041732331e-06,3.3034377907786305e-06,5.938999573274365e-07,1.8749466729693257e-05
1.6577710282530513e-06,3.3531219889519836e-06,5.952598608215252e-07,1.8900893167574066e-05
1.6559039948688955e-06,3.4028108715072084e-06,5.969750089972071e-07,1.904375964689157e-05
1.6545556004951808e-06,3.45218374066062e-06,5.990185052173996e-07,1.9177435104931488e-05
1.6538080799500353e-06,3.500929066482688e-06,6.01358814700012e-07,1.930150988685966e-05
1.6537307340767709e-06,3.548760952181691e-06,6.03960560525571e-07,1.9415746830504075e-05
1.654373925259391e-06,3.5954219450984182e-06,6.067874219947018e-07,1.951999945310368e-05
1.6557672515044441e-06,3.640674575291973e-06,6.098056221624364e-07,1.9614156575008285e-05
1.6579245728927569e-06,3.68428961228379e-06,6.129852813237032e-07,1.9698155234139464e-05
1.6608516067412564e-06,3.7260428737688073e-06,6.162990402953353e-07,1.9772073377476533e-05
1.6645537590827102e-06,3.7657221157622734e-06,6.197192403345349e-07,1.9836185540814027e-05
1.6690424473076912e-06,3.8031319552627577e-06,6.232157480631268e-07,1.989088384779111e-05
1.6743373610389662e-06,3.8380912914478725e-06,6.267567337067043e-07,1.9936619214331547e-05
1.6804647741659475e-06,3.870431477751667e-06,6.303112680547435e-07,1.997397324844681e-05
1.6874573360647262e-06,3.9000053422627336e-06,6.338509395472839e-07,2.000369851286941e-05
1.695359253366461e-06,3.926698941841296e-06,6.373508309694569e-07,2.0026634975505262e-05
1.704229455455762e-06,3.950426632639216e-06,6.407903200561285e-07,2.004357830988525e-05
1.7141336671855524e-06,3.971116222735528e-06,6.441520412333802e-07,2.0055155950169198e-05
1.725127774532376e-06,3.98870254395618e-06,6.474189417524464e-07,2.0061748576765977e-05
1.7372415248965527e-06,4.003125069259942e-06,6.505733568366044e-07,2.0063478039787792e-05
1.7504732068993222e-06,4.014327031171135e-06,6.536008482226732e-07,2.0060239399969386e-05
1.7648013306834347e-06,4.022261079695006e-06,6.564944086227861e-07,2.0051752158362884e-05
1.780203323874737e-06,4.026891591833142e-06,6.592531717749646e-07,2.0037616676791397e-05
1.79666390957917e-06,4.028188039733692e-06,6.618778822148047e-07,2.0017355451555232e-05
1.814169602272116e-06,4.026122802440711e-06,6.64370228102755e-07,1.999042812636297e-05
1.8327003650630127e-06,4.0206837099026885e-06,6.66735939146516e-07,1.9956237047684203e-05
1.85222774830018e-06,4.011894247059721e-06,6.689849291822006e-07,1.9914142990820864e-05
1.8727184398777112e-06,3.9998284719715915e-06,6.711274301906118e-07,1.986349608066684e-05
1.8941383680843057e-06,3.984616716597495e-06,6.731709772940056e-07,1.980367987273967e-05
1.916453608955537e-06,3.966446141515516e-06,6.751213371785232e-07,1.97341549717608e-05
1.9396246432752147e-06,3.945558849025316e-06,6.769886516189732e-07,1.9654481648470367e-05
1.9635956203417858e-06,3.922240034753197e-06,6.787950424582783e-07,1.956432256332371e-05
1.9882854466359875e-06,3.8967919733601196e-06,6.805743313618175e-07,1.9463443403756132e-05
2e-07,3.869520405651877e-06,6.823628306784186e-07,1.9351707686522933e-05
2e-07,3.840755003737665e-06,6.841901564393445e-07,1.9229055410413432e-05
2e-07,3.810873456166202e-06,6.860749275599272e-07,1.9095487567948813e-05
2e-07,3.780290767172789e-06,6.880249858505793e-07,1.8951084289390882e-05
2e-07,3.7494174615091652e-06,6.900424812802769e-07,1.8796041856657955e-05
2e-07,3.7186180307200532e-06,6.921315911268421e-07,1.863067846057325e-05
2e-07,3.6881931515408898e-06,6.943039951841956e-07,1.845538155597535e-05
2e-07,3.6583806565376373e-06,6.965810021753081e-07,1.827053334972993e-05
2e-07,3.6293583315836198e-06,6.989925571307208e-07,1.807648522207891e-05
2e-07,3.6012459607538498e-06,7.015715713543894e-07,1.7873623292468795e-05
2e-07,3.5741118665032835e-06,7.043460719359494e-07,1.7662480037447582e-05
2e-07,3.5479815246710153e-06,7.073344032942312e-07,1.744376891593692e-05
2e-07,3.5228429466400436e-06,7.105451007894817e-07,1.7218288565446898e-05
2e-07,3.498650850490315e-06,7.139820474632656e-07,1.698680196150354e-05
2e-07,3.475336638509214e-06,7.176535962098981e-07,1.6750013679637847e-05
2e-07,3.4528244519412803e-06,7.215794287177879e-07,1.6508652434005542e-05
2e-07,3.4310434382207432e-06,7.257922065182131e-07,1.6263568861136727e-05
2e-07,3.4099279716975093e-06,7.303365883458207e-07,1.6015738055929196e-05
2e-07,3.389408894354855e-06,7.352662831148576e-07,1.5766157549803442e-05
2e-07,3.3694054038824433e-06,7.406368730356766e-07,1.5515751347482308e-05
2e-07,3.349821990344672e-06,7.464944823788541e-07,1.5265361935241574e-05
2e-07,3.330547416204652e-06,7.528663199305659e-07,1.5015820837042222e-05
2e-07,3.311454373026285e-06,7.597587099602988e-07,1.476804541217647e-05
2e-07,3.292402431912392e-06,7.671598517238672e-07,1.4523088110314798e-05
2e-07,3.2732433933457864e-06,7.7504256737199e-07,1.4282087789801126e-05
2e-07,3.2538249773857968e-06,7.833681572245378e-07,1.4046150605039428e-05
2e-07,3.233995077675829e-06,7.920930697229877e-07,1.3816246380741165e-05
2e-07,3.2136122725485187e-06,8.01175506488063e-07,1.359317298209719e-05
2e-07,3.1925589118426553e-06,8.105774467270329e-07,1.3377560939227521e-05
2e-07,3.1707459678512694e-06,8.202609947180433e-07,1.3169897010988346e-05
2e-07,3.1481052495866905e-06,8.301827730117008e-07,1.2970594018473773e-05
2e-07,3.1245762049479423e-06,8.402907749556665e-07,1.2780127904257589e-05
2e-07,3.1001008501338453e-06,8.505256642571705e-07,1.259919880024888e-05
2e-07,3.0746343536212052e-06,8.608246814853926e-07,1.2428777929862547e-05
2e-07,3.048164041647058e-06,8.711235589714474e-07,1.2269964006051865e-05
2e-07,3.020722048668088e-06,8.813555911676174e-07,1.2123768885230902e-05
2e-07,2.992383083129793e-06,8.914509754467062e-07,1.1990978300546506e-05
2e-07,2.9632494208995252e-06,9.013376773107063e-07,1.1872159440084967e-05
2e-07,2.93343133716984e-06,9.10943775019664e-07,1.1767852560017046e-05
2e-07,2.9030313940506197e-06,9.202012904355137e-07,1.1678830380745212e-05
2e-07,2.8721366280812765e-06,9.290494973866501e-07,1.1606197673758955e-05
2e-07,2.8408184585253436e-06,9.374357946072013e-07,1.1551286787996566e-05
2e-07,2.809138626581476e-06,9.453158442128e-07,1.1515481906707845e-05
2e-07,2.7771560227910582e-06,9.52655407719485e-07,1.1500053474232165e-05
2e-07,2.7449281275910658e-06,9.594318853851764e-07,1.1506024395553184e-05
2e-07,2.712509125305481e-06,9.656311587363042e-07,1.1534094080147994e-05
2e-07,2.679954386102897e-06,9.712405622656984e-07,1.1584618969160128e-05
2e-07,2.6473364151379644e-06,9.762437042997495e-07,1.1657614596308838e-05
1.9713774828528734e-06,2.614763631576337e-06,9.806197281168505e-07,1.1752757011822548e-05
1.9414513898382337e-06,2.5823852363012327e-06,9.84346570129566e-07,1.1869388407088787e-05
1.911477992671384e-06,2.550374630092796e-06,9.874085287406264e-07,1.2006533905899033e-05
1.8816222459246064e-06,2.5189021634285348e-06,9.898049683690159e-07,1.2162935090402098e-05
1.8520961282340352e-06,2.488118607800084e-06,9.91552246908854e-07,1.2337103634825113e-05
1.8231468382712018e-06,2.4581596752872026e-06,9.926760035826523e-07,1.2527384867762133e-05
1.7950360118941757e-06,2.429160379945252e-06,9.93202126388273e-07,1.273201980650734e-05
1.7680189078124318e-06,2.4012645736794067e-06,9.931551862514978e-07,1.2949205144276331e-05
1.7423266104624698e-06,2.3746227494030237e-06,9.925615078394199e-07,1.3177148866366255e-05
1.7181534735273327e-06,2.3493765620578937e-06,9.91449463833272e-07,1.3414110590531862e-05
1.6956511572725348e-06,2.3256389820156442e-06,9.898462078977626e-07,1.365842648789165e-05
1.6749275989402625e-06,2.3034842927265474e-06,9.877740728091893e-07,1.390852164395228e-05
1.6560515664445426e-06,2.2829496936667004e-06,9.852486162902418e-07,1.4162893222326154e-05
1.6390623731048162e-06,2.264039999600108e-06,9.82279208079116e-07,1.4420058899462824e-05
1.6239783922030294e-06,2.246731503449947e-06,9.788723567521057e-07,1.4678504770412427e-05
1.6108010331372597e-06,2.230977077678858e-06,9.750358973961506e-07,1.4936682573065934e-05
1.59951670124591e-06,2.216720318721557e-06,9.707804363462485e-07,1.5193074624511426e-05
1.590099079845322e-06,2.203920803143672e-06,9.661170862231865e-07,1.5446287892235747e-05
1.5825134151927476e-06,2.1925694855189497e-06,9.610548728779666e-07,1.5695108827510986e-05
1.5767229975751836e-06,2.18267530000118e-06,9.556003036061818e-07,1.593848500096341e-05
1.572694353401219e-06,2.1742385942793056e-06,9.497579126478228e-07,1.6175468477963745e-05
1.5703968973113281e-06,2.167238686381296e-06,9.435310655612064e-07,1.640517223803189e-05
1.5697968182068631e-06,2.161636712433569e-06,9.369228496235308e-07,1.6626746824116204e-05
1.5708490068831138e-06,2.157379904641222e-06,9.299356775167559e-07,1.683937024328504e-05
1.5734904750798872e-06,2.154407156062565e-06,9.225705014286131e-07,1.704228917014248e-05
1.5776376936047353e-06,2.152658722623789e-06,9.148273788993073e-07,1.7234937094683153e-05
1.5831892349888134e-06,2.1520799136450698e-06,9.067068092753487e-07,1.7417049355404833e-05
1.5900297002709415e-06,2.152613944492844e-06,8.982111619730688e-07,1.7588690163853898e-05
1.598030807556363e-06,2.154197924511768e-06,8.8934545664419e-07,1.775020784747887e-05
1.6070552211650672e-06,2.15677423101168e-06,8.801164030414499e-07,1.7902152585392047e-05
1.616968609141971e-06,2.1603089273167943e-06,8.705309156017345e-07,1.804516607431583e-05
1.6276527409298427e-06,2.164803802839288e-06,8.605964389740715e-07,1.81798637233559e-05
1.6390077396353451e-06,2.170301332503911e-06,8.503226860400016e-07,1.8306737436420373e-05
1.6509408595327257e-06,2.1768833174261717e-06,8.397225956472587e-07,1.842610851539841e-05
1.66335380616537e-06,2.1846552241484224e-06,8.288119057713724e-07,1.853814464607937e-05
1.676143911584623e-06,2.193717026101218e-06,8.176085779629224e-07,1.864290710125096e-05
1.689217001791517e-06,2.2041419280784224e-06,8.061330076842063e-07,1.8740382004380372e-05
1.702494690460455e-06,2.215976384608294e-06,7.944088085042687e-07,1.8830491777325907e-05
1.7159078162277387e-06,2.229245412401952e-06,7.824630272376206e-07,1.8913096524127507e-05
1.7293838520511375e-06,2.2439465621662293e-06,7.703252994753003e-07,1.8988003250209812e-05
1.7428380451988259e-06,2.2600383835045157e-06,7.580293287961722e-07,1.9055019009099812e-05
1.7561709255827285e-06,2.277434738035953e-06,7.456175596607478e-07,1.9114031489147986e-05
1.769269797532278e-06,2.296008495904466e-06,7.331426083078659e-07,1.916507943092581e-05
1.7820116031646125e-06,2.315603327068916e-06,7.206651571941869e-07,1.9208403202363397e-05
1.7942663989727828e-06,2.336046133303376e-06,7.082553400137261e-07,1.92444343587792e-05
1.805900597662506e-06,2.3571550237781934e-06,6.959954111458869e-07,1.927370342818787e-05
1.8167800045493091e-06,2.378752641331481e-06,6.839752119500782e-07,1.9296720369750447e-05
1.826776819262097e-06,2.400691567174629e-06,6.722815791001029e-07,1.931388638960427e-05
1.8357810087304126e-06,2.422876853706543e-06,6.609912186273159e-07,1.9325447636119007e-05
1.843706320933234e-06,2.4452645327899546e-06,6.501709056140407e-07,1.933147657680031e-05
1.8504887631496605e-06,2.4678377692642955e-06,6.398798660775539e-07,1.933188283168673e-05
1.856090300415772e-06,2.490591781971784e-06,6.301707921141612e-07,1.932644403263136e-05
1.860509469243521e-06,2.513542839723472e-06,6.210909070567511e-07,1.931482405344225e-05
1.863782768700244e-06,2.536732170719041e-06,6.12683527933829e-07,1.9296579926887653e-05
1.8659690493239853e-06,2.5602089428005703e-06,6.049893473504739e-07,1.927119030143068e-05
1.8671274919253983e-06,2.584022791405624e-06,5.980466138100927e-07,1.923811032047204e-05
1.867304761066717e-06,2.6082411107927573e-06,5.918896710131165e-07,1.9196817777294118e-05
1.866538728245245e-06,2.632962365368336e-06,5.865468352553671e-07,1.9146825156046887e-05
1.864872315085893e-06,2.6583044536869373e-06,5.820389169863596e-07,1.9087681151764003e-05
1.8623637988016118e-06,2.6843791834149158e-06,5.783797177103311e-07,1.901898274775624e-05
1.8590849326102833e-06,2.711269748427576e-06,5.755774942774554e-07,1.894037641685736e-05
1.85510956654313e-06,2.7390169591240206e-06,5.736343712407124e-07,1.885154144924576e-05
1.8505056800240398e-06,2.767612314515524e-06,5.725445195484468e-07,1.8752175589760142e-05
1.8453375710916627e-06,2.7969971776204282e-06,5.722936486081857e-07,1.8641992027258205e-05
1.8396676022058239e-06,2.827071897347194e-06,5.728593455494571e-07,1.8520730222607745e-05
1.833550139013475e-06,2.8577182088201127e-06,5.742114267791772e-07,1.8388182102250574e-05
1.8270268314003631e-06,2.8888309489175537e-06,5.763137168163429e-07,1.8244231743678267e-05
1.820131325438404e-06,2.920344326901864e-06,5.79126417264264e-07,1.8088902313656166e-05
1.8128984266061974e-06,2.9522342634040412e-06,5.826057016567437e-07,1.7922391425173377e-05
1.805367605731396e-06,2.984494950933711e-06,5.867026737402695e-07,1.7745078520065724e-05
1.797579300257288e-06,3.017109660116988e-06,5.913663321702125e-07,1.7557502108056103e-05
1.7895713158769756e-06,3.0500363700307245e-06,5.965489917247847e-07,1.7360302044688502e-05
1.7813783041772163e-06,3.0832133544737056e-06,6.022092479803311e-07,1.7154145640894766e-05
1.7730327368329158e-06,3.1165752998815625e-06,6.08310360519751e-07,1.6939696282553005e-05
1.7645685906394684e-06,3.15006503301194e-06,6.148155263875829e-07,1.6717626788964212e-05
1.7560275440366752e-06,3.183632517310578e-06,6.216837494641306e-07,1.648861334637972e-05
1.7474609632592003e-06,3.2172241756531484e-06,6.288704337622695e-07,1.6253300566914255e-05
1.7389231661166457e-06,3.250769195246265e-06,6.36332992066798e-07,1.601227633468078e-05
1.7304676361118637e-06,3.2841665292879017e-06,6.4403694094561e-07,1.5766083573489354e-05
1.7221589224616612e-06,3.3172787621906652e-06,6.519588732954825e-07,1.5515297822492802e-05
1.7140879649586903e-06,3.349941598315223e-06,6.600865547444639e-07,1.5260645385337813e-05
1.7063705989377762e-06,3.381989358253893e-06,6.684170926298371e-07,1.5003051019308802e-05
1.6991287447797362e-06,3.413284720643376e-06,6.769519149290581e-07,1.4743569065628327e-05
1.6924677673058883e-06,3.4437394823248804e-06,6.856884287413941e-07,1.4483279174268387e-05
1.6864616107164776e-06,3.473322411607529e-06,6.94613862404521e-07,1.4223205568600744e-05
1.6811496242290838e-06,3.502053118115558e-06,7.037061668949052e-07,1.3964267180493118e-05
1.6765443759936244e-06,3.529978093886276e-06,7.129383245617408e-07,1.3707294645413216e-05
1.67264732087195e-06,3.5571351877297782e-06,7.222796453820755e-07,1.3453098306995995e-05
1.669462421810933e-06,3.5835260624927017e-06,7.316941128189725e-07,1.3202483242743394e-05
1.6669963551303189e-06,3.6091109753759683e-06,7.411396087477181e-07,1.2956194575594948e-05
1.6652479017748263e-06,3.6338193850880187e-06,7.505687813352495e-07,1.2714886600564709e-05
1.6641996558749755e-06,3.657558595127625e-06,7.599310090201083e-07,1.2479126897770736e-05
1.6638161772393886e-06,3.6802179264989786e-06,7.691749845597729e-07,1.2249372855875278e-05
1.6640447661544711e-06,3.701678219069253e-06,7.782499408529762e-07,1.2025936482633356e-05
1.6648194947377366e-06,3.7218258144623114e-06,7.871065430048044e-07,1.1808993286729366e-05
1.6660688738080464e-06,3.740564122153198e-06,7.956999985327805e-07,1.1598663457548101e-05
1.667722804194141e-06,3.7578200074233522e-06,8.039941568018199e-07,1.1395177355784012e-05
1.6697157278467643e-06,3.773546528493317e-06,8.119666137636461e-07,1.119903174761734e-05
1.6719851527043354e-06,3.787724794871375e-06,8.196142417221377e-07,1.1010971800989552e-05
1.6744677722201663e-06,3.8003600613793314e-06,8.269526612362884e-07,1.0831807452136937e-05
1.6771011400560758e-06,3.8114698501181945e-06,8.340075735707779e-07,1.066223207152276e-05
1.6798344571525777e-06,3.821077875355594e-06,8.408044805644089e-07,1.050276111648554e-05
1.6826405617483782e-06,3.829221873827006e-06,8.473620015079964e-07,1.0353846491469465e-05
1.685520237284589e-06,3.835963061269501e-06,8.53690036843822e-07,1.0216136557456435e-05
1.688494472329175e-06,3.841382547165885e-06,8.597926627516335e-07,1.0090677685541124e-05
1.6915886178725457e-06,3.845563096652428e-06,8.656723518119366e-07,9.978872804233713e-06
1.694823951238095e-06,3.848569712173008e-06,8.713299169159174e-07,9.88226502068416e-06
1.6982210905326712e-06,3.8504427219005755e-06,8.767610627056032e-07,9.802328737410864e-06
1.7017994888311697e-06,3.851199235572427e-06,8.819571822341471e-07,9.740341939411754e-06
1.705567560263115e-06,3.850832527595172e-06,8.869119997440682e-07,9.697310906949736e-06
1.7095154012300556e-06,3.849309825624056e-06,8.916275200205601e-07,9.67391705426124e-06
1.713616440004063e-06,3.846573163070608e-06,8.961141188733791e-07,9.67048455303534e-06
1.7178338932360104e-06,3.842542784649706e-06,9.003856229625919e-07,9.686970551356607e-06
1.722125099526793e-06,3.837121534776247e-06,9.044561325920084e-07,9.722982486423983e-06
1.7264394985318802e-06,3.83020262399481e-06,9.083416785934109e-07,9.777829737764482e-06
1.7307142874305653e-06,3.821680042272267e-06,9.120605883865316e-07,9.850597089716253e-06
1.7348765993135128e-06,3.8114542631291137e-06,9.156320403852499e-07,9.940215029320075e-06
1.7388542465559059e-06,3.799430557538842e-06,9.190783132774629e-07,1.0045511966363271e-05
1.7425861601138146e-06,3.785516212371547e-06,9.224269357172815e-07,1.0165260151117232e-05
1.7460237924608943e-06,3.7696235097736968e-06,9.257068002958609e-07,1.0298246025835347e-05
1.7491251936722938e-06,3.7516760342651566e-06,9.289419280196907e-07,1.0443355786818995e-05
1.7518490632060337e-06,3.731609613036502e-06,9.321503413343672e-07,1.0599617060449978e-05
1.75415399839224e-06,3.7093682121459166e-06,9.353478356300279e-07,1.0766171949935496e-05
1.7560013234261688e-06,3.6849011130018205e-06,9.385499714753941e-07,1.0942213627247964e-05
1.7573573003301292e-06,3.658161792785382e-06,9.417729818288126e-07,1.1126914409471903e-05
1.7581977560312458e-06,3.629107077915296e-06,9.450372429121092e-07,1.131935778297886e-05
1.7585156422959298e-06,3.597698026990265e-06,9.483675188135259e-07,1.1518494731634105e-05
1.7583228018675597e-06,3.5639041543961e-06,9.517858793759012e-07,1.1723146765982662e-05
1.7576422191187996e-06,3.527707969901896e-06,9.553035823420777e-07,1.1932061304461428e-05
1.7564959678472347e-06,3.48910498515492e-06,9.589189878380512e-07,1.2144000523248558e-05
1.7548964779766419e-06,3.4481006094934615e-06,9.62623277446001e-07,1.2357817199064515e-05
1.7528449926425964e-06,3.404709031814235e-06,9.66408912300821e-07,1.2572456381274988e-05
1.7503347465734615e-06,3.3589552456608925e-06,9.702714972015147e-07,1.2786877668076573e-05
1.747357153279089e-06,3.3108768034934536e-06,9.74204743665689e-07,1.2999972991393885e-05
1.7439098035232032e-06,3.2605258056131018e-06,9.781980751999264e-07,1.321054504913954e-05
1.740000505559415e-06,3.2079794193038604e-06,9.822389938489201e-07,1.3417345513698006e-05
1.73564320746886e-06,3.153358847904469e-06,9.863139150964929e-07,1.3619129907730396e-05
1.7308489286233189e-06,3.0968383147819186e-06,9.904073136744983e-07,1.3814693528862714e-05
1.7256202915046932e-06,3.03863150007463e-06,9.94504073995888e-07,1.4002894927862994e-05
1.7199563218233913e-06,2.9789690194143907e-06,9.985940982422214e-07,1.4182691350514362e-05
1.7138635947929741e-06,2.9180842067534275e-06,1.0026737259929492e-06,1.435318250193686e-05
1.7073636373412241e-06,2.856207628929688e-06,1.0067413414327732e-06,1.4513638329292832e-05
1.7004926126709328e-06,2.7935725169422908e-06,1.0107898803456691e-06,1.4663523522759281e-05
1.6932962594593109e-06,2.730440703126916e-06,1.014802100257615e-06,1.4802540418906064e-05
1.685823603896313e-06,2.66713625251265e-06,1.0187511414810842e-06,1.4930641357308856e-05
1.6781201698215015e-06,2.6040577221900813e-06,1.0226034240062247e-06,1.5047952656640989e-05
1.6702203256201578e-06,2.541666447572253e-06,1.0263208009356035e-06,1.5154640115356516e-05
1.6621421863695216e-06,2.4804644991959927e-06,1.0298609792121831e-06,1.5250807387320707e-05
1.653889558950881e-06,2.420961139500066e-06,1.033176837454412e-06,1.5336480710791008e-05
1.645458956314621e-06,2.363638065223779e-06,1.0362170426418872e-06,1.5411643960024765e-05
1.6368447706353108e-06,2.308943849868652e-06,1.0389285947186173e-06,1.5476262170126197e-05
1.6280388783955611e-06,2.2573149104363897e-06,1.0412586599107552e-06,1.5530301634872575e-05
1.6190278704062556e-06,2.209184716790818e-06,1.0431549661905593e-06,1.5573827319937328e-05
1.6097929497884096e-06,2.164966613921916e-06,1.0445681055946776e-06,1.5607163008959722e-05
1.6003127234283569e-06,2.125025956343414e-06,1.0454566269436328e-06,1.5630946762601945e-05
1.5905658372805559e-06,2.0896552424977332e-06,1.0457898873217241e-06,1.564601410235542e-05
1.5805318721636778e-06,2.059059925003926e-06,1.045545295342187e-06,1.5653222360200674e-05
1.5701902079158063e-06,2.0333572692933828e-06,1.0447034979849348e-06,1.5653333269909554e-05
1.5595177248147597e-06,2.012582799268507e-06,1.0432462399249383e-06,1.5647038010580294e-05
1.54848774360358e-06,1.9967033068651063e-06,1.0411570488871371e-06,1.5635150091018233e-05
1.5370704887714034e-06,1.9856391393978085e-06,1.038424125860555e-06,1.5618812065258993e-05
1.5252334440699228e-06,1.979287626696981e-06,1.035045521808373e-06,1.559951586548744e-05
1.5129415343692063e-06,1.9775391133345298e-06,1.0310315684218179e-06,1.557895083909898e-05
1.5001576020554294e-06,1.98028642356573e-06,1.0264007268062076e-06,1.5558821207741412e-05
1.4868439816691646e-06,1.987424626077428e-06,1.0211742483372888e-06,1.5540701731933514e-05
1.4729670757758009e-06,1.9988470018365365e-06,1.0153741824797982e-06,1.5525946497443238e-05
1.4585041736939422e-06,2.014460481577061e-06,1.009022859996982e-06,1.5515654967565124e-05
1.4434467449069808e-06,2.0342169831558352e-06,1.0021425186719893e-06,1.551067735303711e-05
1.4277969638758924e-06,2.0581239686858527e-06,9.947549270147e-07,1.551164010217124e-05
1.4115626731705367e-06,2.086217895481668e-06,9.868807064110864e-07,1.551898392018655e-05
1.3947560078788045e-06,2.118520620347047e-06,9.785392838595859e-07,1.5532994884193603e-05
1.3773944910710607e-06,2.1550085262122867e-06,9.69749614286252e-07,1.5553801587401082e-05
1.3595034198735702e-06,2.1956040788386727e-06,9.605313124122378e-07,1.5581339367304294e-05
1.34112055697669e-06,2.240175396296108e-06,9.509078756339964e-07,1.5615316882565837e-05
1.3222994347291945e-06,2.288541668999388e-06,9.4091179539739e-07,1.5655227862260512e-05
1.3031053248267064e-06,2.340492995748563e-06,9.305861566393862e-07,1.5700424689146946e-05
1.2836064682969679e-06,2.395805634686947e-06,9.1998042276758e-07,1.5750225526690117e-05
1.2638694788004393e-06,2.454233390410676e-06,9.091460942378677e-07,1.580399613904055e-05
1.243960983898763e-06,2.51549362659757e-06,8.981369692859971e-07,1.5861168010878812e-05
1.2239487383110797e-06,2.579268340117167e-06,8.870131413688448e-07,1.592120868393709e-05
1.2038984837697716e-06,2.6452120035523664e-06,8.758444888947788e-07,1.5983577958984236e-05
1.1838728751035654e-06,2.7129577993170762e-06,8.647083150280106e-07,1.6047687456662892e-05
1.1639376741474757e-06,2.782129795806961e-06,8.536810556894791e-07,1.6112877712667528e-05
1.1441665811078385e-06,2.85236029858577e-06,8.428303841208326e-07,1.6178416388089332e-05
1.124635554002919e-06,2.9232963779817484e-06,8.322125891324631e-07,1.6243500651014735e-05
1.1054125549855743e-06,2.9945896459901914e-06,8.218758218485734e-07,1.6307265684074193e-05
1.0865522359276929e-06,3.0658838102441425e-06,8.118671070331747e-07,1.6368830488893062e-05
1.0680963876354156e-06,3.136811311125555e-06,8.022383858656527e-07,1.6427371070161455e-05
1.0500765567861842e-06,3.206994143768153e-06,7.930472295102373e-07,1.6482162373420582e-05
1.0325185107295364e-06,3.27604495171643e-06,7.84352468412316e-07,1.6532566027959946e-05
1.0154501253447416e-06,3.343572581774617e-06,7.762111154809219e-07,1.6577990677960464e-05
9.989085388642812e-07,3.409195662454105e-06,7.686797057791169e-07,1.66178600044519e-05
9.82939369381994e-07,3.4725618076007133e-06,7.618134528745824e-07,1.6651599896929682e-05
9.67589604729304e-07,3.533360663206805e-06,7.556639479692137e-07,1.6678625780151146e-05
9.529063555914831e-07,3.5913188977837372e-06,7.502842091015437e-07,1.6698331758521264e-05
9.389479290333092e-07,3.646181935167238e-06,7.457363175366196e-07,1.671011641752823e-05
9.257969189361431e-07,3.697699064414344e-06,7.420899430245917e-07,1.671345557205935e-05
9.135608822262021e-07,3.745619870744806e-06,7.394116219859909e-07,1.6707993432341704e-05
9.023577951486307e-07,3.7896991849896287e-06,7.377544759823968e-07,1.6693621734952443e-05
8.922962324875231e-07,3.829710587382264e-06,7.371573361322517e-07,1.6670517170249088e-05
8.834628616722248e-07,3.865463798055071e-06,7.376504812906331e-07,1.663910146267258e-05
8.759221027326122e-07,3.896808890448958e-06,7.392584699677172e-07,1.659992448360846e-05
8.697231183524643e-07,3.923625295826378e-06,7.420017405121429e-07,1.655353137388441e-05
8.649040020224251e-07,3.945816266092199e-06,7.459022767260316e-07,1.65003912959058e-05
8.614879021112532e-07,3.9633191686626575e-06,7.509880998253326e-07,1.6440903845530316e-05
8.594777370542875e-07,3.976118898581978e-06,7.572919792333963e-07,1.637543242708501e-05
8.588563213456165e-07,3.984248260247783e-06,7.648454945436426e-07,1.6304327322452263e-05
8.595895331079475e-07,3.9877746039438484e-06,7.73669941785823e-07,1.6227948230043946e-05
8.616307361574542e-07,3.9867841508698105e-06,7.837689321580205e-07,1.614673809438693e-05
8.649279808441429e-07,3.981371888116633e-06,7.95126843556054e-07,1.606136203944269e-05
8.694326262633602e-07,3.9716364388260245e-06,8.077098441146159e-07,1.5972786849458655e-05
8.751069499449398e-07,3.957678488857145e-06,8.214661946923946e-07,1.5882193947731327e-05
8.819297393324684e-07,3.9396026692544646e-06,8.363288383901838e-07,1.5790798885218005e-05
8.898992103153938e-07,3.917519058877459e-06,8.522216122720328e-07,1.5699704684522e-05
8.990329602608568e-07,3.891545782493215e-06,8.690643140561045e-07,1.5609885052652015e-05
9.093623856267346e-07,3.8618240324694536e-06,8.867745370331532e-07,1.552234153831803e-05
9.209196563874895e-07,3.828543581479155e-06,9.052687936028234e-07,1.543829884875639e-05
9.337280978100101e-07,3.791954863599305e-06,9.244635206880017e-07,1.5359228909039805e-05
9.478076967167221e-07,3.752350575134147e-06,9.442748760084906e-07,1.5286709241806265e-05
9.631863832853114e-07,3.710031753536249e-06,9.646168584886326e-07,1.5222264789698715e-05
9.798997547720236e-07,3.665294266411088e-06,9.853981012072716e-07,1.516724267873568e-05
9.979760526387522e-07,3.618452109290454e-06,1.0065187789227924e-06,1.5122699870117013e-05
1.0174183572071315e-06,3.5698722694917344e-06,1.0278692024442578e-06,1.5089323717864794e-05
1.0381972796149422e-06,3.519985053750611e-06,1.0493315154797564e-06,1.5067415047511267e-05
1.0602571441751124e-06,3.4692577726797767e-06,1.0707848622371134e-06,1.5056923123847006e-05
1.083531615653158e-06,3.4181508348569656e-06,1.0921124336263e-06,1.505750279611276e-05
1.1079609926729331e-06,3.3670963089032637e-06,1.1132080329982276e-06,1.5068570535540699e-05
1.1334993189564144e-06,3.3165114891703608e-06,1.133977817457748e-06,1.5089342572571585e-05
1.1601048653658228e-06,3.266809834517385e-06,1.1543346569565584e-06,1.5118858756969544e-05
1.1877226572256523e-06,3.2183833333366168e-06,1.1741923613841208e-06,1.5156016192443808e-05
1.216273787609334e-06,3.171576003061422e-06,1.1934679689313216e-06,1.5199628603042175e-05
1.2456556816097558e-06,3.126672658543688e-06,1.2120877700869895e-06,1.5248509127521084e-05
1.2757488302673556e-06,3.0839015290579936e-06,1.2299887450156051e-06,1.5301558292392983e-05
1.3064259992356175e-06,3.043440682707292e-06,1.2471166109161062e-06,1.535782236181037e-05
1.3375594644021903e-06,3.0054263340310883e-06,1.2634260342162372e-06,1.5416507264930266e-05
1.3690233953577634e-06,2.969957126091646e-06,1.2788816468530372e-06,1.5476978906060933e-05
1.4006931942644258e-06,2.9370899953358914e-06,1.2934543637580876e-06,1.553876774166867e-05
1.432444409006e-06,2.906837741889863e-06,1.3071144961940711e-06,1.5601547576627042e-05
1.4641513609179726e-06,2.87917419750636e-06,1.3198305272325613e-06,1.5665071704516433e-05
1.4956841617625155e-06,2.854045681257222e-06,1.3315760592745028e-06,1.572909460055178e-05
1.5269060259673289e-06,2.8313914112567416e-06,1.3423356507919868e-06,1.579331265570716e-05
1.5576738552085273e-06,2.8111611900407185e-06,1.3521032264507174e-06,1.5857361027658172e-05
1.587840589179614e-06,2.793311898610312e-06,1.3608769355371305e-06,1.592089871974131e-05
1.6172582037198396e-06,2.7777977622453783e-06,1.368654963181297e-06,1.598372572485618e-05
1.645780756503355e-06,2.7645745081306633e-06,1.3754339339228642e-06,1.6045831920416463e-05
1.673264840399395e-06,2.7535998736741646e-06,1.3812099270364194e-06,1.6107376574904943e-05
1.6995701484729096e-06,2.744819865651861e-06,1.3859794063166571e-06,1.6168657033808137e-05
1.724565229799243e-06,2.7381626923001013e-06,1.3897378934161805e-06,1.6230081604858405e-05
1.7481354841467425e-06,2.7335447915349688e-06,1.3924793914790802e-06,1.6292120922602544e-05
1.7701856135966636e-06,2.73087123441367e-06,1.3942009384669084e-06,1.6355210148921185e-05
1.7906341838810871e-06,2.7300386160175882e-06,1.3949094538440676e-06,1.6419640110618248e-05
1.8094072122875985e-06,2.7309558324769537e-06,1.39462435417816e-06,1.6485528275409188e-05
1.8264379403610082e-06,2.7335585403754227e-06,1.3933754401575891e-06,1.6552870820843976e-05
1.841669293341729e-06,2.737797553700981e-06,1.3911981254811594e-06,1.6621580949851074e-05
1.8550522126324927e-06,2.74363613832602e-06,1.388127520980455e-06,1.669146796529761e-05
1.866542032527604e-06,2.75107805715374e-06,1.3841969771665785e-06,1.6762187781678204e-05
1.8760983278615726e-06,2.760181157037865e-06,1.379443802558586e-06,1.683320935635333e-05
1.8836875473158443e-06,2.771025762405178e-06,1.37391575188624e-06,1.6903826894725988e-05
1.889284557886071e-06,2.7836764692671942e-06,1.367673946459842e-06,1.6973216446593133e-05
1.8928724946638386e-06,2.7981745858092724e-06,1.3607954224010822e-06,1.7040510845071627e-05
1.8944439277643918e-06,2.8145430251656072e-06,1.3533768953652321e-06,1.7104847788784814e-05
1.8940043168442318e-06,2.8327747825085535e-06,1.3455349646579285e-06,1.7165358246197782e-05
1.891574301785469e-06,2.852814589769881e-06,1.3373970363833764e-06,1.722113880837349e-05
1.887187530855293e-06,2.874559843498935e-06,1.3290855591670223e-06,1.7271298726743884e-05
1.8808849695070416e-06,2.8978860213549333e-06,1.3207069851430115e-06,1.7315139176383637e-05
1.8727106120478585e-06,2.9226798905274102e-06,1.3123519546197515e-06,1.7352396015350425e-05
1.862711274840501e-06,2.9488587119010987e-06,1.3041015548833722e-06,1.738331457149509e-05
1.8509366025992645e-06,2.9763624884375e-06,1.296032196476387e-06,1.7408447987287393e-05
1.8374371916110944e-06,3.005125686956967e-06,1.2882158618548871e-06,1.7428409465675098e-05
1.8222661990595104e-06,3.0350561587191182e-06,1.2807171106009064e-06,1.744377636644503e-05
1.8054860583076283e-06,3.0660388447108464e-06,1.2735916046948559e-06,1.745506541250378e-05
1.7871718629702273e-06,3.097948508002801e-06,1.2668869483074069e-06,1.7462700227965475e-05
1.767408160815506e-06,3.130657080127317e-06,1.2606421583010343e-06,1.7466998177007072e-05
1.7462865922887791e-06,3.1640405416705122e-06,1.2548861166943757e-06,1.7468176318488407e-05
1.7239061864676068e-06,3.197983924360904e-06,1.2496364845588184e-06,1.7466345839689303e-05
1.7003734317383e-06,3.2323769283390824e-06,1.2448983330969579e-06,1.7461485692630006e-05
1.6758066185667372e-06,3.267102076939402e-06,1.2406654787230934e-06,1.745341751323214e-05
1.6503462493831209e-06,3.30202545762558e-06,1.236926579132643e-06,1.7441809699953287e-05
1.6241616399282117e-06,3.3370036921290267e-06,1.233669486875364e-06,1.7426219702028355e-05
1.5974452890211966e-06,3.371904262150188e-06,1.230878124660627e-06,1.7406155683692106e-05
1.570397343351632e-06,3.406611040972255e-06,1.2285280506760162e-06,1.7381120055400525e-05
1.5432076316057492e-06,3.4410035725653128e-06,1.2265907378502381e-06,1.7350615129410867e-05
1.516044230130454e-06,3.4749340184739335e-06,1.225046424818674e-06,1.7314124450894174e-05
1.4890542322210284e-06,3.5082230229016573e-06,1.2238952906131963e-06,1.7271101214941462e-05
1.462371777578281e-06,3.540675346160463e-06,1.2231567970491555e-06,1.7220994691180786e-05
1.4361239496349815e-06,3.572106685197038e-06,1.2228568774337583e-06,1.716331284166472e-05
1.4104302361525969e-06,3.6023653998951296e-06,1.223012295116701e-06,1.7097672448880124e-05
1.3853976585078493e-06,3.6313329646361505e-06,1.223621011627815e-06,1.702380213089256e-05
1.3611191496959317e-06,3.658905387180764e-06,1.2246602521690808e-06,1.6941521733271138e-05
1.3376787471958323e-06,3.6849777673938104e-06,1.2260888221141899e-06,1.6850716928323995e-05
1.3151558680889494e-06,3.7094494347756585e-06,1.2278509109681806e-06,1.6751298758032222e-05
1.2936232072686585e-06,3.732240106206887e-06,1.2298820154199119e-06,1.6643170134585158e-05
1.2731465354766643e-06,3.7532971577322607e-06,1.2321172618912613e-06,1.6526227266472298e-05
1.2537956926176168e-06,3.7725899642610413e-06,1.2344992426966035e-06,1.6400379534010653e-05
1.2356597636495944e-06,3.790096372000537e-06,1.236981501685852e-06,1.6265588631507385e-05
1.2188490137532612e-06,3.8057880366836287e-06,1.2395265529299496e-06,1.612195046395849e-05
1.2034782504036771e-06,3.819627808470707e-06,1.2421021110698955e-06,1.5969793748381163e-05
1.189644278889705e-06,3.8315861335589726e-06,1.2446787036865057e-06,1.580976522724434e-05
1.177411745975367e-06,3.8416668704156385e-06,1.2472268616442952e-06,1.5642908525193988e-05
1.1668112108140923e-06,3.849923431382969e-06,1.2497144190733903e-06,1.547068794778124e-05
1.1578459066808519e-06,3.856449085852203e-06,1.2521087456933578e-06,1.5294878329479714e-05
1.1505029534744126e-06,3.861353197484146e-06,1.2543828495018557e-06,1.5117381341726893e-05
1.144767538933683e-06,3.864758977101294e-06,1.256519153981909e-06,1.4940119971141732e-05
1.1406376287144844e-06,3.866824133654573e-06,1.2585094949788122e-06,1.4765043552312405e-05
1.1381282594504266e-06,3.8677418951651616e-06,1.2603528183030745e-06,1.4594161028944547e-05
1.1372596216307177e-06,3.867706211712146e-06,1.262050041971414e-06,1.4429521296539386e-05
1.138047006499999e-06,3.866875450578126e-06,1.2635970675058008e-06,1.4273092156888913e-05
1.1405074786131883e-06,3.865364076790815e-06,1.2649795915333387e-06,1.4126588827271359e-05
1.144666639068855e-06,3.863257352429132e-06,1.2661715981020287e-06,1.399139244234986e-05
1.1505489303948998e-06,3.860631882579046e-06,1.2671367345145716e-06,1.3868625801900892e-05
1.1581640574486703e-06,3.857568397525352e-06,1.267832142173397e-06,1.3759340194588444e-05
1.167505491043394e-06,3.854148352559626e-06,1.2682147469245836e-06,1.3664726098131245e-05
1.1785549794494758e-06,3.850439593105506e-06,1.2682466233323031e-06,1.3586232136191154e-05
1.1912819445312771e-06,3.846494611111661e-06,1.2678945188814735e-06,1.3525506200063706e-05
1.2056397453405716e-06,3.842373381379097e-06,1.2671259216375344e-06,1.3484198195762785e-05
1.2215639452726771e-06,3.83816029017008e-06,1.265909825439202e-06,1.3463762625155674e-05
1.2389733653253493e-06,3.83394707655487e-06,1.2642234005008712e-06,1.3465382558434655e-05
1.2577734504813295e-06,3.82980887564233e-06,1.2620570263628671e-06,1.3490025695582424e-05
1.2778583526230313e-06,3.825806794204858e-06,1.2594116277548922e-06,1.3538539340945282e-05
1.2991087528421004e-06,3.822001613908916e-06,1.2562907915959496e-06,1.3611710496589826e-05
1.3213912078038929e-06,3.8184540505895586e-06,1.252695260879015e-06,1.3710324323722107e-05
1.3445653824880005e-06,3.815223874007024e-06,1.2486229038044454e-06,1.3835254220489209e-05
1.3684935237476989e-06,3.8123884470441535e-06,1.2440724602211856e-06,1.398748021214794e-05
1.3930424430375042e-06,3.8100636850368286e-06,1.2390487511104874e-06,1.4167937670988215e-05
1.4180788004355162e-06,3.808393983034909e-06,1.2335648032942517e-06,1.4377272597281173e-05
1.4434649007061286e-06,3.8075149931635367e-06,1.227639403925484e-06,1.4615639045979575e-05
1.469057673631296e-06,3.8075283867928802e-06,1.221295043295457e-06,1.4882659573414693e-05
1.4947107761987112e-06,3.8085118130233e-06,1.2145575614113049e-06,1.5177644132510233e-05
1.5202799098430402e-06,3.810546887776438e-06,1.207453859144038e-06,1.5499945609142748e-05
1.5456289413323053e-06,3.813738349416682e-06,1.2000083210420714e-06,1.5849145415807237e-05
1.570633882004763e-06,3.818214071899197e-06,1.19224179918629e-06,1.6224962040299026e-05
1.5951833047558412e-06,3.8241041088173085e-06,1.1841733990906342e-06,1.6627056496837667e-05
1.619174336883466e-06,3.831506855828549e-06,1.1758233701681395e-06,1.70548882656597e-05
1.6425060214691231e-06,3.840465259022215e-06,1.1672157777210717e-06,1.7507626304639278e-05
1.6650743795986571e-06,3.850964540773138e-06,1.1583780767259753e-06,1.7984075178987858e-05
1.68677121379429e-06,3.862943377509863e-06,1.1493369331968591e-06,1.848261207639986e-05
1.7074859054266937e-06,3.876316713568519e-06,1.1401141570472531e-06,1.9001171064853533e-05
1.7271107330749538e-06,3.891004223001403e-06,1.130726401265021e-06,1.953730480346404e-05
1.7455496206294904e-06,3.906939309829007e-06,1.1211890391230242e-06,2.00882884011954e-05
1.7627266689650338e-06,3.924048682419896e-06,1.1115211687462047e-06,2.065118995857607e-05
1.7785933668488158e-06,3.942224475993882e-06,1.1017484976565651e-06,2.1222890424294466e-05
1.793134118256925e-06,3.961311208930027e-06,1.091903420403687e-06,2.180009566830105e-05
1.806361749721989e-06,3.981110433631413e-06,1.0820225653160756e-06,2.2379360781538817e-05
1.8182995320479726e-06,4.0013998952094565e-06,1.0721452267571405e-06,2.2957125486822306e-05
1.8289632660041118e-06,4.021961890320928e-06,1.0623193575711818e-06,2.352976922283055e-05
1.8383556271995566e-06,4.042600978004826e-06,1.052612899043324e-06,2.409366875883548e-05
1.8464702511687493e-06,4.063135115057432e-06,1.043119125962849e-06,2.464523246042528e-05
1.8532983980479931e-06,4.083377688096114e-06,1.033952001540467e-06,2.5180926665373334e-05
1.8588341156205246e-06,4.1031333110754545e-06,1.0252346942131688e-06,2.5697317959327163e-05
1.8630776018829888e-06,4.122200494438944e-06,1.017084225217455e-06,2.619115720193773e-05
1.8660383436738357e-06,4.140369459558328e-06,1.0095979617896928e-06,2.665953248050016e-05
1.867738463257521e-06,4.1574224712564385e-06,1.0028480756714036e-06,2.710003945692295e-05
1.868216726028086e-06,4.17314783253151e-06,9.96883635505675e-07,2.7510863233324187e-05
1.8675329965353718e-06,4.1873660912436285e-06,9.917341721874974e-07,2.7890740419336854e-05
1.8657675605850305e-06,4.199956652419056e-06,9.874107867170384e-07,2.823885671696172e-05
1.8630107214809483e-06,4.210873582879008e-06,9.839069567496253e-07,2.855472246838075e-05
1.8593517537776086e-06,4.220143466024782e-06,9.812009758087886e-07,2.883802500492412e-05
1.854878938327855e-06,4.227841324535114e-06,9.792586963574024e-07,2.9088489624914465e-05
1.849687441234097e-06,4.234054140716324e-06,9.78035760015844e-07,2.9305826064762327e-05
1.8438867189502483e-06,4.238861084426684e-06,9.77479666553404e-07,2.9489778161887153e-05
1.8376056786615768e-06,4.24234796205837e-06,9.77533722553252e-07,2.964023615909835e-05
1.8309943612431873e-06,4.24463445362399e-06,9.78144852255145e-07,2.9757410534506733e-05
1.8242174147867489e-06,4.245884054003977e-06,9.792708464657957e-07,2.9842026055267932e-05
1.8174378713665146e-06,4.2462868861275585e-06,9.808814356347386e-07,2.989539432568889e-05
1.8107982469115399e-06,4.2460226090632105e-06,9.829543282274958e-07,2.9919317693518214e-05
1.804408909188309e-06,4.245227694117634e-06,9.854685269609056e-07,2.991592664851606e-05
1.7983485508707238e-06,4.243985247300563e-06,9.88396344554653e-07,2.9887523093978093e-05
1.7926723531939754e-06,4.242327116543614e-06,9.916979836674401e-07,2.9836436043784783e-05
1.7874173190208049e-06,4.240237199603458e-06,9.953211092231346e-07,2.9764904958467712e-05
1.7826002987306088e-06,4.2376615525875135e-06,9.992038784702009e-07,2.967500557180079e-05
1.778215114555859e-06,4.2345287056148164e-06,1.003278695550015e-06,2.956859668137179e-05
1.7742358629442024e-06,4.23076847989582e-06,1.007475639928512e-06,2.944726195455871e-05
1.7706259969361771e-06,4.226314047240243e-06,1.0117272597024782e-06,2.9312265609072002e-05
1.7673487898464024e-06,4.22109213870342e-06,1.0159740535839751e-06,2.9164554063813124e-05
1.7643758017675308e-06,4.21502042096028e-06,1.0201660270454839e-06,2.9004798835470824e-05
1.7616904914893554e-06,4.208013110434295e-06,1.024259319909835e-06,2.883344945345009e-05
1.7592867599099586e-06,4.199983615656025e-06,1.0282118318534806e-06,2.8650787509291412e-05
1.7571683335741531e-06,4.190852300242981e-06,1.031982841410328e-06,2.8457003698824947e-05
1.7553514889566144e-06,4.1805666378098485e-06,1.035538366980135e-06,2.825228782689685e-05
1.7538624517715474e-06,4.16911002720438e-06,1.0388562290012122e-06,2.8036897887506957e-05
1.7527247834269088e-06,4.156486952010458e-06,1.0419235380343135e-06,2.7811188202419488e-05
1.7519488752182968e-06,4.1427140489721764e-06,1.0447289945466836e-06,2.7575576419826678e-05
1.7515372050483682e-06,4.127834893200037e-06,1.0472586209540936e-06,2.7330471559140807e-05
1.7515007671865353e-06,4.111936029873917e-06,1.0494972932336982e-06,2.7076226575239056e-05
1.7518704713515217e-06,4.095145452987326e-06,1.051430918328932e-06,2.681314464779652e-05
1.7526966994244213e-06,4.077617488853547e-06,1.0530454245195013e-06,2.654150838187643e-05
1.7540420414206188e-06,4.0595118717744865e-06,1.0543233917680694e-06,2.626157654340309e-05
1.7559706465144997e-06,4.040972927328871e-06,1.0552414788982564e-06,2.5973553081633986e-05
1.7585345666772602e-06,4.022113828659548e-06,1.0557714188416414e-06,2.567760115091283e-05
1.7617626689224832e-06,4.003011923041052e-06,1.055885826236265e-06,2.5373924470479253e-05
1.765659705519749e-06,3.983721398628134e-06,1.0555672229718778e-06,2.5062853204380226e-05
1.7702137397079529e-06,3.964298624527111e-06,1.054813558246678e-06,2.474488223010629e-05
1.7754022675998874e-06,3.944824940484139e-06,1.0536346815482464e-06,2.4420664583020604e-05
1.7811933764541669e-06,3.925413507504541e-06,1.0520456407408828e-06,2.409099160759777e-05
1.7875457610419132e-06,3.906194481874473e-06,1.05006796894332e-06,2.375677722117991e-05
1.7944081502961926e-06,3.887286042399699e-06,1.047738772279885e-06,2.341902353268825e-05
