3.6569151041732e-07,3.237406980241458e-07,3.454438777430489e-07,7.905598619640528e-06
3.6777906441285907e-07,3.230636538146825e-07,3.3873907760373577e-07,7.661755227728611e-06
3.697506486197488e-07,3.224338865265817e-07,3.321061200297215e-07,7.428396949567846e-06
3.715998085089084e-07,3.218459626280497e-07,3.2556290062057445e-07,7.205995885924977e-06
3.733196291364821e-07,3.212962961722365e-07,3.191278616010056e-07,6.994973555017067e-06
3.7490245147318506e-07,3.207830967633893e-07,3.128197329499382e-07,6.795702841213556e-06
3.7633984380473276e-07,3.203057875483862e-07,3.066577660712936e-07,6.608464229249278e-06
3.776234167071178e-07,3.1986506504444033e-07,3.006616204415164e-07,6.433425294586552e-06
3.787485730506541e-07,3.1946265051691806e-07,2.94850213127e-07,6.270693028040383e-06
3.7971962463491867e-07,3.191003849846061e-07,2.8924009690763524e-07,6.120404580469709e-06
3.8055029165479003e-07,3.187797193505803e-07,2.8384452054428745e-07,5.982791448688446e-06
3.8125859562665853e-07,3.1850110668630505e-07,2.786744233325056e-07,5.858192626805128e-06
3.8186130226852937e-07,3.182626385888794e-07,2.737411190442205e-07,5.747021311292544e-06
3.823713179981577e-07,3.180591785259383e-07,2.6905817124370926e-07,5.6496956411932074e-06
3.827981751793146e-07,3.178832726422648e-07,2.646408790755704e-07,5.566552380720767e-06
3.8315036235081027e-07,3.177267378695852e-07,2.605043384509248e-07,5.4977745142987136e-06
3.834364341337696e-07,3.1758081465283307e-07,2.5666144618209374e-07,5.443372099349853e-06
3.836636862226975e-07,3.17435205537808e-07,2.531216824641805e-07,5.403215911245308e-06
3.838371079555901e-07,3.1727785100788443e-07,2.498912986016026e-07,5.377074358511331e-06
3.8395943207281816e-07,3.1709536171918037e-07,2.469743519720432e-07,5.364630378667334e-06
3.8403070011763046e-07,3.1687343837170356e-07,2.4437367111186625e-07,5.365490156161354e-06
3.8404760548599785e-07,3.165982466070933e-07,2.4209137169086926e-07,5.379179514934984e-06
3.840033988090215e-07,3.1625864712738e-07,2.4012835653763827e-07,5.405126883550067e-06
3.8388823721568507e-07,3.1584740436100604e-07,2.38483226499664e-07,5.4426507364285364e-06
3.83690459626146e-07,3.153609908264593e-07,2.371518750741749e-07,5.490972647719245e-06
3.8339976719101033e-07,3.1479876378198124e-07,2.361281810670969e-07,5.549294259359737e-06
3.830110807689096e-07,3.1416197736606284e-07,2.354051642165898e-07,5.616936398391915e-06
3.825256359116032e-07,3.134532379675336e-07,2.3497563127153874e-07,5.693442004436347e-06
3.819484246970961e-07,3.126766417134527e-07,2.3483188190425e-07,5.77856200971941e-06
3.8128471123419145e-07,3.1183791360523163e-07,2.3496529089189182e-07,5.872156507519681e-06
3.8053766610835827e-07,3.1094337828252194e-07,2.353672994540039e-07,5.974089012952318e-06
3.797073983892878e-07,3.099979632943153e-07,2.3603088903869252e-07,6.084159085569464e-06
3.7879148834695355e-07,3.090040975052891e-07,2.369502699430394e-07,6.202074340060469e-06
3.777861171961995e-07,3.079620838510646e-07,2.3811915405566798e-07,6.3274424486105875e-06
3.766863469990224e-07,3.068709785366886e-07,2.39528679320455e-07,6.45978648960203e-06
3.7548576209764926e-07,3.0572972030438236e-07,2.4116599877124327e-07,6.5986446524203515e-06
3.741766232546198e-07,3.045380762392968e-07,2.4301483790660893e-07,6.743780487909202e-06
3.727511835167457e-07,3.032963326454582e-07,2.4505690606530804e-07,6.895336946069984e-06
3.7120395992566397e-07,3.0200448671088574e-07,2.4727268452996216e-07,7.053755249656257e-06
3.6953355599059575e-07,3.0066220402615907e-07,2.4964202519225307e-07,7.219547660679506e-06
3.67742538136341e-07,2.9926921248447014e-07,2.521442826603365e-07,7.393107681023222e-06
3.6583626027542116e-07,2.97825706471406e-07,2.547580255071168e-07,7.574650063713284e-06
3.638233349270741e-07,2.963323983678341e-07,2.5746154391058e-07,7.764343293765726e-06
3.6171784003860886e-07,2.9479030617287175e-07,2.602335237812761e-07,7.962561741009861e-06
3.5954023707378495e-07,2.932011155583172e-07,2.6305301984726737e-07,8.170022610556356e-06
3.5731510028509995e-07,2.9156766578081864e-07,2.658995939304169e-07,8.387704212550062e-06
3.550670379184608e-07,2.898933521632593e-07,2.687540148851172e-07,8.616669420840085e-06
3.528176371836511e-07,2.881807272183074e-07,2.7159889727304175e-07,8.857928071174278e-06
3.505842529952313e-07,2.864308131614124e-07,2.744187750718697e-07,9.112363081259348e-06
3.483802567871489e-07,2.846440723058131e-07,2.7719933588139484e-07,9.380680065707583e-06
3.462173390317044e-07,2.8282220924099586e-07,2.7992608615327785e-07,9.663342683627337e-06
3.4410815003022927e-07,2.809687427708056e-07,2.825835621173665e-07,9.960501063415376e-06
3.420656882984703e-07,2.790879495162776e-07,2.8515536716741127e-07,1.0271949603123313e-05
3.401004226370293e-07,2.771841323524929e-07,2.8762431275844664e-07,1.059712168065148e-05
3.382191184564893e-07,2.752618729552528e-07,2.8997273353864303e-07,1.093509973675116e-05
3.3642560146879073e-07,2.7332609047887895e-07,2.921835092103062e-07,1.1284642460865965e-05
3.3472187857084965e-07,2.713819802842357e-07,2.942415227268577e-07,1.1644234498588976e-05
3.3310950941172505e-07,2.6943567237758043e-07,2.961345037962671e-07,1.2012145461493244e-05
3.315905949316488e-07,2.674944285375459e-07,2.978526715683887e-07,1.2386501656982444e-05
3.301679215680707e-07,2.655654285180655e-07,2.993878768156449e-07,1.2765370837944361e-05
3.288446472674039e-07,2.636548171244407e-07,3.007334915128113e-07,1.314683068435734e-05
3.2762362595295896e-07,2.617676424435745e-07,3.018852142065701e-07,1.352899723679615e-05
3.2650677942867765e-07,2.5990747432597285e-07,3.0284180721380056e-07,1.3910019606594684e-05
3.254945907918705e-07,2.58076214245712e-07,3.036052615136097e-07,1.4288070026964233e-05
3.245857623546011e-07,2.562757316545981e-07,3.0418046592322807e-07,1.4661356662452387e-05
3.237779298778468e-07,2.5450990854368017e-07,3.0457449477872326e-07,1.5028153684594113e-05
3.230693797338797e-07,2.527843211985721e-07,3.047956874237321e-07,1.5386813465856553e-05
3.2246060110292657e-07,2.511051977563928e-07,3.048526636563802e-07,1.5735744677532628e-05
3.219546223084653e-07,2.4948034298898524e-07,3.0475359957719287e-07,1.607338580935967e-05
3.2155569578874176e-07,2.4792020229269176e-07,3.045059606438707e-07,1.639821154642279e-05
3.212672427702156e-07,2.464370392728913e-07,3.041167541502873e-07,1.67087693152824e-05
3.2109063794075376e-07,2.450435051460847e-07,3.0359336251320747e-07,1.7003707487917443e-05
3.210252473802361e-07,2.437513419771013e-07,3.0294387537817783e-07,1.7281769159811515e-05
3.210683190355551e-07,2.425701317246093e-07,3.0217606848279555e-07,1.7541761010270395e-05
3.2121399807760484e-07,2.4150728353585786e-07,3.012964933571676e-07,1.7782528927136038e-05
3.2145348986952174e-07,2.4056914463809237e-07,3.0031065880879367e-07,1.8002968975599497e-05
3.2177732715018085e-07,2.39761808672038e-07,2.992232024235073e-07,1.820207303020652e-05
3.221776960071216e-07,2.390909236434302e-07,2.9803778061846236e-07,1.837899354696708e-05
3.226500608287876e-07,2.385604953668624e-07,2.967578120512136e-07,1.853310495087027e-05
3.231939759717673e-07,2.381719236056032e-07,2.953881989814545e-07,1.8664030629964466e-05
3.2381123392402677e-07,2.379240773613721e-07,2.939364208884477e-07,1.8771635580413898e-05
3.245024192210586e-07,2.3781370090952787e-07,2.9241181814934825e-07,1.885602166117657e-05
3.2526530827851484e-07,2.378356595273152e-07,2.908240625298976e-07,1.891755054870573e-05
3.260949382194625e-07,2.379830907090189e-07,2.891819972747539e-07,1.895684961882509e-05
3.269841835543982e-07,2.3824783514650908e-07,2.874929362747387e-07,1.8974726297817307e-05
3.279259933980561e-07,2.3862100544049127e-07,2.857629736204964e-07,1.897203172585252e-05
3.289160964305771e-07,2.390932853632113e-07,2.839984498357991e-07,1.8949594540303563e-05
3.299523050307402e-07,2.3965529084865235e-07,2.8220727303424506e-07,1.8908232238450214e-05
3.310310373415381e-07,2.402974221502501e-07,2.8039909235679546e-07,1.8848764453604727e-05
3.321456906808556e-07,2.4100880620497326e-07,2.7858474794508173e-07,1.877201419896872e-05
3.332879784783454e-07,2.417773430213595e-07,2.7677602363393263e-07,1.8678803028556706e-05
3.3444942348890096e-07,2.4259178286448395e-07,2.7498578609456293e-07,1.856996356892081e-05
3.356212047219205e-07,2.4344323941923013e-07,2.732276917828733e-07,1.844645941056417e-05
3.367932883405073e-07,2.443244139060132e-07,2.7151533027640764e-07,1.8309557607584906e-05
3.379551583533546e-07,2.4522830133819327e-07,2.698621238912325e-07,1.816083108192168e-05
3.390985586686462e-07,2.461476871932319e-07,2.682824197836026e-07,1.8001967566600394e-05
3.4021868444771536e-07,2.4707482122569084e-07,2.667910966272323e-07,1.7834571466865927e-05
3.413120030616939e-07,2.4800158127717985e-07,2.6540085186389684e-07,1.766009413647442e-05
3.423745664803577e-07,2.4892073024634125e-07,2.6412057755395646e-07,1.7479954313174138e-05
3.4340300794895263e-07,2.4982726176019425e-07,2.629557944071056e-07,1.729579247365701e-05
3.4439528256315327e-07,2.50719138178479e-07,2.619090139776823e-07,1.7109642121882096e-05
3.453495846207314e-07,2.5159744226938193e-07,2.609799450261602e-07,1.6923875434141493e-05
3.4626343453104497e-07,2.524650102515017e-07,2.601674887556476e-07,1.6741018106275798e-05
3.4713403033663823e-07,2.533240614371149e-07,2.594733427166732e-07,1.6563574897888064e-05
3.479585782693528e-07,2.5417539560202484e-07,2.589030495577505e-07,1.63938910146276e-05
3.4873341277543644e-07,2.550192962642281e-07,2.584626353776754e-07,1.6234025135040812e-05
3.494526083073252e-07,2.55856007814925e-07,2.581560641336188e-07,1.6085637783796014e-05
3.501076937452899e-07,2.566855913737622e-07,2.579886566370066e-07,1.5949927279570395e-05
3.506888323990545e-07,2.575087309869492e-07,2.5797398524356287e-07,1.5827637226588227e-05
3.511868026122745e-07,2.58329154856702e-07,2.581374753628182e-07,1.5719122971673158e-05
3.515947499961621e-07,2.591555252408809e-07,2.585146030004754e-07,1.5624423374791295e-05
3.5190807579184397e-07,2.5999982623316324e-07,2.591478945359742e-07,1.554329130657229e-05
3.521224666898943e-07,2.6087361115143017e-07,2.600850471830807e-07,1.5475206148940563e-05
3.522323095444341e-07,2.6178545470362857e-07,2.6137524231216375e-07,1.5419416797744724e-05
3.522306013435131e-07,2.6273993493569443e-07,2.630631495873468e-07,1.5375020667828906e-05
3.521099341494252e-07,2.637376015510118e-07,2.651852756329851e-07,1.5341059461393255e-05
3.5186358683088825e-07,2.647764408885229e-07,2.677710520223278e-07,1.5316612844705668e-05
3.5148537657384326e-07,2.658542880129744e-07,2.708455244649711e-07,1.530086412159857e-05
3.509688694331913e-07,2.669697180093228e-07,2.744295263361784e-07,1.5293120167067653e-05
3.503079239082651e-07,2.6812075542507055e-07,2.785369701420796e-07,1.5292793447486728e-05
3.4949818056869767e-07,2.6930390933294266e-07,2.831721347307396e-07,1.5299362106285756e-05
3.485375503603149e-07,2.705143757113278e-07,2.883290471769684e-07,1.5312327727131713e-05
3.474256478868325e-07,2.7174615931671565e-07,2.939929687733121e-07,1.533118587863761e-05
3.461634567055687e-07,2.7299234904149234e-07,3.001430883520284e-07,1.5355397561677248e-05
3.447534584622849e-07,2.7424611286074857e-07,3.067557607239201e-07,1.5384354818195672e-05
3.431997099588348e-07,2.75501163534671e-07,3.138070612349565e-07,1.5417375269864494e-05
3.415082640286342e-07,2.767513339145412e-07,3.2127275582078647e-07,1.5453747739818728e-05
3.396886075526888e-07,2.779913539516165e-07,3.2912702515837466e-07,1.5492775047637848e-05
3.377545940183542e-07,2.792181501924717e-07,3.3734285648034657e-07,1.5533752684625014e-05
3.357227756047064e-07,2.8042980222874257e-07,3.458929302921111e-07,1.5575911961092924e-05
3.336092485159257e-07,2.81623843688772e-07,3.547483562180559e-07,1.561840339832568e-05
3.3142771372888753e-07,2.827975945885441e-07,3.63875828287475e-07,1.5660343213216235e-05
3.2918971828739424e-07,2.839490076224011e-07,3.732358867905435e-07,1.5700867563699153e-05
3.269062481190853e-07,2.8507611710809284e-07,3.8278393771614797e-07,1.573915520436475e-05
3.2458897916217253e-07,2.8617621874122035e-07,3.92472727574436e-07,1.5774472622898905e-05
3.222498276478573e-07,2.872466442450957e-07,4.0225410479153683e-07,1.5806271726010627e-05
3.198996893019825e-07,2.8828579722554195e-07,4.1208060894847716e-07,1.583425344596866e-05
3.1754827110978665e-07,2.892922208685706e-07,4.2190707900657784e-07,1.5858327306327037e-05
3.152043790072823e-07,2.902629099322451e-07,4.3169025554044333e-07,1.5878510337831283e-05
3.1287530220333035e-07,2.911928907015708e-07,4.413871628320011e-07,1.5894834630131918e-05
3.1056646003852034e-07,2.9207604255715127e-07,4.509545730415945e-07,1.590728385475289e-05
3.082824485837706e-07,2.929059891609118e-07,4.603494854719082e-07,1.591576531318693e-05
3.060281459950721e-07,2.936768812479661e-07,4.6953011732077323e-07,1.592014153518596e-05
3.0380825728932e-07,2.943853556161138e-07,4.784565536694586e-07,1.5920302033469548e-05
3.016258829718857e-07,2.950323902964661e-07,4.870899020708615e-07,1.5916202860957997e-05
2.9948169721615486e-07,2.956218409131495e-07,4.953913000322479e-07,1.5907850000150027e-05
2.973739835172786e-07,2.9615701562542525e-07,5.03322944340151e-07,1.5895253841112995e-05
2.952988787149989e-07,2.966395113677597e-07,5.108500299093804e-07,1.587840827720769e-05
2.932508614086281e-07,2.97070287566297e-07,5.17941042548729e-07,1.585738992353077e-05
2.912238680650353e-07,2.974502706770249e-07,5.245667462105515e-07,1.5832528331150934e-05
2.8921222961682826e-07,2.977801261552653e-07,5.307009282704714e-07,1.580443146333888e-05
2.8721029060940234e-07,2.980599185867413e-07,5.363243229607441e-07,1.5773873002586982e-05
2.852114338970119e-07,2.98289261887611e-07,5.414279861018282e-07,1.5741733671257282e-05
2.832080819284941e-07,2.984682267131096e-07,5.460120032423925e-07,1.5708983097923604e-05
2.811927014882792e-07,2.9859742792024716e-07,5.500810672077522e-07,1.5676614266350052e-05
2.7915847363955857e-07,2.986771020585887e-07,5.536407483010974e-07,1.5645576578437803e-05
2.770994962530416e-07,2.987073621206373e-07,5.56696517933917e-07,1.561674581906259e-05
2.750116909209475e-07,2.9868926123513804e-07,5.592553677719761e-07,1.5590910602252532e-05
2.7289380901257696e-07,2.986246715396985e-07,5.613274762481681e-07,1.556875823140883e-05
2.707474050034749e-07,2.985151634593409e-07,5.629258682857122e-07,1.5550857120497612e-05
2.6857706416820214e-07,2.983609709223674e-07,5.64064812362539e-07,1.5537642725401818e-05
2.663915445328856e-07,2.981605845896098e-07,5.647588332419113e-07,1.5529410532497672e-05
2.6420370982178e-07,2.979111538663404e-07,5.650233076360771e-07,1.5526309498865186e-05
2.620285468917297e-07,2.9760913986428545e-07,5.648758512522384e-07,1.5528327620915227e-05
2.598812795893257e-07,2.9725059564511944e-07,5.643366593439943e-07,1.5535277286340522e-05
2.57776641099878e-07,2.968311190462645e-07,5.63427031209416e-07,1.5546803108946875e-05
2.557285607679647e-07,2.9634566349079373e-07,5.62167223353305e-07,1.5562412482469697e-05
2.5374933161963225e-07,2.9578853414576157e-07,5.605750223918333e-07,1.5581510205213847e-05
2.518485568434793e-07,2.951539142759221e-07,5.586654926326781e-07,1.560343921661788e-05
2.500327576236144e-07,2.944366351231575e-07,5.564517211605324e-07,1.5627522839971392e-05
2.483054780720529e-07,2.93632499129384e-07,5.539458978724785e-07,1.5653086652265035e-05
2.466679324269173e-07,2.927381748647956e-07,5.511600437517949e-07,1.5679468504719632e-05
2.451204523174889e-07,2.9175138308458385e-07,5.481065436564008e-07,1.570603372142336e-05
2.4366355598490485e-07,2.9067123436629873e-07,5.44798665774839e-07,1.5732184072497287e-05
2.4229765538380906e-07,2.8949824220892784e-07,5.412501100870491e-07,1.575735873807683e-05
2.410222863567455e-07,2.882341095081725e-07,5.374736609375123e-07,1.5781045867397642e-05
2.398362093608413e-07,2.868811978645527e-07,5.334811766131566e-07,1.58027967919139e-05
2.3873863894007164e-07,2.854420026789698e-07,5.292855541153721e-07,1.5822218138252425e-05
2.377307906647933e-07,2.8391887922714853e-07,5.249022267322497e-07,1.5838947251398068e-05
2.3681664395847945e-07,2.8231356894354247e-07,5.203483761186738e-07,1.5852625948616307e-05
2.3600318113930174e-07,2.806269681086753e-07,5.156411324104922e-07,1.5862876884680466e-05
2.3530076158902026e-07,2.7885989390191643e-07,5.107971139523646e-07,1.586930990589406e-05
2.3472186622772922e-07,2.7701454903107875e-07,5.058332072367317e-07,1.587157893315277e-05
2.342780139747487e-07,2.7509543402060426e-07,5.007667353370714e-07,1.586942649280205e-05
2.3397890675928908e-07,2.7310851100463125e-07,4.956149385419157e-07,1.5862647845929434e-05
2.3383497992033301e-07,2.710597671880114e-07,4.903943344068766e-07,1.5851029736678212e-05
2.3385935405277628e-07,2.6895513703470467e-07,4.851194999642009e-07,1.5834336191403998e-05
2.340666337774005e-07,2.668007019863098e-07,4.798017135144564e-07,1.5812330598645573e-05
2.3446978995330528e-07,2.646017949968632e-07,4.744485153365792e-07,1.5784826431461747e-05
2.3507725858438067e-07,2.62362416872424e-07,4.690647772160165e-07,1.5751739495247886e-05
2.3589229157314548e-07,2.600858150372901e-07,4.636555725554778e-07,1.5713072913602317e-05
2.369151293226304e-07,2.5777529706671407e-07,4.5822944694128283e-07,1.566884925557536e-05
2.3814487000196424e-07,2.554349579825264e-07,4.527992707242522e-07,1.561907466231336e-05
2.395784340901628e-07,2.530700848500839e-07,4.4738034768201e-07,1.5563774084643586e-05
2.412087002021481e-07,2.506865605626598e-07,4.41988357874631e-07,1.550308017408137e-05
2.430241384110336e-07,2.482900879568241e-07,4.366382737589862e-07,1.543731742519526e-05
2.4500955209817065e-07,2.458863699639702e-07,4.313437004727602e-07,1.5367001887711725e-05
2.471468196465845e-07,2.434813981796284e-07,4.261169438699105e-07,1.5292739514928303e-05
2.494151706066813e-07,2.410810332566014e-07,4.20969515471046e-07,1.5215097376407016e-05
2.5179147900387075e-07,2.386904490273909e-07,4.159117950750643e-07,1.5134537602688965e-05
2.5425098657019105e-07,2.363138175159886e-07,4.10952275486921e-07,1.5051426720466898e-05
2.567689739151661e-07,2.339543238838676e-07,4.060976941203108e-07,1.4966046026999634e-05
2.593243084061633e-07,2.316149910948986e-07,4.0135391312860214e-07,1.4878570115684494e-05
2.6190252894578264e-07,2.2930071378362609e-07,3.9672628505690754e-07,1.4789098392322361e-05
2.644945815450773e-07,2.2702022701792442e-07,3.9221883096404255e-07,1.4697814381679485e-05
2.670932568834301e-07,2.247855919675628e-07,3.878335051443209e-07,1.4605173564719309e-05
2.696919204935865e-07,2.226097116486043e-07,3.8357041293941724e-07,1.4511937199783773e-05
2.722850668121046e-07,2.2050482215832845e-07,3.794277772816422e-07,1.4419038899071356e-05
2.7486795855128465e-07,2.184826679134869e-07,3.7540135752681043e-07,1.4327414460889774e-05
2.774354418746803e-07,2.165549189103259e-07,3.714842487257308e-07,1.4237881724450574e-05
2.799814710573382e-07,2.1473346790988612e-07,3.676674228282168e-07,1.4151134429460358e-05
2.82499336023637e-07,2.1303065844133784e-07,3.639412230084811e-07,1.4067903953716372e-05
2.8498211651720425e-07,2.1145850697754947e-07,3.60297399883919e-07,1.398917626192954e-05
2.8742359158275345e-07,2.1002826388450093e-07,3.567304315790471e-07,1.3916254693976025e-05
2.8981945942700845e-07,2.0875217873761672e-07,3.5323728838508867e-07,1.3850647341496948e-05
2.921679455253424e-07,2.0764442137405012e-07,3.498157751523189e-07,1.3793908521551447e-05
2.944690051433969e-07,2.0671856527601841e-07,3.4646303241485125e-07,1.3747498579565631e-05
2.967226619158275e-07,2.059846404514887e-07,3.431755280168972e-07,1.3712667772972259e-05
2.989281578470307e-07,2.0544887207002486e-07,3.399493341587357e-07,1.369037853061892e-05
3.0108414915492265e-07,2.051162986920246e-07,3.367797854313075e-07,1.3681281269530502e-05
3.031884716942621e-07,2.0499500171714282e-07,3.336618292493548e-07,1.3685737023967846e-05
3.052377132902161e-07,2.0509909430044145e-07,3.3059126213033034e-07,1.3703854347735048e-05
3.0722740465817905e-07,2.0544791407997207e-07,3.275652907003263e-07,1.3735508981333153e-05
3.0915198680889766e-07,2.060619276159945e-07,3.2458226955302e-07,1.3780338091826462e-05
3.1100509804348824e-07,2.069578785000615e-07,3.216423366235701e-07,1.3837727422973765e-05
3.1278126347465037e-07,2.0814560145913783e-07,3.187497595631754e-07,1.3906821714872114e-05
3.144767849726808e-07,2.096275702167713e-07,3.1591530638120745e-07,1.3986571712926505e-05
3.1608821725520664e-07,2.1140016971547672e-07,3.1315579445334106e-07,1.4075806150636395e-05
3.176110349470428e-07,2.134549796639163e-07,3.104903802166257e-07,1.4173305622732345e-05
3.190403075081731e-07,2.1577994070139176e-07,3.079373755177084e-07,1.4277854704528816e-05
3.2037150625590465e-07,2.183614831242881e-07,3.055141904317165e-07,1.4388268809820957e-05
3.2159997894804437e-07,2.2118666452711449e-07,3.0323850770021645e-07,1.4503412393511035e-05
3.227203691762876e-07,2.2424279870200586e-07,3.0112909352112695e-07,1.4622212063486005e-05
3.237271527828112e-07,2.275152068155742e-07,2.992059307424872e-07,1.4743650502098248e-05
3.2461540652173123e-07,2.309859524562651e-07,2.9748927204848163e-07,1.4866730862583124e-05
3.2538061162659226e-07,2.3463409782092466e-07,2.959983020792624e-07,1.4990422836647864e-05
3.260183690097533e-07,2.3843640838010037e-07,2.947502256594141e-07,1.511362894891518e-05
3.265259295526071e-07,2.423682009316925e-07,2.9376004120684745e-07,1.523520567995349e-05
3.2690483062680586e-07,2.464042610690741e-07,2.930409603496528e-07,1.535401913408682e-05
3.271626314215056e-07,2.505196214204798e-07,2.9260490713931963e-07,1.5468970045336302e-05
3.2731369785061696e-07,2.546903871636966e-07,2.924631658250545e-07,1.5578965407556467e-05
3.2737943282200806e-07,2.588944060228369e-07,2.9262827250621873e-07,1.5682884441684234e-05
3.273876403283773e-07,2.6311108410751076e-07,2.931162024999448e-07,1.577958178906358e-05
3.2737052102731425e-07,2.673207785949197e-07,2.9394568921537627e-07,1.5867922028792254e-05
3.273610235086896e-07,2.71504568506909e-07,2.951344736548971e-07,1.5946818401831126e-05
3.2738864631489967e-07,2.756440360107551e-07,2.966958449081328e-07,1.6015265791004455e-05
3.274764624693611e-07,2.7972121097773316e-07,2.986385566274386e-07,1.6072372699920135e-05
3.276399924720685e-07,2.837191256381092e-07,3.009704933749374e-07,1.6117393529447556e-05
3.278875333144193e-07,2.876222820956603e-07,3.037035640775682e-07,1.6149766124001693e-05
3.282214112130791e-07,2.9141737750682456e-07,3.068564250601716e-07,1.616915750169576e-05
3.286393626772486e-07,2.950942993778421e-07,3.104530913435245e-07,1.6175510925462207e-05
3.291358873948791e-07,2.9864528092229984e-07,3.1451863719061716e-07,1.6169067897457785e-05
3.297043466424275e-07,3.0206289778490003e-07,3.190742390756114e-07,1.6150316853614055e-05
3.3033875186094605e-07,3.053398480406253e-07,3.241328907813525e-07,1.6119870149652757e-05
3.310331418937743e-07,3.084700928014241e-07,3.296975265732661e-07,1.6078360678048064e-05
3.3177943589357517e-07,3.114492288449937e-07,3.357614567281981e-07,1.6026431838777796e-05
3.32566691491701e-07,3.142740152538639e-07,3.423085693861364e-07,1.596477948924552e-05
3.3338246010847825e-07,3.1694188713452566e-07,3.493132303961449e-07,1.5894170185843537e-05
3.342139466511151e-07,3.1945058965209174e-07,3.567423123905748e-07,1.581542506413639e-05
3.3504766200517073e-07,3.217984336073199e-07,3.6455968198931377e-07,1.5729386690807746e-05
3.358690907813525e-07,3.239856652181138e-07,3.7273071672401156e-07,1.563690475779744e-05
3.366634494046731e-07,3.2601582365207655e-07,3.812237770171922e-07,1.55388942014566e-05
3.374170162615675e-07,3.2789560151602877e-07,3.900076645853304e-07,1.5436403911115704e-05
3.381180876624764e-07,3.296330309456198e-07,3.9904818000206907e-07,1.53305576511014e-05
3.387566653707679e-07,3.3123492086816286e-07,4.083070789910882e-07,1.5222391142573584e-05
3.393236971121699e-07,3.327054434509593e-07,4.1774340011410077e-07,1.5112743248655859e-05
3.3981125489202233e-07,3.340477482843866e-07,4.273159065944715e-07,1.5002308642242551e-05
3.402136976350727e-07,3.3526689065138174e-07,4.3698462222627323e-07,1.4891861104743719e-05
3.405297309304428e-07,3.3636996981757715e-07,4.467101320560954e-07,1.4782505918838153e-05
3.407639404610281e-07,3.3736381089539927e-07,4.564521627997287e-07,1.4675736739252151e-05
3.4092520855189e-07,3.382537558184147e-07,4.6616836781709425e-07,1.457325907301919e-05
3.410231083380443e-07,3.3904373753107145e-07,4.7581321851510546e-07,1.4476750529755191e-05
3.410668237143743e-07,3.397365423502216e-07,4.853384966254289e-07,1.438769403978586e-05
3.4106768777320947e-07,3.403353306133989e-07,4.94695889411713e-07,1.4307303301872753e-05
3.410409527088848e-07,3.4084504748988316e-07,5.038398287643618e-07,1.4236498138952551e-05
3.410036524200088e-07,3.41271351418848e-07,5.127292452314188e-07,1.4175883713617368e-05
3.409709326826663e-07,3.4161983734138477e-07,5.21328928298874e-07,1.4125737006882516e-05
3.409543940017951e-07,3.4189722562922785e-07,5.296111331877128e-07,1.4086025842917474e-05
3.409626521076831e-07,3.4211130027621177e-07,5.3755505948128e-07,1.40564655796126e-05
3.410022336692608e-07,3.4226942290179556e-07,5.451425384146187e-07,1.4036612249635373e-05
3.4107816206299875e-07,3.423781469438929e-07,5.523538692412715e-07,1.4025972153824896e-05
3.4119548761809175e-07,3.424433378348849e-07,5.591673338026716e-07,1.4024082855631381e-05
3.413612988197363e-07,3.4246934006377767e-07,5.655602458665964e-07,1.4030543048753571e-05
3.415840173747765e-07,3.424578623953388e-07,5.715092245704104e-07,1.404501413937413e-05
3.418711555071984e-07,3.424077850927235e-07,5.769907190409198e-07,1.4067224906353064e-05
3.422306747943441e-07,3.423158258860387e-07,5.819823425338736e-07,1.4096972355289255e-05
3.4267414153591327e-07,3.421775201135681e-07,5.864638066836532e-07,1.4134095216916565e-05
3.4321617164172466e-07,3.419883747617773e-07,5.904176027211268e-07,1.4178437121685767e-05
3.438712857123652e-07,3.417448508336509e-07,5.93830279405136e-07,1.422983114696348e-05
3.446516287290785e-07,3.4144507965922697e-07,5.966928444927153e-07,1.4288094547766932e-05
3.4556588228258674e-07,3.410894275498615e-07,5.989991577053597e-07,1.4352998044444492e-05
3.466186181933765e-07,3.406812413018755e-07,6.007444843235622e-07,1.4424202303919193e-05
3.478099726956205e-07,3.402274047335979e-07,6.019261958530851e-07,1.4501202095722953e-05
3.491367376786293e-07,3.397368357101707e-07,6.025451097827455e-07,1.458333856668594e-05
3.505952019691509e-07,3.392177362647871e-07,6.026050648271499e-07,1.4669899634535644e-05
3.521834622080512e-07,3.3867658768590014e-07,6.021112523443031e-07,1.4760244853671148e-05
3.5390163937341593e-07,3.381189344664073e-07,6.010693115846915e-07,1.4853857094347653e-05
3.557506354713538e-07,3.3754971222129934e-07,5.994858621597808e-07,1.4950301363783655e-05
3.577297674622158e-07,3.369724032879064e-07,5.973699153823847e-07,1.5049161421959313e-05
3.5983421701150007e-07,3.363884861196962e-07,5.9473398487006e-07,1.5150016691020147e-05
3.6205418374811524e-07,3.357978915626041e-07,5.915946972436825e-07,1.5252442477220571e-05
3.643761713489936e-07,3.3519980552174357e-07,5.879741658689588e-07,1.5355974435005973e-05
3.667854378361611e-07,3.3459291164651897e-07,5.839017944457439e-07,1.5460041032926847e-05
3.6926845880579905e-07,3.339745902626417e-07,5.794144202646238e-07,1.5563932014592497e-05
3.718146226904112e-07,3.333403515298868e-07,5.745543091602994e-07,1.5666847302633755e-05
3.744165013292861e-07,3.3268486874785964e-07,5.693658374197968e-07,1.5768019818682762e-05
3.7706873479347504e-07,3.320034053143795e-07,5.638918252859319e-07,1.5866839512796198e-05
3.7976672116183526e-07,3.312926388508113e-07,5.581716150545643e-07,1.5962876294240445e-05
3.825054712176051e-07,3.305520223545644e-07,5.522419219317432e-07,1.6055796550756532e-05
3.852782339665657e-07,3.297848367811536e-07,5.461379618736193e-07,1.6145261054100668e-05
3.880752748709282e-07,3.289970138176288e-07,5.398924561042565e-07,1.6230874488472167e-05
3.908838430602512e-07,3.281959714789804e-07,5.335337548188693e-07,1.6312215946714753e-05
3.936899115688697e-07,3.273916405240651e-07,5.270856921961672e-07,1.6388924238338155e-05
3.9647963786675613e-07,3.26596656600982e-07,5.205699958984846e-07,1.646075883383586e-05
3.9923844645298e-07,3.258236119624672e-07,5.140097293168417e-07,1.6527598894769558e-05
4.0194959127832314e-07,3.250819721280616e-07,5.074305308301205e-07,1.6589405281167943e-05
4.0459431973617094e-07,3.2437688394167185e-07,5.00858810119709e-07,1.6646203101703078e-05
4.071531107547417e-07,3.237093010552107e-07,4.943217012208128e-07,1.6698157291613204e-05
4.0960725960654847e-07,3.2307663802439056e-07,4.87851214933513e-07,1.674567682930747e-05
4.119408416014684e-07,3.224740495352314e-07,4.814878212533528e-07,1.67893770898323e-05
4.1414278078183815e-07,3.218955181055204e-07,4.752802102006733e-07,1.682991461653356e-05
4.162081434914951e-07,3.213343856158723e-07,4.6928159442359714e-07,1.686787917137098e-05
4.181375493307312e-07,3.2078493485526425e-07,4.6354415488643143e-07,1.690386080619221e-05
4.1993443008113644e-07,3.2024422746339076e-07,4.5811550473377895e-07,1.6938601284509616e-05
4.2160223267450717e-07,3.197116026549855e-07,4.5303777361611965e-07,1.6973009805173134e-05
4.2314349551183526e-07,3.1918718768432496e-07,4.4834720642478103e-07,1.700801031669275e-05
4.245595692093453e-07,3.1867260623445074e-07,4.4407454175938864e-07,1.7044390618723942e-05
4.2585021604684527e-07,3.1817339460219725e-07,4.402451912454979e-07,1.7082738149258842e-05
4.270139242550782e-07,3.1769932619144203e-07,4.368788210305433e-07,1.712342245357383e-05
4.280482329484949e-07,3.172612275441238e-07,4.3398993521287744e-07,1.7166584048423114e-05
4.2894953009780295e-07,3.1686762493779805e-07,4.3158821906423767e-07,1.7212129881937163e-05
4.297129408183621e-07,3.165237915578289e-07,4.2967828784837724e-07,1.7259746660316205e-05
4.303322294032715e-07,3.162320813858893e-07,4.282603056703256e-07,1.7308931190414014e-05
4.3079998465722924e-07,3.159924176949389e-07,4.2732991092051157e-07,1.73590353780557e-05
4.3110872214378567e-07,3.158033126336475e-07,4.268770421019053e-07,1.7409309476124708e-05
4.312523744157375e-07,3.156630176104845e-07,4.2688609755532174e-07,1.745891594827786e-05
4.3122755391648504e-07,3.155696519255128e-07,4.2733783709737613e-07,1.750692921697296e-05
4.3103443153110855e-07,3.155204894721734e-07,4.282118046384172e-07,1.755236736887221e-05
4.306760390245738e-07,3.155116145585047e-07,4.294880155177307e-07,1.7594265732769903e-05
4.301557651186446e-07,3.155387900879172e-07,4.311474711942682e-07,1.763176159750266e-05
4.2947588335297186e-07,3.155991023682745e-07,4.331719469913479e-07,1.766414320087449e-05
4.286388572069807e-07,3.1569195187537586e-07,4.355420511439493e-07,1.7690840926947595e-05
4.2764931613553994e-07,3.1581849420080305e-07,4.3823374109661866e-07,1.7711400485889996e-05
4.265142181380589e-07,3.1598037787179854e-07,4.412163262786155e-07,1.772548200232594e-05
4.2524202870104953e-07,3.1617918693815186e-07,4.4445297981060115e-07,1.7732876941207285e-05
4.2384317819930257e-07,3.1641611791640025e-07,4.4790262914869816e-07,1.773351630929843e-05
4.2233089562685384e-07,3.166910371967593e-07,4.51522296014287e-07,1.7727451939050085e-05
4.207204852906504e-07,3.1700157600463856e-07,4.552684131799117e-07,1.7714805913185877e-05
4.190288003488426e-07,3.1734313116716e-07,4.590966839397707e-07,1.7695705829707872e-05
4.172747631956249e-07,3.1770968332064985e-07,4.6296181829076263e-07,1.7670235709972515e-05
4.1547784457133227e-07,3.1809462815464145e-07,4.668182931644409e-07,1.7638435767128063e-05
4.1365483652183717e-07,3.1849171580626786e-07,4.706223145500391e-07,1.7600354404758762e-05
4.1181898003605104e-07,3.188960056583479e-07,4.743333908235689e-07,1.7556093118017155e-05
4.0998245358871815e-07,3.193034316813823e-07,4.779144295775232e-07,1.750579847503807e-05
4.081598233175076e-07,3.1970963290521414e-07,4.81331667316407e-07,1.7449619414846687e-05
4.063690267538633e-07,3.2010988949474823e-07,4.845548490900985e-07,1.7387655567302142e-05
4.046286801183753e-07,3.204993365149606e-07,4.875568499728952e-07,1.7319930353561756e-05
4.029545931127214e-07,3.208721233623035e-07,4.903127593645856e-07,1.7246417000939378e-05
4.01358198405418e-07,3.2122036410100445e-07,4.927989780190057e-07,1.7167078506575193e-05
3.998463216290695e-07,3.215339586994081e-07,4.949927942423386e-07,1.7081872727544073e-05
3.9842103860939203e-07,3.218014275257537e-07,4.968725791194777e-07,1.699072997228003e-05
3.9707970641750047e-07,3.220117075385427e-07,4.984188744230652e-07,1.6893542204650463e-05
3.9581536531417704e-07,3.221559881090644e-07,4.99615997354765e-07,1.6790208579411315e-05
3.946176056495915e-07,3.222284835896489e-07,5.004522264545891e-07,1.668074402430226e-05
3.934739663250874e-07,3.222258643409877e-07,5.009187628427216e-07,1.656537267486214e-05
3.923711615158786e-07,3.2214581732716513e-07,5.010100113518235e-07,1.644450331944146e-05
3.912964591382401e-07,3.219860495653757e-07,5.007241065333221e-07,1.6318606373525534e-05
3.9023960342675407e-07,3.217437445992757e-07,5.000611998928483e-07,1.618813491931098e-05
3.8919307622993603e-07,3.214147641678409e-07,4.990215023903038e-07,1.605354656733429e-05
3.8815014905947103e-07,3.209935672493745e-07,4.976064383222614e-07,1.591533797097757e-05
3.871035527874556e-07,3.204744832751484e-07,4.958222563353371e-07,1.577403094462249e-05
3.8604562430029616e-07,3.198529750167066e-07,4.936817857921566e-07,1.5630135140140514e-05
3.84968344819432e-07,3.1912556142358087e-07,4.912023323847246e-07,1.5484160158215838e-05
3.838627823611793e-07,3.182893850209237e-07,4.884025818206178e-07,1.5336731739952207e-05
3.827194597724447e-07,3.173427715670239e-07,4.853010330322473e-07,1.5188706659608682e-05
3.8153106458557897e-07,3.1628604808069137e-07,4.819157222365193e-07,1.5041127215275192e-05
3.8029522030254027e-07,3.1512181886982497e-07,4.782642376855542e-07,1.4895053832223444e-05
3.7901380229932215e-07,3.138551380358529e-07,4.743634457628126e-07,1.4751416673213797e-05
3.7768986490830887e-07,3.124936530214295e-07,4.7022952821352216e-07,1.4610963325929542e-05
3.763255909383385e-07,3.110469756182344e-07,4.6587898284152697e-07,1.4474368311853073e-05
3.749223269198084e-07,3.095254348399227e-07,4.613298168742946e-07,1.4342479749511369e-05
3.734821780119951e-07,3.0793904997163963e-07,4.5660138605043546e-07,1.4216485781745575e-05
3.7201014457258993e-07,3.0629659557764536e-07,4.517126362889964e-07,1.4097848467119247e-05
3.7051442451110244e-07,3.046050945488089e-07,4.4668041738591033e-07,1.3988116208551825e-05
3.690039780926154e-07,3.0287045284635766e-07,4.4151886168307765e-07,1.3888771382469503e-05
3.6748662994734665e-07,3.010987970224531e-07,4.3623944972878287e-07,1.380113409831974e-05
3.659695326809405e-07,2.992977836062985e-07,4.3085128647208955e-07,1.3726288701340185e-05
3.6445931878246186e-07,2.9747670349756816e-07,4.253614336397722e-07,1.3665027908380929e-05
3.629609214624886e-07,2.9564499377248174e-07,4.1977563327314743e-07,1.3617824347550792e-05
3.6147744808616574e-07,2.938107494300828e-07,4.14099097821841e-07,1.3584829156527847e-05
3.60011851470081e-07,2.9198027379940977e-07,4.083365837698564e-07,1.3565890103822735e-05
3.5856802782003547e-07,2.90158793995992e-07,4.024922849572565e-07,1.356058385929688e-05
3.571499266177202e-07,2.883522601482739e-07,3.96570456175356e-07,1.3568265151993255e-05
3.5576012827358713e-07,2.8656860205036047e-07,3.9057616326048936e-07,1.3588135369587845e-05
3.543992649941549e-07,2.8481661982056253e-07,3.845151097529428e-07,1.3619316558004002e-05
3.5306621162710454e-07,2.831033799738265e-07,3.783930863729421e-07,1.366091824612718e-05
3.517583384541555e-07,2.814325120992672e-07,3.7221593550365617e-07,1.3712101995469982e-05
3.504713906526123e-07,2.798044690865805e-07,3.6598989589792475e-07,1.3772135624147027e-05
3.491994034595873e-07,2.782180627095193e-07,3.597221462682378e-07,1.384040710575677e-05
3.479349412270144e-07,2.766715162161259e-07,3.5342091372119813e-07,1.391639841647672e-05
3.4666939492224285e-07,2.751624764165153e-07,3.4709505629990603e-07,1.399966516667818e-05
3.453934860154629e-07,2.736883852410689e-07,3.407545798369561e-07,1.408984048471125e-05
3.440983384550035e-07,2.7224714897480125e-07,3.344115786030197e-07,1.4186624596821674e-05
3.427764132939222e-07,2.708371527916729e-07,3.280800364883903e-07,1.4289731384500387e-05
3.414220369190117e-07,2.694572530962337e-07,3.2177532629704646e-07,1.4398806541591135e-05
3.400323421702625e-07,2.6810743798925645e-07,3.155135262022304e-07,1.451336501567711e-05
3.386077470029032e-07,2.667900430351532e-07,3.093100220976397e-07,1.4632809152927289e-05
3.3715063962494786e-07,2.655104658063554e-07,3.031792295672779e-07,1.4756517526687687e-05
3.356631426030621e-07,2.6427639592081945e-07,2.9713564672917626e-07,1.4883913840475986e-05
3.34145529101066e-07,2.630960829415502e-07,2.911937940412769e-07,1.5014476692680747e-05
3.325961824402483e-07,2.6197660324099605e-07,2.853668962800789e-07,1.514771944126291e-05
3.310129300876934e-07,2.609231115521505e-07,2.796658451572807e-07,1.5283145105482503e-05
3.2939433388341625e-07,2.5993949818190807e-07,2.740989732585386e-07,1.5420188107644314e-05
3.277398700857337e-07,2.5902912947735873e-07,2.6867358586055e-07,1.5558212449446398e-05
3.2605013148718173e-07,2.5819461097292534e-07,2.633993142658064e-07,1.569658060506815e-05
3.2432848020339277e-07,2.574376880503853e-07,2.5828977409105487e-07,1.5834703478558166e-05
3.2258228641859103e-07,2.567600635191182e-07,2.533607384735036e-07,1.597202805944469e-05
3.2082161321970945e-07,2.561639666147722e-07,2.4862782281433203e-07,1.610799815028702e-05
3.190569283952081e-07,2.5565146487689965e-07,2.441050887006916e-07,1.624200214126834e-05
3.172974556984221e-07,2.552228566858409e-07,2.3980389438158173e-07,1.6373320267133137e-05
3.155500748961948e-07,2.54875516510982e-07,2.3573244832323327e-07,1.6501113503213146e-05
3.138190858267315e-07,2.546044707464509e-07,2.3189575144954428e-07,1.6624470937441562e-05
3.1210644153333304e-07,2.5440471274155204e-07,2.282954566052769e-07,1.6742500846652668e-05
3.104120312233612e-07,2.5427400611807707e-07,2.2493043752798638e-07,1.6854436814884067e-05
3.087353529345814e-07,2.5421430603669765e-07,2.2179814600121805e-07,1.695969589539313e-05
3.0707808496176727e-07,2.542308387983237e-07,2.1889560972583753e-07,1.7057843738807204e-05
3.0544423393029837e-07,2.543297174555387e-07,2.1621949083120089e-07,1.7148507659584122e-05
3.038374450245681e-07,2.545156366434957e-07,2.1376584412400478e-07,1.7231318087987297e-05
3.022586281078692e-07,2.5479040894395386e-07,2.1153022707656372e-07,1.7305923909705412e-05
3.007056349948469e-07,2.551524586391455e-07,2.0950794635719841e-07,1.7372048630821588e-05
2.99174867380682e-07,2.5559722326453254e-07,2.0769372672464923e-07,1.7429514112015745e-05
2.976643722037641e-07,2.561179432801913e-07,2.060808695343008e-07,1.7478217184593834e-05
2.9617641232286837e-07,2.567066708819592e-07,2.0466129312330522e-07,1.7518083537420258e-05
2.9471676450603855e-07,2.573558195321227e-07,2.034273256422381e-07,1.7549013800135287e-05
2.932918389747637e-07,2.5805942179103924e-07,2.0237347968569678e-07,1.7570853575881542e-05
2.9190744748478806e-07,2.5881299249366777e-07,2.0149576696991185e-07,1.7583401798743048e-05
2.905689561954143e-07,2.596124825504913e-07,2.007894797961189e-07,1.75864305371762e-05
2.892807366597768e-07,2.6045355845549194e-07,2.002482289383462e-07,1.7579701209804972e-05
2.880460139029048e-07,2.6133161362708057e-07,1.9986479843717039e-07,1.7562981664901682e-05
2.8686741027055805e-07,2.6224197317399746e-07,1.996324511576798e-07,1.753606781785925e-05
2.8574678923318057e-07,2.631798468809321e-07,1.9954560893149453e-07,1.749880761752059e-05
2.846848273203494e-07,2.6414023452476283e-07,1.9960027051809055e-07,1.7451118574062566e-05
2.8368113551404036e-07,2.651176592724413e-07,1.99795105368978e-07,1.7392987144652355e-05
2.8273428936261177e-07,2.6610521050930014e-07,2.0013253878500695e-07,1.7324440475088474e-05
2.8184125436358554e-07,2.6709366882645577e-07,2.0061779470875696e-07,1.7245504003649184e-05
2.809968902999794e-07,2.680724517654688e-07,2.0125563086586013e-07,1.7156182621755327e-05
2.8019440195060665e-07,2.690328141093853e-07,2.0204728171170815e-07,1.7056484441313308e-05
2.794270083742468e-07,2.699705141175357e-07,2.0298986604356477e-07,1.6946459528980633e-05
2.786898053430691e-07,2.708852260019861e-07,2.0407808109428015e-07,1.6826222497644157e-05
2.7797960202370844e-07,2.7177894174808196e-07,2.0530624566996038e-07,1.6695961753831734e-05
2.772931124067471e-07,2.726553621459529e-07,2.0666891809588498e-07,1.6555938934026503e-05
2.766266451980326e-07,2.7351877907885363e-07,2.081603588436425e-07,1.6406477813363408e-05
2.7597701057606173e-07,2.743724892452066e-07,2.097738628588756e-07,1.6247966747490816e-05
2.753409640914094e-07,2.752178076578622e-07,2.115012756217048e-07,1.6080895589374093e-05
2.74713808318398e-07,2.760538024192464e-07,2.133338014995684e-07,1.5905933285799264e-05
2.740889874855404e-07,2.768780727303612e-07,2.152645307757289e-07,1.5724051776741925e-05
2.7345863671656096e-07,2.776882991687691e-07,2.1728996755036121e-07,1.5536597969846153e-05
2.728145784034984e-07,2.7848280587352576e-07,2.1940850171613302e-07,1.5345150869869393e-05
2.721493962518045e-07,2.7925942354467405e-07,2.2161765642352448e-07,1.5151238358025101e-05
2.714569440402868e-07,2.800145464666496e-07,2.239124937118856e-07,1.4956165121630735e-05
2.70732276397559e-07,2.8074342975194806e-07,2.262854215595831e-07,1.4761009649736764e-05
2.699716284219396e-07,2.8144052103438874e-07,2.287268745298603e-07,1.4566674588502191e-05
2.6917236823646866e-07,2.8209912821510484e-07,2.3122697705250173e-07,1.4373936891857073e-05
2.6833268970406907e-07,2.8271117150417146e-07,2.3377762443202328e-07,1.4183525363662326e-05
2.674516870523182e-07,2.832675453812362e-07,2.3637288250354295e-07,1.3996244686994827e-05
2.665300075116497e-07,2.8375884749316603e-07,2.390073474746598e-07,1.3813112351756287e-05
2.6556995718706825e-07,2.841768261271239e-07,2.4167510272593164e-07,1.3635423392471288e-05
2.645749051717349e-07,2.8451696829606186e-07,2.443705184061472e-07,1.34646765973333e-05
2.635490752217588e-07,2.8478048524927385e-07,2.470886493484354e-07,1.3302388294173393e-05
2.624970511101992e-07,2.849735222290779e-07,2.498241487263967e-07,1.3149887924468193e-05
2.6142222956532605e-07,2.851045690388589e-07,2.525710215593584e-07,1.300818780747388e-05
2.603259281401378e-07,2.851820497983984e-07,2.5532389512528124e-07,1.2877950988381509e-05
2.592082557697728e-07,2.852130199520877e-07,2.5807915888542107e-07,1.2759521652215255e-05
2.580697367690347e-07,2.8520430270618505e-07,2.6083554674396517e-07,1.2652996744458326e-05
2.569122680815977e-07,2.851649645502076e-07,2.635936783897583e-07,1.2558309649313893e-05
2.557387693794724e-07,2.8510635733736127e-07,2.66354604503974e-07,1.247526489930278e-05
2.5455275141548627e-07,2.8503927928666437e-07,2.691191535989514e-07,1.2403517965397576e-05
2.533586127704534e-07,2.8497135170684864e-07,2.718884437079557e-07,1.234255818845956e-05
2.521609904596381e-07,2.8490709913805397e-07,2.746651587411459e-07,1.2291723495825356e-05
2.509631337475044e-07,2.8485033026444394e-07,2.77455429841352e-07,1.2250230170890587e-05
2.4976693114381124e-07,2.8480542216685865e-07,2.8026902870409717e-07,1.2217227621748647e-05
2.4857461302270907e-07,2.847761877774289e-07,2.831167743102891e-07,1.2191935001013368e-05
2.473893744432273e-07,2.847658186399171e-07,2.8600826013534326e-07,1.2173826741324092e-05
2.4621446535086236e-07,2.8477921696031863e-07,2.8895145154489987e-07,1.2162696148558842e-05
2.45052716101018e-07,2.8482408354133565e-07,2.9195204456004783e-07,1.2158534594184727e-05
2.4390715555365617e-07,2.84909163226794e-07,2.9501230987507377e-07,1.2161408608982844e-05
2.427812397578221e-07,2.85041940649087e-07,2.981310486491721e-07,1.2171503085178169e-05
2.4167809236752896e-07,2.852272710279873e-07,3.0130465422045734e-07,1.2189235684539999e-05
2.406005220611233e-07,2.854668390587925e-07,3.0452898332751514e-07,1.2215273211743875e-05
2.395517846758723e-07,2.8575959956825817e-07,3.078020577307168e-07,1.225046004988372e-05
2.3853527256354904e-07,2.861031786414506e-07,3.111253874049879e-07,1.2295725124426814e-05
2.3755371773400131e-07,2.8649531531793644e-07,3.1450165780917586e-07,1.2351981741821316e-05
2.3660954236577202e-07,2.86934042149993e-07,3.1793152488484075e-07,1.2420027277673253e-05
2.3570667283176087e-07,2.874163152838634e-07,3.214142982817198e-07,1.2500449056324901e-05
2.348516842672081e-07,2.8793701971174485e-07,3.249522727369322e-07,1.2593599153099087e-05
2.3405249921884088e-07,2.8849025997732504e-07,3.285546119185449e-07,1.2699665915350446e-05
2.333175593861413e-07,2.890713803295648e-07,3.3223829079059785e-07,1.281872891731188e-05
2.3265715254093698e-07,2.8967693453687217e-07,3.3602564528270286e-07,1.295073650928622e-05
2.3208348548000268e-07,2.903030545752529e-07,3.3993885162451165e-07,1.3095459407181844e-05
2.316085449472907e-07,2.9094440220701344e-07,3.4399405791600186e-07,1.3252446616551904e-05
2.3124231480206394e-07,2.915943115050921e-07,3.4819882383354694e-07,1.3420994285399326e-05
2.3099200708599572e-07,2.922454263400629e-07,3.525527232136125e-07,1.3600157785006666e-05
2.3086184582904e-07,2.9288992417744516e-07,3.570488741556361e-07,1.3788797998639896e-05
2.3085359315477443e-07,2.9351910042761925e-07,3.616759374592454e-07,1.3985611035902595e-05
2.3096771919438323e-07,2.9412321149905624e-07,3.664200400605172e-07,1.4189129718734768e-05
2.3120456386559262e-07,2.9469197843591325e-07,3.712656076689064e-07,1.4397741465912909e-05
2.315649179809218e-07,2.9521507817200773e-07,3.761961931137299e-07,1.4609778192850437e-05
2.3205076625986162e-07,2.956830279023102e-07,3.811960770901053e-07,1.4823723939291491e-05
2.3266615069058772e-07,2.960892958796926e-07,3.862506494870405e-07,1.5038481732392855e-05
2.334160807480682e-07,2.9643202364345604e-07,3.9134525581003705e-07,1.5253468759579777e-05
2.343041224661307e-07,2.967131467793817e-07,3.9646466369220064e-07,1.546842023279261e-05
2.3533147930824037e-07,2.969360070214355e-07,4.015925064593949e-07,1.568314777133163e-05
2.3649785479585466e-07,2.9710410164840587e-07,4.0670978293666224e-07,1.5897476579310653e-05
2.378023814971498e-07,2.972211120808081e-07,4.1179516422364725e-07,1.6111256070540452e-05
2.392431909826393e-07,2.9729136733865554e-07,4.1682746563616407e-07,1.632434393734323e-05
2.408162017351932e-07,2.973208331561005e-07,4.217862903094421e-07,1.6536613117495358e-05
2.42514621345197e-07,2.973176895885116e-07,4.266501627694178e-07,1.6747990995745582e-05
2.4432916319180325e-07,2.972912883249251e-07,4.313956869413912e-07,1.6958467201498506e-05
2.4624851267023576e-07,2.972506766727696e-07,4.359989837583088e-07,1.7168022071345618e-05
2.482605393190986e-07,2.972043082407561e-07,4.404376000832017e-07,1.737654090500265e-05
2.5035458287496885e-07,2.971600340831441e-07,4.446914002964386e-07,1.758378974032625e-05
2.525232218002783e-07,2.9712455630746514e-07,4.487431911875774e-07,1.7789397863489803e-05
2.5476149349569824e-07,2.9710335981152066e-07,4.52580971787101e-07,1.7992810091613253e-05
2.5706459756082157e-07,2.971011874842593e-07,4.5620064636160174e-07,1.819327652047672e-05
2.5942642198567464e-07,2.971226836334587e-07,4.5960534821671e-07,1.8389913688207958e-05
2.618388641765942e-07,2.971734829643775e-07,4.628009537957491e-07,1.858177902637652e-05
2.642914265710452e-07,2.972609013136681e-07,4.657920248325938e-07,1.8767915264485992e-05
2.6677150307954026e-07,2.973937256279294e-07,4.6858147870535964e-07,1.894739792970937e-05
2.6926575751756565e-07,2.975823194311994e-07,4.711732640616782e-07,1.9119392312434408e-05
2.717623428773479e-07,2.978389541608325e-07,4.7357464261167725e-07,1.9283168851739565e-05
2.742517500469131e-07,2.981762187136848e-07,4.757949895864952e-07,1.943806019556613e-05
2.767256139195616e-07,2.9860355619783177e-07,4.778419894318764e-07,1.9583386438231585e-05
2.791770028733993e-07,2.991251320789662e-07,4.797189715791954e-07,1.9718407565548317e-05
2.816034299266426e-07,2.9974030793093014e-07,4.8142509729884e-07,1.9842396763147186e-05
2.840083862333844e-07,3.004450053078428e-07,4.829569804800111e-07,1.9954840053482965e-05
2.863982985854998e-07,3.012329415084612e-07,4.843099728469578e-07,2.005559474191876e-05
2.887779227095292e-07,3.020962949603394e-07,4.854785186962393e-07,2.0144859197222205e-05
2.9114886555730164e-07,3.030256161566428e-07,4.864561329869915e-07,2.022300106263721e-05
2.9351117048786265e-07,3.04010232825104e-07,4.872361622629479e-07,2.0290371022057614e-05
2.958648858071397e-07,3.050391985956305e-07,4.878131465802854e-07,2.034723019396376e-05
2.982102449717132e-07,3.0610130178781447e-07,4.881837809356762e-07,2.0393925323972816e-05
3.005468588725657e-07,3.0718442847258805e-07,4.883471244489158e-07,2.043125718876216e-05
3.028724760624234e-07,3.082752788557155e-07,4.883034036705247e-07,2.0460718270572103e-05
3.051823180119097e-07,3.0935954615344373e-07,4.880518746621818e-07,2.0484363273060747e-05
3.074699508646759e-07,3.104235563922925e-07,4.875896879042353e-07,2.050443997925448e-05
3.0972854805764825e-07,3.114570193480949e-07,4.86911951639073e-07,2.052304994485479e-05
3.119511915428563e-07,3.124532619300561e-07,4.8601193493385e-07,2.0541953927668446e-05
3.141308023533929e-07,3.134068180814968e-07,4.848816329281597e-07,2.056248765741475e-05
3.1626004125105145e-07,3.143123966026509e-07,4.835136533550921e-07,2.0585537594946407e-05
3.183312988915986e-07,3.151653403026556e-07,4.819039976951378e-07,2.0611558879239487e-05
3.203373998809765e-07,3.159615304815348e-07,4.800530573719828e-07,2.064063113009612e-05
3.2227238750370505e-07,3.166970462327141e-07,4.779635001527e-07,2.0672542088798964e-05
3.241312360719864e-07,3.173678149268661e-07,4.7563796518333215e-07,2.070686220034097e-05
3.259093251393911e-07,3.179689023007318e-07,4.7307902702661707e-07,2.074298140574759e-05
3.27602657956812e-07,3.184940509829399e-07,4.702901576126929e-07,2.078014593597697e-05
3.292072976438298e-07,3.18936321887682e-07,4.6727592374156535e-07,2.0817526200241197e-05
3.30717546517427e-07,3.192895769573599e-07,4.640418253587683e-07,2.0854269444916744e-05
3.3212507604475296e-07,3.19549866327221e-07,4.6059477250352257e-07,2.0889494445824327e-05
3.334196922612065e-07,3.197156494130942e-07,4.569430796573142e-07,2.0922253305952854e-05
3.345906121042353e-07,3.197866560753202e-07,4.5309503445711577e-07,2.095150702893284e-05
3.3562828796297066e-07,3.197633749721799e-07,4.4905816172883815e-07,2.097614337748825e-05
3.365270392897928e-07,3.1964854222077706e-07,4.4484117959663274e-07,2.099505437070657e-05
3.372871607912245e-07,3.1944884612136327e-07,4.404566219972029e-07,2.100725128481085e-05
3.3791507394089327e-07,3.1917424593348014e-07,4.3592054929485093e-07,2.101194911672845e-05
3.384209788579712e-07,3.1883527839915447e-07,4.312500731542172e-07,2.1008581704470247e-05
3.388152260755268e-07,3.184410502445629e-07,4.264617898655621e-07,2.099676287588215e-05
3.391062565442745e-07,3.179990240128273e-07,4.215713974197268e-07,2.097621928441148e-05
3.393004195673574e-07,3.175157367114742e-07,4.165939437491651e-07,2.0946730078889453e-05
3.394018463021931e-07,3.169973613520249e-07,4.115444228816032e-07,2.090813773261357e-05
3.394122807894033e-07,3.164504188227216e-07,4.064378385290879e-07,2.0860457110130333e-05
3.393315233073552e-07,3.1588312540859514e-07,4.0128884218701174e-07,2.0803994205837188e-05
3.3915895548061364e-07,3.153052384254943e-07,3.9611107352449995e-07,2.0739341320444224e-05
3.388956376685521e-07,3.147254023125293e-07,3.909161066943354e-07,2.0667223458752936e-05
3.385446721706026e-07,3.141489467103917e-07,3.857129730159279e-07,2.058832900598176e-05
3.3810974609917457e-07,3.1357811636380767e-07,3.8050858938982783e-07,2.050328252258424e-05
3.375942742750821e-07,3.130130828309329e-07,3.753085934598361e-07,2.04127633548202e-05
3.37001394174447e-07,3.1245194169171984e-07,3.701187259253919e-07,2.03176494814707e-05
3.3633374777471087e-07,3.118905164421531e-07,3.6494653280873146e-07,2.021907011615417e-05
3.355933579607614e-07,3.11323074479725e-07,3.598020000600325e-07,2.0118289975412188e-05
3.3478296552330605e-07,3.107432158434321e-07,3.5469615597710655e-07,2.0016479594213558e-05
3.339083781059075e-07,3.1014479799026853e-07,3.496395250194994e-07,1.991455091336417e-05
3.329782808352107e-07,3.095238732836255e-07,3.44643435594215e-07,1.9813127001384305e-05
3.32000868048292e-07,3.088804969064673e-07,3.397227874128857e-07,1.971257107963428e-05
3.309813203367007e-07,3.082187012676644e-07,3.348972601620378e-07,1.9613028979417e-05
3.299219367456193e-07,3.075453113910945e-07,3.301913114259875e-07,1.951447103348794e-05
3.288233992960144e-07,3.068685913828753e-07,3.2563255145541396e-07,1.9416730361897143e-05
3.276857107905593e-07,3.061979849021812e-07,3.212483528528635e-07,1.9319605931901773e-05
3.2650806989897376e-07,3.055457607375835e-07,3.170642382666224e-07,1.9223024618564734e-05
3.252881603675827e-07,3.0492815953282053e-07,3.1310436454405214e-07,1.912709595417332e-05
3.2402217987077753e-07,3.0436404816861427e-07,3.093902976182287e-07,1.9032010917060997e-05
3.2270620702821304e-07,3.038722148678653e-07,3.0593874128352753e-07,1.8937930939470292e-05
3.213387358746775e-07,3.0346862281911123e-07,3.02761848435237e-07,1.884494960827821e-05
3.1992370473571605e-07,3.031643008137184e-07,2.9986926527070927e-07,1.8753138532178338e-05
3.184723061997882e-07,3.029650077393034e-07,2.9726958879996e-07,1.8662734820705665e-05
3.1700214349055965e-07,3.028733991346471e-07,2.9497119389198e-07,1.8574393887652802e-05
3.1553431770166156e-07,3.0289204303900405e-07,2.92981664636227e-07,1.8489278809918727e-05
3.1409013807875553e-07,3.030239557431862e-07,2.9130645607845377e-07,1.8408936087998345e-05
3.126891740677853e-07,3.032704779183683e-07,2.899513057618409e-07,1.8335089082775688e-05
3.113497830639505e-07,3.036301461281316e-07,2.889297600308029e-07,1.826942520368021e-05
3.100915518362297e-07,3.0409969507698405e-07,2.8826979837629273e-07,1.8213406361203896e-05
3.089373522582513e-07,3.046744755065907e-07,2.880139833133987e-07,1.8168135189459765e-05
3.079130404574462e-07,3.053473575002832e-07,2.8821417118589303e-07,1.813429702730049e-05
3.0704552790914324e-07,3.0610788144610263e-07,2.8892384686356803e-07,1.811218111081896e-05
3.063614892330722e-07,3.0694254720407e-07,2.9018969736617287e-07,1.8101749463989206e-05
3.058871103807916e-07,3.078359845778894e-07,2.920455736455941e-07,1.810271835617236e-05
3.056473002398044e-07,3.087724221013576e-07,2.945118710217792e-07,1.811464462661644e-05
3.056641099363877e-07,3.097367276924625e-07,2.975985935475359e-07,1.81370027670892e-05
3.0595561737449487e-07,3.107149142444303e-07,3.01309246239476e-07,1.816923626725327e-05
3.065350578889401e-07,3.1169434951585694e-07,3.056445227609551e-07,1.821079163068023e-05
3.0740962591269784e-07,3.126639467532237e-07,3.1060341042397707e-07,1.8261143956344912e-05
3.085800326601028e-07,3.136143838131656e-07,3.1618050832108267e-07,1.8319805735295004e-05
3.1004147828454426e-07,3.145377453676547e-07,3.223624039100253e-07,1.8386312263845613e-05
3.117854547994493e-07,3.1542660889442226e-07,3.291257905898008e-07,1.846018574121613e-05
3.138017999930581e-07,3.1627355116869373e-07,3.3643753948175765e-07,1.8540884154222325e-05
3.1608042515680874e-07,3.170714080826589e-07,3.442558371787106e-07,1.862774909750337e-05
3.1861272402866825e-07,3.178135370626841e-07,3.525321922127752e-07,1.8719963725847963e-05
3.2139274162386786e-07,3.184933109068646e-07,3.6121507817539526e-07,1.8816523378391652e-05
3.2441690954466426e-07,3.191032713098944e-07,3.702542372168425e-07,1.891623193934861e-05
3.2768242795142065e-07,3.1963488158276675e-07,3.7960296487923284e-07,1.901775047667133e-05
3.311861190291574e-07,3.200788287268482e-07,3.8921724902271924e-07,1.911971479738485e-05
3.349238092165487e-07,3.2042521655340837e-07,3.9905299544334327e-07,1.922088520591824e-05
3.3888991677406106e-07,3.206639011409109e-07,4.090641479149321e-07,1.9320237884558248e-05
3.4307773892197707e-07,3.2078587209950923e-07,4.1920346420810203e-07,1.9416956541119487e-05
3.4747909400041307e-07,3.207845533651441e-07,4.294243422975064e-07,1.951037629405289e-05
3.520828481808072e-07,3.2065507993042996e-07,4.396813543468086e-07,1.959993435793797e-05
3.568738577025377e-07,3.203931915462002e-07,4.49929299972909e-07,1.96851378358309e-05
3.618323369338472e-07,3.199965252097346e-07,4.601226597253149e-07,1.976552503493365e-05
3.66933561118845e-07,3.1946669859911146e-07,4.7021709574380074e-07,1.9840597949606567e-05
3.7214899885604297e-07,3.1880877878276506e-07,4.80171718729781e-07,1.990977271318483e-05
3.7744930062560904e-07,3.180289547007409e-07,4.899496480478703e-07,1.9972406343502413e-05
3.828070815916204e-07,3.1713344305093604e-07,4.995168923550953e-07,2.002786077308765e-05
3.8819643481145103e-07,3.1612870532485087e-07,5.088411165601179e-07,2.007555174270624e-05
3.935904071246015e-07,3.150213440333022e-07,5.178907457314668e-07,2.011501491540264e-05
3.989604650461093e-07,3.1381728200742565e-07,5.266348874040624e-07,2.014599993945757e-05
4.0427811264476254e-07,3.1252089548261673e-07,5.350445469073994e-07,2.016852099691348e-05
4.095158182437663e-07,3.1113500054978144e-07,5.43093815216435e-07,2.0182811002341297e-05
4.146468686670378e-07,3.096621311345778e-07,5.507596638572701e-07,2.018918845528513e-05
4.19646441773077e-07,3.0810585114273385e-07,5.58020275867513e-07,2.018790498486478e-05
4.244945791972516e-07,3.0647021981396406e-07,5.648530538408973e-07,2.01790711386475e-05
4.291783490211415e-07,3.047582033649507e-07,5.712339321176732e-07,2.0162684037597765e-05
4.336903154403777e-07,3.0297141100599043e-07,5.7713824655657e-07,2.013869218342832e-05
4.3802471252629576e-07,3.0111129682651645e-07,5.82542593952803e-07,2.0107048207355607e-05
4.4217511916417037e-07,2.9918004773429426e-07,5.874269872440609e-07,2.006778798698596e-05
4.461340467693698e-07,2.9718045351022376e-07,5.91776005268375e-07,2.002116430073657e-05
4.4989261892726135e-07,2.9511601048985317e-07,5.955782594381161e-07,1.9967718169746854e-05
4.53440109118212e-07,2.9299242648034385e-07,5.988251138815757e-07,1.9908181740348848e-05
4.5676403917165526e-07,2.908195525141359e-07,6.015101142900938e-07,1.984330152691012e-05
4.5985107934398815e-07,2.886115511432873e-07,6.036294598804335e-07,1.9773719352742014e-05
4.6268801901826667e-07,2.863851864490681e-07,6.051828827496952e-07,1.9699975821405413e-05
4.6526222333329364e-07,2.841579859508749e-07,6.061744923092181e-07,1.9622672445219204e-05
4.675623085247938e-07,2.819470849927231e-07,6.06612543975074e-07,1.95427007633102e-05
4.695790052391099e-07,2.7976868809759913e-07,6.065071327239217e-07,1.9461330593116805e-05
4.713047714767382e-07,2.7763752468388176e-07,6.05867522006369e-07,1.9380103732394586e-05
4.727321142822402e-07,2.7556628268327123e-07,6.047016366290774e-07,1.9300646941140986e-05
4.738525724665083e-07,2.7356637740888077e-07,6.030176818788879e-07,1.9224496429679493e-05
4.746576342120245e-07,2.716493047568481e-07,6.008257886857696e-07,1.91529737030684e-05
4.751402883460278e-07,2.698260327122296e-07,5.98137883485774e-07,1.908711880810288e-05
4.752955803309805e-07,2.6810521156859784e-07,5.94966325478872e-07,1.9027673540794088e-05
4.7512066283146496e-07,2.664931075006331e-07,5.913234266025231e-07,1.8975116045563987e-05
4.7461553053210756e-07,2.649949196727904e-07,5.872223875952134e-07,1.892972188086388e-05
4.737848049081015e-07,2.6361503756762163e-07,5.826780333859192e-07,1.889158884137566e-05
4.726394026298993e-07,2.623561411515859e-07,5.777065456116628e-07,1.8860603712230952e-05
4.7119653811117104e-07,2.612186897388139e-07,5.723250539490555e-07,1.883642028576969e-05
4.6947805580804654e-07,2.6020101143413443e-07,5.665516888798057e-07,1.8818503954269376e-05
4.6750788838676366e-07,2.5929960958320586e-07,5.604062732814053e-07,1.880619922859112e-05
4.653098520133414e-07,2.585106663364261e-07,5.539110061492089e-07,1.8798781858462053e-05
4.6290666537076494e-07,2.5783331359740665e-07,5.470897212715113e-07,1.879552893397165e-05
4.603195676054406e-07,2.5727220374281695e-07,5.399664818987956e-07,1.879580763215106e-05
4.575679417769028e-07,2.568362315881473e-07,5.325658498098094e-07,1.8799128769937348e-05
4.5466908187623217e-07,2.5653440418564365e-07,5.249148521887047e-07,1.8805156912392324e-05
4.516381554497367e-07,2.5637313908316213e-07,5.170442792647022e-07,1.8813697793049336e-05
4.48488765548077e-07,2.5635661469109805e-07,5.089875651488284e-07,1.8824654782452266e-05
4.452346388572176e-07,2.564878109164995e-07,5.007781609194407e-07,1.8837965384964893e-05
4.418923481408696e-07,2.567684205647906e-07,4.924475748955743e-07,1.8853554226893607e-05
4.3848395469952003e-07,2.571982288531753e-07,4.840244895667393e-07,1.887129474257944e-05
4.3503768646832534e-07,2.577749678922943e-07,4.7553430043173847e-07,1.889095468105433e-05
4.3158629755140646e-07,2.5849476962126105e-07,4.669992985971243e-07,1.8912168356350187e-05
4.2816432010067573e-07,2.593522783650213e-07,4.5843908131054575e-07,1.8934476644702066e-05
4.248046462040357e-07,2.603402661969563e-07,4.498702816918748e-07,1.8957380897447103e-05
4.2153520751062924e-07,2.61450554930765e-07,4.413064778267247e-07,1.898036233570765e-05
4.1837747787120756e-07,2.626763172861777e-07,4.3275983121056957e-07,1.900289831378233e-05
4.1534700777408993e-07,2.6401339104032524e-07,4.242440966302886e-07,1.902450134795973e-05
4.124550885027103e-07,2.654601136368032e-07,4.1577635010370227e-07,1.9044741258569448e-05
4.097104553919593e-07,2.670164251858295e-07,4.073760048666711e-07,1.906320813856112e-05
4.071193484215121e-07,2.6868208588900924e-07,3.9906322428836773e-07,1.9079457151802814e-05
4.0468435029028e-07,2.704548118638507e-07,3.9085817771492423e-07,1.9093000574719093e-05
4.0240439684491564e-07,2.7232950739923703e-07,3.827801977162281e-07,1.910332990423443e-05
4.0027586316194366e-07,2.742986994219135e-07,3.748468334471462e-07,1.9109920786159535e-05
3.982931982145821e-07,2.7635398326770805e-07,3.670736997681836e-07,1.9112216454567614e-05
3.964505804504246e-07,2.784870346357008e-07,3.594752178925253e-07,1.9109607468636604e-05
3.94745656703829e-07,2.806885234649352e-07,3.5206527551939776e-07,1.9101435539112272e-05
3.931811074193468e-07,2.829462410422851e-07,3.4485700663124963e-07,1.908703711662838e-05
3.917612750591041e-07,2.8524471172050065e-07,3.378625812604473e-07,1.906581403326103e-05
3.904876565056482e-07,2.875662473949582e-07,3.310934693920981e-07,1.9037304592337186e-05
3.8935674377306344e-07,2.898923209982098e-07,3.2456013352658444e-07,1.900121183804469e-05
3.8835996442354797e-07,2.922045468936389e-07,3.182713057543352e-07,1.895737092834968e-05
3.874848312469413e-07,2.9448476666136656e-07,3.12234165612038e-07,1.8905685634757082e-05
3.8671734619802023e-07,2.9671448104474353e-07,3.064555242605525e-07,1.8846085038244986e-05
3.860448677565841e-07,2.988746182631545e-07,3.009423209140788e-07,1.877859444040385e-05
3.854570002193216e-07,3.009458747419731e-07,2.957006903841457e-07,1.870352204808632e-05
3.849443724611234e-07,3.029089584760413e-07,2.907358802181701e-07,1.8621543871557027e-05
3.844971104830486e-07,3.0474487261338574e-07,2.860537877252181e-07,1.8533571304755965e-05
3.841034901683992e-07,3.064360533771418e-07,2.8166139839066005e-07,1.8440565288711368e-05
3.837495315082045e-07,3.079675146873393e-07,2.7756548606465244e-07,1.8343417946635017e-05
3.8341961126081256e-07,3.0932698188312003e-07,2.7377170493502965e-07,1.8242879914133214e-05
3.830967247342785e-07,3.105053110468852e-07,2.702845272426513e-07,1.813952104779859e-05
3.8276228399237707e-07,3.114977005232268e-07,2.6710672221305307e-07,1.8033719070074827e-05
3.823961057241003e-07,3.123047131218505e-07,2.642384094969925e-07,1.7925664296305232e-05
3.819768134613382e-07,3.129324241009549e-07,2.616779713550643e-07,1.7815378650101997e-05
3.8148275926717357e-07,3.133903697420924e-07,2.594260368159204e-07,1.7702740648073468e-05
3.808935175113533e-07,3.1368814682506927e-07,2.574894522797052e-07,1.758751206174687e-05
3.80191603130516e-07,3.13834086101883e-07,2.558807853887389e-07,1.7469368563736654e-05
3.793638029829349e-07,3.138361625912101e-07,2.546134865702103e-07,1.7347932043583326e-05
3.7840202484007657e-07,3.1370246490128123e-07,2.5369714507651155e-07,1.7222802748872782e-05
3.773034892472221e-07,3.1344028908310327e-07,2.5313563228627065e-07,1.709359320801414e-05
3.7606969077641866e-07,3.1305543919194285e-07,2.529273736855184e-07,1.6959968779672015e-05
3.747046525762934e-07,3.125538069296287e-07,2.530659578245894e-07,1.6821679101955307e-05
3.73213988545346e-07,3.119438438233227e-07,2.535402218029281e-07,1.6678543907528132e-05
3.716050622687304e-07,3.112366770393505e-07,2.5433525043121803e-07,1.6530400069134084e-05
3.698870049991553e-07,3.104449772508476e-07,2.554361294308781e-07,1.6377060891596625e-05
3.68069666193644e-07,3.095826347421915e-07,2.568318044109262e-07,1.6218312707690593e-05
3.6616188573429313e-07,3.08663722515484e-07,2.5851426579379054e-07,1.6053938182878028e-05
3.6417050617006616e-07,3.077005431150185e-07,2.60474390442668e-07,1.5883747499794325e-05
3.6210091654457213e-07,3.067031164104391e-07,2.626996122712059e-07,1.5707605507282806e-05
3.5995785345242756e-07,3.056805553839165e-07,2.6517504341033925e-07,1.5525461247338742e-05
3.577453228867604e-07,3.04642215906497e-07,2.6788841842382265e-07,1.5337392280451855e-05
3.5546639929356977e-07,3.035971673111989e-07,2.7083837037147194e-07,1.514365067874105e-05
3.531232657114496e-07,3.025533101901504e-07,2.74039799449934e-07,1.4944673653349628e-05
3.5071716364274897e-07,3.015178141029269e-07,2.775204103820963e-07,1.4741044329891715e-05
3.482493506949521e-07,3.004976765756343e-07,2.813119415915239e-07,1.4533426144326547e-05
3.4572409888477604e-07,2.994988390469379e-07,2.8544321805782087e-07,1.4322495044833408e-05
3.431515192943493e-07,2.985255058728519e-07,2.899363113267942e-07,1.410889751107378e-05
3.4054695398286297e-07,2.9758154178214607e-07,2.948039445741699e-07,1.3893273830123313e-05
3.3792741699999927e-07,2.966723059448856e-07,3.000485296530948e-07,1.3676308262976664e-05
3.353083922150578e-07,2.9580426373045156e-07,3.056639179546145e-07,1.3458708944351821e-05
3.3270261948457016e-07,2.949832674010952e-07,3.1163837106495946e-07,1.3241131931990703e-05
3.301199999822948e-07,2.94214514722662e-07,3.1795579671919897e-07,1.3024138734727905e-05
3.2756758745999797e-07,2.93503700167618e-07,3.2459526841944497e-07,1.2808216934480401e-05
3.250493728059999e-07,2.928568408625152e-07,3.315319830325144e-07,1.2593855480848632e-05
3.225661039115973e-07,2.92279163373734e-07,3.3874087926256554e-07,1.2381616190164223e-05
3.201158359520018e-07,2.917744647117379e-07,3.4620007299393484e-07,1.217210860218556e-05
3.176958476724988e-07,2.913444827769063e-07,3.5389172614473026e-07,1.1965883897573376e-05
3.153056424132834e-07,2.909878653570702e-07,3.618019313749115e-07,1.1763356207229505e-05
3.1294984724047e-07,2.9069990728818677e-07,3.6992023186843293e-07,1.1564794363308122e-05
3.1063918732993426e-07,2.9047345638055213e-07,3.782365887767308e-07,1.1370347749244534e-05
3.083879400776184e-07,2.902998560596019e-07,3.8673735644722326e-07,1.1180070912219864e-05
3.0620962895110673e-07,2.901695895068892e-07,3.954038734178803e-07,1.0993938084321561e-05
3.041148784347342e-07,2.900729974520084e-07,4.042130897605821e-07,1.0811857392407028e-05
3.0211230815289967e-07,2.900005898621097e-07,4.13138745177344e-07,1.0633697615703951e-05
3.0021001435189254e-07,2.899425118925128e-07,4.221527605222276e-07,1.0459323725539579e-05
2.984153624038651e-07,2.8988817845515127e-07,4.3122558172928297e-07,1.0288619287665793e-05
2.967339865905581e-07,2.898269195994021e-07,4.403255863654194e-07,1.0121486122357145e-05
2.951702476690416e-07,2.8974848893446e-07,4.494192857871216e-07,9.957834547727145e-06
2.9372862890806466e-07,2.896427656034092e-07,4.584729163094796e-07,9.797583993728978e-06
2.924142189811831e-07,2.895002380092509e-07,4.6745479132043885e-07,9.640722717422721e-06
2.9123200138872126e-07,2.89313943869795e-07,4.763374499396306e-07,9.487445858717567e-06
2.901859646458775e-07,2.8908069610251484e-07,4.85098801668738e-07,9.33824077758996e-06
2.892790667452313e-07,2.887996345192001e-07,4.937210113168461e-07,9.193792133594e-06
2.885143233395604e-07,2.88469551815658e-07,5.021869294737946e-07,9.054800141222464e-06
2.878962011302693e-07,2.8808775833086446e-07,5.104771602389685e-07,8.921859285818266e-06
2.8743054012762587e-07,2.876508739394064e-07,5.185699361711372e-07,8.795409646029225e-06
2.871226507681315e-07,2.871566994857695e-07,5.264417935574197e-07,8.675729507860979e-06
2.8697545851342466e-07,2.866059123710716e-07,5.340670995090397e-07,8.562958332221415e-06
2.869886892186193e-07,2.860015985257846e-07,5.414174322407287e-07,8.457140022761066e-06
2.871587428495248e-07,2.853476613129225e-07,5.484623063230631e-07,8.358292421358904e-06
2.874789352118163e-07,2.846493110233888e-07,5.551712038284739e-07,8.266494617063915e-06
2.879403402915772e-07,2.839150269623472e-07,5.615156285786551e-07,8.181928237186603e-06
2.8853366279602806e-07,2.8315691895835943e-07,5.674702660056737e-07,8.10483361467108e-06
2.892502676899412e-07,2.823887011144329e-07,5.73013891645456e-07,8.035447906596687e-06
2.9008077843463085e-07,2.8162289251414753e-07,5.781300315990381e-07,7.973998177463961e-06
2.910138219329856e-07,2.8086931985402644e-07,5.828056703004554e-07,7.920713295243423e-06
2.920366523991547e-07,2.8013567141237665e-07,5.870282829383923e-07,7.87579387750424e-06
2.931357407807829e-07,2.7942879529128646e-07,5.907839066060435e-07,7.839356473675975e-06
2.9429649659924286e-07,2.7875519918143805e-07,5.940574360673693e-07,7.811400687213664e-06
2.955033168049048e-07,2.781207917761755e-07,5.968345232138869e-07,7.791812879046776e-06
2.9674018645374145e-07,2.775303751168127e-07,5.991036826847544e-07,7.78037540878712e-06
2.9799155203241675e-07,2.7698680713719176e-07,6.00856701816324e-07,7.776761459923018e-06
2.9924336931002567e-07,2.7649064581719306e-07,6.020876849307771e-07,7.780534253913353e-06
3.004832380067749e-07,2.7604206935007556e-07,6.027930361326411e-07,7.791157650679663e-06
3.0169931319571014e-07,2.756438446612988e-07,6.029720310016953e-07,7.808020267294455e-06
3.028796503730865e-07,2.753011799428857e-07,6.026260168504254e-07,7.830517735889963e-06
3.040130590148968e-07,2.75018406924475e-07,6.017573645532375e-07,7.858216134257569e-06
3.050902073203825e-07,2.747966105962429e-07,6.003697963353134e-07,7.890983466225187e-06
3.061032105953748e-07,2.746335904517171e-07,5.984695783918283e-07,7.92893969890889e-06
3.070444742751574e-07,2.7452477148965047e-07,5.960669315295668e-07,7.972308291407166e-06
3.0790669216952536e-07,2.7446453436757145e-07,5.931761569585712e-07,8.021414374745822e-06
3.086834453386741e-07,2.744481195018983e-07,5.89813496510184e-07,8.076821582145442e-06
3.093690428442641e-07,2.744730453771197e-07,5.859950400944647e-07,8.139377715967239e-06
3.099583137466362e-07,2.7453863810121324e-07,5.817362706883302e-07,8.210143556380936e-06
3.104470141528397e-07,2.7464499613175867e-07,5.770519953189806e-07,8.290321025029381e-06
3.10831883614065e-07,2.747931368307685e-07,5.71956272281075e-07,8.381177291284386e-06
3.1111054881139077e-07,2.749848864204867e-07,5.664629360525235e-07,8.483932126207504e-06
3.112824278954299e-07,2.7522125528033985e-07,5.605866104205384e-07,8.599617997991638e-06
3.1134925079217425e-07,2.755009943229798e-07,5.543434078464369e-07,8.728946195272329e-06
3.1131366634037533e-07,2.7582065244528477e-07,5.477506621081654e-07,8.872249152929934e-06
3.1117757969976623e-07,2.761749204345185e-07,5.408266231621779e-07,9.029524175287095e-06
3.109417078439382e-07,2.765562266399527e-07,5.335905970122375e-07,9.200530851787118e-06
3.10606027631093e-07,2.769544227294851e-07,5.260629574610703e-07,9.38491041485654e-06
3.101706878021924e-07,2.77357912461448e-07,5.182659056446174e-07,9.582306255806884e-06
3.096366487339777e-07,2.777561055445898e-07,5.102243794858511e-07,9.792430779921947e-06
3.090060860586926e-07,2.7814065138941266e-07,5.019646822072297e-07,1.0015032815317156e-05
3.082836174672545e-07,2.7850458709600904e-07,4.935123462282229e-07,1.0249774669131544e-05
3.0747725156675327e-07,2.7884291125235864e-07,4.848925255937042e-07,1.0496098544257916e-05
3.065969198184541e-07,2.791563561439406e-07,4.761315119045664e-07,1.0753173593678667e-05
3.05651803776003e-07,2.7945443478700565e-07,4.6725645690644826e-07,1.1019918138107553e-05
3.0464925476738894e-07,2.7975351951585906e-07,4.5829435240508135e-07,1.1295048693582816e-05
3.035951498058193e-07,2.800713233558697e-07,4.492716434042205e-07,1.1577198121179775e-05
3.0249415689879205e-07,2.804226861775585e-07,4.402135991655105e-07,1.1865160787509254e-05
3.013503305536622e-07,2.808190146467792e-07,4.3114363259866973e-07,1.2158136395403575e-05
3.001681866282506e-07,2.81269477064888e-07,4.2208317272757737e-07,1.2455745878306815e-05
2.989524874466661e-07,2.817811679840435e-07,4.1305150919105223e-07,1.2757827279384645e-05
2.977065368533785e-07,2.823581905126125e-07,4.040658242868621e-07,1.306422147241472e-05
2.964312201512519e-07,2.8300130000990805e-07,3.9514206806060596e-07,1.337465173214384e-05
2.951258277694003e-07,2.837083524007977e-07,3.8629562849852366e-07,1.3688726785171945e-05
2.9378918126830804e-07,2.844749419196215e-07,3.7754125818494063e-07,1.4006132945224044e-05
2.9241948550609044e-07,2.852954713386941e-07,3.6889376998614003e-07,1.4326902570681872e-05
2.91013581691099e-07,2.861648858082713e-07,3.6036968894475326e-07,1.465149138890046e-05
2.8956742465587184e-07,2.8708000535961696e-07,3.519882269561329e-07,1.4980607782032062e-05
2.88077589850386e-07,2.8803873132811296e-07,3.437706602061537e-07,1.5314927249575946e-05
2.8654186559824647e-07,2.89037355170332e-07,3.3573842973411057e-07,1.5654827732069724e-05
2.8495846691007033e-07,2.900687478709545e-07,3.2791123363107e-07,1.6000280076134688e-05
2.8332521755354016e-07,2.911230752460897e-07,3.2030658499097326e-07,1.6350901405803808e-05
2.8163961191807513e-07,2.92190153373455e-07,3.1294052455913613e-07,1.6706053537024578e-05
2.798997599567292e-07,2.932618643002957e-07,3.058275924860937e-07,1.706493275076068e-05
2.781065809952369e-07,2.9433333830232147e-07,2.9897996845882227e-07,1.742664774007535e-05
2.7626648958551533e-07,2.954027862799436e-07,2.924074251929573e-07,1.7790256414433225e-05
2.743912042200448e-07,2.964706632279339e-07,2.861180727319472e-07,1.8154741189920826e-05
2.724939116627721e-07,2.9753848112332805e-07,2.8011831171466945e-07,1.851895423102662e-05
2.7058560621033256e-07,2.986076512947188e-07,2.744119128795479e-07,1.8881599083011773e-05
2.6867423769389897e-07,2.9967896534193036e-07,2.689998312937411e-07,1.924126401623256e-05
2.667665277901693e-07,3.0075266987977536e-07,2.638811314585366e-07,1.959644734946712e-05
2.648709065623045e-07,3.0182810645562464e-07,2.590539789324836e-07,1.9945549942271724e-05
2.629991285376641e-07,3.0290277613029125e-07,2.5451637603157825e-07,2.0286890829076448e-05
2.611656652116468e-07,3.039726354408756e-07,2.5026712626751316e-07,2.0618792376885932e-05
2.593859571335238e-07,3.0503379032848584e-07,2.4630666445446373e-07,2.09397160916988e-05
2.576744469433114e-07,3.0608319887967554e-07,2.426368962794077e-07,2.124838662160341e-05
2.560430724223057e-07,3.071184796599966e-07,2.392607072779185e-07,2.154384057416726e-05
2.5450116663921035e-07,3.081390808722129e-07,2.3618174370459185e-07,2.1825375352402004e-05
2.5305634348785857e-07,3.0914797810748426e-07,2.3340370256507807e-07,2.2092418263751712e-05
2.5171478250385353e-07,3.1015170116311195e-07,2.3092917554474112e-07,2.2344377546404755e-05
2.5048070969306087e-07,3.111590331380205e-07,2.2875875367124811e-07,2.258055837583137e-05
2.493557639585835e-07,3.121792309690369e-07,2.268904683977072e-07,2.2800181982152108e-05
2.483385096762908e-07,3.1321979712132466e-07,2.253199829849921e-07,2.3002462666391545e-05
2.47424661623538e-07,3.142847199914102e-07,2.240420596469911e-07,2.3186669065628785e-05
2.466081521431161e-07,3.153739107124689e-07,2.2305190130533104e-07,2.335214062909518e-05
2.4588192171354183e-07,3.1648355476174336e-07,2.2234433147395462e-07,2.349826873965441e-05
2.4523793922866325e-07,3.1760783137684524e-07,2.2191157518446427e-07,2.362448577858209e-05
2.446673916909267e-07,3.187413954592957e-07,2.2174232091518532e-07,2.373033296566809e-05
2.441615180167118e-07,3.198807899518545e-07,2.2182287800416078e-07,2.381558995271616e-05
2.437123667033234e-07,3.2102545540433397e-07,2.221384730210967e-07,2.388035143031448e-05
2.4331331689789525e-07,3.2217856928494055e-07,2.2267318293811088e-07,2.392499962474669e-05
2.4296029082698843e-07,3.233458913470327e-07,2.2340977191465765e-07,2.3950118886908513e-05
2.426528472449044e-07,3.2453349574259594e-07,2.243303743064561e-07,2.395641618599841e-05
2.423928901140638e-07,3.2574624269842985e-07,2.254169678518343e-07,2.394469159348511e-05
2.421818894503101e-07,3.269866180844001e-07,2.2665202571981481e-07,2.3915876828520653e-05
2.4201940675418226e-07,3.282539350668997e-07,2.280204804164055e-07,2.3871130910677083e-05
2.419032463274785e-07,3.295445918079282e-07,2.295113151481379e-07,2.3811894516133843e-05
2.418299580791896e-07,3.30852582734327e-07,2.311166454772771e-07,2.373979469211328e-05
2.417950056201672e-07,3.321693891348196e-07,2.328291262306009e-07,2.3656477819668162e-05
2.417927124416604e-07,3.334839472619684e-07,2.346399052743743e-07,2.356351530782713e-05
2.4181645361849687e-07,3.347830641640584e-07,2.365379284105713e-07,2.346238999129513e-05
2.418591862207932e-07,3.360517127436545e-07,2.3851029167802873e-07,2.3354503427182408e-05
2.4191376760997673e-07,3.3727321123861517e-07,2.405438072876791e-07,2.324117185070556e-05
2.419730116039506e-07,3.384297485635447e-07,2.4262706395681496e-07,2.312361426206316e-05
2.420306046822145e-07,3.3950306738247217e-07,2.447507052358891e-07,2.300296229185733e-05
2.420828556827849e-07,3.4047524611148e-07,2.469056904761597e-07,2.2880318966383285e-05
2.421288944668433e-07,3.4133080646937517e-07,2.490821455035401e-07,2.2756827137808885e-05
2.421692308256628e-07,3.420604266579906e-07,2.512699688390355e-07,2.2633658655426568e-05
2.422051918074789e-07,3.4266306889421574e-07,2.5345949594947403e-07,2.2511909408620788e-05
2.422385047095359e-07,3.431438211329488e-07,2.5564167379020965e-07,2.2392466851924e-05
2.422695854069909e-07,3.435098431171007e-07,2.578092242153681e-07,2.227591478944381e-05
2.4229633039515624e-07,3.437675413500911e-07,2.5995808856189387e-07,2.216250516568994e-05
2.4231471798688377e-07,3.4392160196569857e-07,2.620876623358959e-07,2.2052186855727707e-05
2.423205417240069e-07,3.439764776829895e-07,2.6420065983370907e-07,2.1944669052365795e-05
2.423108972770314e-07,3.439389030564749e-07,2.663024863347907e-07,2.183949503819665e-05
2.422842389583884e-07,3.438179453194752e-07,2.6839944228333144e-07,2.1736088440729207e-05
2.422398954615106e-07,3.436223984183432e-07,2.7049729228151533e-07,2.163375978414921e-05
2.4217816715182836e-07,3.433583545114749e-07,2.7260138526651695e-07,2.153170331308159e-05
2.420997840495391e-07,3.4302897605767173e-07,2.74718479874009e-07,2.142901013150524e-05
2.4200456885098644e-07,3.4263616090999587e-07,2.768594309417056e-07,2.1324702761804463e-05
2.4189154701969405e-07,3.4218159625138877e-07,2.790394568512775e-07,2.121781090933396e-05
2.417605107702811e-07,3.4166633929385873e-07,2.812745307119627e-07,2.1107528096802507e-05
2.4161253383189767e-07,3.4109167026665557e-07,2.8357775677315623e-07,2.099339549583937e-05
2.4144932284066147e-07,3.4046156006457876e-07,2.859586334680353e-07,2.0875344484956463e-05
2.412731573361081e-07,3.3978305040023926e-07,2.884232442112536e-07,2.0753560601797774e-05
2.410871490464381e-07,3.3906382114308664e-07,2.909742660472041e-07,2.06283735174656e-05
2.408945127011754e-07,3.383099447239383e-07,2.936117635253189e-07,2.0500324556427605e-05
2.4069751561403945e-07,3.3752489769716026e-07,2.96334158962139e-07,2.0370276978897368e-05
2.4049801941489053e-07,3.367091581706044e-07,2.9913937035895637e-07,2.023939956295389e-05
2.402988129155673e-07,3.3586104074031575e-07,3.020270108669746e-07,2.010906270713601e-05
2.4010354571921613e-07,3.349789725428597e-07,3.0499937412860194e-07,1.998071387501684e-05
2.399159995217935e-07,3.340633299502918e-07,3.080590539419773e-07,1.9855734120773515e-05
2.397404966250629e-07,3.3311617602361857e-07,3.112063943719177e-07,1.973531585209928e-05
2.395834777723628e-07,3.321393719913399e-07,3.144407686620024e-07,1.9620418955072862e-05
2.394540256083191e-07,3.3113346052367487e-07,3.177645573523292e-07,1.95118324855812e-05
2.393620319115496e-07,3.300992088822607e-07,3.21186261094127e-07,1.941028187172505e-05
2.3931711284534757e-07,3.29040002773759e-07,3.247211054218357e-07,1.9316457111545904e-05
2.3932994816313657e-07,3.2796159306827693e-07,3.283885924008265e-07,1.9230940976697454e-05
2.394127501281027e-07,3.2686939937365525e-07,3.322071624815999e-07,1.9154111977087592e-05
2.395773233081224e-07,3.257667222790557e-07,3.3618898135439684e-07,1.9086071949049688e-05
2.398327570310083e-07,3.246552021991633e-07,3.403379580391037e-07,1.902663279399736e-05
2.401840190071938e-07,3.235356244430412e-07,3.446501593806556e-07,1.8975380914702372e-05
2.406316394265629e-07,3.2240739968453987e-07,3.491149259744152e-07,1.8931768786378266e-05
2.4117277047514273e-07,3.2126747005899537e-07,3.537167814249796e-07,1.8895154267939404e-05
2.4180321722179926e-07,3.201100921076975e-07,3.584376238141292e-07,1.886477862050588e-05
2.425191131111731e-07,3.1892765587928e-07,3.632580518468533e-07,1.8839745674208853e-05
2.4331743002347433e-07,3.177119680537789e-07,3.681583065019093e-07,1.881908502151685e-05
2.441964605982088e-07,3.164561024879771e-07,3.731193637235528e-07,1.8801971020534052e-05
2.451564996182432e-07,3.151567756342384e-07,3.781228845273681e-07,1.878802737946011e-05
2.461987542324419e-07,3.1381555298039807e-07,3.831501896774362e-07,1.877744360548744e-05
2.473232924332662e-07,3.1243746999096067e-07,3.8818224728978297e-07,1.8770756442633732e-05
2.485286765937659e-07,3.110287387387899e-07,3.9319968745102686e-07,1.8768542928537107e-05
2.498131478478252e-07,3.095959314590757e-07,3.981815317415846e-07,1.8771289530781783e-05
2.5117559342352124e-07,3.0814600330771873e-07,4.031053695463154e-07,1.877939164116512e-05
2.5261511255490997e-07,3.066861617105202e-07,4.079496397754843e-07,1.8793185895429293e-05
2.5412980475257664e-07,3.0522437525908516e-07,4.12693995531799e-07,1.881301009329984e-05
2.557159877113313e-07,3.0377005334759485e-07,4.1731712517314723e-07,1.8839262198511608e-05
2.5736794673749983e-07,3.023336203372255e-07,4.217960133652989e-07,1.887239951778261e-05
2.590783563067936e-07,3.0092562967229e-07,4.261077622177338e-07,1.8912842712755333e-05
2.6083972682636144e-07,2.995563434938564e-07,4.302315464849519e-07,1.896085159489568e-05
2.626465981677697e-07,2.982352064124852e-07,4.341492674628911e-07,1.90164639059712e-05
2.644969586740353e-07,2.969702807394309e-07,4.3784600907373067e-07,1.907946828999216e-05
2.66391173963856e-07,2.9576849888123694e-07,4.413122362461653e-07,1.914937832344791e-05
2.683295338591602e-07,2.9463623676586014e-07,4.445466176482382e-07,1.922545695518557e-05
2.703107590878219e-07,2.935798520045745e-07,4.4755554467781403e-07,1.9306808167391788e-05
2.7233135228960907e-07,2.9260661349766745e-07,4.503486866666529e-07,1.9392470093197435e-05
2.7438511095372877e-07,2.917252973790123e-07,4.5293477762365684e-07,1.9481464432746803e-05
2.7646319291449453e-07,2.9094597698745736e-07,4.5532103178331787e-07,1.957284086423576e-05
2.785553097260784e-07,2.902801390381733e-07,4.575154947786957e-07,1.96657289309084e-05
2.8065193845341293e-07,2.897410185987888e-07,4.5952901098132144e-07,1.9759342240670725e-05
2.827452677675245e-07,2.893419717388688e-07,4.613739313166728e-07,1.985291711630799e-05
2.848281554909348e-07,2.890929593457777e-07,4.630605294029104e-07,1.994562800147232e-05
2.86894757929024e-07,2.8899846326406807e-07,4.645945981687475e-07,2.0036544908816968e-05
2.8894395104450986e-07,2.890582156485056e-07,4.6597759990885075e-07,2.012470640458158e-05
2.9098095507463133e-07,2.8926887502074605e-07,4.6720805818322705e-07,2.0209309981007875e-05
2.9301401877331505e-07,2.8962520944651105e-07,4.682827069390246e-07,2.0289874736227068e-05
2.9504945953839604e-07,2.901203657464274e-07,4.691967915647261e-07,2.0366227735951223e-05
2.9708996982339487e-07,2.9074550080982773e-07,4.6994405585144157e-07,2.0438340017578502e-05
2.991361832175601e-07,2.914901406640284e-07,4.7051768654673174e-07,2.0506139272654824e-05
3.011883864874092e-07,2.923431574279524e-07,4.709119248456008e-07,2.056944061877541e-05
3.0324687787239943e-07,2.932928239722111e-07,4.711231149225873e-07,2.0628130097361178e-05
3.053112316075606e-07,2.9432619342948517e-07,4.7114988191563137e-07,2.068254043821777e-05
3.0737909309883597e-07,2.954287827117457e-07,4.7099200605558816e-07,2.0733695307071996e-05
3.094455839793005e-07,2.9658472418070713e-07,4.706484524207406e-07,2.078318405641888e-05
3.115041772097833e-07,2.9777834192284825e-07,4.70116234216469e-07,2.0832791001405675e-05
3.1354792254637143e-07,2.989968201637485e-07,4.6939027779042843e-07,2.088415259642332e-05
3.155697514699225e-07,3.0023053580590284e-07,4.6846361756980107e-07,2.093856436145941e-05
3.1756241123554864e-07,3.014708369313867e-07,4.673281812990942e-07,2.099690329056893e-05
3.195183616822422e-07,3.027090172642562e-07,4.659766107027377e-07,2.105961041034889e-05
3.21429717789114e-07,3.039367397460435e-07,4.6440466759663507e-07,2.1126712929926134e-05
3.2328875362195465e-07,3.051459983560597e-07,4.626120957077729e-07,2.1197879438557988e-05
3.2508847305957217e-07,3.063287445609727e-07,4.6060074989617605e-07,2.1272496077645453e-05
3.268224418157889e-07,3.07476453789513e-07,4.583725621332598e-07,2.134973452457271e-05
3.2848462493627896e-07,3.0857955919970413e-07,4.5592948231103193e-07,2.142859615092064e-05
3.300697853896489e-07,3.0962734680847485e-07,4.5327420536994496e-07,2.150796516720536e-05
3.315728940516279e-07,3.106088290895941e-07,4.5041031984732635e-07,2.158668349689117e-05
3.3298724726108534e-07,3.1151425822668857e-07,4.4734239572996605e-07,2.1663597732887728e-05
3.3430355232987665e-07,3.12336538134596e-07,4.440767696326832e-07,2.1737542192440493e-05
3.355107373417654e-07,3.130714059123089e-07,4.406216033528223e-07,2.180728948814557e-05
3.365972598670999e-07,3.1371614368700504e-07,4.3698516025331623e-07,2.187152544535613e-05
3.375528604645125e-07,3.1426899977227894e-07,4.3317476642377083e-07,2.192887510242182e-05
3.3837117926519307e-07,3.147307270125688e-07,4.291988115600935e-07,2.1977984580985294e-05
3.390519103070404e-07,3.151063258339056e-07,4.250695460098353e-07,2.2017637503735107e-05
3.3960092674249174e-07,3.154042847263596e-07,4.2080272639885114e-07,2.2046846030360456e-05
3.400278632351771e-07,3.156337964935305e-07,4.164148919352715e-07,2.2064877980671727e-05
3.4034242687603324e-07,3.15802809514431e-07,4.119216658809316e-07,2.2071229541026187e-05
3.405523113663581e-07,3.159178459915315e-07,4.073375466146192e-07,2.206555963854104e-05
3.4066308997722325e-07,3.15984668971575e-07,4.0267649559495774e-07,2.204761474285329e-05
3.4067831432768245e-07,3.160088621406539e-07,3.9795264884600397e-07,2.201721718517943e-05
3.40599594485826e-07,3.159964477860613e-07,3.931801731453947e-07,2.19743607232279e-05
3.40427047489004e-07,3.159549258168948e-07,3.8837269852147114e-07,2.191932920498585e-05
3.401606074696383e-07,3.1589290826750287e-07,3.835426690610367e-07,2.1852698105236718e-05
3.398019256052563e-07,3.158176123083424e-07,3.787004319692612e-07,2.1775187522314653e-05
3.3935463380680307e-07,3.157330251738452e-07,3.7385395394164046e-07,2.1687495665883725e-05
3.3882292381014554e-07,3.156403000121072e-07,3.6900943840055475e-07,2.15902671259044e-05
3.3821083908479423e-07,3.1553865365354126e-07,3.641721726868124e-07,2.1484202078082488e-05
3.375223383207932e-07,3.154252893833549e-07,3.5934769160274477e-07,2.1370194863718928e-05
3.367609647923481e-07,3.152952227948299e-07,3.5454327125395996e-07,2.124938896660988e-05
3.359295845307977e-07,3.1514194720621856e-07,3.497685455095897e-07,2.1123067399203447e-05
3.350317140256007e-07,3.149581951816033e-07,3.4503416012559123e-07,2.099243078723021e-05
3.340739067478148e-07,3.1473676920363e-07,3.403502212038609e-07,2.0858440676781266e-05
3.330654750923989e-07,3.144724699428536e-07,3.357275525847891e-07,2.072179193017836e-05
3.3201495056598914e-07,3.141639353037552e-07,3.311803745555732e-07,2.0582938722349382e-05
3.30927542808807e-07,3.138136225561685e-07,3.267274100870569e-07,2.0442133178658648e-05
3.298054795591935e-07,3.134266573726111e-07,3.223918743285317e-07,2.029946662963473e-05
3.2864948703150053e-07,3.130096697348802e-07,3.181999944056166e-07,2.0154914093490453e-05
3.274597364882561e-07,3.125708059483209e-07,3.141778069360616e-07,2.000844775576292e-05
3.262355951836023e-07,3.121215273187576e-07,3.103496288439977e-07,1.9860203773128535e-05
3.249748365973186e-07,3.116777769296894e-07,3.067385207925108e-07,1.9710533540505995e-05
3.236736492675789e-07,3.11258556746172e-07,3.0336502746420906e-07,1.95598944108562e-05
3.2232800544627764e-07,3.108830371925661e-07,3.002448804493464e-07,1.9408726276944494e-05
3.2093620130185925e-07,3.105676278640496e-07,2.973892737569929e-07,1.9257400955263466e-05
3.195018810887778e-07,3.103238262005337e-07,2.9480689176829565e-07,1.91062665404475e-05
3.1803587223340376e-07,3.101579566984024e-07,2.925054102243982e-07,1.895584351433722e-05
3.165554175484697e-07,3.100734243102955e-07,2.904924167563423e-07,1.880708357273701e-05
3.150813319721848e-07,3.1007375146987355e-07,2.8877493439396854e-07,1.8661456908731407e-05
3.136347256026861e-07,3.101630576973584e-07,2.873581057073885e-07,1.852082037427208e-05
3.122350370104561e-07,3.103438815420777e-07,2.8624751501978785e-07,1.838719953604814e-05
3.109005840648744e-07,3.106160476073481e-07,2.854565950965993e-07,1.8262564388487967e-05
3.096510708143353e-07,3.109776983455753e-07,2.850132450360736e-07,1.814863367032046e-05
3.0850965103465297e-07,3.114257811041366e-07,2.8496007877850316e-07,1.8046741340685057e-05
3.0750254132763306e-07,3.1195499388920697e-07,2.853492081301835e-07,1.7957782504799924e-05
