8.525340212676418e-07,6.614423948764773e-07,3.3133325666052407e-07,1.6922108958660963e-05
8.526738306158396e-07,6.526293570762291e-07,3.323495380434725e-07,1.6979829108342472e-05
8.534418584637467e-07,6.439503978563524e-07,3.33438991764983e-07,1.7030893898235195e-05
8.548126870733349e-07,6.354327732617516e-07,3.346029639064998e-07,1.7074955086003174e-05
8.567788737529377e-07,6.271046300883052e-07,3.358388999273202e-07,1.7111676868807022e-05
8.59355274804306e-07,6.189917531347754e-07,3.3714096675689194e-07,1.7140774626183952e-05
8.62579622418746e-07,6.111157296379077e-07,3.3850077286203016e-07,1.7162017924830148e-05
8.665043369475035e-07,6.034962461892064e-07,3.3990788705921003e-07,1.7175210588345174e-05
8.711807478058031e-07,5.961558088916562e-07,3.41350812945589e-07,1.7180181094882205e-05
8.766441885054363e-07,5.891226235992834e-07,3.42818179839993e-07,1.7176824542919063e-05
8.829079177724104e-07,5.824290308380011e-07,3.442988154323837e-07,1.7165139993773934e-05
8.899673312276705e-07,5.761078713104153e-07,3.4578037578374355e-07,1.7145184635480278e-05
8.978110063373405e-07,5.70189753587375e-07,3.472482805013184e-07,1.7116992904585997e-05
9.064360198956137e-07,5.647007073718385e-07,3.486858774884593e-07,1.7080534187410268e-05
9.158649462960121e-07,5.596598265016016e-07,3.5007492831196376e-07,1.7035712572992906e-05
9.261567786793696e-07,5.55077643466925e-07,3.5139578632932985e-07,1.6982388858074868e-05
9.374025627616215e-07,5.509553058140329e-07,3.526278825464343e-07,1.6920407311567938e-05
9.4970496921161e-07,5.472852140734482e-07,3.537514157734821e-07,1.6849621133086277e-05
9.631529213945028e-07,5.440537504809007e-07,3.547489788750666e-07,1.6769925728477366e-05
9.778053280985974e-07,5.412446382402734e-07,3.5560496710651397e-07,1.6681293577451386e-05
9.936893843090755e-07,5.38840650847498e-07,3.563040612969306e-07,1.6583784511805745e-05
1.0108074459964935e-06,5.368231222071693e-07,3.568318176555474e-07,1.6477525034230097e-05
1.0291421154812617e-06,5.35170902280255e-07,3.5717712244876966e-07,1.636267782064517e-05
1.0486556561562228e-06,5.338603232159764e-07,3.573335546586689e-07,1.6239423050133382e-05
1.0692870422387586e-06,5.328661122486788e-07,3.57298900387352e-07,1.6107961630422667e-05
1.0909504464886815e-06,5.321633894515725e-07,3.570746968403404e-07,1.596853601658519e-05
1.1135378469648515e-06,5.317303557282018e-07,3.5666598694290143e-07,1.5821446613352193e-05
1.1369264954149612e-06,5.315497250385752e-07,3.560798624964039e-07,1.56670485597607e-05
1.1609885842722212e-06,5.316094200236404e-07,3.5532307688822603e-07,1.5505741826279005e-05
1.1855998317738078e-06,5.319041703287715e-07,3.5440073490690215e-07,1.533796022468805e-05
1.2106455142685184e-06,5.324360685053452e-07,3.5331726070642686e-07,1.5164144332234714e-05
1.2360243045391218e-06,5.33212467450165e-07,3.5207832901258314e-07,1.4984706121756365e-05
1.2616509776394545e-06,5.342430664259919e-07,3.506917201887043e-07,1.4800007106641431e-05
1.287454584868966e-06,5.355366113203068e-07,3.491666462493801e-07,1.4610357382139633e-05
1.3133677505116872e-06,5.370967488693897e-07,3.475122133257967e-07,1.4416045424766288e-05
1.3393156069163928e-06,5.389193665609983e-07,3.4573667366980684e-07,1.4217402550142608e-05
1.365218548984117e-06,5.409923782471199e-07,3.4384913063946977e-07,1.401488111175499e-05
1.3910074472901314e-06,5.432973728528128e-07,3.4186247099079056e-07,1.3809113305799301e-05
1.416636120869192e-06,5.458139418169183e-07,3.397942723246388e-07,1.3600931669971386e-05
1.4420801045707147e-06,5.485244536661434e-07,3.376643213312692e-07,1.3391355123751516e-05
1.4673234534828225e-06,5.514152250030774e-07,3.354909452278271e-07,1.3181538767982205e-05
1.4923422975417285e-06,5.544755950593765e-07,3.332889772043521e-07,1.2972678722529375e-05
1.517093939071966e-06,5.576983745821871e-07,3.3106963023958845e-07,1.2765892615769482e-05
1.541517068360123e-06,5.610802505983822e-07,3.288418094151619e-07,1.2562135597536733e-05
1.5655400999814653e-06,5.64619522831232e-07,3.2661426879986084e-07,1.2362195486631292e-05
1.589087293963314e-06,5.68312483554715e-07,3.243969347546941e-07,1.2166723604649e-05
1.6120777851275009e-06,5.721521288696886e-07,3.2220070509656586e-07,1.19762369250438e-05
1.6344234306999703e-06,5.761300594604699e-07,3.200365179919809e-07,1.1791119527809333e-05
1.656031140386912e-06,5.802377160363604e-07,3.179142292292173e-07,1.1611686220767265e-05
1.6768087264383058e-06,5.844641615510932e-07,3.158415807115359e-07,1.1438291888683874e-05
1.6966708520193256e-06,5.887931299584314e-07,3.138242112729258e-07,1.127139873122961e-05
1.7155409388354832e-06,5.932025745203871e-07,3.1186700128483227e-07,1.1111544754705067e-05
1.733347827181575e-06,5.976654069721096e-07,3.099751304324368e-07,1.09592482570079e-05
1.750021340453386e-06,6.021494307881438e-07,3.081535666143638e-07,1.0814914066285055e-05
1.7654906514099628e-06,6.06617498116751e-07,3.0640599395343106e-07,1.0678788103235897e-05
1.7796860549447178e-06,6.110292461398893e-07,3.0473511162783947e-07,1.0550992738465866e-05
1.7925417585396702e-06,6.153445141112121e-07,3.031446269565886e-07,1.0431612176927412e-05
1.8039971449302345e-06,6.195284556207362e-07,3.016410517212115e-07,1.0320732209722022e-05
1.8139978909605202e-06,6.235580159049298e-07,3.0023331420252837e-07,1.0218401472509008e-05
1.8224977545349117e-06,6.27427651926816e-07,2.989304836917388e-07,1.0124578861309194e-05
1.829458946870761e-06,6.311495519621397e-07,2.977401181041947e-07,1.003910838179695e-05
1.834850893449599e-06,6.347458920885261e-07,2.966686376305143e-07,9.961708619600093e-06
1.8386479973599392e-06,6.382400564088395e-07,2.9572231186021836e-07,9.891976170493182e-06
1.840827034020094e-06,6.416551500409178e-07,2.9490772380672464e-07,9.829409460275804e-06
1.8413660864912682e-06,6.450168957531774e-07,2.942315997255064e-07,9.773473208482716e-06
1.840247320758128e-06,6.483545473267744e-07,2.9369957136577325e-07,9.7237442028507e-06
1.8374658225148445e-06,6.517011171725073e-07,2.933144823751768e-07,9.680078713634517e-06
1.8330394235267419e-06,6.550960778086408e-07,2.930756909665249e-07,9.64264946984688e-06
1.8270083200738881e-06,6.585883853106203e-07,2.929800049432831e-07,9.611817652475266e-06
1.8194250101233242e-06,6.62235048845994e-07,2.930240423219041e-07,9.587945328329801e-06
1.810344898261644e-06,6.660939851076393e-07,2.932071259311563e-07,9.571266184232429e-06
1.7998216585197681e-06,6.702152138797525e-07,2.9353256235756213e-07,9.561924695777838e-06
1.7879078430056042e-06,6.746348531184421e-07,2.9400576144145467e-07,9.56020998075482e-06
1.77465976529246e-06,6.793727767052201e-07,2.946310321192852e-07,9.566792820732697e-06
1.7601401395594738e-06,6.844332550145221e-07,2.954096850730335e-07,9.582727590636992e-06
1.7444148925992737e-06,6.898079033291004e-07,2.9633965138519085e-07,9.609249508337047e-06
1.7275485152064659e-06,6.954794729912657e-07,2.9741563087798253e-07,9.647577440128371e-06
1.7096026471296482e-06,7.014250294827878e-07,2.986290767141969e-07,9.69881235285709e-06
1.6906384153958745e-06,7.076171841297043e-07,2.999679874882607e-07,9.763875767468649e-06
1.6707202242482773e-06,7.140227053491965e-07,3.014172055103926e-07,9.843441482146283e-06
1.6499184399836119e-06,7.206008565254229e-07,3.0295928548017213e-07,9.937883546414663e-06
1.6283105529192674e-06,7.273051330046845e-07,3.0457518948406145e-07,1.0047260522732042e-05
1.6059816110900272e-06,7.340878562649333e-07,3.062453120239993e-07,1.0171318766086873e-05
1.5830236840502412e-06,7.409037733759394e-07,3.079515942413046e-07,1.0309509220385235e-05
1.55953366686799e-06,7.477140729484167e-07,3.096794336961095e-07,1.0461025476103078e-05
1.5356095609834191e-06,7.544942029993028e-07,3.114177107313961e-07,1.0624861817830513e-05
1.5113460068399666e-06,7.612405515231089e-07,3.1315773820965525e-07,1.0799884920742904e-05
1.4868303452244612e-06,7.679704011067403e-07,3.148931873283805e-07,1.0984906609059007e-05
1.4621409355218726e-06,7.747166488418637e-07,3.1662020188332405e-07,1.1178753901283927e-05
1.43734810484753e-06,7.81518867367548e-07,3.183358602209248e-07,1.1380338046806294e-05
1.4125175165845855e-06,7.884130077821661e-07,3.200365229405488e-07,1.1588686565728365e-05
1.387717153945783e-06,7.954276988563705e-07,3.2171765929133426e-07,1.1802908224683154e-05
1.3630264710766752e-06,8.025907870191337e-07,3.2337378949718017e-07,1.202213608730222e-05
1.3385427540883e-06,8.099369851206805e-07,3.249980917808504e-07,1.224549394518322e-05
1.3143817069954452e-06,8.175056163661165e-07,3.2658332338830107e-07,1.2472068811167127e-05
1.290672167085195e-06,8.253296479224372e-07,3.281244889978788e-07,1.2700873506833032e-05
1.2675466256622067e-06,8.33426874570091e-07,3.2962148750202907e-07,1.293081451106416e-05
1.2451313774698294e-06,8.41798777300219e-07,3.310793096505491e-07,1.3160687212041295e-05
1.2235389180983913e-06,8.504327992754819e-07,3.325049959760754e-07,1.33892197626274e-05
1.202862512156566e-06,8.593041823839447e-07,3.339035925303e-07,1.3615153738371464e-05
1.1831751580698409e-06,8.683780380051262e-07,3.352759946281261e-07,1.3837300231631644e-05
1.1645351322428066e-06,8.776128654396226e-07,3.366191877318388e-07,1.4054533731718545e-05
1.1469940591033418e-06,8.869651455734112e-07,3.379273856994945e-07,1.4265761830371545e-05
1.130603600217138e-06,8.963926797551405e-07,3.391929284003879e-07,1.4469926751219553e-05
1.1154206914289137e-06,9.058548023318398e-07,3.404071811670122e-07,1.4666045056664791e-05
1.1015099339558522e-06,9.15310126067491e-07,3.415617202829594e-07,1.4853233441108813e-05
1.0889432951088163e-06,9.247134772157759e-07,3.426490666817736e-07,1.5030676376652234e-05
1.077799369780662e-06,9.340148562178386e-07,3.4366233610584603e-07,1.5197579436967944e-05
1.068160277325676e-06,9.431622050074304e-07,3.445943371880931e-07,1.5353181257283187e-05
1.0601045927466322e-06,9.521049029543623e-07,3.4543699602934536e-07,1.5496821606715454e-05
1.0536997688802428e-06,9.607943905494162e-07,3.4618233376889785e-07,1.5628016954295152e-05
1.0489954621830215e-06,9.69182161541143e-07,3.468259591758545e-07,1.5746528235092133e-05
1.0460169198226544e-06,9.772180995031321e-07,3.4737051783791897e-07,1.5852424491533758e-05
1.0447626718067906e-06,9.848515727744092e-07,3.478248417603404e-07,1.594609506770306e-05
1.0452102690015696e-06,9.920339679189116e-07,3.481999142121201e-07,1.6028153673430097e-05
1.0473265899306735e-06,9.987212960397115e-07,3.485068489227334e-07,1.6099270262009674e-05
1.05107840043423e-06,1.004877873425584e-06,3.487577106654273e-07,1.6160039332902757e-05
1.0564419709867404e-06,1.0104787117430671e-06,3.489658600610989e-07,1.6210953751950642e-05
1.0634104886063907e-06,1.0155069232227822e-06,3.491452690783177e-07,1.6252445879705393e-05
1.0719952506283494e-06,1.019948683636653e-06,3.493105349805096e-07,1.6284914613312e-05
1.0822175066444315e-06,1.0237904389074743e-06,3.494772964831689e-07,1.6308728030586717e-05
1.0940939326456272e-06,1.0270191114316656e-06,3.496624832691465e-07,1.6324276392929934e-05
1.1076219702722415e-06,1.0296237652284814e-06,3.4988419176406233e-07,1.6332101554606523e-05
1.122770083641383e-06,1.0315976489209522e-06,3.501600654040436e-07,1.6332970406847233e-05
1.1394751371685451e-06,1.0329400602180396e-06,3.505057488329383e-07,1.6327780563414456e-05
1.1576473179951942e-06,1.0336557729089576e-06,3.509352167999527e-07,1.631739146204311e-05
1.1771818025795937e-06,1.0337509321951795e-06,3.514609667770213e-07,1.6302528880210786e-05
1.1979718415037028e-06,1.0332295425977682e-06,3.520937170435368e-07,1.628383865182451e-05
1.2199171427712223e-06,1.0320950431510988e-06,3.5284274996539717e-07,1.6262103027470013e-05
1.2429269002227395e-06,1.0303563368595872e-06,3.537167455532412e-07,1.623848499856334e-05
1.2669186676370242e-06,1.028033356819478e-06,3.547252722766801e-07,1.6214590833864656e-05
1.2918133296191858e-06,1.0251571495488859e-06,3.558788518037683e-07,1.6192328911037546e-05
1.3175284785956967e-06,1.0217636129231408e-06,3.5718687491798247e-07,1.6173707854240384e-05
1.3439724002447013e-06,1.0178855816916049e-06,3.5865687425430407e-07,1.6160657683451747e-05
1.3710390388317557e-06,1.0135494465839017e-06,3.6029486764653345e-07,1.615487931807045e-05
1.3986060196190036e-06,1.0087780453475955e-06,3.621043566211257e-07,1.6157733420817183e-05
1.4265366235713474e-06,1.003597041592902e-06,3.640849452437043e-07,1.6170178573575346e-05
1.4546829368477501e-06,9.98040057037063e-07,3.662315943873173e-07,1.6192751416185347e-05
1.482888570831437e-06,9.921480719228248e-07,3.6853492248054116e-07,1.622558335061391e-05
1.5109928827039115e-06,9.859642161030271e-07,3.7098281733761723e-07,1.6268445080918248e-05
1.5388389084884628e-06,9.795302220892358e-07,3.73562234076292e-07,1.6320804741323112e-05
1.5662824158989766e-06,9.7288614887135e-07,3.7625995715610405e-07,1.6381890164164674e-05
1.5931964920198975e-06,9.660699152129523e-07,3.7906217583494797e-07,1.645074515002684e-05
1.6194700461409966e-06,9.59117681209663e-07,3.81955185292589e-07,1.6526291210858552e-05
1.6450036976434495e-06,9.520678681995295e-07,3.849293484690653e-07,1.660742151344045e-05
1.6697066596108804e-06,9.449662105651213e-07,3.879824209556561e-07,1.6693107648827695e-05
1.6934935660311555e-06,9.378683802211521e-07,3.9111790227904895e-07,1.678246347214198e-05
1.7162800390486672e-06,9.308382408325638e-07,3.9434086157222906e-07,1.687475220463079e-05
1.7379834649825714e-06,9.239406408137369e-07,3.976550627849365e-07,1.6969378873115247e-05
1.758535298639309e-06,9.1723245457191e-07,4.010617374909177e-07,1.7065890822031196e-05
1.777897794556179e-06,9.107582916583813e-07,4.04558724116455e-07,1.7163959280340507e-05
1.7960706330719795e-06,9.045536519031551e-07,4.0813958904891403e-07,1.726332865893023e-05
1.8130831359833241e-06,8.986537013045072e-07,4.117938882942512e-07,1.736375462714252e-05
1.8289795086653797e-06,8.931025392299909e-07,4.155090931254578e-07,1.746493731104939e-05
1.8438038909342091e-06,8.879555137209774e-07,4.192726368822941e-07,1.7566458841602152e-05
1.8575907172797844e-06,8.832708703283977e-07,4.2307280121541296e-07,1.7667784207298144e-05
1.8703657356368447e-06,8.790980228709858e-07,4.2689831920908043e-07,1.776833976039895e-05
1.8821526539476387e-06,8.754721480595906e-07,4.307364021459264e-07,1.786757625942394e-05
1.8929742083432514e-06,8.724145056931644e-07,4.3457037524177046e-07,1.7964960412592858e-05
1.9028480788733601e-06,8.699346977592365e-07,4.3837930837247275e-07,1.8059945709938767e-05
1.911787824035754e-06,8.680351012746056e-07,4.4213976530274774e-07,1.8151977086148362e-05
1.919811020089301e-06,8.667148791311657e-07,4.4582858431186897e-07,1.8240513285599288e-05
1.9269480503803887e-06,8.659688653153644e-07,4.4942572933369725e-07,1.8325007872951763e-05
1.9332488117759013e-06,8.657828053487869e-07,4.529158669887163e-07,1.8404858640344696e-05
1.938788478082948e-06,8.66130074489003e-07,4.562883356210641e-07,1.8479428115732647e-05
1.94367133050864e-06,8.669719742642376e-07,4.595355375402036e-07,1.854816459479996e-05
1.94802770556425e-06,8.682613991518788e-07,4.626501574197568e-07,1.8610699669056422e-05
1.9519982819814394e-06,8.699481841532745e-07,4.6562300541245995e-07,1.8666820020178907e-05
1.955710087939841e-06,8.719832621543976e-07,4.6844257133285323e-07,1.8716357287612465e-05
1.95925884498554e-06,8.743202335876328e-07,4.710957516520834e-07,1.8759082979563943e-05
1.96270569414358e-06,8.769142151661841e-07,4.7356860200486423e-07,1.8794656182567805e-05
1.966083227493473e-06,8.797198089128039e-07,4.7584708920974615e-07,1.8822653135021568e-05
1.969403729287856e-06,8.826913109236883e-07,4.779188228134658e-07,1.8842663685855748e-05
1.9726666450964853e-06,8.857839061885618e-07,4.79774922631789e-07,1.88543756537006e-05
1.97586150610581e-06,8.889525171865278e-07,4.814104286780942e-07,1.8857590398150025e-05
1.97896554272218e-06,8.921495640569401e-07,4.828235315851373e-07,1.8852186154215345e-05
1.9819438077343384e-06,8.953246422686659e-07,4.840145850096341e-07,1.88380739091856e-05
1.984757316952056e-06,8.984265110333405e-07,4.849861067883181e-07,1.8815222535567893e-05
1.9873762062516485e-06,9.014080427612456e-07,4.857446905696274e-07,1.878380023083512e-05
1.989792884547517e-06,9.042348407777843e-07,4.863033194008439e-07,1.8744291706664566e-05
1.992028239097504e-06,9.068933495059812e-07,4.86682330054756e-07,1.8697433983510096e-05
1.9941239724457653e-06,9.093923630127771e-07,4.869083193976144e-07,1.8644106132895827e-05
1.9961246095652137e-06,9.117563583644184e-07,4.870102346279515e-07,1.8585351809350104e-05
1.998063935699036e-06,9.140147477403664e-07,4.870146137400058e-07,1.852241792370214e-05
1.9999662389497467e-06,9.161954672778057e-07,4.86942889404906e-07,1.8456666524839293e-05
2e-07,9.183293002940908e-07,4.868103495353674e-07,1.8389427345759812e-05
2e-07,9.204612386820827e-07,4.86626320371641e-07,1.8321885286716526e-05
2e-07,9.226574689653835e-07,4.863963704731085e-07,1.825502299944741e-05
2e-07,9.250000394906269e-07,4.861254939807803e-07,1.8189610186334967e-05
2e-07,9.275721080813628e-07,4.858209684979934e-07,1.81262171662726e-05
2e-07,9.3044408280103e-07,4.854937543006927e-07,1.8065228382017678e-05
2e-07,9.336696170048856e-07,4.851565403363037e-07,1.8006840845638756e-05
2e-07,9.372915045307677e-07,4.84820242054357e-07,1.7951048127858982e-05
2e-07,9.413471543123846e-07,4.844927568684147e-07,1.7897630531920928e-05
2e-07,9.458663842801501e-07,4.841790360161556e-07,1.7846171498859535e-05
2e-07,9.508702166286865e-07,4.838805367371936e-07,1.7796091144274294e-05
2e-07,9.563808181720764e-07,4.835949790806603e-07,1.7746681024480467e-05
2e-07,9.62436475115892e-07,4.833165096836636e-07,1.769715394658791e-05
2e-07,9.690985818288901e-07,4.830356084159426e-07,1.764672137462649e-05
2e-07,9.764439523206942e-07,4.827390302707733e-07,1.7594666052371827e-05
2e-07,9.84545757834299e-07,4.824103765427058e-07,1.7540371030141698e-05
2e-07,9.934572660714471e-07,4.820319767852994e-07,1.7483312795314066e-05
2e-07,1.0032119321833058e-06,4.815876574920369e-07,1.742304683903844e-05
2e-07,1.013835843526745e-06,4.810648734720178e-07,1.7359200653681998e-05
2e-07,1.025355613804376e-06,4.804554412034129e-07,1.7291484005121234e-05
2e-07,1.0377934707937777e-06,4.797553692403825e-07,1.7219719347881645e-05
2e-07,1.0511560998305176e-06,4.78964223724786e-07,1.714387354209449e-05
2e-07,1.0654269036689e-06,4.780831509228392e-07,1.7064060646949422e-05
2e-07,1.0805645805040114e-06,4.771118459472435e-07,1.6980493990135283e-05
2e-07,1.0965047500793484e-06,4.760470127265993e-07,1.6893399436460378e-05
2e-07,1.113162231525436e-06,4.7488328629350976e-07,1.6802972749262626e-05
2e-07,1.13043523117387e-06,4.7361508974409007e-07,1.670945596544959e-05
2e-07,1.148213801964955e-06,4.722375163217783e-07,1.661325666167696e-05
2e-07,1.1663903245424723e-06,4.707456392260351e-07,1.651495955273229e-05
2e-07,1.1848636278926823e-06,4.691336671096286e-07,1.6415207414899815e-05
1.999114370000869e-06,1.2035341716518524e-06,4.673954716115772e-07,1.6314561687299177e-05
1.9961902008222903e-06,1.2222982652896885e-06,4.65525879658208e-07,1.6213437201691122e-05
1.9933764464885967e-06,1.2410462037688601e-06,4.6352116071215363e-07,1.6112131510656783e-05
1.9906559133043672e-06,1.259661768813834e-06,4.613792400900821e-07,1.601089894150929e-05
1.987993121684216e-06,1.2780221042787706e-06,4.591013216239933e-07,1.5909975297584894e-05
1.9853414430981656e-06,1.295999094945755e-06,4.566943535165946e-07,1.580955502414486e-05
1.9826555288159974e-06,1.31346200697599e-06,4.54172123296393e-07,1.570980628409156e-05
1.979903234566645e-06,1.3302819406275082e-06,4.515537919868879e-07,1.561091176611039e-05
1.977069720372042e-06,1.346340259330305e-06,4.4886051992822925e-07,1.5513065080079636e-05
1.9741517982410566e-06,1.3615405785356785e-06,4.4611245357169104e-07,1.541642469332263e-05
1.971145398484431e-06,1.3758176232081265e-06,4.4332883532552397e-07,1.532107138701884e-05
1.968035511286419e-06,1.389134424498475e-06,4.405312967231133e-07,1.5226989591215875e-05
1.9647967851250444e-06,1.4014687151104132e-06,4.3774673204893205e-07,1.5134069732325753e-05
1.9614000368009333e-06,1.4128010863530996e-06,4.3500620686399105e-07,1.5042142464688041e-05
1.9578151562355764e-06,1.423114376349726e-06,4.3234040960104454e-07,1.4951031224126523e-05
1.9540098176302584e-06,1.4324031372997773e-06,4.2977665313388426e-07,1.4860563320110708e-05
1.9499481914766155e-06,1.4406895814227158e-06,4.273398110033753e-07,1.4770534268959629e-05
1.945589779964218e-06,1.4480374062160109e-06,4.250524280247587e-07,1.4680699004087366e-05
1.940887830924971e-06,1.454550808061469e-06,4.2293205438107475e-07,1.4590853149615616e-05
1.935788646328977e-06,1.4603592047001187e-06,4.209908060083035e-07,1.4500989139551996e-05
1.93023304258123e-06,1.465598739016415e-06,4.192377216178671e-07,1.4411391254479315e-05
1.9241611614717946e-06,1.4703962522686243e-06,4.1767925361062797e-07,1.4322568452310384e-05
1.9175181411776265e-06,1.4748580307122963e-06,4.1631808603272867e-07,1.423515151085264e-05
1.910258495342199e-06,1.4790654748134482e-06,4.151531041212833e-07,1.4149866316001667e-05
1.9023530010862786e-06,1.4830756491185748e-06,4.1418000551875033e-07,1.4067496406772656e-05
1.893797586622992e-06,1.4869245393301697e-06,4.133918624229207e-07,1.3988801921876164e-05
1.8846146337026409e-06,1.4906322103490791e-06,4.127796614388118e-07,1.3914457492395471e-05
1.874841320040208e-06,1.4942064952743264e-06,4.123320354235261e-07,1.3845004662597232e-05
1.86451437648956e-06,1.4976478347180696e-06,4.1203494444785036e-07,1.3780799523796927e-05
1.8536638975294758e-06,1.5009647347309669e-06,4.118723156783292e-07,1.3721984912505404e-05
1.8423150721225159e-06,1.504197212991443e-06,4.118264129878279e-07,1.3668506518494967e-05
1.8304904089699563e-06,1.5074333832692644e-06,4.1187757819274103e-07,1.3620149709471533e-05
1.8182121857228984e-06,1.510812443202694e-06,4.1200534207344494e-07,1.3576571270395979e-05
1.8055050324558754e-06,1.5145171422546719e-06,4.121917405146024e-07,1.353731949661192e-05
1.7923945151318177e-06,1.518756717264389e-06,4.1242428400248563e-07,1.350183925047462e-05
1.7789035219728328e-06,1.523741304542686e-06,4.1269594940464787e-07,1.3469474760053822e-05
1.765050780532359e-06,1.5296556785663217e-06,4.130034105680632e-07,1.3439492754721373e-05
1.7508501146212143e-06,1.5366416915538608e-06,4.1334561321640686e-07,1.3411116688914285e-05
1.7363105744906117e-06,1.5447939583133362e-06,4.137222025412715e-07,1.3383557367222865e-05
1.721439021462512e-06,1.55416885112808e-06,4.141314821341605e-07,1.335604686632279e-05
1.7062426179624503e-06,1.5648013972446825e-06,4.145689837534422e-07,1.332786008140808e-05
1.6907298123459288e-06,1.5767199305011303e-06,4.150269390481658e-07,1.3298304315226574e-05
1.6749108367227512e-06,1.5899509150768508e-06,4.154944443123349e-07,1.3266700607085484e-05
1.6587981149907567e-06,1.604515460022043e-06,4.159586021246253e-07,1.3232381730206884e-05
1.6424067711401959e-06,1.6204247791935125e-06,4.1640676040794505e-07,1.3194703238577647e-05
1.625754348744272e-06,1.6376786263734509e-06,4.1682892663068096e-07,1.315306013992758e-05
1.6088581968470547e-06,1.6562672590184063e-06,4.172183272436954e-07,1.3106905019992509e-05
1.5917325370216958e-06,1.6761755187962386e-06,4.175694794890122e-07,1.3055760286629653e-05
1.5743894664369382e-06,1.697383743235852e-06,4.1787674273131366e-07,1.2999213540167293e-05
1.5568420921176854e-06,1.719863333281641e-06,4.1813606750196854e-07,1.2936898905723975e-05
1.539104207376816e-06,1.7435716399018113e-06,4.183481399039757e-07,1.2868493052550407e-05
1.5211867458814829e-06,1.7684481828059715e-06,4.185192846742943e-07,1.2793748809203474e-05
1.5030947397197831e-06,1.794409655627849e-06,4.186592800155158e-07,1.271255850925634e-05
1.4848282345114225e-06,1.8213465222497917e-06,4.1877889526911037e-07,1.2625001213758528e-05
1.4663906912354744e-06,1.8491279564069138e-06,4.188895676344728e-07,1.2531314964957347e-05
1.4478022404149426e-06,1.8776145706913688e-06,4.190034773882165e-07,1.2431808823718276e-05
1.4291090885334382e-06,1.9066732530242058e-06,4.1913194249156776e-07,1.2326791356654065e-05
1.4103840221794252e-06,1.936191222569351e-06,4.1928350122863e-07,1.2216553899347305e-05
1.3917177903857796e-06,1.96608523501096e-06,4.194629235854366e-07,1.2101412402925349e-05
1.3732040623023363e-06,1.9962983475532043e-06,4.196705585950678e-07,1.198178327943253e-05
1.354925024513331e-06,2.0267836058422056e-06,4.1990232678365605e-07,1.1858218846864352e-05
1.3369442959145835e-06,2.057484194126205e-06,4.2015104146741145e-07,1.1731364123458307e-05
1.3193073566375124e-06,2.088319950587309e-06,4.204088345693411e-07,1.1601879079948127e-05
1.3020453935035458e-06,2.1191856542169224e-06,4.20669909694568e-07,1.1470384576310608e-05
1.285180211322604e-06,2.149959436111673e-06,4.20931514505407e-07,1.133747058019778e-05
1.2687300080640472e-06,2.1805117169796456e-06,4.211925425438455e-07,1.1203763501163677e-05
1.252713711984753e-06,2.21070737316917e-06,4.2145280022291975e-07,1.1069971984705305e-05
1.2371498682478059e-06,2.2404034962684084e-06,4.217132967242496e-07,1.0936837037122597e-05
1.2220513818836121e-06,2.26944901388481e-06,4.219749936525394e-07,1.0805034189565325e-05
1.2074231451366428e-06,2.297688863320001e-06,4.222377400770452e-07,1.0675113495447404e-05
1.193264093354598e-06,2.3249704065195287e-06,4.2250181324558046e-07,1.0547489378279712e-05
1.179568341864391e-06,2.351148107778724e-06,4.227696571866152e-07,1.0422473298803823e-05
1.1663232761924034e-06,2.376085764597016e-06,4.230455876861229e-07,1.0300341560100473e-05
1.1535085227064941e-06,2.3996588952485963e-06,4.233347925211668e-07,1.0181399509941901e-05
1.1411023541931994e-06,2.4217567375367533e-06,4.2364252623651797e-07,1.0066051778047104e-05
1.1290961630263555e-06,2.4422796681564566e-06,4.2397266653998905e-07,9.954934341877902e-06
1.1175050515699332e-06,2.4611331644258577e-06,4.243265209659048e-07,9.849035817428362e-06
1.1063630243885758e-06,2.478225550362229e-06,4.247029321404862e-07,9.749647940108572e-06
1.0957087477344765e-06,2.4934709932463875e-06,4.250988777496028e-07,9.658159213134765e-06
1.0855767680331792e-06,2.5067911735189427e-06,4.255115162515986e-07,9.575845066311833e-06
1.0759967933963988e-06,2.51811256019795e-06,4.259418188930703e-07,9.5037509042462e-06
1.066992097672355e-06,2.5273631586738318e-06,4.263953612154067e-07,9.442742352336628e-06
1.0585745379255279e-06,2.5344735915895905e-06,4.2687840737814046e-07,9.393735763658732e-06
1.0507418861346417e-06,2.539381845106529e-06,4.273936660570184e-07,9.357906822773794e-06
1.0434791611170908e-06,2.5420363716584155e-06,4.2793932836907095e-07,9.336665430958943e-06
1.0367615213315836e-06,2.542399127969459e-06,4.2851006154227073e-07,9.33146261759625e-06
1.030559193162536e-06,2.5404529466162498e-06,4.290973368114706e-07,9.34361554542595e-06
1.0248464817442341e-06,2.5362082305889517e-06,4.296892283469707e-07,9.374218694679374e-06
1.019612690005136e-06,2.529703392656396e-06,4.302708296129904e-07,9.424118243445524e-06
1.0148684332190666e-06,2.52099962684447e-06,4.3082484935341513e-07,9.493910497121864e-06
1.0106443684130231e-06,2.5101715735955483e-06,4.313319260169401e-07,9.58393492117359e-06
1.0069860890624912e-06,2.497297356670565e-06,4.317710301776529e-07,9.694261158331344e-06
1.0039477357217522e-06,2.4824537102501538e-06,4.3212046345816067e-07,9.824686429014335e-06
1.0015832326289586e-06,2.4657163273667327e-06,4.3235945143454723e-07,9.974742456554739e-06
9.9993878128973e-07,2.447158769689856e-06,4.324694361232933e-07,1.0143697103323809e-05
9.990539227722806e-07,2.4268489660366487e-06,4.324347877845997e-07,1.0330552084571093e-05
9.989704336397414e-07,2.4048501659691294e-06,4.322427492489789e-07,1.0534048993132857e-05
9.997403272557017e-07,2.3812277109282538e-06,4.3188268073970964e-07,1.0752701147424696e-05
1.0014270160396043e-06,2.356054827600795e-06,4.3134692045907757e-07,1.0984874108527363e-05
1.0040999389881535e-06,2.3294123549644345e-06,4.306326670564601e-07,1.122889919382589e-05
1.0078243705902217e-06,2.3013842012246482e-06,4.2974121249340134e-07,1.1483148286301187e-05
1.012649049963417e-06,2.2720524524297126e-06,4.2867595244560686e-07,1.1746024649522204e-05
1.0185985087876987e-06,2.241493719225944e-06,4.2744197150799866e-07,1.2015921474956876e-05
1.0256738084504558e-06,2.209778969827888e-06,4.2604611702275356e-07,1.2291220216538616e-05
1.033856180588482e-06,2.176979485429796e-06,4.244973306030155e-07,1.2570312636694134e-05
1.043108527013338e-06,2.1431764020931544e-06,4.2280728931615883e-07,1.2851587115410816e-05
1.0533752531218358e-06,2.108469681350452e-06,4.209895550031353e-07,1.3133383490769592e-05
1.0645822670744685e-06,2.0729875269867372e-06,4.1905749698816406e-07,1.3413976636795102e-05
1.0766400129717078e-06,2.036896853696459e-06,4.1702285044217404e-07,1.3691626407879424e-05
1.0894510490204894e-06,2.000409212121386e-06,4.14895045513438e-07,1.3964658024743756e-05
1.1029186371538085e-06,1.963775260311898e-06,4.1268117390188297e-07,1.4231489185178766e-05
1.116952201300422e-06,1.927267038637861e-06,4.1038715589455135e-07,1.4490587277915287e-05
1.1314689563218631e-06,1.8911571612684253e-06,4.080192735263653e-07,1.4740430913589068e-05
1.146391808678591e-06,1.855706107574961e-06,4.0558451366462395e-07,1.4979515997638794e-05
1.1616440363947304e-06,1.8211572885090686e-06,4.030897816326469e-07,1.5206391585600668e-05
1.1771443638765266e-06,1.7877309458413646e-06,4.005409990043221e-07,1.5419751568608166e-05
1.1928070625455358e-06,1.7556157846698913e-06,3.979430030523649e-07,1.5618592018284373e-05
1.208546272338477e-06,1.7249651409341945e-06,3.953016009245929e-07,1.580232395082645e-05
1.2242781972122858e-06,1.6958972505379186e-06,3.926277080531577e-07,1.5970753546228743e-05
1.2399187951746545e-06,1.6684954639024638e-06,3.8994031984078423e-07,1.6123983648973927e-05
1.255381727005236e-06,1.6428125639936096e-06,3.8726602766952024e-07,1.6262301514612012e-05
1.270579447985765e-06,1.6188823990618949e-06,3.846359380406222e-07,1.638606361537808e-05
1.2854249869086605e-06,1.596735347783656e-06,3.820810742785229e-07,1.649559816810311e-05
1.2998325318137509e-06,1.5764172708460468e-06,3.7962814885142e-07,1.6591150691334564e-05
1.3137179928654623e-06,1.5580101036505972e-06,3.77298538342458e-07,1.6672871420865977e-05
1.3270027944554421e-06,1.541642676808147e-06,3.7510980090220533e-07,1.6740842507640874e-05
1.3396225232828812e-06,1.527481465259615e-06,3.7307609995910566e-07,1.6795138656467368e-05
1.3515341303460623e-06,1.515702968353336e-06,3.712069645365193e-07,1.6835876795330724e-05
1.3627125926530705e-06,1.5064606568288246e-06,3.695069903623202e-07,1.6863216862151647e-05
1.3731395501774188e-06,1.4998621812870228e-06,3.6797709964354906e-07,1.6877326995287467e-05
1.3827977372942943e-06,1.4959633091043163e-06,3.666165982540886e-07,1.6878361621888375e-05
1.3916784122881418e-06,1.494772279164131e-06,3.6542715508504064e-07,1.686648653058559e-05
1.3997923586323922e-06,1.4962547839759647e-06,3.6441762241562507e-07,1.684191579581106e-05
1.4071703446610758e-06,1.5003364619911138e-06,3.6360484996769296e-07,1.6804929502555315e-05
1.4138518376151844e-06,1.50690609075088e-06,3.6300980389401886e-07,1.6755890276486302e-05
1.4198744197447868e-06,1.515822277541646e-06,3.626531648649546e-07,1.669524837639065e-05
1.4252720403029159e-06,1.5269237497752213e-06,3.6255244748343427e-07,1.662352599081644e-05
1.430076410394198e-06,1.540041200889736e-06,3.6272007717090173e-07,1.6541300613670847e-05
1.434315160000133e-06,1.5550067699592272e-06,3.631630477759821e-07,1.6449189286746953e-05
1.438008195644538e-06,1.571658778187244e-06,3.6388563626596777e-07,1.634782467465564e-05
1.4411656791226838e-06,1.5898422017175458e-06,3.648933896066384e-07,1.6237829712524415e-05
1.443790116910606e-06,1.609404410429547e-06,3.6619447136482026e-07,1.6119810356068594e-05
1.4458831051795968e-06,1.6301871497770769e-06,3.6779732235031025e-07,1.5994367446857958e-05
1.4474522046673501e-06,1.652022108608131e-06,3.6970669901914245e-07,1.5862103745985572e-05
1.4485107662654032e-06,1.6747351607827172e-06,3.7192096045436727e-07,1.572361653868281e-05
1.449070477787231e-06,1.6981560548959361e-06,3.7443168160518657e-07,1.5579487159231643e-05
1.4491351327072528e-06,1.7221291443689403e-06,3.7722410918198594e-07,1.5430276106967262e-05
1.448701000634095e-06,1.746519228821637e-06,3.8027800864559606e-07,1.5276530536002832e-05
1.4477602910730572e-06,1.7712057561662175e-06,3.8357055174881453e-07,1.5118797805815696e-05
1.4463032302217076e-06,1.7960702407214782e-06,3.8708027129395243e-07,1.4957613352448605e-05
1.444319113390819e-06,1.8209918796797826e-06,3.9078805626327527e-07,1.4793453940840826e-05
1.441796849190475e-06,1.8458552622409863e-06,3.946753201710004e-07,1.4626705632484434e-05
1.4387242994264756e-06,1.8705571982704253e-06,3.9872312016455743e-07,1.4457683968303687e-05
1.4350900253223663e-06,1.8950032654558627e-06,4.0291169131991147e-07,1.4286671006210165e-05
1.4308897307116897e-06,1.919099072566364e-06,4.0721863627843963e-07,1.4113925051605146e-05
1.4261304444813319e-06,1.9427459167766044e-06,4.1161806744408546e-07,1.3939669291817936e-05
1.4208270113274348e-06,1.965843936247444e-06,4.1608180643263604e-07,1.3764085874120807e-05
1.414997156656409e-06,1.988297007538847e-06,4.205804490556547e-07,1.358733326236207e-05
1.408662379320847e-06,2.01001427691522e-06,4.250839157626843e-07,1.3409589706502686e-05
1.401852350225821e-06,2.03090910326344e-06,4.2956287094771634e-07,1.3231103390459676e-05
1.3946053341061796e-06,2.05089630460151e-06,4.3399022622596654e-07,1.3052223014210319e-05
1.3869609912623147e-06,2.069889537737212e-06,4.383411468518854e-07,1.2873399403601565e-05
1.378951276626106e-06,2.0878013653409735e-06,4.425921764704395e-07,1.269515874740334e-05
1.3705986906679056e-06,2.1045428406524812e-06,4.467216398932246e-07,1.2518048950740308e-05
1.3619229096886721e-06,2.1200203008700557e-06,4.507114742534039e-07,1.2342571250004698e-05
1.3529479271436308e-06,2.1341340617733862e-06,4.545470768667921e-07,1.2169130797725285e-05
1.343702964298932e-06,2.146782457010361e-06,4.5821434188240917e-07,1.1998037352295054e-05
1.3342195799509036e-06,2.1578686602646736e-06,4.6169798025648744e-07,1.182952959888066e-05
1.324531922866284e-06,2.1673059322296483e-06,4.6498198450399474e-07,1.1663780327011713e-05
1.314680920491602e-06,2.175019668066662e-06,4.680498010103754e-07,1.1500895627086556e-05
1.3047168111954777e-06,2.180946912118845e-06,4.708853118251994e-07,1.1340932510004578e-05
1.2946953189273194e-06,2.18503514648265e-06,4.734760681230789e-07,1.1183935525199713e-05
1.2846685302340858e-06,2.187242778504066e-06,4.758164893837318e-07,1.1029974450650237e-05
1.2746776619689189e-06,2.187539981795448e-06,4.779081543800161e-07,1.0879150754827423e-05
1.2647550773769103e-06,2.185908850275933e-06,4.797568554400534e-07,1.0731567710638229e-05
1.2549361130726317e-06,2.1823499447968744e-06,4.81369325989589e-07,1.0587291839018596e-05
1.245273539877914e-06,2.176898562369855e-06,4.827529585650864e-07,1.0446339461412757e-05
1.2358439129741787e-06,2.169639647272508e-06,4.839175406493524e-07,1.0308715483860693e-05
1.2267408509897544e-06,2.160707848465048e-06,4.848747700635874e-07,1.0174481002517113e-05
1.2180623274896378e-06,2.150270544133524e-06,4.856348047387128e-07,1.0043775388842487e-05
1.2099045045228136e-06,2.138508990281561e-06,4.86203679774273e-07,9.916766307225382e-06
1.2023668623643129e-06,2.125618444214004e-06,4.865835306984765e-07,9.793581813165982e-06
1.19555806420515e-06,2.1118243003562963e-06,4.867736691097929e-07,9.67427763445726e-06
1.189589358819667e-06,2.0973899481342424e-06,4.867710666475912e-07,9.558841409729298e-06
1.1845589681017099e-06,2.082606504463568e-06,4.865713330408162e-07,9.447210839840737e-06
1.1805398899626914e-06,2.067774090390759e-06,4.861714432431196e-07,9.33929355518211e-06
1.1775749021976557e-06,2.0531808492617205e-06,4.855728776989132e-07,9.234998561269232e-06
1.1756761501348893e-06,2.0390819386012985e-06,4.847825111421606e-07,9.134320576541811e-06
1.1748279981854954e-06,2.0256866528646603e-06,4.838111654338362e-07,9.037480963758985e-06
1.1749933130504046e-06,2.0131580278537304e-06,4.826718141459837e-07,8.945007612092143e-06
1.1761227232300535e-06,2.001619111060975e-06,4.813789028891937e-07,8.857657121059498e-06
1.1781648018668136e-06,1.9911594303450292e-06,4.799487795030706e-07,8.776252644920894e-06
1.1810740142108604e-06,1.9818392582946943e-06,4.78399845624961e-07,8.701557072291859e-06
1.1848124614152523e-06,1.973691718579731e-06,4.767520662001171e-07,8.634248602036459e-06
1.1893440975227061e-06,1.966724063613916e-06,4.750261733805174e-07,8.575047561372831e-06
1.194626417226428e-06,1.9609205598584428e-06,4.732418124343878e-07,8.52491820103729e-06
1.2006059136586087e-06,1.956251502024448e-06,4.7141495415258074e-07,8.485139290549382e-06
1.2072183241397588e-06,1.9526899446989075e-06,4.69556178108905e-07,8.45719196861673e-06
1.2143908381828257e-06,1.950229662314829e-06,4.676704839857111e-07,8.442599989017618e-06
1.2220456680445655e-06,1.94889412563865e-06,4.657581514874837e-07,8.442801460691775e-06
1.230105556684396e-06,1.948727380727834e-06,4.638157934721263e-07,8.459050082320959e-06
1.2384969058619009e-06,1.949770121482903e-06,4.618371726845646e-07,8.492355633726421e-06
1.2471468192505528e-06,1.952046403707092e-06,4.5981398690108937e-07,8.543464339180004e-06
1.2559783497937055e-06,1.955580045508921e-06,4.5773712083251465e-07,8.61285001018807e-06
1.2649107136733306e-06,1.960421673814645e-06,4.5559869763488684e-07,8.700702202163817e-06
1.273865030480655e-06,1.966653807467218e-06,4.533938889509929e-07,8.806915735675407e-06
1.282769465466777e-06,1.974368022519173e-06,4.511206941728647e-07,8.93107828995157e-06
1.2915585099510012e-06,1.983634210812556e-06,4.487782031298337e-07,9.072469956994638e-06
1.300168217795828e-06,1.994483575603601e-06,4.463656651366415e-07,9.230099553399956e-06
1.3085353358828199e-06,2.006912535554566e-06,4.438829232002846e-07,9.402769828343107e-06
1.3166046858753094e-06,2.0208974538994566e-06,4.4133113149171297e-07,9.589155217901524e-06
1.3243378536303805e-06,2.036403413583382e-06,4.3871304551994326e-07,9.787893385122307e-06
1.331713907574226e-06,2.0533795890006523e-06,4.3603219730813534e-07,9.997669275387322e-06
1.3387222598634946e-06,2.0717491975163132e-06,4.3329125546188573e-07,1.0217260177246533e-05
1.3453541470095967e-06,2.0914094520183984e-06,4.304918422446818e-07,1.0445552086283744e-05
1.3515981936712222e-06,2.112245869180519e-06,4.2763592242427945e-07,1.0681542332610922e-05
1.357443043224903e-06,2.1341490985329472e-06,4.247257785414187e-07,1.0924321534302966e-05
1.362883807153302e-06,2.157026346689078e-06,4.2176225653756773e-07,1.11730514721914e-05
1.3679229809057071e-06,2.180812052239684e-06,4.1874450268790063e-07,1.1426959135225709e-05
1.3725636612048966e-06,2.2054790439348387e-06,4.156722323736558e-07,1.1685321083125347e-05
1.3768031141537362e-06,2.231039911756353e-06,4.125474045892036e-07,1.1947407143493867e-05
1.3806323599723931e-06,2.257530537544209e-06,4.093736177135245e-07,1.221241099304568e-05
1.3840411161727732e-06,2.2849818309523806e-06,4.0615555734244436e-07,1.2479418383940559e-05
1.3870247167387458e-06,2.3133952611712025e-06,4.028995003101767e-07,1.2747405948899464e-05
1.3895893050765708e-06,2.3427375169153235e-06,3.9961424416522654e-07,1.3015238185828916e-05
1.3917532363071764e-06,2.372956225589297e-06,3.963133033171785e-07,1.328167586418926e-05
1.3935432928206396e-06,2.404001540178628e-06,3.9301686490015394e-07,1.35454114487187e-05
1.3949863765651951e-06,2.435838705658166e-06,3.897500254690771e-07,1.3805104248038833e-05
1.396101708673889e-06,2.4684470910353227e-06,3.865388267010636e-07,1.4059395847065085e-05
1.3968985780559506e-06,2.50180747487973e-06,3.834086034475915e-07,1.4306925178084476e-05
1.3973798324766628e-06,2.5358840045028264e-06,3.8038513245166825e-07,1.4546354385508231e-05
1.3975460663016706e-06,2.570607938431802e-06,3.77496119084857e-07,1.4776386684143764e-05
1.3973973566905664e-06,2.6058679965947152e-06,3.7477152728670037e-07,1.4995762840064953e-05
1.3969377047700564e-06,2.641510945865604e-06,3.7224239620475826e-07,1.52032666212827e-05
1.3961840636630823e-06,2.677352652112672e-06,3.6993861285095893e-07,1.539777971260171e-05
1.3951702659525936e-06,2.713193962096286e-06,3.6788636980887e-07,1.55783357386017e-05
1.393940607629427e-06,2.7488342597349257e-06,3.661055533821704e-07,1.574410637835158e-05
1.3925404865244374e-06,2.784080081277126e-06,3.6460807007926213e-07,1.5894389878030936e-05
1.3910104930571156e-06,2.818746305351806e-06,3.633982161809208e-07,1.6028672661896415e-05
1.3893831135095302e-06,2.852647822227576e-06,3.624738622548858e-07,1.6146691890035903e-05
1.3876807483802652e-06,2.8855902729370436e-06,3.618271213607942e-07,1.624843435243406e-05
1.3859157671537122e-06,2.9173696095268045e-06,3.6144543141420133e-07,1.633409896219145e-05
1.3840920513430728e-06,2.947779699578668e-06,3.613138569337449e-07,1.640404648906052e-05
1.3822081327991186e-06,2.976626973616218e-06,3.614186271601778e-07,1.64587714985691e-05
1.380264450696625e-06,3.0037481782855706e-06,3.6175061731346967e-07,1.649895880822633e-05
1.3782720234921391e-06,3.0290157100204437e-06,3.623052442340736e-07,1.6525556467810353e-05
1.3762551997535312e-06,3.0523250781976963e-06,3.630794195015507e-07,1.6539722224744174e-05
1.3742482375382726e-06,3.073584188504348e-06,3.6407116670430345e-07,1.6542669300980868e-05
1.3722914247175722e-06,3.09272112746305e-06,3.6528242264288953e-07,1.6535529787365948e-05
1.370427346415948e-06,3.1097011893680697e-06,3.6672030000653594e-07,1.6519317606043078e-05
1.3686949183406278e-06,3.1245363499865125e-06,3.6839499175737756e-07,1.6495071130570713e-05
1.3671234278852345e-06,3.1372803091278283e-06,3.703165265220254e-07,1.64641027651703e-05
1.3657294448436717e-06,3.1480113294226013e-06,3.7249228499895847e-07,1.6428103592701687e-05
1.3645182315225772e-06,3.1568120048114084e-06,3.7492507577330975e-07,1.638901213340676e-05
1.3634904585140032e-06,3.163753951967642e-06,3.7761173900689724e-07,1.634879962862753e-05
1.3626506409337234e-06,3.1688903834253492e-06,3.805428607008229e-07,1.6309302536407018e-05
1.3620126572833864e-06,3.1722564264781838e-06,3.837033019840765e-07,1.62721142372853e-05
1.3615980482809377e-06,3.173870810603183e-06,3.8707386547237723e-07,1.6238510121419714e-05
1.3614258787304838e-06,3.1737339903796805e-06,3.9063503454722097e-07,1.6209400325203336e-05
1.361502800385863e-06,3.171827314678239e-06,3.943704984435265e-07,1.6185323073626918e-05
1.3618222847608592e-06,3.168117842683362e-06,3.9826756347332633e-07,1.6166477026886553e-05
1.362371587742668e-06,3.1625711423973763e-06,4.023158722370133e-07,1.6152782113856264e-05
1.3631394988049348e-06,3.1551744794554714e-06,4.065060146518014e-07,1.6143957558443742e-05
1.364119106118921e-06,3.1459613918740506e-06,4.108286520423211e-07,1.6139590832237304e-05
1.3653039649244112e-06,3.135017556833578e-06,4.152753759310432e-07,1.613918753770241e-05
1.3666813426126357e-06,3.122460426509982e-06,4.1983908945181045e-07,1.6142231084747487e-05
1.3682299183156106e-06,3.1084092370779212e-06,4.245117259008101e-07,1.6148269265633352e-05
1.369925803355499e-06,3.092967556558261e-06,4.292823079003873e-07,1.6156996755853012e-05
1.3717516875619728e-06,3.0762255410174833e-06,4.3413770301434347e-07,1.61682936760014e-05
1.3737027616727178e-06,3.058270196715858e-06,4.3906370171637403e-07,1.618221946495e-05
1.3757874224097627e-06,3.0391863188739777e-06,4.44044517410991e-07,1.6198991299746038e-05
1.3780209735958705e-06,3.0190468077003653e-06,4.4906160681871026e-07,1.6218963106118314e-05
1.3804141139655009e-06,2.997904872386362e-06,4.5409269425065784e-07,1.6242588196894655e-05
1.3829640627968649e-06,2.9757953989986772e-06,4.5911205334324133e-07,1.627034430427397e-05
1.3856544463206158e-06,2.9527463487014336e-06,4.6409226509716366e-07,1.6302628970703954e-05
1.388461861086891e-06,2.9287948160282075e-06,4.6900576900580323e-07,1.6339657985267726e-05
1.3913615253148328e-06,2.903993245863293e-06,4.7382581933617094e-07,1.6381428652503647e-05
1.3943287673799286e-06,2.8784030723829414e-06,4.785279665344154e-07,1.642781062780041e-05
1.397339169964425e-06,2.8520967560300822e-06,4.830915727446017e-07,1.6478711621872578e-05
1.4003684093351163e-06,2.82517860640614e-06,4.874993938438539e-07,1.6534173529169842e-05
1.4033896286044938e-06,2.7978003952198656e-06,4.917357385357788e-07,1.6594358444657356e-05
1.4063690326665079e-06,2.770147069935572e-06,4.957854018451884e-07,1.6659497310999518e-05
1.409265156568079e-06,2.742402368059118e-06,4.996326893417932e-07,1.67298459511199e-05
1.4120343164626206e-06,2.7147236198528265e-06,5.032599028315617e-07,1.6805641251298225e-05
1.41463717609045e-06,2.687236753489065e-06,5.066472744858785e-07,1.6887035330109412e-05
1.4170403701516897e-06,2.6600385035619487e-06,5.097748687976132e-07,1.6974014959771452e-05
1.4192120365004694e-06,2.63319593905295e-06,5.126247491493515e-07,1.7066347198305803e-05
1.421115627725906e-06,2.6067463152079893e-06,5.151820749284608e-07,1.7163561963081776e-05
1.4227077990604358e-06,2.5807006656446085e-06,5.174347813750789e-07,1.7264971748941543e-05
1.423941293482463e-06,2.5550514645789902e-06,5.19372589145182e-07,1.736975900691793e-05
1.4247705630670254e-06,2.52978317798184e-06,5.209876827186847e-07,1.7477123436295746e-05
1.4251591375191887e-06,2.504880058725308e-06,5.222779125806679e-07,1.7586399952626804e-05
1.4250870874850697e-06,2.4803259014156412e-06,5.232485319146494e-07,1.7697052645260045e-05
1.424555021343588e-06,2.456098287268224e-06,5.239101091575729e-07,1.7808560802781488e-05
1.4235834116900694e-06,2.4321632075913067e-06,5.242772438668407e-07,1.792032065574378e-05
1.42220905955357e-06,2.4084726183337813e-06,5.243697970915579e-07,1.8031630252380965e-05
1.4204783933416125e-06,2.3849652069229854e-06,5.242116252484409e-07,1.8141703129769894e-05
1.418439497848524e-06,2.3615700861404483e-06,5.238266953499431e-07,1.8249661791688972e-05
1.4161402054950668e-06,2.338210863300975e-06,5.232378110727752e-07,1.8354535895022965e-05
1.4136351836694876e-06,2.314808320869421e-06,5.224685911211249e-07,1.8455337504828737e-05
1.4109998776946242e-06,2.2912850473472044e-06,5.21545304111521e-07,1.8551248019274e-05
1.408344681344168e-06,2.2675726187128613e-06,5.204973911919098e-07,1.8641781686692785e-05
1.4058153933812078e-06,2.243614102057729e-06,5.193566951377208e-07,1.8726751679629558e-05
1.4035751360212622e-06,2.219358943345167e-06,5.181543240620076e-07,1.8806087407740492e-05
1.4017796597686122e-06,2.194757180952013e-06,5.169174189339487e-07,1.8879670141225847e-05
1.4005577740193159e-06,2.1697594086219345e-06,5.15668878064177e-07,1.8947283542008974e-05
1.4000023118089137e-06,2.144321714831866e-06,5.144273854100136e-07,1.900874200812251e-05
1.400173616427435e-06,2.1184107647608283e-06,5.132057896607653e-07,1.906414710439535e-05
1.401110812380255e-06,2.092005066650633e-06,5.120104328281678e-07,1.9114038616593505e-05
1.402841776255728e-06,2.065091845373412e-06,5.108424645599517e-07,1.9159298432003533e-05
1.40538596440633e-06,2.037663690911014e-06,5.096995613034456e-07,1.920092294649412e-05
1.4087506430503006e-06,2.0097197622733997e-06,5.085770712261508e-07,1.9239820391555e-05
1.4129267205777097e-06,1.9812703870489867e-06,5.074691173639124e-07,1.9276682022983767e-05
1.4178908906829226e-06,1.952339880063372e-06,5.063702856162223e-07,1.9311922983629418e-05
1.4236125462923358e-06,1.922963542926822e-06,5.052782742938878e-07,1.9345683593883748e-05
1.430058645169698e-06,1.8931803640530739e-06,5.041973212856575e-07,1.937787449553352e-05
1.4371970431052112e-06,1.863027862927483e-06,5.031389447622138e-07,1.9408225464186205e-05
1.4450028197869568e-06,1.8325426901664607e-06,5.021174709023225e-07,1.943631028700621e-05
1.4534641459910866e-06,1.8017675286250665e-06,5.011442373350146e-07,1.94615770927422e-05
1.4625803207060068e-06,1.770762349336021e-06,5.002247477707213e-07,1.9483411661031574e-05
1.472352158410306e-06,1.73961066102748e-06,4.993587449840528e-07,1.9501204531666907e-05
1.4827713198218677e-06,1.7084124656244757e-06,4.985417696605661e-07,1.951439040971102e-05
1.4938135777202713e-06,1.6772696057888178e-06,4.97767872861519e-07,1.952246853802508e-05
1.505437528618219e-06,1.6462784703798818e-06,4.970334188515034e-07,1.952502281147768e-05
1.5175877180386444e-06,1.6155383738765072e-06,4.963391371602053e-07,1.952173708867427e-05
1.5301997784662364e-06,1.5851674563753472e-06,4.956878207738154e-07,1.951238466881303e-05
1.5432058312142936e-06,1.55530917418889e-06,4.950810051637346e-07,1.9496786310769047e-05
1.5565374900528425e-06,1.5261213457425384e-06,4.945191418544469e-07,1.947475013410664e-05
1.570124265995189e-06,1.4977552744653832e-06,4.940045277070856e-07,1.9446017184025947e-05
1.583892579808331e-06,1.4703385780487888e-06,4.935441452909886e-07,1.9410247106186623e-05
1.5977713516958877e-06,1.443970677883551e-06,4.931508586948648e-07,1.9367058044153007e-05
1.6117005063190253e-06,1.418733752009514e-06,4.928421178471707e-07,1.931610063928885e-05
1.625635769450841e-06,1.3947124172683843e-06,4.926365719081153e-07,1.9257147692387666e-05
1.6395455141860913e-06,1.3720025381445951e-06,4.925509605120504e-07,1.9190185204062845e-05
1.653401092293931e-06,1.3506994979152132e-06,4.926009358963865e-07,1.9115466508344225e-05
1.6671712491170353e-06,1.330886260178914e-06,4.928055424428682e-07,1.9033489434715774e-05
1.680824056871378e-06,1.3126416974010497e-06,4.931887035232824e-07,1.8944906990200115e-05
1.6943254859068716e-06,1.296060544455966e-06,4.937744437979467e-07,1.8850429230826654e-05
1.70763198681176e-06,1.2812669531690798e-06,4.945809190758743e-07,1.8750762830698692e-05
1.7206862361741315e-06,1.2684135540478657e-06,4.956186003516271e-07,1.8646579393387547e-05
1.7334183170240575e-06,1.25766364564463e-06,4.968923822789385e-07,1.8538472851738777e-05
1.7457494064652404e-06,1.2491651070893992e-06,4.984038547950698e-07,1.842691062182308e-05
1.7575964954360668e-06,1.243035770293442e-06,5.001508367514713e-07,1.8312229714596893e-05
1.7688757920496467e-06,1.2393660750499726e-06,5.021248121161167e-07,1.8194704338088866e-05
1.7795041009048282e-06,1.2382260648437786e-06,5.04309374351713e-07,1.8074660120960664e-05
1.7893989354556087e-06,1.2396688620562723e-06,5.066809387975864e-07,1.7952591810697087e-05
1.798479737456198e-06,1.2437312468822175e-06,5.092101888707478e-07,1.7829261653745198e-05
1.806673662866709e-06,1.2504291410970584e-06,5.118630441138399e-07,1.7705752231095983e-05
1.8139227463756585e-06,1.2597491842773979e-06,5.14601321845196e-07,1.7583427015258027e-05
1.8201845535562835e-06,1.271648926546623e-06,5.173836290311613e-07,1.7463789473509307e-05
1.8254247194657054e-06,1.286072050694198e-06,5.201670531928587e-07,1.734828304233922e-05
1.829610273228648e-06,1.3029649611346741e-06,5.229098774673406e-07,1.7238101699561007e-05
1.832713149050457e-06,1.3222809820081826e-06,5.255740021792298e-07,1.713408768859212e-05
1.8347191306542192e-06,1.3439714358014268e-06,5.281257870893991e-07,1.7036733674408872e-05
1.8356300577309184e-06,1.3679703455024809e-06,5.305367765234706e-07,1.6946237012529e-05
1.8354585984757096e-06,1.3941885149554216e-06,5.327847197100165e-07,1.6862593692837177e-05
1.8342223523132446e-06,1.422526668648151e-06,5.348526783862637e-07,1.6785781552374982e-05
1.8319387902546641e-06,1.452893904138428e-06,5.367284197051772e-07,1.671596299595816e-05
1.8286234954318813e-06,1.485215534567529e-06,5.3840741754542e-07,1.665352221864815e-05
1.824294895875702e-06,1.5194283119966343e-06,5.398954435286124e-07,1.6598925234310858e-05
1.818978068441433e-06,1.5554644187914185e-06,5.412060394986729e-07,1.6552557349711573e-05
1.812701033520494e-06,1.5932306113495703e-06,5.423547385681619e-07,1.6514630975636396e-05
1.8054899825628769e-06,1.632595315117489e-06,5.433552997755261e-07,1.6485222911907227e-05
1.7973679397514804e-06,1.6733894213811892e-06,5.442198320816318e-07,1.646446702796932e-05
1.7883528987633801e-06,1.7154169977557068e-06,5.449588517273939e-07,1.6452754305282723e-05
1.7784556098079684e-06,1.758467293230721e-06,5.455793535796076e-07,1.645076722139996e-05
1.76768141622145e-06,1.802319305868864e-06,5.460840864676247e-07,1.6459383314095487e-05
1.756035847108261e-06,1.8467439988520698e-06,5.464728626886076e-07,1.6479562781242326e-05
1.7435297606012088e-06,1.8915178390341441e-06,5.467435351445517e-07,1.6512247504065132e-05
1.7301803437382188e-06,1.9364453289333963e-06,5.468919632822232e-07,1.6558268807438575e-05
1.716007866379003e-06,1.981375094721793e-06,5.469125022110239e-07,1.6618274605612445e-05
1.7010336369355432e-06,2.0262003959951363e-06,5.468004129407928e-07,1.669267524497132e-05
1.6852833699697349e-06,2.070843055645258e-06,5.46554336441578e-07,1.6781610413805728e-05
1.668791612524724e-06,2.1152292435336443e-06,5.461755256756342e-07,1.6884950644835952e-05
1.6516016897288931e-06,2.1592797036099946e-06,5.456663747707567e-07,1.7002316393079573e-05
1.6337617447480869e-06,2.2029248324914587e-06,5.450328912745585e-07,1.7133078767296508e-05
1.6153194272355184e-06,2.2461212857503865e-06,5.442879437226448e-07,1.7276344285555935e-05
1.5963181024659226e-06,2.288848965229005e-06,5.434498555841696e-07,1.7430948816609476e-05
1.576796567327154e-06,2.3310964248259577e-06,5.425384467273938e-07,1.7595479351180413e-05
1.5567903006051174e-06,2.3728461255390936e-06,5.415734768629012e-07,1.7768332897954716e-05
1.5363337884035896e-06,2.414060021442616e-06,5.405746659612836e-07,1.7947793211267773e-05
1.5154658607935125e-06,2.4546690368742654e-06,5.395597855839799e-07,1.8132092320810144e-05
1.4942356547919478e-06,2.49457187735807e-06,5.385421856224919e-07,1.8319455716056832e-05
1.472706382975971e-06,2.5336407078915104e-06,5.375309036790668e-07,1.8508151207010108e-05
1.4509593052594386e-06,2.5717280021769444e-06,5.365321343787412e-07,1.869653428773867e-05
1.4290995775624966e-06,2.6086718298512646e-06,5.355496594880088e-07,1.8883068424797917e-05
1.4072593047701444e-06,2.6443016984717e-06,5.345841206808678e-07,1.9066326803152946e-05
1.3855913594571579e-06,2.678448882098906e-06,5.336317671493473e-07,1.924498272387423e-05
1.3642530471353748e-06,2.710958315529773e-06,5.326838928629164e-07,1.941777525965929e-05
1.3433877516925658e-06,2.7416932236901485e-06,5.317278932049911e-07,1.958347510607758e-05
1.3231169438611215e-06,2.7705288730369302e-06,5.307488599853657e-07,1.9740898508621666e-05
1.3035457800610977e-06,2.797342569220771e-06,5.297304527681635e-07,1.9888940036153448e-05
1.2847730468750223e-06,2.822012366154445e-06,5.286555104375891e-07,2.0026564554958085e-05
1.266894908775096e-06,2.844428888816745e-06,5.275073166771595e-07,2.0152777014808404e-05
1.24999977002475e-06,2.864508843668145e-06,5.262714585871772e-07,2.0266619488384285e-05
1.2341622485488626e-06,2.8821967760921338e-06,5.249377025208062e-07,2.036719420184444e-05
1.2194460860026042e-06,2.897455458291938e-06,5.235014065399374e-07,2.045367921636665e-05
1.2059140977351259e-06,2.910253798610042e-06,5.219631686402438e-07,2.0525339837612848e-05
1.1936361728889802e-06,2.920560029387552e-06,5.203256788351553e-07,2.058156675338884e-05
1.182690918693638e-06,2.9283423196736117e-06,5.185900892945642e-07,2.0621930583875093e-05
1.1731631266527851e-06,2.933571212506113e-06,5.167551968223927e-07,2.0646226456275673e-05
1.1651421174913768e-06,2.936218735074e-06,5.148190671392145e-07,2.0654516848252475e-05
1.158720743350503e-06,2.9362583627005874e-06,5.127801188210942e-07,2.064718475418264e-05
1.153989183678142e-06,2.933675488629578e-06,5.10637032878945e-07,2.062496035638372e-05
1.1510222233900058e-06,2.9284890550998764e-06,5.083898642075911e-07,2.0588855395406973e-05
1.1498670149736601e-06,2.9207676824714945e-06,5.06041697157444e-07,2.054000350160857e-05
1.1505410565299194e-06,2.910624101524438e-06,5.035974004241813e-07,2.047949063112227e-05
1.1530410582922805e-06,2.8981924277936383e-06,5.010608472983836e-07,2.0408263619745264e-05
1.1573512584880965e-06,2.8836066361984888e-06,4.984344999926275e-07,2.0327131929710755e-05
1.163444744654449e-06,2.8669953970877047e-06,4.957200317613118e-07,2.023681365680105e-05
1.1712850590244354e-06,2.8484938796941992e-06,4.929173205267103e-07,2.013797293040541e-05
1.1808339613244331e-06,2.828256569683588e-06,4.900239530647679e-07,2.003124122050545e-05
1.1920590621544964e-06,2.8064548310260927e-06,4.870370764851817e-07,1.9917283476716706e-05
1.204933793627726e-06,2.7832644317734088e-06,4.839548722400211e-07,1.9796905060787486e-05
1.2194301275551666e-06,2.7588623582068463e-06,4.807759836282682e-07,1.967105582395766e-05
1.2355068457560288e-06,2.733433450321979e-06,4.77499395060289e-07,1.9540697626299664e-05
1.2530982916200147e-06,2.7071674611133666e-06,4.741257239759286e-07,1.9406678750983865e-05
1.2721099937721745e-06,2.68024263933299e-06,4.7065758846017865e-07,1.926969732540909e-05
1.292420715042378e-06,2.652813261015837e-06,4.670988909699108e-07,1.9130368602619047e-05
1.3138869559135016e-06,2.6250091370272057e-06,4.6345642448792326e-07,1.8989418684569254e-05
1.3363487256294866e-06,2.596941070635495e-06,4.5974520626910904e-07,1.8847891187248856e-05
1.3596353154159679e-06,2.568711365602253e-06,4.559923464087289e-07,1.8707171801500078e-05
1.3835700760836911e-06,2.540425712476525e-06,4.522337608079621e-07,1.8568836783787507e-05
1.407976015098488e-06,2.512193531656189e-06,4.485070162355133e-07,1.8434482335160802e-05
1.432682931074031e-06,2.4841180184548334e-06,4.4484769013811206e-07,1.8305608434900327e-05
1.457532751179429e-06,2.4562933222921347e-06,4.4128954123931606e-07,1.818354022114872e-05
1.4823809305369948e-06,2.4288129970436717e-06,4.3786375633741075e-07,1.806936261649085e-05
1.5070972915988931e-06,2.40177459805472e-06,4.3459640097907935e-07,1.7963872385845387e-05
1.5315677941913381e-06,2.3752720239334263e-06,4.3150693407912646e-07,1.7867572086148338e-05
1.5556910228463469e-06,2.349383884189781e-06,4.2860960221301117e-07,1.7780708467485018e-05
1.5793682995179875e-06,2.324166114821041e-06,4.259174210698475e-07,1.7703321178966855e-05
1.602499156877014e-06,2.2996509768704308e-06,4.2344577001564724e-07,1.7635270116139166e-05
1.6249889239638804e-06,2.275855378177598e-06,4.2121288920807904e-07,1.7576246899634217e-05
1.6467593759109492e-06,2.252796076639213e-06,4.1923841724569283e-07,1.7525788110759158e-05
1.667752355275491e-06,2.2304997528259003e-06,4.1754081968903867e-07,1.7483289077827812e-05
1.6879257361394116e-06,2.2090009287984458e-06,4.161337456371685e-07,1.7448015834892357e-05
1.7072461253998257e-06,2.1883333388019097e-06,4.15024055216444e-07,1.7419131132822707e-05
1.725683345237476e-06,2.168521830775886e-06,4.142131720049588e-07,1.7395736935862524e-05
1.7432082322007941e-06,2.1495756505059172e-06,4.1369922165104e-07,1.7376909084518968e-05
1.759790786538664e-06,2.1314836882084166e-06,4.1347716320430424e-07,1.736171955523506e-05
1.7753976634336532e-06,2.114215631310501e-06,4.135372675249067e-07,1.7349262457780033e-05
1.7899914501548638e-06,2.09772882828185e-06,4.1386464620509293e-07,1.7338679383736293e-05
1.8035316561806855e-06,2.0819734216021487e-06,4.144418164611195e-07,1.7329163888457414e-05
1.8159764662979168e-06,2.066890983157251e-06,4.152525161501062e-07,1.7319937989864892e-05
1.8272888860735504e-06,2.0524113532079237e-06,4.1628345573882883e-07,1.7310221125081054e-05
1.8374468188689255e-06,2.0384533603395567e-06,4.175244486666592e-07,1.7299231166632072e-05
1.846448042364679e-06,2.0249295847487484e-06,4.189694316948486e-07,1.72862259833275e-05
1.8543069121088641e-06,2.0117569805479407e-06,4.206177466385796e-07,1.7270529421739293e-05
1.8610487746064743e-06,1.9988734479548217e-06,4.224736269355524e-07,1.7251504833972607e-05
1.866706142134264e-06,1.986248246195575e-06,4.245439725949769e-07,1.7228521273122034e-05
1.871316603444368e-06,1.9738743466556757e-06,4.268349761422438e-07,1.7200960501792632e-05
1.8749217852160717e-06,1.961750073548417e-06,4.2934844824220314e-07,1.716825835715353e-05
1.8775672738680766e-06,1.949870956733712e-06,4.3207997493216717e-07,1.7129933061476608e-05
1.8793029312601108e-06,1.9382398212859315e-06,4.3501948092706783e-07,1.7085571431924087e-05
1.8801815138068825e-06,1.9268792684245917e-06,4.381524480957819e-07,1.7034817863413553e-05
1.8802548837747249e-06,1.915829056210969e-06,4.4146095828009407e-07,1.697741350490625e-05
1.8795695882499948e-06,1.9051302743875183e-06,4.449254003624551e-07,1.691326191545735e-05
1.878165017372224e-06,1.8948115062203544e-06,4.485263850452545e-07,1.684247962177742e-05
1.8760784477262333e-06,1.884885266732312e-06,4.5224484667046425e-07,1.6765433451606618e-05
1.873358576593374e-06,1.875349739728109e-06,4.5606017565249327e-07,1.668276753201932e-05
1.870082374481403e-06,1.8661914711917847e-06,4.5994948416136504e-07,1.65953713136319e-05
1.8663634639854455e-06,1.8573885933590137e-06,4.6389047713137e-07,1.650425825546945e-05
1.862342446748761e-06,1.8489109533243518e-06,4.678647068030569e-07,1.6410407133016198e-05
1.858164090493853e-06,1.8407173133131242e-06,4.718563002834457e-07,1.631464812714231e-05
1.8539570065331931e-06,1.8327556152386088e-06,4.7584802180748433e-07,1.6217625444408013e-05
1.8498256502682368e-06,1.8249675271104007e-06,4.798201420322137e-07,1.611980178329921e-05
1.8458520722837162e-06,1.8172936087489688e-06,4.837522124296405e-07,1.6021468017859468e-05
1.8420987748617558e-06,1.8096776687964737e-06,4.876244723898588e-07,1.5922782070449177e-05
1.8386069809813512e-06,1.8020732086176552e-06,4.914194328804364e-07,1.582390813500541e-05
1.8353929028722374e-06,1.794454433205003e-06,4.951249717197271e-07,1.5725230540344772e-05
1.8324482192535942e-06,1.7868255761002135e-06,4.987364898853013e-07,1.5627454710072405e-05
1.829746734621837e-06,1.77921731953825e-06,5.022561993367782e-07,1.5531490619904327e-05
1.827254942142147e-06,1.771671965613216e-06,5.056899232454181e-07,1.54382406831133e-05
1.8249426577221017e-06,1.7642377570388488e-06,5.09042828631143e-07,1.534845022874603e-05
1.8227903764534912e-06,1.7569869797335671e-06,5.123161978408735e-07,1.5262707048129813e-05
1.8207928173664047e-06,1.7500410468887112e-06,5.155058504118723e-07,1.518161442104962e-05
1.81895940144933e-06,1.7435715592589142e-06,5.186021923122265e-07,1.5106006091901776e-05
1.8173093283814525e-06,1.737770672060621e-06,5.215915628927104e-07,1.5036996048404864e-05
1.8158611482316967e-06,1.7328139057138257e-06,5.24457025491615e-07,1.4975849855776649e-05
1.8146260401344586e-06,1.7288384533899512e-06,5.271783314958906e-07,1.492382266849007e-05
1.8136094121041386e-06,1.7259378316687583e-06,5.29732725875887e-07,1.4882042140837858e-05
1.8128122316005288e-06,1.7241629633262002e-06,5.320964109810444e-07,1.4851430608150034e-05
1.8122265515350108e-06,1.7235275938528736e-06,5.342457638518717e-07,1.4832650937966406e-05
1.811828802680141e-06,1.7240200731593754e-06,5.361587612348956e-07,1.4826070158094147e-05
1.811576547756109e-06,1.7256159681122837e-06,5.378170371746771e-07,1.4831750513648319e-05
1.81141330960713e-06,1.7282821603927613e-06,5.392088880014075e-07,1.4849485123210468e-05
1.8112780656227779e-06,1.731972272619107e-06,5.403310654157065e-07,1.4878865706200933e-05
1.8111093251848664e-06,1.7366227892466427e-06,5.411859386868222e-07,1.4919333203428506e-05
1.8108422612886536e-06,1.742155750001812e-06,5.417773031787406e-07,1.497018023128678e-05
1.810406158393313e-06,1.7484842097988934e-06,5.421103475174182e-07,1.5030524477477094e-05
1.8097250176529635e-06,1.7555142784541188e-06,5.421933994311407e-07,1.509929975928747e-05
1.808720369692271e-06,1.7631436759156727e-06,5.42036680311576e-07,1.5175297720034714e-05
1.8073180438294707e-06,1.7712614902794099e-06,5.41650219351722e-07,1.5257249730822918e-05
1.805459632557455e-06,1.7797500941738013e-06,5.410445290184433e-07,1.5343903848781886e-05
1.8031136431250043e-06,1.7884871364362362e-06,5.402312895521081e-07,1.5434061532350956e-05
1.8002802510606988e-06,1.7973480674807174e-06,5.392213844188376e-07,1.5526590009623457e-05
1.7969886277328892e-06,1.8062086624993554e-06,5.380228711001868e-07,1.5620442247957808e-05
1.793288148555994e-06,1.8149487233192959e-06,5.366415072845774e-07,1.5714671076420472e-05
1.7892350810256946e-06,1.8234600663837646e-06,5.35083158484736e-07,1.5808412106293387e-05
1.7848803960183777e-06,1.8316517346858917e-06,5.33355521427651e-07,1.5900842474709654e-05
1.7802658911153182e-06,1.839444404371836e-06,5.314683960596276e-07,1.5991134209172587e-05
1.775428814566394e-06,1.8467617794078853e-06,5.294328950650685e-07,1.6078438320585513e-05
1.7704074557360317e-06,1.8535306248620888e-06,5.272593686892888e-07,1.6161942738494305e-05
1.7652426618868642e-06,1.8596885799761512e-06,5.249567606179567e-07,1.6240967413437692e-05
1.759977356630367e-06,1.865193425584936e-06,5.225356169593218e-07,1.631500011329476e-05
1.7546558557419225e-06,1.870031888218501e-06,5.200106274981812e-07,1.6383655029196593e-05
1.7493221460379814e-06,1.8742238818216939e-06,5.173988824905794e-07,1.6446614379661483e-05
1.7440176570224755e-06,1.877814160954401e-06,5.147167214507678e-07,1.6503582750393335e-05
1.7387791009257763e-06,1.8808547315892102e-06,5.119785010736718e-07,1.6554262376985943e-05
1.7336359248626076e-06,1.8833947174430813e-06,5.091963106654872e-07,1.659839236610647e-05
1.7286072793266518e-06,1.885484924459621e-06,5.063796987592424e-07,1.6635835391868012e-05
1.7236982922264732e-06,1.887188627631786e-06,5.035360326367954e-07,1.6666606969309594e-05
1.7188974719546241e-06,1.8885889473629558e-06,5.006718173580811e-07,1.669082762977576e-05
1.7141779989407297e-06,1.889784685064153e-06,4.97794507987662e-07,1.670866229716502e-05
1.7095014932852459e-06,1.8908769527781952e-06,4.94913093619416e-07,1.6720264581013524e-05
1.704823053351235e-06,1.8919648424726687e-06,4.920370895964193e-07,1.672572374741232e-05
1.7000997515877643e-06,1.8931540896490368e-06,4.891761168519671e-07,1.6725025486323298e-05
1.6953016895605338e-06,1.8945601610700696e-06,4.863401974989628e-07,1.6718038668185405e-05
1.6904193318238487e-06,1.896297149282238e-06,4.83538704508873e-07,1.6704549238498328e-05
1.6854604473819676e-06,1.8984616371582043e-06,4.807790431100997e-07,1.6684336545169108e-05
1.680438197832419e-06,1.9011248445360645e-06,4.78067521076902e-07,1.6657237615332287e-05
1.6753598855722562e-06,1.904343706676997e-06,4.754103153903537e-07,1.6623159510289112e-05
1.670221132058439e-06,1.908190230183121e-06,4.728118506815749e-07,1.6582053030224114e-05
1.6650038398620263e-06,1.912783824295671e-06,4.7027274991216725e-07,1.653388658351496e-05
1.659678239370524e-06,1.9183024832268656e-06,4.6778956421306345e-07,1.6478663984447876e-05
1.654210295170152e-06,1.924958587943401e-06,4.6535528539650785e-07,1.641647821023268e-05
1.6485722719312976e-06,1.93296270230476e-06,4.629599953495772e-07,1.634753516854646e-05
1.6427503010114269e-06,1.942518888697557e-06,4.6059206285897896e-07,1.6272117993690217e-05
1.6367422832099175e-06,1.9538559151883843e-06,4.582391357221942e-07,1.6190515861109098e-05
1.6305474227754643e-06,1.9672536044876856e-06,4.5588807970133455e-07,1.6102957006867246e-05
1.6241574822721413e-06,1.983031493041558e-06,4.535245168128435e-07,1.6009579452862312e-05
1.617555363839916e-06,2.001503184473576e-06,4.5113353846727855e-07,1.5910440240602225e-05
1.6107170142352246e-06,2.022924644987237e-06,4.48703504752096e-07,1.5805541326104393e-05
1.6036128225916088e-06,2.0474661656597225e-06,4.4623180000234936e-07,1.5694850942743785e-05
1.5962084741398372e-06,2.0752142793327686e-06,4.437274009352362e-07,1.5578308870848534e-05
1.5884657082460078e-06,2.1061846670899242e-06,4.412091150872585e-07,1.545582042930228e-05
1.5803432039845069e-06,2.1403279915064385e-06,4.3870302901030427e-07,1.5327255076617852e-05
1.5717976248611828e-06,2.177528670613605e-06,4.362388622871426e-07,1.5192460627495334e-05
1.5627861051513538e-06,2.2176059311029227e-06,4.338443698241328e-07,1.5051289485333048e-05
1.553271668251397e-06,2.2603210257153737e-06,4.3154223292318344e-07,1.4903619956509946e-05
1.543228463419848e-06,2.3053888606147852e-06,4.2935174670364546e-07,1.4749359443013647e-05
1.5326415183539581e-06,2.3524949187152138e-06,4.2729063730493603e-07,1.4588441601434787e-05
1.521502127306274e-06,2.401319896424637e-06,4.253739687676985e-07,1.4420830942395318e-05
1.5098053902962773e-06,2.451568283794477e-06,4.2361416004618026e-07,1.4246523751410093e-05
1.4975509988430563e-06,2.5029904541169417e-06,4.220240799607719e-07,1.4065539485143732e-05
1.4847422939677753e-06,2.555388166219344e-06,4.2061912645748686e-07,1.3877912876181895e-05
1.471383479534978e-06,2.6085995248676153e-06,4.194166495681942e-07,1.3683694409728245e-05
1.4574798770279269e-06,2.6624695365406564e-06,4.184342793248109e-07,1.3482957539478315e-05
1.4430405540169715e-06,2.7168221128894957e-06,4.17688312646411e-07,1.3275804548031047e-05
1.4280788812235564e-06,2.7714490040632146e-06,4.1719338072346e-07,1.3062376544970315e-05
1.412612601677836e-06,2.826119733170515e-06,4.169626455006717e-07,1.2842874070563929e-05
1.396666767092199e-06,2.880602361253262e-06,4.1700642401959383e-07,1.2617574925508075e-05
1.3802773053555773e-06,2.9346780017924647e-06,4.173295819402181e-07,1.2386847913036995e-05
1.3634922147165302e-06,2.988140091592873e-06,4.1792975320610317e-07,1.2151172049700446e-05
1.346369439052487e-06,3.040784398259193e-06,4.18797152319496e-07,1.1911146439484708e-05
1.3289716189976569e-06,3.0924030945365583e-06,4.1991546303305686e-07,1.1667461574282593e-05
1.3113603389678435e-06,3.14279277558815e-06,4.212636028614822e-07,1.1420838571114113e-05
1.293592024426896e-06,3.191772858180108e-06,4.2281788191090824e-07,1.1171996868052148e-05
1.2757156137274456e-06,3.2391974116081763e-06,4.2455415400778e-07,1.0921669215801565e-05
1.2577729936205698e-06,3.2849474252720328e-06,4.2645167579410477e-07,1.0670598277393192e-05
1.2398041142961234e-06,3.328908999345808e-06,4.284984293828944e-07,1.0419491896014807e-05
1.2218540357025231e-06,3.370955669950658e-06,4.3069206906893185e-07,1.0168985454209759e-05
1.2039736002514769e-06,3.41094625535325e-06,4.330337782450105e-07,9.919636055856767e-06
1.186211720718602e-06,3.448733378173822e-06,4.355214074488742e-07,9.671950550306713e-06
1.1686082888891069e-06,3.484171059101628e-06,4.381483941645465e-07,9.426446904180364e-06
1.1511965323028126e-06,3.517114107041505e-06,4.409076496721161e-07,9.183707841172285e-06
1.1340135353836764e-06,3.547413516769738e-06,4.4379584948691776e-07,8.944369162492526e-06
1.117108364110888e-06,3.5749189228117194e-06,4.4681535787772256e-07,8.709056073338378e-06
1.100539326519403e-06,3.599489082203097e-06,4.499745674822972e-07,8.478342406230045e-06
1.0843642744319867e-06,3.6210008345251634e-06,4.532877598924743e-07,8.252770478429318e-06
1.0686346585938804e-06,3.639350581220025e-06,4.5677256621393746e-07,8.032912615102252e-06
1.0533974406529243e-06,3.654449517086226e-06,4.6044471508421706e-07,7.819436694941106e-06
1.0387001387298599e-06,3.6662191511967385e-06,4.643143107044236e-07,7.6131274146106995e-06
1.0245936959309352e-06,3.674593179175944e-06,4.6838617278892745e-07,7.4148341803657315e-06
1.0111319989672517e-06,3.679520439595714e-06,4.726619003753161e-07,7.225375919640157e-06
9.983707139083327e-07,3.6809610192135435e-06,4.771408815808934e-07,7.045468269493538e-06
9.863695368462886e-07,3.6788811410087386e-06,4.81819980279407e-07,6.875709536941742e-06
9.751950121364124e-07,3.6732555993638883e-06,4.866922454034031e-07,6.716608403116186e-06
9.649154539769103e-07,3.6640746776748597e-06,4.917455864336153e-07,6.568606951923992e-06
9.555902231874454e-07,3.651347520698281e-06,4.96963436482326e-07,6.43207294750362e-06
9.472633572380907e-07,3.6350993875221862e-06,5.023268952808575e-07,6.307322194935172e-06
9.399629735596865e-07,3.6153656699249376e-06,5.078154910531874e-07,6.1947317859214225e-06
9.337042882226288e-07,3.5921872992409697e-06,5.134058991811882e-07,6.094830246734077e-06
9.284949563813778e-07,3.5656113280478402e-06,5.190704689751275e-07,6.0082234003397065e-06
9.243372552899357e-07,3.535699890526016e-06,5.247776195704635e-07,5.9354294200321775e-06
9.212290587320696e-07,3.502545125328539e-06,5.304951252986192e-07,5.876780443314145e-06
9.191722973701936e-07,3.466275389909095e-06,5.361939880287009e-07,5.832459375922952e-06
9.181840485990252e-07,3.4270433785907174e-06,5.418487661161253e-07,5.802685740061174e-06
9.182988364761185e-07,3.385011091806712e-06,5.474351368644354e-07,5.787961768081561e-06
9.195609290282751e-07,3.340349068259475e-06,5.529291662262429e-07,5.789177891665554e-06
9.2201144245352e-07,3.2932460530987252e-06,5.583081547701079e-07,5.807501600215319e-06
9.256759813371916e-07,3.2439178404121123e-06,5.635496487153068e-07,5.844179147613583e-06
9.305577253618387e-07,3.192609469038133e-06,5.68629317003103e-07,5.9003662208083745e-06
9.366362556163288e-07,3.1395860711761693e-06,5.735212155554576e-07,5.976990639101142e-06
9.438696003607323e-07,3.085114828264648e-06,5.782005263501226e-07,6.074636899546832e-06
9.521969512863649e-07,3.0294537402889482e-06,5.826449342844547e-07,6.193478153710223e-06
9.615399830041472e-07,2.9728544175761464e-06,5.868327692290175e-07,6.333272574719633e-06
9.718035842032801e-07,2.915566103637011e-06,5.907406063887144e-07,6.493407365767484e-06
9.828789548843905e-07,2.857833946102249e-06,5.943428412453273e-07,6.672958243192263e-06
9.946490387478985e-07,2.799895256252768e-06,5.976128719247729e-07,6.8707403880661724e-06
1.00699276504264e-06,2.7419744830004557e-06,6.005243508339043e-07,7.0853617644105405e-06
1.0197874770966991e-06,2.6842839122695097e-06,6.030519115634256e-07,7.315304053215511e-06
1.0329115350950912e-06,2.6270356714419474e-06,6.051718535751752e-07,7.5590158628729675e-06
1.0462455558458098e-06,2.5704505201271272e-06,6.068624140411749e-07,7.814992344945716e-06
1.0596724360330309e-06,2.5147495272772348e-06,6.081034392513218e-07,8.081847467489606e-06
1.0730828673305503e-06,2.460136528260548e-06,6.088770032946953e-07,8.358371462285204e-06
1.086387793572738e-06,2.406786847339283e-06,6.091697205219926e-07,8.643544879912259e-06
1.099526532714601e-06,2.354845455736864e-06,6.089743924898132e-07,8.936512386379437e-06
1.1124615440250777e-06,2.3044265797627967e-06,6.082890466739776e-07,9.236538157500487e-06
1.1251668504328362e-06,2.255612766424636e-06,6.071158584375215e-07,9.542947994036118e-06
1.1376225140220094e-06,2.2084612810239284e-06,6.054614656502867e-07,9.855064244956095e-06
1.1498160725219782e-06,2.163020796305272e-06,6.033359870635579e-07,1.017214591995926e-05
1.1617423238853438e-06,2.1193468889336412e-06,6.007508578312093e-07,1.0493333577944128e-05
1.1733967095793556e-06,2.077501294162977e-06,5.977181807116572e-07,1.0817613112889256e-05
1.18476724675127e-06,2.037536945372985e-06,5.942507495921603e-07,1.1143836351042947e-05
1.1958341544154852e-06,1.999486497598904e-06,5.903613843768406e-07,1.1470783275688886e-05
1.2065784264899828e-06,1.963364912674854e-06,5.860633180130818e-07,1.1797195681038976e-05
1.2169879186705316e-06,1.9291807075551294e-06,5.813721521573652e-07,1.2121767970946848e-05
1.2270526904605907e-06,1.8969456747707046e-06,5.763071530092247e-07,1.244314774846467e-05
1.2367580447776597e-06,1.866676922182e-06,5.70891143645125e-07,1.2759980044189265e-05
1.246085855340604e-06,1.838390018823264e-06,5.651503672220114e-07,1.3070973339407867e-05
1.2550202283855744e-06,1.8120892888367848e-06,5.591146691600728e-07,1.3374923910915477e-05
1.2635478647982602e-06,1.7877672671516598e-06,5.528164645396115e-07,1.3670665351578853e-05
1.271654381960611e-06,1.7654197109290558e-06,5.462882528389425e-07,1.3957006147409915e-05
1.2793241106155441e-06,1.7450659956113537e-06,5.395606691735525e-07,1.4232730678900021e-05
1.2865435985965008e-06,1.7267549960800225e-06,5.326618720959921e-07,1.4496644857396539e-05
1.2933054540815966e-06,1.710548689110943e-06,5.256177543332716e-07,1.4747623807525007e-05
1.2996096655964487e-06,1.6964966901670474e-06,5.184523828698142e-07,1.4984674037983637e-05
1.3054593324060624e-06,1.6846205187359681e-06,5.111880542769607e-07,1.5206991366849711e-05
1.3108552901847868e-06,1.6749127075886522e-06,5.038451219040232e-07,1.5413941503527054e-05
1.3157962951998328e-06,1.6673424050211774e-06,4.96442141321921e-07,1.5604975120626893e-05
1.3202818263300993e-06,1.6618626950009432e-06,4.889973575717891e-07,1.577958450639941e-05
1.3243137118082908e-06,1.6584236627598298e-06,4.815310230326498e-07,1.593733849717457e-05
1.3278985771119899e-06,1.6569916840788237e-06,4.7406525864566136e-07,1.6077931455275346e-05
1.3310524591972738e-06,1.6575651908338302e-06,4.6662134164222957e-07,1.620120732268246e-05
1.3338061173731577e-06,1.6601748671690002e-06,4.5921845403933707e-07,1.630715392047102e-05
1.3362071851059657e-06,1.6648647231483216e-06,4.518751161733689e-07,1.6395880279465086e-05
1.338314609633759e-06,1.6716638332815226e-06,4.4461072900172557e-07,1.6467664801103507e-05
1.3401867201362906e-06,1.6805675160280147e-06,4.374453434137029e-07,1.6523073450228532e-05
1.341871000306468e-06,1.6915363427492832e-06,4.303983736793558e-07,1.6562971154284613e-05
1.34340088851532e-06,1.7045022884058903e-06,4.234880597770373e-07,1.658837738005709e-05
1.3447964761240136e-06,1.7193746147721038e-06,4.167318851584589e-07,1.660030396973107e-05
1.3460652365638523e-06,1.736050608022651e-06,4.101468261131269e-07,1.659968057920831e-05
1.3472060197419106e-06,1.7544320816303506e-06,4.0374969205048776e-07,1.6587439811068514e-05
1.348217466077826e-06,1.7744393183336986e-06,3.975581324302928e-07,1.6564743444730507e-05
1.349102496519835e-06,1.7960120431783714e-06,3.915917702942289e-07,1.6533136495060232e-05
1.3498658612881798e-06,1.81909430140602e-06,3.858735633073154e-07,1.6494475654950918e-05
1.3505165266628004e-06,1.8436159434633759e-06,3.804299213835872e-07,1.6450734052929935e-05
1.351082169141756e-06,1.8694877578302532e-06,3.75287371872672e-07,1.6403824838714317e-05
1.3516221830401868e-06,1.8966086180891842e-06,3.70469048384239e-07,1.635546814745633e-05
1.3522245151838286e-06,1.9248682666880714e-06,3.659943501347224e-07,1.630709286683609e-05
1.3529909041760872e-06,1.954140513526728e-06,3.618787616465621e-07,1.6259787853117318e-05
1.3540208480132083e-06,1.9842767059526464e-06,3.5813217259153317e-07,1.6214306526085832e-05
1.3553978021189516e-06,2.0151061037277137e-06,3.547583704311577e-07,1.617109869910489e-05
1.3571797315882108e-06,2.046440293770301e-06,3.5175605429738787e-07,1.6130345470511993e-05
1.3593961205662212e-06,2.0780774955549305e-06,3.491198099284201e-07,1.609199082707113e-05
1.3620504966773249e-06,2.109807485903229e-06,3.4684101271947176e-07,1.6055767578899568e-05
1.3651262544022951e-06,2.141419326229037e-06,3.449086650596397e-07,1.6021226752054726e-05
1.3685954549897935e-06,2.172711148066618e-06,3.43309674422288e-07,1.5987790105192506e-05
1.3724301927144958e-06,2.203502204472214e-06,3.4202860503461773e-07,1.595483186255482e-05
1.3766122567186114e-06,2.2336461960913275e-06,3.410477143536252e-07,1.5921770096037668e-05
1.3811347880274818e-06,2.263038057993045e-06,3.4034784441828516e-07,1.5888137341258003e-05
1.3859936893653245e-06,2.291606810005957e-06,3.3990922247640104e-07,1.5853614802777412e-05
1.39117670122927e-06,2.3192968867136717e-06,3.397113876751188e-07,1.5818034494904325e-05
1.3966645139458472e-06,2.3460526003397566e-06,3.397341539709368e-07,1.5781356791190234e-05
1.402446093001338e-06,2.3718227479202068e-06,3.39961453403576e-07,1.5743623976892526e-05
1.4085308453850372e-06,2.396584499768082e-06,3.403845729812932e-07,1.5704892940798814e-05
1.4149437328121746e-06,2.42036618385629e-06,3.410000822818244e-07,1.5665161245662872e-05
1.4217140795064582e-06,2.44324952675932e-06,3.4180459849659885e-07,1.5624312959056082e-05
1.4288799432057902e-06,2.465346610282452e-06,3.4279140095767807e-07,1.558212088185385e-05
1.4365103044297113e-06,2.4867638219131363e-06,3.43949939592282e-07,1.55383270373957e-05
1.4447243859393214e-06,2.507575366640569e-06,3.4526814369500065e-07,1.549275711874065e-05
1.453690514354446e-06,2.527818406750917e-06,3.4673766037114784e-07,1.5445370559227507e-05
1.463603135523643e-06,2.547501565056125e-06,3.4835794729269684e-07,1.539621063601069e-05
1.4746485514301874e-06,2.5666137900419844e-06,3.50133940051645e-07,1.5345321062139195e-05
1.4869770046675034e-06,2.58512741563849e-06,3.5206947890165976e-07,1.5292694882339473e-05
1.5006927350303239e-06,2.602995115665083e-06,3.5416334457992846e-07,1.5238258882639112e-05
1.515855612339454e-06,2.6201479990689517e-06,3.564099957455697e-07,1.5181872619826349e-05
1.532482289777861e-06,2.636505587829317e-06,3.5880353576064906e-07,1.51233603113913e-05
1.5505473546408148e-06,2.651996912989397e-06,3.6134302876402393e-07,1.5062611260781934e-05
1.5699908311530138e-06,2.6665771250320538e-06,3.6403548090926794e-07,1.4999709393830945e-05
1.590731065636375e-06,2.6802262827530216e-06,3.6689412431225547e-07,1.4934997624627966e-05
1.6126769774493504e-06,2.6929335064389717e-06,3.6993346811327076e-07,1.4869040638816098e-05
1.635735717835686e-06,2.704679620898888e-06,3.731646178310417e-07,1.4802528980244515e-05
1.6598160599190213e-06,2.7154283227708647e-06,3.765929348255677e-07,1.4736178252158054e-05
1.6848309589632347e-06,2.7251310318868896e-06,3.802175087258209e-07,1.4670644224556207e-05
1.7107036430246715e-06,2.733743704605296e-06,3.840319419917271e-07,1.4606457077276212e-05
1.7373803899633301e-06,2.7412443931177983e-06,3.880252582119029e-07,1.4544001656965838e-05
1.7648468032387192e-06,2.747642451105243e-06,3.921818265843982e-07,1.4483562476212827e-05
1.7931316102261814e-06,2.7529783350353704e-06,3.964814416693799e-07,1.4425382687379407e-05
1.8222855741144868e-06,2.757312263183969e-06,4.0090058600990674e-07,1.4369684260116964e-05
1.8523564207892273e-06,2.7607047934292352e-06,4.054148448913971e-07,1.4316649677753335e-05
1.8833922768300755e-06,2.7632044067172033e-06,4.10001169672119e-07,1.4266406773513885e-05
1.915464356990412e-06,2.764848613947704e-06,4.146389184626118e-07,1.4219110265107324e-05
1.948671191514182e-06,2.765668219121574e-06,4.193125607512082e-07,1.4175084502048583e-05
1.983115507988369e-06,2.7656950025753127e-06,4.2401674239253333e-07,1.4134832812734838e-05
2e-07,2.764983775871642e-06,4.287561988386164e-07,1.4098956150167505e-05
2e-07,2.7636380971690107e-06,4.3353843359192477e-07,1.4068166603855648e-05
2e-07,2.7618140931262292e-06,4.383683391980025e-07,1.4043312233785684e-05
2e-07,2.759695753844112e-06,4.432485418927965e-07,1.402530124199146e-05
2e-07,2.757462773699297e-06,4.4818120817184114e-07,1.4015001470718313e-05
2e-07,2.7552812636105083e-06,4.5316839981896417e-07,1.4013165493037952e-05
2e-07,2.7533226730343996e-06,4.582097978669275e-07,1.40203690356537e-05
2e-07,2.751785014320437e-06,4.6329933566359404e-07,1.4036968017702621e-05
2e-07,2.7508976867110656e-06,4.684241272256092e-07,1.40630855650647e-05
2e-07,2.7509150367094927e-06,4.735661951232561e-07,1.4098625569706182e-05
2e-07,2.7521032907043627e-06,4.787060032987682e-07,1.4143294819079043e-05
2e-07,2.754714769452176e-06,4.838270748878273e-07,1.4196630135575556e-05
2e-07,2.758954421372768e-06,4.889183696193743e-07,1.4258041471530106e-05
2e-07,2.7649613429955605e-06,4.939715824638984e-07,1.4326867719205372e-05
2e-07,2.77281418062056e-06,4.989768430371804e-07,1.4402426153368745e-05
2e-07,2.7825420164572817e-06,5.039208482324776e-07,1.4484022856053085e-05
2e-07,2.794127004432368e-06,5.087872599122514e-07,1.4570912013838004e-05
2e-07,2.8075102493236344e-06,5.135586901031023e-07,1.4662263529815814e-05
2e-07,2.82261028640745e-06,5.182182047984204e-07,1.4757190200796234e-05
2e-07,2.8393388790339675e-06,5.227485399735225e-07,1.4854790473620105e-05
2e-07,2.8576003416520094e-06,5.271313426167516e-07,1.4954161873473716e-05
2e-07,2.877288672236335e-06,5.313489471582872e-07,1.5054408883402912e-05
2e-07,2.898302590508188e-06,5.353883455287199e-07,1.515467253392516e-05
2e-07,2.920567429903643e-06,5.392433504879021e-07,1.5254176659675793e-05
2e-07,2.9440340027407955e-06,5.429115321185096e-07,1.5352277178265784e-05
2e-07,2.968650841338013e-06,5.463897616716854e-07,1.5448493374029943e-05
2e-07,2.994337152726462e-06,5.496726484178073e-07,1.5542491941854143e-05
2e-07,3.0209753695648984e-06,5.527522531350195e-07,1.563403167012982e-05
2e-07,3.048415332812682e-06,5.556180610414086e-07,1.5722912466290077e-05
2e-07,3.0764791666510936e-06,5.582597154154739e-07,1.5808939198292992e-05
2e-07,3.104967897948059e-06,5.606732742966505e-07,1.5891894579550405e-05
2e-07,3.1336691955368392e-06,5.62867750537217e-07,1.5971545124897896e-05
2e-07,3.162359933015633e-06,5.648684271322962e-07,1.6047658572736242e-05
2e-07,3.190803764329825e-06,5.667143435359146e-07,1.6119973716953153e-05
2e-07,3.218750621046037e-06,5.684501133331757e-07,1.6188147850128307e-05
2e-07,3.2459410893178813e-06,5.701187222480689e-07,1.625174427867456e-05
2e-07,3.2721123611984236e-06,5.717605742106345e-07,1.6310274942308207e-05
2e-07,3.2970026219273165e-06,5.734156903406839e-07,1.636328162574617e-05
2e-07,3.320354247758668e-06,5.751235676268765e-07,1.6410404140050073e-05
2e-07,3.3419159468299807e-06,5.769190072391274e-07,1.6451386277406128e-05
2e-07,3.361443772224727e-06,5.78827634199042e-07,1.64860289696539e-05
2e-07,3.378704900284049e-06,5.80864670027339e-07,1.6514128470381765e-05
2e-07,3.3934863806259653e-06,5.830353075824253e-07,1.6535447336987084e-05
2e-07,3.405602084248058e-06,5.853347818155732e-07,1.654977571251825e-05
2e-07,3.4148913975721023e-06,5.87749376584305e-07,1.6557061149684438e-05
2e-07,3.42121496552583e-06,5.902604424256858e-07,1.655748367476483e-05
2e-07,3.424454159742308e-06,5.928509028002397e-07,1.655139728699812e-05
2e-07,3.4245107861380083e-06,5.955103973840001e-07,1.6539185687215365e-05
2e-07,3.4213046751292207e-06,5.982369627634416e-07,1.6521137462686155e-05
2e-07,3.4147747811862064e-06,6.010367222852458e-07,1.649740208992266e-05
2e-07,3.404884816167266e-06,6.039221446209556e-07,1.6468013922179113e-05
2e-07,3.3916261115221452e-06,6.069076314777618e-07,1.643294409707708e-05
2e-07,3.375013870604097e-06,6.100030452733997e-07,1.6392167261774772e-05
2e-07,3.355080821770986e-06,6.132089521880554e-07,1.6345781787055595e-05
2e-07,3.331874175668967e-06,6.165169445965299e-07,1.629416134463956e-05
2e-07,3.305461663078435e-06,6.199138776944375e-07,1.6237986659443255e-05
2e-07,3.275946251736595e-06,6.23385733226231e-07,1.617809714368005e-05
2e-07,3.2434741558957288e-06,6.269184598211907e-07,1.611529397330903e-05
2e-07,3.2082256789276178e-06,6.304965990745126e-07,1.6050229839383833e-05
2e-07,3.1704086420798087e-06,6.341023661299897e-07,1.5983454272347033e-05
2e-07,3.1302767876556087e-06,6.377162326456789e-07,1.5915632613307394e-05
2e-07,3.088157123113396e-06,6.413181681822922e-07,1.5847802872959955e-05
2e-07,3.044449545375805e-06,6.448894679764083e-07,1.5781452291776487e-05
2e-07,2.9995888317935003e-06,6.484135555945651e-07,1.5718375006323582e-05
2e-07,2.953999747743687e-06,6.518736203465102e-07,1.56604492453298e-05
1.9921259164258945e-06,2.908080710948288e-06,6.552496715491748e-07,1.560945804269003e-05
1.950710534730737e-06,2.8622136792530944e-06,6.585189502196904e-07,1.5566992321390602e-05
1.910346804770111e-06,2.8167731534247762e-06,6.616594220209039e-07,1.5534401366528603e-05
1.8710920253697914e-06,2.7721226630825487e-06,6.646527471374793e-07,1.551274879304465e-05
1.8330090596852554e-06,2.7286086691995707e-06,6.674847771883398e-07,1.5502786258921036e-05
1.796167023302139e-06,2.686564593092108e-06,6.701445036339011e-07,1.5504966713222265e-05
1.7606355705568928e-06,2.6463230421620356e-06,6.726218623038104e-07,1.551946715840758e-05
1.7264750851136433e-06,2.6082193956543897e-06,6.749056540292935e-07,1.554617879197525e-05
1.693734397064883e-06,2.572574688773436e-06,6.76983977501492e-07,1.5584685593912993e-05
1.6624585122761019e-06,2.5396663384857256e-06,6.788452846862324e-07,1.563428538192409e-05
1.6326981302316754e-06,2.5097095803608817e-06,6.804773190954829e-07,1.569406692338204e-05
1.6045122658307248e-06,2.4828615929351053e-06,6.818665947443663e-07,1.5763022160018047e-05
1.5779616801607415e-06,2.459237035808456e-06,6.829999226033318e-07,1.5840163161325224e-05
1.5530988561064175e-06,2.438917696852107e-06,6.838655975555746e-07,1.5924606021856333e-05
1.5299599054436522e-06,2.4219499209362593e-06,6.844539580018798e-07,1.601560659116631e-05
1.508560670129915e-06,2.4083395946988887e-06,6.84757937789993e-07,1.6112569648900358e-05
1.4888991215317488e-06,2.398060819825033e-06,6.847731590264185e-07,1.6215042330307967e-05
1.4709624996651644e-06,2.391076056448028e-06,6.844976390039587e-07,1.632267022150863e-05
1.454734790207972e-06,2.3873502447240075e-06,6.839314040886608e-07,1.6435107576111025e-05
1.4402006696874219e-06,2.386854078583264e-06,6.830759651626911e-07,1.655191978818714e-05
1.4273423634065183e-06,2.389563065773017e-06,6.819338043053682e-07,1.667252222977291e-05
1.416130469331387e-06,2.3954548793539866e-06,6.805093288100558e-07,1.6796163869155553e-05
1.406515890763545e-06,2.4045076321946687e-06,6.788107912312949e-07,1.692196212211085e-05
1.3984282716728626e-06,2.4167031102057567e-06,6.768496280930965e-07,1.7048982415174297e-05
1.3917814133509732e-06,2.4320299655363497e-06,6.746383066670974e-07,1.717630137971967e-05
1.3864842278705108e-06,2.4504763435089668e-06,6.721907918358057e-07,1.7303011990660225e-05
