2.832958761078835e-07,3.375752585754085e-07,2.2272830037529588e-07,7.501869132886252e-06
2.835802635901134e-07,3.3822972239022377e-07,2.2347887109189177e-07,7.5582568584268785e-06
2.8382018064922553e-07,3.3867446289666827e-07,2.2427268012825642e-07,7.610897630683618e-06
2.840205100115035e-07,3.3890049244376806e-07,2.251107200028957e-07,7.659544184420147e-06
2.841861526209908e-07,3.389007537379561e-07,2.2599275475647558e-07,7.704089415779744e-06
2.8432199420077913e-07,3.386712059434366e-07,2.2691639269717e-07,7.744591493622964e-06
2.844320629114797e-07,3.38210447804235e-07,2.2787715015086531e-07,7.781238330145116e-06
2.845198578950035e-07,3.375197288506012e-07,2.288690060783844e-07,7.814267764536008e-06
2.845896324193949e-07,3.3660385886282037e-07,2.2988442932109213e-07,7.843891525880168e-06
2.846466174869051e-07,3.354711661462466e-07,2.3091430589425265e-07,7.870257438635428e-06
2.846971710265248e-07,3.341320634551866e-07,2.3194841252134112e-07,7.893451207288531e-06
2.847504808821712e-07,3.325976181901001e-07,2.3297672126666657e-07,7.913515303806551e-06
2.84819803315294e-07,3.30879038350684e-07,2.339915747363288e-07,7.930466471523951e-06
2.849204416966166e-07,3.289877604270075e-07,2.349887806300488e-07,7.94432131600529e-06
2.850661153657159e-07,3.269353295129408e-07,2.359663867398282e-07,7.9551514152536e-06
2.852675656591589e-07,3.2473285974881065e-07,2.3692298409345106e-07,7.963134121796878e-06
2.8553341020427663e-07,3.2239051545070325e-07,2.37856782295616e-07,7.968537276119001e-06
2.85870742897832e-07,3.1991746805419666e-07,2.387651311764635e-07,7.97165221738142e-06
2.862850563422432e-07,3.1732231990574825e-07,2.396449908818153e-07,7.97272952410342e-06
2.867803000340158e-07,3.146131839984365e-07,2.404947064050193e-07,7.971953424732876e-06
2.873590383122963e-07,3.1179710754077766e-07,2.413154265530143e-07,7.969497106354579e-06
2.880229002703977e-07,3.088797752994804e-07,2.421101775571072e-07,7.965644863076143e-06
2.8877390926233786e-07,3.058660263157224e-07,2.428814359240967e-07,7.960869396395938e-06
2.8961578140931895e-07,3.0276069597876745e-07,2.436302862166467e-07,7.955798396128662e-06
2.905534898621865e-07,2.995691863451398e-07,2.4435787282932076e-07,7.951128331687056e-06
2.915914670311055e-07,2.9629747350589256e-07,2.450667123116283e-07,7.947551928059034e-06
2.927318696270261e-07,2.929518774902595e-07,2.457609623176495e-07,7.945705218543092e-06
2.9397337088642504e-07,2.895389987290672e-07,2.464468908847827e-07,7.946123164988048e-06
2.953110569892829e-07,2.8606548348101566e-07,2.4713322377743766e-07,7.949204074372855e-06
2.967372250122214e-07,2.825376853340842e-07,2.478302655568735e-07,7.95519029183527e-06
2.982418033935725e-07,2.7896184194764253e-07,2.485484666049305e-07,7.964172518401327e-06
2.99812460475238e-07,2.753447435873606e-07,2.4929711286358407e-07,7.976109887615754e-06
3.014350660629699e-07,2.716941386977868e-07,2.5008299817231546e-07,7.990844747716378e-06
3.030945314944471e-07,2.680182763736699e-07,2.5090978919034036e-07,8.00810785796237e-06
3.047760691869884e-07,2.64325554105177e-07,2.517782952498062e-07,8.027530176009302e-06
3.064660991224464e-07,2.606250416279073e-07,2.526866186036715e-07,8.048666811173098e-06
3.081516439929508e-07,2.5692647307109103e-07,2.5363029469581034e-07,8.071024632664204e-06
3.0981924738130085e-07,2.5323926958966125e-07,2.5460283580236867e-07,8.09409267247239e-06
3.1145550501525587e-07,2.495720604435775e-07,2.5559583954065354e-07,8.117375549944851e-06
3.1304838649941484e-07,2.459333945358131e-07,2.565986223399534e-07,8.140417899198375e-06
3.1458685506598703e-07,2.423328890781511e-07,2.57598574958797e-07,8.16281467289621e-06
3.1605962195490645e-07,2.387810792633405e-07,2.585824398341798e-07,8.184216668767244e-06
3.174556026760205e-07,2.3528769389918326e-07,2.595377893386365e-07,8.204331666093206e-06
3.1876553745572426e-07,2.318603493704279e-07,2.6045470766046617e-07,8.22291476721943e-06
3.199828442970357e-07,2.2850472704083142e-07,2.613270239137515e-07,8.239753118341938e-06
3.211030508641522e-07,2.252257247004989e-07,2.621518746541841e-07,8.254647300264829e-06
3.221219904472623e-07,2.2202875084028506e-07,2.6292854732418853e-07,8.267389637031656e-06
3.230343079024789e-07,2.1892065559087377e-07,2.63657628341897e-07,8.277763993692299e-06
3.2383421893968894e-07,2.15910156289186e-07,2.643399674371289e-07,8.285578897488307e-06
3.2451789293938434e-07,2.130071985143409e-07,2.649758328820387e-07,8.290695992284938e-06
3.250844180882852e-07,2.1022137709077128e-07,2.655652133822363e-07,8.293024199697769e-06
3.255344885384624e-07,2.075607128862389e-07,2.6610885001926497e-07,8.292496849014985e-06
3.2586969151226306e-07,2.0503126231228453e-07,2.6660857771918397e-07,8.289056537959359e-06
3.260931828790223e-07,2.0263736105284101e-07,2.6706704459871067e-07,8.282654016740082e-06
3.2620933982927087e-07,2.0038254932993165e-07,2.674877301958345e-07,8.273264179978485e-06
3.26222158553674e-07,1.9827045698360169e-07,2.6787461697633967e-07,8.260914503102032e-06
3.261340709750395e-07,1.963046830915912e-07,2.68231113425037e-07,8.245697656001117e-06
3.259459079390859e-07,1.944882264765554e-07,2.6855915209605387e-07,8.227759377104576e-06
3.256579188555141e-07,1.9282365046316067e-07,2.6885903842378905e-07,8.207285745803451e-06
3.2527095758685664e-07,1.9131371439060497e-07,2.6912999305502856e-07,8.184491461139973e-06
3.24786386666196e-07,1.8996097846034887e-07,2.693708691396529e-07,8.159592371053842e-06
3.242047533990828e-07,1.887663385792295e-07,2.695807448806236e-07,8.132767980788654e-06
3.2352490102174807e-07,1.877283574351604e-07,2.697593434461235e-07,8.10413544836956e-06
3.227444579198658e-07,1.8684375230955717e-07,2.6990645865461017e-07,8.073749667611426e-06
3.218612363247779e-07,1.861079407053815e-07,2.7002069704249847e-07,8.04162879151604e-06
3.2087405860536925e-07,1.8551547109954839e-07,2.700992851959593e-07,8.007785890615983e-06
3.1978241136826264e-07,1.850601975619835e-07,2.7013906857784727e-07,7.972240767317176e-06
3.185860262854088e-07,1.8473523598464142e-07,2.701373928149333e-07,7.935008558452359e-06
3.1728499121185797e-07,1.8453340958461002e-07,2.7009217051183844e-07,7.896083731808115e-06
3.1588024108702175e-07,1.8444762705699122e-07,2.700019307567655e-07,7.855440933345346e-06
3.143741317433557e-07,1.8447053247287047e-07,2.698663572868073e-07,7.813061490113997e-06
3.1277082544164927e-07,1.8459445905367943e-07,2.696861210742563e-07,7.768963281556176e-06
3.110762050276094e-07,1.8481165606706926e-07,2.694620367868839e-07,7.7232075811032e-06
3.0929693958634803e-07,1.8511364413022703e-07,2.691945507907271e-07,7.675884330937185e-06
3.074392321275714e-07,1.854905100145504e-07,2.6888359365984933e-07,7.6270874227773625e-06
3.055088166668865e-07,1.8593137288859574e-07,2.685289860017086e-07,7.576889410407678e-06
3.035137023613739e-07,1.8642523127814788e-07,2.681308465327062e-07,7.525325448611983e-06
3.014680088623268e-07,1.869614004359177e-07,2.676893899126316e-07,7.472390306118607e-06
2.9939226925529717e-07,1.8752989683005952e-07,2.672053050162108e-07,7.4180417121454725e-06
2.973093367917447e-07,1.8812156390647518e-07,2.6668178429396825e-07,7.362203411515155e-06
2.952399501225066e-07,1.8872789313244602e-07,2.6612688068652896e-07,7.3047694777798065e-06
2.932008332702705e-07,1.8934127838494265e-07,2.655530353644937e-07,7.245610910661252e-06
2.9120479089513285e-07,1.899555011551732e-07,2.6497351122651657e-07,7.184582206266458e-06
2.8926104684132037e-07,1.9056558202395987e-07,2.643998033650173e-07,7.121529412062338e-06
2.8737521410562837e-07,1.9116706351110526e-07,2.638421753825475e-07,7.0563026138420166e-06
2.85549642558782e-07,1.9175534852525601e-07,2.633110644008023e-07,6.988769342787534e-06
2.837841418361371e-07,1.9232518718287705e-07,2.62817377103341e-07,6.9188227638533495e-06
2.8207651140710806e-07,1.928702841234382e-07,2.623718288490126e-07,6.846382969887131e-06
2.804233518382381e-07,1.9338334627184801e-07,2.61983967929157e-07,6.771394777973446e-06
2.788212148245875e-07,1.9385669228563627e-07,2.616616659972789e-07,6.6938247855783175e-06
2.772668597570464e-07,1.9428280850241972e-07,2.6141113181655716e-07,6.613655966313518e-06
2.757565870117812e-07,1.946541766234843e-07,2.6123651711394784e-07,6.530880397367365e-06
2.742863327458175e-07,1.9496304106728405e-07,2.611390994835976e-07,6.4454936678553275e-06
2.7285261003450924e-07,1.952021924785254e-07,2.611173302905344e-07,6.357490972996276e-06
2.714525831555625e-07,1.9536612648447308e-07,2.611681136517375e-07,6.266865046238328e-06
2.700832110533246e-07,1.9545130940658532e-07,2.6128841235088127e-07,6.173608199549221e-06
2.687409102994813e-07,1.954558786243431e-07,2.6147623898080147e-07,6.077719351198133e-06
2.6742201651593836e-07,1.953795001986535e-07,2.6172993838509844e-07,5.9792163348147386e-06
2.661231242215032e-07,1.9522294956952637e-07,2.6204608596695945e-07,5.8781487219069916e-06
2.6484086865036514e-07,1.9498734523222986e-07,2.624183186824172e-07,5.774603504677783e-06
2.635717388653969e-07,1.9467392787567898e-07,2.628386008087607e-07,5.668702276288522e-06
2.6231279032779284e-07,1.9428444606386774e-07,2.633001314682828e-07,5.560590700536963e-06
2.610629648624404e-07,1.9382121925507696e-07,2.63799457905402e-07,5.450429555874148e-06
2.598236933508894e-07,1.9328665505975468e-07,2.6433647666259213e-07,5.338402226255222e-06
2.5859838753749235e-07,1.9268350354472692e-07,2.649137849929298e-07,5.224725679353672e-06
2.5739108330898673e-07,1.9201677853290642e-07,2.6553630287222706e-07,5.109641198502047e-06
2.5620501595568976e-07,1.912951379541668e-07,2.662098459952288e-07,4.993397138044098e-06
2.550425365283566e-07,1.9052992948405022e-07,2.6693883056030845e-07,4.8762470799473405e-06
2.539060645879452e-07,1.8973513238355415e-07,2.6772528232073185e-07,4.758463405464787e-06
2.5279991804134744e-07,1.889298641695864e-07,2.685691933655871e-07,4.640359985102901e-06
2.517334645307121e-07,1.881391702178184e-07,2.6946920392418427e-07,4.522312838337494e-06
2.507221958553061e-07,1.8739093320864977e-07,2.7042389933441217e-07,4.404755041116873e-06
2.4978436605191133e-07,1.867117946518332e-07,2.714334251055828e-07,4.288139432191451e-06
2.489372909569633e-07,1.861248649558581e-07,2.725004268615461e-07,4.1728975357044785e-06
2.4819686813741424e-07,1.8564970823744843e-07,2.7362922826717585e-07,4.059430671622447e-06
2.4757814448905977e-07,1.853028802224761e-07,2.7482336566764307e-07,3.9481435798901005e-06
2.470940626559245e-07,1.850978044741599e-07,2.7608394117543685e-07,3.839497807474571e-06
2.467539452629658e-07,1.8504515265266487e-07,2.774099617704544e-07,3.734045700484066e-06
2.4656397786109966e-07,1.851536090190405e-07,2.787995459902712e-07,3.6324191329345743e-06
2.465282859631453e-07,1.854293761016581e-07,2.802517598004517e-07,3.5352787856423287e-06
2.4664886841410453e-07,1.8587508469689967e-07,2.817694331666113e-07,3.443248064675049e-06
2.469246533141727e-07,1.8648975892292842e-07,2.833614394475834e-07,3.356859970493527e-06
2.4735063738977924e-07,1.8726960324346368e-07,2.850413167660957e-07,3.276536125425658e-06
2.479185537421868e-07,1.8820956420117138e-07,2.868221859326284e-07,3.2025901602443787e-06
2.486193803485977e-07,1.893060248819509e-07,2.887125227219595e-07,3.1352392361453145e-06
2.4944532891038645e-07,1.9055840336006514e-07,2.907151619463185e-07,3.0746331828849682e-06
2.50389339511618e-07,1.919684722916705e-07,2.928280667952044e-07,3.0209206125567395e-06
2.514432370770537e-07,1.935401367066036e-07,2.9504636152917e-07,2.9743165489851907e-06
2.525967442922248e-07,1.952801651350928e-07,2.973644945063609e-07,2.9351011420471384e-06
2.538378854432997e-07,1.9719683942462658e-07,2.9977607377916496e-07,2.903552680990545e-06
2.551536296879566e-07,1.992962853942604e-07,3.022726138775801e-07,2.8798784802202824e-06
2.565298116378573e-07,2.0157980231309488e-07,3.048439879276317e-07,2.8641870976040363e-06
2.57951003971076e-07,2.0404422929446455e-07,3.074793085630166e-07,2.8565351840734228e-06
2.5940164244104125e-07,2.0668410243365622e-07,3.1016660500132534e-07,2.8570430143190886e-06
2.6086852046805247e-07,2.094934456822905e-07,3.128930003198749e-07,2.8659817598767225e-06
2.6234261647033105e-07,2.124664132892977e-07,3.156460418837941e-07,2.883753137335439e-06
2.638183601752201e-07,2.1559694779907065e-07,3.184141583998625e-07,2.9108015252408187e-06
2.652925572270085e-07,2.1887752305984764e-07,3.2118550787323627e-07,2.947532180926638e-06
2.667651923443175e-07,2.2229773992454533e-07,3.239466424186177e-07,2.9942578222279463e-06
2.682395758149923e-07,2.258442621508555e-07,3.26682148230633e-07,3.0511647991649398e-06
2.6972070613403976e-07,2.2950179371792202e-07,3.293752966962087e-07,3.1182899280036018e-06
2.712141569694188e-07,2.332539341327584e-07,3.320086755455155e-07,3.1955092211213612e-06
2.7272518861410306e-07,2.370841311045452e-07,3.345642201811679e-07,3.282541197186247e-06
2.742569933034029e-07,2.409763007626309e-07,3.370236737373195e-07,3.378959594161059e-06
2.758099834825024e-07,2.4491435014518144e-07,3.393698389975545e-07,3.484210446236864e-06
2.7738278583480174e-07,2.4888163911946987e-07,3.41587905171304e-07,3.5976341023438165e-06
2.7897255513136964e-07,2.5286103428293875e-07,3.4366620445909255e-07,3.7184915890027015e-06
2.8057392418682897e-07,2.5683469851391824e-07,3.45595717994653e-07,3.845990743789037e-06
2.8217858455089514e-07,2.6078361132797434e-07,3.47368762318351e-07,3.9793118994545715e-06
2.837758498453361e-07,2.646877847685749e-07,3.489780304615332e-07,4.117635851046674e-06
2.853530269632433e-07,2.6852709783931604e-07,3.5041613006803954e-07,4.2601687984049554e-06
2.868960866581565e-07,2.7228196037516605e-07,3.516754937629458e-07,4.406151687136469e-06
2.883914209310825e-07,2.759336993023619e-07,3.5274884839339893e-07,4.554852016672296e-06
2.898277429439393e-07,2.794648854209665e-07,3.5362962976437603e-07,4.705553750301792e-06
2.911964361783956e-07,2.8285983607773726e-07,3.5431212611623996e-07,4.857553051918717e-06
2.9249042692860376e-07,2.861052489557333e-07,3.5479281103540576e-07,5.01015166266785e-06
2.937037883110186e-07,2.891902672289153e-07,3.5507289306624213e-07,5.162646165960386e-06
2.948324496270059e-07,2.921059260312735e-07,3.551593094060615e-07,5.314317779305543e-06
2.9587413850921306e-07,2.948443903480224e-07,3.5506236380331657e-07,5.4644296498415095e-06
2.96827628465013e-07,2.973979727303113e-07,3.547925205759397e-07,5.612247868447294e-06
2.976927657638163e-07,2.9975887685350966e-07,3.543607345549171e-07,5.7570822727456376e-06
2.984708133733473e-07,3.0192068144437765e-07,3.5378119094954306e-07,5.898307222349927e-06
2.9916388938717194e-07,3.038800360294093e-07,3.53070762383779e-07,6.035345622817107e-06
2.997743969848611e-07,3.056363196551971e-07,3.5224499988576047e-07,6.1676486845094395e-06
3.0030538567761414e-07,3.071897002917079e-07,3.513158051869929e-07,6.294697457721734e-06
3.0076101274423657e-07,3.085396875960509e-07,3.5029265432569146e-07,6.416016000791494e-06
3.011471586297714e-07,3.096852181078494e-07,3.491850038888216e-07,6.5311744309749765e-06
3.014719289824367e-07,3.1062547748691866e-07,3.4800383183630217e-07,6.639778471664742e-06
3.017446204043341e-07,3.113604843081823e-07,3.467622466281652e-07,6.741461511011429e-06
3.0197404633502986e-07,3.118915548470271e-07,3.454755972094669e-07,6.8358897110323835e-06
3.0216807103107356e-07,3.122212495507254e-07,3.441615962945527e-07,6.922772264640887e-06
3.023349453925278e-07,3.123526717509339e-07,3.428408757463797e-07,7.0018678498062165e-06
3.0248587338190907e-07,3.122891336331327e-07,3.4153666638903525e-07,7.0730008695065185e-06
3.026360320595857e-07,3.12034140300944e-07,3.402722676019642e-07,7.136093240817502e-06
3.0280265464730986e-07,3.1159136770820126e-07,3.39068117513243e-07,7.1911777367489105e-06
3.030031450126648e-07,3.109648121900562e-07,3.3794062297939413e-07,7.238366942512802e-06
3.032544268451148e-07,3.1015875217425754e-07,3.369019801164277e-07,7.277798966727789e-06
3.035715892748942e-07,3.091775998432932e-07,3.3596008719428267e-07,7.3096035967167874e-06
3.0396658719382464e-07,3.080264085951899e-07,3.3511902113667045e-07,7.333908182775072e-06
3.044485901798479e-07,3.0671158472560675e-07,3.343794666501789e-07,7.3508564769846465e-06
3.050248805658445e-07,3.052406577453471e-07,3.3373845119905525e-07,7.360607866465084e-06
3.057010329964241e-07,3.0362189981786147e-07,3.3318965633631576e-07,7.363331534331323e-06
3.064809797074624e-07,3.01864359871789e-07,3.3272466734957025e-07,7.359243382814364e-06
3.073675959271741e-07,2.9997716033367946e-07,3.3233401747653086e-07,7.348673796905142e-06
3.0836274530484927e-07,2.979687030448492e-07,3.32007961364463e-07,7.332080730918305e-06
3.0946636235627605e-07,2.9584724757274013e-07,3.31737387403038e-07,7.309983436842615e-06
3.1067568682467704e-07,2.9362169885747556e-07,3.3151438867613766e-07,7.282883633390594e-06
3.1198566123570726e-07,2.9130089868772976e-07,3.313319421754688e-07,7.251232856755844e-06
3.133904764207735e-07,2.888923560538678e-07,3.311832854514549e-07,7.215475172697406e-06
3.1488465159168577e-07,2.864020407182192e-07,3.310618526289756e-07,7.176160929811086e-06
3.1646274028699504e-07,2.838347269786893e-07,3.3096141818803327e-07,7.1340502200178955e-06
3.1811868647227025e-07,2.811943686979039e-07,3.308756818510601e-07,7.090111065758922e-06
3.198451838321401e-07,2.784854549441616e-07,3.3079745151839125e-07,7.045424745114044e-06
3.2163325484110197e-07,2.7571446177777075e-07,3.307182255449512e-07,7.001081050362796e-06
3.2347378286768465e-07,2.728893184323749e-07,3.306284044542573e-07,6.958102923477087e-06
3.253603875652225e-07,2.700177853712017e-07,3.30517861254916e-07,6.917394353026613e-06
3.2728979079444204e-07,2.671068525165276e-07,3.303768584854974e-07,6.879705271887567e-06
3.292593933465765e-07,2.6416344165457985e-07,3.3019682555364107e-07,6.845615006553758e-06
3.31265618007187e-07,2.611955512046483e-07,3.2997027060545847e-07,6.815535529607567e-06
3.333040420491757e-07,2.5821267117661784e-07,3.296899768301575e-07,6.78972756171417e-06
3.353699578485168e-07,2.552251515739261e-07,3.293487281334567e-07,6.768316812741071e-06
3.374585555954317e-07,2.5224361090014684e-07,3.2894109644911263e-07,6.751309054757153e-06
3.395646711691807e-07,2.492788852185153e-07,3.284655573340909e-07,6.738615495213034e-06
3.4168280686553505e-07,2.463416931317288e-07,3.279235177912481e-07,6.730091781264231e-06
3.438077224175137e-07,2.4344187578540763e-07,3.273166151369863e-07,6.725580097872987e-06
3.4593437836261065e-07,2.4058794967310393e-07,3.2664562317469396e-07,6.724944332994701e-06
3.480570029028231e-07,2.377869773686325e-07,3.259112414102243e-07,6.7280963987961016e-06
3.501692673711599e-07,2.3504482259505773e-07,3.2511529578890554e-07,6.735006501534287e-06
3.5226693801382016e-07,2.32367099582726e-07,3.2426072324194696e-07,6.745686839599843e-06
3.5435115340096713e-07,2.297598050337295e-07,3.23350598295406e-07,6.7601607786783445e-06
3.564290556505404e-07,2.2722925269133248e-07,3.223876963825099e-07,6.7784372017293436e-06
3.585116563437203e-07,2.2478233886256413e-07,3.213742381807384e-07,6.8004893602946174e-06
3.606106633836032e-07,2.224264499313585e-07,3.203113617254189e-07,6.826232958024714e-06
3.627356541051125e-07,2.201680025990876e-07,3.1919905032903497e-07,6.855507305033903e-06
3.6489345732549573e-07,2.180111187871984e-07,3.1803651624200374e-07,6.888066584634497e-06
3.670887957181346e-07,2.159576286260775e-07,3.168223580651989e-07,6.923590195200348e-06
3.693237402311466e-07,2.1400759262494959e-07,3.155542117843332e-07,6.961713809064456e-06
3.715968622791324e-07,2.1215987047957973e-07,3.142284203972451e-07,7.0020584527081576e-06
3.739033270984747e-07,2.104126570860968e-07,3.128404836705133e-07,7.044230965812675e-06
3.762354501310306e-07,2.0876386908353466e-07,3.113860217062437e-07,7.087806668338437e-06
3.7858393602148105e-07,2.0721197253498608e-07,3.09861381562326e-07,7.13232749618355e-06
3.8094008423102216e-07,2.0575672798562379e-07,3.082643887194982e-07,7.177322754131007e-06
3.832975487085463e-07,2.0439872684894726e-07,3.065958510576751e-07,7.222325556770322e-06
3.8565202147844687e-07,2.031391509181805e-07,3.0485988632753075e-07,7.266864014772592e-06
3.8799947019493533e-07,2.0198113815135493e-07,3.030618784018069e-07,7.310444270056772e-06
3.903350231362907e-07,2.009304148546251e-07,3.012064725447832e-07,7.352553326596388e-06
3.926531268070339e-07,1.999936221897804e-07,2.992975170158933e-07,7.392683529734015e-06
3.9494763257916493e-07,1.9917755247631445e-07,2.973390543982372e-07,7.430365989754587e-06
3.972107468263585e-07,1.984907177389947e-07,2.953360782185033e-07,7.46520844485269e-06
3.9943197233196934e-07,1.9794322953552477e-07,2.932944517460852e-07,7.496929452677048e-06
4.0159890958402377e-07,1.9754371049226693e-07,2.912200051949997e-07,7.525362510261905e-06
4.0369910078895953e-07,1.972972152562858e-07,2.8911785314130826e-07,7.550415134559378e-06
4.0572070174233953e-07,1.9720569812797624e-07,2.8699280124860184e-07,7.57201131344832e-06
4.076527597059526e-07,1.9726857966894864e-07,2.848500122639028e-07,7.590065884749827e-06
4.0948640000566e-07,1.974824697749896e-07,2.826950271964339e-07,7.6045042705022704e-06
4.1121511334848683e-07,1.9784131109782709e-07,2.805337058574666e-07,7.615292905732402e-06
4.128334536744242e-07,1.9833704477648226e-07,2.7837259359984396e-07,7.622443459869812e-06
4.1433644575630774e-07,1.9896024642835244e-07,2.762193435744349e-07,7.625993972978543e-06
4.157206813235722e-07,1.997010420286203e-07,2.7408284605273307e-07,7.6260148959119765e-06
4.169855135042887e-07,2.0055030609588424e-07,2.7197312753303564e-07,7.6226621296423754e-06
4.181332270171616e-07,2.015006528419608e-07,2.6990107518483983e-07,7.616207546447873e-06
4.191683894740412e-07,2.0254654651013135e-07,2.678778995603801e-07,7.606988628324158e-06
4.2009611977887677e-07,2.0368323618028879e-07,2.6591434060490604e-07,7.595326994386151e-06
4.209198829585647e-07,2.049053283836585e-07,2.6401971347477824e-07,7.5814825871130465e-06
4.216405165249013e-07,2.0620570948762e-07,2.622011410036572e-07,7.565665634554102e-06
4.2225642595251716e-07,2.0757536975457307e-07,2.6046353827316533e-07,7.548117949473072e-06
4.2276418835737046e-07,2.0900503899655328e-07,2.588107079586851e-07,7.52922053992344e-06
4.231591170300354e-07,2.104878263731355e-07,2.5724715049554163e-07,7.509529616462123e-06
4.234350268473465e-07,2.120201198620264e-07,2.557791257553195e-07,7.489721073660594e-06
4.235841745163607e-07,2.1359978350078725e-07,2.5441365273455293e-07,7.4705112924532894e-06
4.235988308626525e-07,2.152239826843307e-07,2.5315638142288827e-07,7.452594832779495e-06
4.234726442450051e-07,2.1688900235659747e-07,2.5201053467333907e-07,7.436598706227744e-06
4.2319998095938394e-07,2.1859155520352712e-07,2.509772789480248e-07,7.423053178933311e-06
4.22774866481736e-07,2.203297001780942e-07,2.500569696980767e-07,7.412376314630992e-06
4.2219080152220713e-07,2.2210303594788843e-07,2.49250987346428e-07,7.404863637555599e-06
4.214408948504483e-07,2.239126781719684e-07,2.4856236108106215e-07,7.400681026068222e-06
4.2051823774382036e-07,2.2576062939834523e-07,2.479939383255496e-07,7.399864796313252e-06
4.194168502063565e-07,2.2764852044193783e-07,2.4754602076419284e-07,7.402333247289662e-06
4.181324761623724e-07,2.2957663801753192e-07,2.472154827989286e-07,7.407914673714633e-06
4.166623985757546e-07,2.3154355657125445e-07,2.469959961467464e-07,7.416386291931044e-06
4.150051137204368e-07,2.3354665605281729e-07,2.4687835361853533e-07,7.427508430470042e-06
4.1316087388470296e-07,2.3558416834758391e-07,2.4685113424304965e-07,7.441053481565538e-06
4.111325044021981e-07,2.376568900531886e-07,2.469022888879183e-07,7.456837404461467e-06
4.089254052556177e-07,2.3976698501139826e-07,2.4702090051196453e-07,7.4747400129243345e-06
4.065464938690243e-07,2.4191531979137817e-07,2.4719817413398207e-07,7.494698638888513e-06
4.040025954506906e-07,2.4409985659270313e-07,2.4742721976576496e-07,7.516689268288265e-06
4.012992971281668e-07,2.463152215454557e-07,2.477016208648528e-07,7.540712206109317e-06
3.984410925194024e-07,2.4855273943655874e-07,2.480142398352816e-07,7.566778576327911e-06
3.954326082269645e-07,2.508010089775553e-07,2.4835704738659824e-07,7.5948939683454785e-06
3.922804454014491e-07,2.530479457296152e-07,2.4872116417886864e-07,7.625039960467108e-06
3.8899460733523846e-07,2.552834734985738e-07,2.490969923988195e-07,7.657148181213366e-06
3.855877498055928e-07,2.575002883951037e-07,2.494747304125596e-07,7.691077363552721e-06
3.820725644358633e-07,2.596927546255289e-07,2.498452978969405e-07,7.726622409475264e-06
3.784599531197921e-07,2.6185563886280666e-07,2.50201268906892e-07,7.763549293087146e-06
3.7475934950652594e-07,2.6398281856880133e-07,2.505368447640432e-07,7.801616555321741e-06
3.7097979927616786e-07,2.660663547030484e-07,2.508467798174653e-07,7.84057866952416e-06
3.6713050133850157e-07,2.680967013972482e-07,2.511254475164369e-07,7.880192857127199e-06
3.6322100899374297e-07,2.7006324519630125e-07,2.513670538505561e-07,7.920233125920637e-06
3.5926108152801033e-07,2.71954302296694e-07,2.5156646658996746e-07,7.960499301634641e-06
3.552601744861327e-07,2.737571550279308e-07,2.517195577254099e-07,8.000801020070426e-06
3.5122710864883014e-07,2.754587230407777e-07,2.518236115242756e-07,8.040915137776738e-06
3.471702816049345e-07,2.7704637710943665e-07,2.5187787562236627e-07,8.08055158610996e-06
3.430987596602232e-07,2.785084525825259e-07,2.5188290562112577e-07,8.119357007362207e-06
3.390234355305666e-07,2.798349016732493e-07,2.5183960568604645e-07,8.156949035099111e-06
3.349565245769877e-07,2.810180794755484e-07,2.5174928019537656e-07,8.192965813304733e-06
3.309105068819344e-07,2.8205274743919466e-07,2.516136919973973e-07,8.22712105462709e-06
3.2689853116083696e-07,2.8293556990523696e-07,2.514347620084135e-07,8.259234922220449e-06
3.2293497568620854e-07,2.836655317267399e-07,2.5121440516560905e-07,8.289207286858586e-06
3.1903461294855844e-07,2.842448654304029e-07,2.5095412599889477e-07,8.316951860104847e-06
3.152108952514636e-07,2.8467874147676977e-07,2.5065430274587945e-07,8.342351441483122e-06
3.114750968741845e-07,2.849736410698381e-07,2.503137864921064e-07,8.365258348222224e-06
3.078377937088634e-07,2.851358754621985e-07,2.4993023341476214e-07,8.385510919058963e-06
3.043107512528788e-07,2.851711040289141e-07,2.4950123582909013e-07,8.402945025960706e-06
3.009065925730052e-07,2.850844083196659e-07,2.4902588702976464e-07,8.41740368170791e-06
2.9763712457749574e-07,2.8488120336163465e-07,2.4850573480687943e-07,8.428761058061616e-06
2.94512443685767e-07,2.845694081866545e-07,2.4794417550541486e-07,8.436977673749033e-06
2.915415525943691e-07,2.841605040074779e-07,2.4734494624268234e-07,8.442145407727125e-06
2.887330073095607e-07,2.8366798705735816e-07,2.467111186508307e-07,8.444461240073156e-06
2.860941595165324e-07,2.831055061643821e-07,2.460449541068386e-07,8.444152314023276e-06
2.8363073563164213e-07,2.824859200725977e-07,2.453484208517656e-07,8.441409609616805e-06
2.8134821049314717e-07,2.818203506206956e-07,2.4462396821922586e-07,8.436364149425407e-06
2.7925236007552416e-07,2.8111759103188906e-07,2.438745768418744e-07,8.429147150097568e-06
2.7734772105794174e-07,2.80384636817845e-07,2.431027852069941e-07,8.420014788437318e-06
2.7563709359201487e-07,2.796273852277136e-07,2.423101909689249e-07,8.409417633284038e-06
2.741226887131497e-07,2.7885095425622054e-07,2.414990718842773e-07,8.397955250325356e-06
2.7280618135590216e-07,2.7806051924019236e-07,2.406750932402112e-07,8.386288800806473e-06
2.7168744805624804e-07,2.7726220097975345e-07,2.398478457046963e-07,8.375078677687898e-06
2.707639430243677e-07,2.764625491558241e-07,2.3902867934549644e-07,8.364941817935059e-06
2.700313808847547e-07,2.756669277069177e-07,2.382284605026635e-07,8.356409655802635e-06
2.6948422540271803e-07,2.748782048893277e-07,2.3745659593188963e-07,8.34989013032863e-06
2.6911492937016864e-07,2.7409678620232874e-07,2.3672119975408612e-07,8.345649584288615e-06
2.689136349226572e-07,2.733224367645415e-07,2.3602949204389114e-07,8.343818600174142e-06
2.688696451105145e-07,2.7255640798677744e-07,2.3538797066945878e-07,8.344405506406116e-06
2.689729777198381e-07,2.718013206441019e-07,2.348031487933981e-07,8.347301819169204e-06
2.6921450355726106e-07,2.710599256382673e-07,2.342815649828986e-07,8.352283702825545e-06
2.6958502260014896e-07,2.7033655849270586e-07,2.338281376930964e-07,8.359024028941916e-06
2.700742414525039e-07,2.696400599323565e-07,2.334453750598211e-07,8.36711989795334e-06
2.7067106621969645e-07,2.689830140721676e-07,2.3313393612528648e-07,8.376129962537996e-06
2.7136510064887736e-07,2.683779375376901e-07,2.3289315860581163e-07,8.385614753949596e-06
2.721472056049081e-07,2.67835025246811e-07,2.3272259800104324e-07,8.395165993201267e-06
2.73009002182328e-07,2.673617252436471e-07,2.32624549520576e-07,8.40441123753858e-06
2.739426756063743e-07,2.669625106067534e-07,2.326051089167069e-07,8.413009495595562e-06
2.7494048437320325e-07,2.666389500951364e-07,2.3267305963319732e-07,8.420662025192684e-06
2.759940717579711e-07,2.663902487832735e-07,2.328376364740572e-07,8.427128462704808e-06
2.770949436111122e-07,2.662138874967648e-07,2.331061900559978e-07,8.432226174794859e-06
2.782353134073576e-07,2.66106068169376e-07,2.3348280820318827e-07,8.435812490678559e-06
2.794080284330865e-07,2.66062399768725e-07,2.3396833109896985e-07,8.437757636261775e-06
2.8060602145997705e-07,2.6607861482735014e-07,2.345613678383854e-07,8.43791779089423e-06
2.8182228428187016e-07,2.6615011546596784e-07,2.3525945095915604e-07,8.436131758711125e-06
2.830503888763269e-07,2.6627096076977227e-07,2.3605927121096672e-07,8.432245922526495e-06
2.842842811738411e-07,2.6643381505856053e-07,2.3695663730105065e-07,8.426131419712146e-06
2.855172355159904e-07,2.6663092035342863e-07,2.3794756782532683e-07,8.417674172339764e-06
2.8674172453376024e-07,2.668557447103085e-07,2.3902931954603445e-07,8.406760785403766e-06
2.879508941219439e-07,2.6710409686043575e-07,2.4019974067069557e-07,8.393280411003192e-06
2.8914028351154604e-07,2.673732316736872e-07,2.414562805852617e-07,8.37713635714224e-06
2.9030796058231913e-07,2.676606757864359e-07,2.427962008918837e-07,8.358262011861963e-06
2.914527716003161e-07,2.6796492834737076e-07,2.4421657966380874e-07,8.33665424817106e-06
2.925723872100409e-07,2.682864445085688e-07,2.457132481852251e-07,8.31241131295987e-06
2.936625617283021e-07,2.686269014049303e-07,2.472811246025907e-07,8.285735818791864e-06
2.947177726848695e-07,2.6898744475617444e-07,2.489160614502531e-07,8.256902540118083e-06
2.957335018975524e-07,2.6936797320159743e-07,2.506147522335572e-07,8.226213978859778e-06
2.967092878053463e-07,2.697681418673966e-07,2.5237306136644987e-07,8.193951831279506e-06
2.9764935062585787e-07,2.701882379555629e-07,2.541857485263493e-07,8.160334496559657e-06
2.9855963873399593e-07,2.706285768666616e-07,2.5604671680241773e-07,8.125496878277824e-06
2.994448541208198e-07,2.710886969880136e-07,2.579483321727131e-07,8.089504671777685e-06
3.0030821238606173e-07,2.7156758111741857e-07,2.5988091360306093e-07,8.052397595817474e-06
3.0115197900379555e-07,2.720638523835743e-07,2.618326801425552e-07,8.014230143167959e-06
3.019770447075433e-07,2.725752887068296e-07,2.637896913173221e-07,7.975081556012976e-06
3.0278310855021303e-07,2.7309894526910556e-07,2.657364996782261e-07,7.935037659686465e-06
3.0357002327192287e-07,2.736316681066458e-07,2.6765791289434265e-07,7.894165987051502e-06
3.043384089205361e-07,2.7416955528905746e-07,2.695403101662991e-07,7.852516740599414e-06
3.050885675690116e-07,2.7470737905134467e-07,2.713710539569816e-07,7.810165588403032e-06
3.0581930061168804e-07,2.752398057364368e-07,2.731376125867023e-07,7.767249770357451e-06
3.065284575640679e-07,2.757632717474234e-07,2.7482838805056983e-07,7.72395508817792e-06
3.072140020294825e-07,2.762759761217401e-07,2.764341906375001e-07,7.680481418984881e-06
3.0787402814383426e-07,2.767764579638941e-07,2.779493023607005e-07,7.63700943865614e-06
3.085073572004363e-07,2.7726299307345447e-07,2.7937197273623553e-07,7.5936689097936415e-06
3.091157653413998e-07,2.777338194118934e-07,2.8070313217094104e-07,7.550520108435719e-06
3.097060800428159e-07,2.7818693775054577e-07,2.819439255506954e-07,7.507552862512337e-06
3.102897981856729e-07,2.7861982789420617e-07,2.830944471215095e-07,7.464697141626367e-06
3.108794854890918e-07,2.790303498661336e-07,2.8415384071284754e-07,7.421838144801102e-06
3.1148482479363325e-07,2.794181921452909e-07,2.851202987669097e-07,7.3788275148332806e-06
3.121117814432223e-07,2.797851139560745e-07,2.8599047048604804e-07,7.3354888679974e-06
3.1276491846014377e-07,2.801342067227025e-07,2.867594225613308e-07,7.291624346600013e-06
3.1345000349281356e-07,2.804694767663783e-07,2.874223296970045e-07,7.247022175574617e-06
3.1417377717721126e-07,2.8079545426418963e-07,2.879765921331932e-07,7.201459190667406e-06
3.149414044873364e-07,2.8111620637576517e-07,2.884219105562387e-07,7.154704855840086e-06
3.157550788218362e-07,2.8143442609837236e-07,2.887585546209284e-07,7.106537306696228e-06
3.166147410512391e-07,2.8175105981388587e-07,2.8898602428733896e-07,7.05676273480956e-06
3.17519290297525e-07,2.820655473059824e-07,2.891029583095193e-07,7.005218028755661e-06
3.1846746061836424e-07,2.8237610021762273e-07,2.8910756402680216e-07,6.951754510492561e-06
3.194575942936847e-07,2.826791613949132e-07,2.8899792715883737e-07,6.896221314768374e-06
3.204858183239341e-07,2.829691120187213e-07,2.887723197929937e-07,6.8384612729720075e-06
3.215445939452365e-07,2.8323919599118533e-07,2.884294986527915e-07,6.778315652242995e-06
3.2262320407301486e-07,2.8348226831534816e-07,2.87969109592863e-07,6.7156288169203225e-06
3.23708852500424e-07,2.8369032859374473e-07,2.8739274151364133e-07,6.650250188241539e-06
3.247872613379183e-07,2.838539419164129e-07,2.867048700260981e-07,6.582036940212567e-06
3.258431114155898e-07,2.83962573434169e-07,2.859121855122315e-07,6.510860683607327e-06
3.2686013260197076e-07,2.840055973788821e-07,2.850216040497232e-07,6.436621140263023e-06
3.278206847303211e-07,2.839733908494976e-07,2.840386246828317e-07,6.359263561897416e-06
3.287056167500959e-07,2.838582137501389e-07,2.829670288144729e-07,6.2787876109729525e-06
3.29494731324462e-07,2.836550878226601e-07,2.818102065211556e-07,6.195240745089386e-06
3.3016767267518767e-07,2.833622620390389e-07,2.8057354076352165e-07,6.108701674693399e-06
3.307051604815201e-07,2.829805870085255e-07,2.7926547100931765e-07,6.019270277373263e-06
3.310897197609534e-07,2.825128657105547e-07,2.778958892442435e-07,5.9270823483085016e-06
3.313053163095438e-07,2.819641925941057e-07,2.764741620885563e-07,5.8323350453548535e-06
3.313369148391901e-07,2.813415386596452e-07,2.750086603265529e-07,5.735279425451054e-06
3.311707914539177e-07,2.8065138449623426e-07,2.7350695938051976e-07,5.636179378502545e-06
3.3079529383129306e-07,2.7989783746487487e-07,2.7197612185403536e-07,5.535280594215638e-06
3.302012116377667e-07,2.7908280452335137e-07,2.704232234634119e-07,5.432808351064836e-06
3.2938147740184896e-07,2.7820684914479923e-07,2.6885607027366965e-07,5.3289894767211466e-06
3.283317431438189e-07,2.7726974693161504e-07,2.672836354640784e-07,5.224084713661092e-06
3.2705217907282066e-07,2.7627056413238866e-07,2.6571581604507517e-07,5.118400586910358e-06
3.2554733548488477e-07,2.7520735161282724e-07,2.641632251549002e-07,5.0122681102165575e-06
3.2382319956297977e-07,2.740773008251207e-07,2.626376444479473e-07,4.906014746574246e-06
3.2188527762048567e-07,2.7287780353296516e-07,2.611520828744113e-07,4.799964259409141e-06
3.19739713879098e-07,2.7160715674814364e-07,2.597191793996599e-07,4.694473743032935e-06
3.173951823654098e-07,2.7026419571665976e-07,2.583492684493337e-07,4.589982833275615e-06
3.148631797150479e-07,2.688482266401441e-07,2.5705028138120226e-07,4.487033403356224e-06
3.121572301887988e-07,2.673596541531185e-07,2.558287495466192e-07,4.3862377625456815e-06
3.09292609499506e-07,2.658002477397712e-07,2.546903566996592e-07,4.288214325245138e-06
3.062861387347744e-07,2.64173081035576e-07,2.5364050285551853e-07,4.193524080110669e-06
3.0315510306862004e-07,2.624828964395091e-07,2.526848622012416e-07,4.102628434286741e-06
2.9991609937235133e-07,2.607364212881731e-07,2.518292094856334e-07,4.015876167445462e-06
2.96584451590942e-07,2.5894159240570424e-07,2.510795130254697e-07,3.933510938841342e-06
2.931740165230629e-07,2.571062930826361e-07,2.504422534630395e-07,3.855687184030607e-06
2.8969766278483987e-07,2.552379301885601e-07,2.499238664608532e-07,3.782506942726664e-06
2.861681860302445e-07,2.5334408191958926e-07,2.495306917194959e-07,3.7140922135856536e-06
2.825987191355994e-07,2.514330405607919e-07,2.492698010995379e-07,3.6506484616842973e-06
2.7900283217785204e-07,2.495132472624945e-07,2.4914871804761896e-07,3.592454487930352e-06
2.753949843197649e-07,2.4759320606627736e-07,2.491739050990078e-07,3.5397932446082358e-06
2.717908910461546e-07,2.4568256317410804e-07,2.49349428174738e-07,3.492889404837288e-06
2.682071111633815e-07,2.4379169623128033e-07,2.4967640611230633e-07,3.4518971768916604e-06
2.646598791126159e-07,2.419295160860857e-07,2.50152845819457e-07,3.4169623430543418e-06
2.611642983889796e-07,2.4010242991961304e-07,2.507735351705777e-07,3.3883374383925823e-06
2.5773481807353567e-07,2.3831528386529608e-07,2.5153010349169456e-07,3.3664568590182707e-06
2.543860468920746e-07,2.3657230796316681e-07,2.5241122710851977e-07,3.351906246488507e-06
2.51133251727534e-07,2.3487738599097835e-07,2.5340378541700184e-07,3.345328423075153e-06
2.479926774100448e-07,2.332353206601974e-07,2.544953341831903e-07,3.3473334167930687e-06
2.449808910427452e-07,2.3165331238668971e-07,2.556757775179076e-07,3.3584341763750037e-06
2.421137200869879e-07,2.3014048459357748e-07,2.569378176832584e-07,3.3790100446428063e-06
2.394059998333863e-07,2.287074168253162e-07,2.582775925172388e-07,3.409294770285205e-06
2.368710342527257e-07,2.273673124481175e-07,2.596939235554192e-07,3.4493788562653237e-06
2.3451921289644696e-07,2.261363726844221e-07,2.611859236714865e-07,3.4992183026696037e-06
2.323572440693261e-07,2.2503193971571173e-07,2.627517305329377e-07,3.55864222032356e-06
2.3038934351767029e-07,2.240698614968709e-07,2.6438836295875933e-07,3.6273517446823923e-06
2.2862029581000033e-07,2.2326275366106272e-07,2.660911357729651e-07,3.7049177169852914e-06
2.2705763012282528e-07,2.22619425933918e-07,2.67853180096212e-07,3.7907941616936316e-06
2.257098712194797e-07,2.221451404512353e-07,2.696665715415269e-07,3.884346883506771e-06
2.2458253038003145e-07,2.2184264223884549e-07,2.715245520471198e-07,3.984886339122102e-06
2.2367600953896784e-07,2.2171337585420962e-07,2.734222371227752e-07,4.0917058750203436e-06
2.229861827560236e-07,2.2175814240676264e-07,2.7535516408584534e-07,4.204122263535616e-06
2.225056535605216e-07,2.219770352999432e-07,2.773178584777019e-07,4.321498380792391e-06
2.2222453997158603e-07,2.2236883421991625e-07,2.7930340194341267e-07,4.443239629061444e-06
2.221307935168109e-07,2.229303564523309e-07,2.813035546072929e-07,4.56877975954367e-06
2.2221062022411007e-07,2.236563913480587e-07,2.833099333746448e-07,4.697566325023054e-06
2.2244985654625784e-07,2.2454022801578822e-07,2.85315875545736e-07,4.829041650225164e-06
2.2283555145745611e-07,2.255738855134079e-07,2.873171529156012e-07,4.96261989359414e-06
2.233559445173553e-07,2.2674806602762078e-07,2.893111502265361e-07,5.0976694258133234e-06
2.239990069814998e-07,2.280528082338316e-07,2.91295625982996e-07,5.233511335013312e-06
2.2475119429678802e-07,2.2947806791729842e-07,2.932678940021469e-07,5.3694398983464054e-06
2.2559725272564092e-07,2.310131246731185e-07,2.952243357726686e-07,5.5047532260230975e-06
2.265209390275589e-07,2.3264604959554891e-07,2.971598656764054e-07,5.638770537725971e-06
2.2750624191194982e-07,2.3436442336695822e-07,2.990676922211164e-07,5.770830691270021e-06
2.285379732819522e-07,2.3615623819612426e-07,3.009400499114488e-07,5.900284193351758e-06
2.2960110657160722e-07,2.380099112328484e-07,3.027697485727825e-07,6.026489919294008e-06
2.306803066863832e-07,2.3991421822844106e-07,3.0455097482443336e-07,6.14882504898477e-06
2.317601960572032e-07,2.4185859720203617e-07,3.0627813635894564e-07,6.266701312106728e-06
2.3282566590994267e-07,2.438327696186775e-07,3.0794438631811124e-07,6.3795778920874415e-06
2.3386288167456775e-07,2.45825825098621e-07,3.095421551492697e-07,6.486988007303458e-06
2.3486068691459928e-07,2.478259466642013e-07,3.110644764995925e-07,6.588583861108644e-06
2.3581098082908286e-07,2.49820637129024e-07,3.1250474570513977e-07,6.684160475054111e-06
2.3670833719389318e-07,2.517971096273644e-07,3.138559083500725e-07,6.773629177019013e-06
2.3754910435342808e-07,2.537430559075293e-07,3.151110243468632e-07,6.856960914577927e-06
2.3833023375480929e-07,2.5564730969979985e-07,3.1626472412230027e-07,6.934134555645784e-06
2.3904938094838773e-07,2.575000208229213e-07,3.1731361442775853e-07,7.005105693136866e-06
2.3970537748118076e-07,2.5929266110409226e-07,3.1825508401454694e-07,7.069797462291144e-06
2.4029698275118123e-07,2.61018029368177e-07,3.190862440811079e-07,7.128112930661313e-06
2.408212823315991e-07,2.626702465785897e-07,3.1980434389997803e-07,7.179961472554901e-06
2.4127369961631013e-07,2.6424415045398807e-07,3.204082598819907e-07,7.225279726816031e-06
2.4164917368470365e-07,2.6573378275817807e-07,3.208996812141143e-07,7.2640333800765885e-06
2.419433602938685e-07,2.671313369490583e-07,3.212824850346817e-07,7.296204780323436e-06
2.421538536343497e-07,2.68427595349388e-07,3.215606995506504e-07,7.321790351434787e-06
2.422812508049389e-07,2.696132077017336e-07,3.217369339276199e-07,7.3408476971931385e-06
2.4232864851458924e-07,2.706800123649975e-07,3.2181213828904e-07,7.353574265913969e-06
2.4230001563690016e-07,2.716218829755193e-07,3.2178647097358515e-07,7.360322832553543e-06
2.421992991519229e-07,2.724345936471487e-07,3.216599689775464e-07,7.3615473111724194e-06
2.4203008193e-07,2.7311512283234385e-07,3.214320476434877e-07,7.357768264709872e-06
2.417951007903621e-07,2.736611257490673e-07,3.211014291667869e-07,7.349562649579002e-06
2.4149622650851523e-07,2.740706851603219e-07,3.206680579811842e-07,7.337531065622737e-06
2.411353998102239e-07,2.7434255881668537e-07,3.201359577979185e-07,7.322252787976845e-06
2.4071610623785443e-07,2.744764615564163e-07,3.195148087075064e-07,7.304250815802944e-06
2.402441380552204e-07,2.744726071003928e-07,3.188187353433004e-07,7.283972016400833e-06
2.397268658328614e-07,2.7433149467362504e-07,3.180629974544776e-07,7.261784794304457e-06
2.391720443148332e-07,2.740548621521573e-07,3.172609394379591e-07,7.2379861262217344e-06
2.3858720875710913e-07,2.736463333094476e-07,3.1642304184462773e-07,7.212805428183002e-06
2.379795885563301e-07,2.731103806632398e-07,3.155583169795414e-07,7.186406237828935e-06
2.37356581959522e-07,2.724506002569261e-07,3.146761138699647e-07,7.15889601854276e-06
2.3672685239625143e-07,2.7166919313692217e-07,3.137859220037532e-07,7.130340896065915e-06
2.3610091612576734e-07,2.707681846351544e-07,3.128957017710734e-07,7.100774905469348e-06
2.3548994209719552e-07,2.697504270820602e-07,3.1201126803231287e-07,7.070209141718956e-06
2.3490357138919462e-07,2.686190032244577e-07,3.11137036299556e-07,7.038643890221617e-06
2.34348533483228e-07,2.6737662641588713e-07,3.1027615352144536e-07,7.006068234408845e-06
2.3382847912702203e-07,2.660257347253569e-07,3.0942970722567693e-07,6.972444305105313e-06
2.333445625055368e-07,2.645688115330789e-07,3.085965837967379e-07,6.93769878802713e-06
2.3289610019521533e-07,2.630095148065976e-07,3.0777401575513894e-07,6.90173302480458e-06
2.324812132589601e-07,2.613535358309632e-07,3.069579213643673e-07,6.864437790368072e-06
2.320981227763672e-07,2.5960789270451326e-07,3.061431689766535e-07,6.825702908865134e-06
2.3174614349259768e-07,2.577801744862137e-07,3.053237350415907e-07,6.7854279339683855e-06
2.3142507856379772e-07,2.5587854951532533e-07,3.044928269612976e-07,6.7435392488827735e-06
2.3113434969631892e-07,2.539114666095649e-07,3.036435930523129e-07,6.700007039065968e-06
2.3087337712310657e-07,2.5188687253378486e-07,3.027700910404354e-07,6.6548486284675275e-06
2.306425681322145e-07,2.49811700020744e-07,3.0186797584588554e-07,6.608113571256707e-06
2.3044343673934437e-07,2.476917880894721e-07,3.0093489835236826e-07,6.559865900123991e-06
2.3027802267879766e-07,2.4553180634908445e-07,2.99970039155194e-07,6.510176726611613e-06
2.3014888774524327e-07,2.4333542091089353e-07,2.989727512742812e-07,6.4591185551680846e-06
2.300589174842895e-07,2.41106231142622e-07,2.9794194171819985e-07,6.4067632181852135e-06
2.300100300207161e-07,2.388490328257228e-07,2.9687668346470327e-07,6.353199900057119e-06
2.300020416203495e-07,2.3657052963306927e-07,2.957762339248893e-07,6.298552973280967e-06
2.3003238951435966e-07,2.3427895171711282e-07,2.9463890614581577e-07,6.242967967415727e-06
2.300963501470703e-07,2.3198289284184288e-07,2.934614060508524e-07,6.186584642078996e-06
2.3018773273298674e-07,2.29690619631896e-07,2.922393091602619e-07,6.129524305939868e-06
2.302997599087732e-07,2.2741081020617933e-07,2.9096801086285605e-07,6.0718899366812925e-06
2.3042602807249927e-07,2.251540859496705e-07,2.8964329981201967e-07,6.0137813502735224e-06
2.305625013531311e-07,2.2293309367173066e-07,2.882608961642947e-07,5.955316585733721e-06
2.3070984919616427e-07,2.207605094475253e-07,2.8681585056022574e-07,5.896630774560675e-06
2.3087320525881148e-07,2.186477055037756e-07,2.853031683841153e-07,5.837850464700742e-06
2.3105913185091728e-07,2.166053566200305e-07,2.837190369647669e-07,5.779070370425803e-06
2.3127302026512965e-07,2.146439290531499e-07,2.8206165785543144e-07,5.720358186201194e-06
2.3151837313141327e-07,2.1277306178700235e-07,2.803316260901823e-07,5.6617981008559234e-06
2.3179667549645901e-07,2.1100060856975587e-07,2.7853196947426824e-07,5.6035473796645234e-06
2.3210779780706335e-07,2.0933232611488255e-07,2.766679129526744e-07,5.5458541144425695e-06
2.3245157865254158e-07,2.0777316387728137e-07,2.7474602206661413e-07,5.489017309457177e-06
2.3282879159445938e-07,2.0632869146549629e-07,2.7277278952819617e-07,5.433325233658505e-06
2.3324018197513105e-07,2.0500455037130066e-07,2.707535004699535e-07,5.37901867557784e-06
2.336852815443385e-07,2.0380550233598828e-07,2.6869170577938704e-07,5.32628540879665e-06
2.3416235237924252e-07,2.0273590162165827e-07,2.665891246410644e-07,5.2752606260534065e-06
2.3466909822312122e-07,2.0180047031125965e-07,2.6444613768201646e-07,5.226027719759473e-06
2.352035509124339e-07,2.01004259983034e-07,2.622627992622406e-07,5.178638270286642e-06
2.357644858072999e-07,2.0035245579738226e-07,2.6003934746870944e-07,5.133167955218621e-06
2.363512405676351e-07,1.9985060832665843e-07,2.577759039432984e-07,5.089791448288184e-06
2.3696345704575282e-07,1.9950448297329733e-07,2.5547276869475086e-07,5.048810295752545e-06
2.376006835513029e-07,1.9931916335523518e-07,2.5313170305148465e-07,5.01059821064447e-06
2.3826211304571228e-07,1.9929835152364198e-07,2.5075616959450694e-07,4.975518334784668e-06
2.389472856219198e-07,1.9944477513812572e-07,2.4834997587979664e-07,4.943873758252672e-06
2.3965679877064317e-07,1.997612978885872e-07,2.459169263553204e-07,4.9159100636009805e-06
2.403915066099416e-07,2.0025109311670209e-07,2.434620865180177e-07,4.89188336712634e-06
2.4115088324825894e-07,2.0091692845670354e-07,2.40992145254395e-07,4.872156539324882e-06
2.419323254205841e-07,2.0176107169006688e-07,2.385150401513716e-07,4.8572268296397365e-06
2.427319345040929e-07,2.0278551225178266e-07,2.360407990547979e-07,4.847663029754847e-06
2.4354545797598447e-07,2.039922684589545e-07,2.335819029545227e-07,4.844022970858436e-06
2.443680331669723e-07,2.0538494864677e-07,2.311514093502686e-07,4.8467983631470915e-06
2.4519378761343567e-07,2.0697006331154393e-07,2.287608850407443e-07,4.856383425362322e-06
2.4601684010878645e-07,2.0875524695652086e-07,2.2642003141210852e-07,4.8730545696973764e-06
2.468325070173892e-07,2.1074591713641398e-07,2.2413765437280322e-07,4.896959035671044e-06
2.476370850078427e-07,2.129437066554332e-07,2.219225754759965e-07,4.928116049905116e-06
2.484266832113289e-07,2.1534656634157357e-07,2.1978351897783218e-07,4.96642923617913e-06
2.4919633896595223e-07,2.1794895034536963e-07,2.1772825256161552e-07,5.0117030961906815e-06
2.4994013387822825e-07,2.2074191521122565e-07,2.1576266946574677e-07,5.063651854400344e-06
2.506518380833951e-07,2.237131142952455e-07,2.1389073466481377e-07,5.121896918745046e-06
2.513251335121253e-07,2.268470191832747e-07,2.1211523162228332e-07,5.185965026384204e-06
2.519536809519736e-07,2.301263871088301e-07,2.1043878895820943e-07,5.255295216437979e-06
2.525316979896077e-07,2.3353372731347971e-07,2.0886615154647067e-07,5.3292546805281164e-06
2.5305460550144317e-07,2.3705159998773303e-07,2.074063098693713e-07,5.40716844693218e-06
2.535191617122535e-07,2.4066352376613977e-07,2.060708957077134e-07,5.488357252952158e-06
2.539230838438922e-07,2.443549505399721e-07,2.0487012009734488e-07,5.5721632884594125e-06
2.542643594672206e-07,2.4811231382727123e-07,2.0381053119529127e-07,5.657958391016444e-06
2.545407928546125e-07,2.519222773541921e-07,2.028956302273297e-07,5.74514653777703e-06
2.547500765624421e-07,2.5577278387625776e-07,2.0212808062539645e-07,5.8331640792572364e-06
2.5489023961261096e-07,2.596535507217884e-07,2.0151154107488868e-07,5.921467533679515e-06
2.549604495186125e-07,2.6355468148302804e-07,2.0105016071835968e-07,6.0095075760394795e-06
2.5496186218401265e-07,2.674649389226272e-07,2.0074683613055068e-07,6.096709412735166e-06
2.548974648150988e-07,2.7137127577917327e-07,2.0060317867821e-07,6.182478899012565e-06
2.547705425134499e-07,2.7525942232417805e-07,2.006206360409852e-07,6.266229343291864e-06
2.545831983014242e-07,2.79114391077944e-07,2.0080046022508122e-07,6.347402705046569e-06
2.543361726077744e-07,2.8292040279451015e-07,2.011432609538629e-07,6.425466377674933e-06
2.5402998325622466e-07,2.8666065663621497e-07,2.016488852603368e-07,6.4999009217467625e-06
2.536668514831944e-07,2.903172726808139e-07,2.0231545562471878e-07,6.570202729793287e-06
2.532522460910979e-07,2.9387109809384017e-07,2.031382451759503e-07,6.635896685793074e-06
2.5279458975557144e-07,2.973017043072208e-07,2.0411017486846732e-07,6.696542005711481e-06
2.523028782222435e-07,3.005882741949084e-07,2.052231830754069e-07,6.751729197946874e-06
2.517846189287449e-07,3.03710726129622e-07,2.0646873032246628e-07,6.80107438886039e-06
2.5124629480088594e-07,3.0665031283409354e-07,2.078382673410067e-07,6.844220254801725e-06
2.506944079229148e-07,3.093899352275952e-07,2.0932502980132234e-07,6.880858154492661e-06
2.5013482706111805e-07,3.119141343570238e-07,2.109259029960704e-07,6.910775290688722e-06
2.4957179074220083e-07,3.142089878571593e-07,2.126423027774725e-07,6.9339065892557056e-06
2.490078749976549e-07,3.162628451431749e-07,2.144804969878509e-07,6.950354544214752e-06
2.484442586204291e-07,3.180679162075086e-07,2.164504108229075e-07,6.960353337884048e-06
2.478809448957464e-07,3.1962186052143377e-07,2.1856211998890515e-07,6.964198577146405e-06
2.473170891197349e-07,3.209280727481792e-07,2.2082233093938518e-07,6.9621870405183135e-06
2.467512041011167e-07,3.2199377218635716e-07,2.232338356632091e-07,6.954592573431559e-06
2.4618132798007196e-07,3.228273843349968e-07,2.2579744397080327e-07,6.941674359405513e-06
2.4560551459294383e-07,3.23436854404479e-07,2.2851292976134205e-07,6.923689121406177e-06
2.450223875977848e-07,3.238289048065504e-07,2.3137776399423238e-07,6.900884882220897e-06
2.444314693884169e-07,3.240100068981007e-07,2.343861941152225e-07,6.873491258379704e-06
2.438339080971642e-07,3.2398905823261727e-07,2.375304136284451e-07,6.841752382670465e-06
2.432336711087615e-07,3.237792179980777e-07,2.408023231876621e-07,6.806010675933713e-06
2.426373405978329e-07,3.233974673545249e-07,2.441938102638856e-07,6.7667621071686926e-06
2.420518542825958e-07,3.2286278401530896e-07,2.4769540102971817e-07,6.7246190274963025e-06
2.4148272010294265e-07,3.221940609144877e-07,2.512946826121569e-07,6.680221489095171e-06
2.4093425444436587e-07,3.214083074496971e-07,2.5497576585191844e-07,6.634167499719747e-06
2.4041034191786077e-07,3.205192112976841e-07,2.587197639688716e-07,6.5870140412225725e-06
2.3991462376849015e-07,3.195367993565651e-07,2.625055104026672e-07,6.539368741164374e-06
2.394504637981687e-07,3.184693139301404e-07,2.663104422151853e-07,6.4919887392967925e-06
2.390203775870989e-07,3.173261351164031e-07,2.701118387193563e-07,6.445777431952669e-06
2.386247665101353e-07,3.1611860148933714e-07,2.738878614617001e-07,6.401699880413743e-06
2.382611561871162e-07,3.148583340122129e-07,2.776179816197821e-07,6.360699322017815e-06
2.3792474614738602e-07,3.135554088113653e-07,2.8128332756379856e-07,6.323638461790032e-06
2.3760963044510322e-07,3.1221721566358216e-07,2.8486720035361576e-07,6.2912594451121535e-06
2.373095587102015e-07,3.1084809641502463e-07,2.8835491521325717e-07,6.264159775219231e-06
2.3701799006858969e-07,3.094503437043422e-07,2.917330809765916e-07,6.242777321902518e-06
2.367284894772561e-07,3.080264167133041e-07,2.949892372672892e-07,6.227385679938266e-06
2.364359769543652e-07,3.0658089888946253e-07,2.981117081736261e-07,6.218108602609677e-06
2.361372083720125e-07,3.0512035540660603e-07,3.010898645717259e-07,6.21494314142946e-06
2.3582965666327485e-07,3.036516052871225e-07,3.0391499410067096e-07,6.217769240572168e-06
2.35510928535573e-07,3.0218051529886926e-07,3.065811650977983e-07,6.226349917820857e-06
2.351798279233318e-07,3.00711805677723e-07,3.090858981284392e-07,6.240343731654267e-06
2.3483738229634987e-07,2.992491180900268e-07,3.1142989429232893e-07,6.259334857712964e-06
2.344872021103448e-07,2.9779509439103644e-07,3.1361519161790836e-07,6.2828740562681125e-06
2.341362082862206e-07,2.963515726976583e-07,3.1564310518350484e-07,6.3105194929791014e-06
2.337946837940691e-07,2.949196945213557e-07,3.175139413330863e-07,6.341857453062421e-06
2.3347390965662103e-07,2.935000266035346e-07,3.192292937002376e-07,6.376495196308167e-06
2.3318317635731697e-07,2.9209314543917805e-07,3.207945734123713e-07,6.414047709027579e-06
2.329288132588468e-07,2.906998074818084e-07,3.22218078325267e-07,6.454136502277567e-06
2.3271502643426052e-07,2.89319888365239e-07,3.2350757175787266e-07,6.496389679074089e-06
2.325449146804341e-07,2.8795144751935766e-07,3.246686257138964e-07,6.540434262114958e-06
2.3242083976078034e-07,2.8659072865535857e-07,3.25705615591928e-07,6.5858899560970745e-06
2.3234440351765538e-07,2.852326074950342e-07,3.2662263734611665e-07,6.63236379439197e-06
2.3231648576608835e-07,2.83871524209858e-07,3.274227603810007e-07,6.679441721657213e-06
2.323377737966804e-07,2.825022744225621e-07,3.281072906312213e-07,6.72669799641555e-06
2.3240977044566396e-07,2.811197778763502e-07,3.28676481774621e-07,6.773727487638397e-06
2.3253537850947441e-07,2.7971865532946263e-07,3.291304548559534e-07,6.820162523358613e-06
2.3271865347062783e-07,2.7829381494158094e-07,3.2946947955565035e-07,6.8656555375793055e-06
2.3296389592973323e-07,2.7684138717161797e-07,3.296941064802742e-07,6.909855968455308e-06
2.3327454277906799e-07,2.7535845501300286e-07,3.298050322678568e-07,6.952405303636529e-06
2.3365318897599573e-07,2.7384210432576234e-07,3.298027812041489e-07,6.992940168235968e-06
2.34102603367666e-07,2.722894540603667e-07,3.296877360740576e-07,7.0310907769529755e-06
2.3462622259255657e-07,2.706982220342025e-07,3.294606542416545e-07,7.0664857226855865e-06
2.352277744731523e-07,2.690668641833857e-07,3.291233715846978e-07,7.098773249671628e-06
2.35909934596325e-07,2.6739468812743825e-07,3.286789276769382e-07,7.127650656698334e-06
2.3667252998426494e-07,2.656820304611878e-07,3.2813143366817826e-07,7.152891621434572e-06
2.3751185357127895e-07,2.6393048384312353e-07,3.274860865269644e-07,7.174371990264715e-06
2.384212837526223e-07,2.621433129944671e-07,3.267486812063069e-07,7.192091651209735e-06
2.393922281750524e-07,2.603254411404564e-07,3.2592556156785057e-07,7.206166821135399e-06
2.4041504837845645e-07,2.584830925789847e-07,3.250241379500385e-07,7.2167741612251615e-06
2.4148001188510835e-07,2.5662365852121374e-07,3.240521818556149e-07,7.224081808532817e-06
2.4257824229326427e-07,2.547555714719664e-07,3.230166326953003e-07,7.228223320523743e-06
2.437026650347681e-07,2.528881236269176e-07,3.219232264916427e-07,7.229319289961282e-06
2.4484843673045577e-07,2.5103144735399296e-07,3.207761182876013e-07,7.2275044131515245e-06
2.460121480699865e-07,2.491966881169687e-07,3.1957721740613056e-07,7.222933403206363e-06
2.471905572850151e-07,2.473958013066009e-07,3.1832609156773355e-07,7.215768696861446e-06
2.4837985490571974e-07,2.456409869705259e-07,3.170213578529362e-07,7.206174257069156e-06
2.49574912061254e-07,2.43944394015106e-07,3.1566378787945444e-07,7.194347639820106e-06
2.507686349777804e-07,2.423171056167192e-07,3.142589090215966e-07,7.18055949202787e-06
2.519523883842779e-07,2.407675661098781e-07,3.128165350009895e-07,7.165129796535544e-06
2.5311672187130213e-07,2.3930172772068967e-07,3.113483219853826e-07,7.148356169567873e-06
2.5425167162468464e-07,2.3792460366557604e-07,3.0986575097844894e-07,7.130467291952968e-06
2.5534806802497964e-07,2.3664109310437807e-07,3.0837911182715977e-07,7.111633185060979e-06
2.5639971337978073e-07,2.3545582404343681e-07,3.06897459211432e-07,7.092038439733626e-06
2.5740332831188634e-07,2.3437283953965488e-07,3.054291556097095e-07,7.071992836471002e-06
2.5835634520992205e-07,2.3339566043068962e-07,3.0398195244054844e-07,7.051990837371002e-06
2.592562243268912e-07,2.3252825429668433e-07,3.025620436628668e-07,7.032666986595758e-06
2.601011586562399e-07,2.3177652039133415e-07,3.011727899887748e-07,7.014701680286778e-06
2.6088952568591746e-07,2.3114841344807076e-07,2.998143340001315e-07,6.998742784611823e-06
2.616189259783432e-07,2.3065203465196643e-07,2.9848433896379085e-07,6.98535297389696e-06
2.622865075740139e-07,2.302938344161299e-07,2.971793635935386e-07,6.974974550036438e-06
2.628899776794682e-07,2.3007833407165928e-07,2.958961565110935e-07,6.967907407013969e-06
2.634281145557375e-07,2.300080471311379e-07,2.946319089391921e-07,6.964298313051839e-06
2.6390012650784094e-07,2.3008300377535963e-07,2.9338376547306546e-07,6.964143777636393e-06
2.6430431684348604e-07,2.3030095643222518e-07,2.9214864692860973e-07,6.967307877778009e-06
2.646372628463871e-07,2.306582389648039e-07,2.909231074734385e-07,6.973551330173889e-06
2.6489395187176125e-07,2.3114994409764592e-07,2.897027333483399e-07,6.982565329320343e-06
2.6506841269343913e-07,2.3176927314928516e-07,2.884816851012007e-07,6.994002524667749e-06
2.6515424983140717e-07,2.325078226519372e-07,2.8725297850412175e-07,7.007497735794077e-06
2.651450514396856e-07,2.3335739304487534e-07,2.8600936004852145e-07,7.022682369461116e-06
2.650347388347424e-07,2.3431115640531725e-07,2.847442667735145e-07,7.0392069000739565e-06
2.6481783413646827e-07,2.353630214178489e-07,2.834524520178176e-07,7.056769087552182e-06
2.644904692919516e-07,2.36506710006602e-07,2.8213009807851576e-07,7.0751273783585925e-06
2.640518946314353e-07,2.3773535961961583e-07,2.8077460953220465e-07,7.0940932383500506e-06
2.635046638520713e-07,2.390413322814397e-07,2.793844872050657e-07,7.1135162109179795e-06
2.6285379002315924e-07,2.404166269941217e-07,2.7795903932722586e-07,7.133270891262228e-06
2.621062631704288e-07,2.418536885764563e-07,2.764976343477354e-07,7.153240647664879e-06
2.612707387895859e-07,2.4334553603645076e-07,2.7499919849135705e-07,7.173292765017862e-06
2.603573080034854e-07,2.4488501205926343e-07,2.7346210898243237e-07,7.193252527772148e-06
2.593772923197745e-07,2.4646404621509037e-07,2.718846506187887e-07,7.212898489300902e-06
2.583427663662642e-07,2.480739234939255e-07,2.702677729628489e-07,7.231997692958162e-06
2.572660044193813e-07,2.4970589119448125e-07,2.686184531901454e-07,7.250357145581387e-06
2.561590166300272e-07,2.51351002467695e-07,2.669486687045529e-07,7.2678418789805785e-06
2.550339038127444e-07,2.5300009333673426e-07,2.6527097284754373e-07,7.284354772017434e-06
2.539035965037015e-07,2.546444863694418e-07,2.635958128220447e-07,7.299812311401352e-06
2.527812744103501e-07,2.562766639023585e-07,2.619313788786441e-07,7.314133940827638e-06
2.516795604927267e-07,2.578904318592309e-07,2.602844688872518e-07,7.327242587157164e-06
2.506111271227834e-07,2.594802129235075e-07,2.586617429251096e-07,7.339061923216721e-06
2.495889846596108e-07,2.6104009914526965e-07,2.570704431217838e-07,7.349500664054223e-06
2.486254170170533e-07,2.625638598511968e-07,2.555181829129085e-07,7.358453966037473e-06
2.4773136040374367e-07,2.6404582181967746e-07,2.540121696969575e-07,7.365854293950067e-06
2.469165815341157e-07,2.6548279552360405e-07,2.525581155730396e-07,7.371733031364128e-06
2.46190131277348e-07,2.668762333632172e-07,2.5115950994914536e-07,7.376226904736631e-06
2.455612538373268e-07,2.682314759646061e-07,2.498178291900831e-07,7.379531431479352e-06
2.450390735552053e-07,2.6955451720279785e-07,2.4853309125813907e-07,7.381846536903723e-06
2.446303355443484e-07,2.708502239412737e-07,2.4730440767341967e-07,7.3833333979867815e-06
2.4433772970151173e-07,2.721222283254565e-07,2.461313478534278e-07,7.384086581659302e-06
2.441602305354489e-07,2.733726699505589e-07,2.4501555544605287e-07,7.384134770417395e-06
2.4409453146044805e-07,2.746023392239654e-07,2.439604770402056e-07,7.38346660712984e-06
2.4413634935386925e-07,2.7581108847958567e-07,2.429691519425289e-07,7.382050853604359e-06
2.442808356715366e-07,2.769972253342024e-07,2.42042596618494e-07,7.379835063730592e-06
2.445221741874618e-07,2.781570237160574e-07,2.411801565304076e-07,7.376735963180658e-06
2.448531667738141e-07,2.792856583237005e-07,2.4038009433042804e-07,7.372650444241423e-06
2.4526514659162805e-07,2.8037820943052375e-07,2.3963895155548897e-07,7.3675198043641924e-06
2.4574779874090374e-07,2.814296657264079e-07,2.389511865674097e-07,7.3614109816995834e-06
2.462890425708602e-07,2.8243475799160185e-07,2.3831023705028306e-07,7.354519298653218e-06
2.468754793860451e-07,2.833884291144939e-07,2.3770943466374946e-07,7.347105815946436e-06
2.474933237358657e-07,2.8428653191155555e-07,2.3714197214473728e-07,7.33947495573949e-06
2.481292361707723e-07,2.851260169515604e-07,2.366016315108879e-07,7.331989404253234e-06
2.487702404767646e-07,2.8590446368938326e-07,2.360845758079432e-07,7.325048979287732e-06
2.4940310844841225e-07,2.8661902296609074e-07,2.355898064122872e-07,7.319041054748747e-06
2.500143945702625e-07,2.8726539633901173e-07,2.3511732128545733e-07,7.314299472860686e-06
2.505908521526699e-07,2.878376710978848e-07,2.3466608253260942e-07,7.311076050288188e-06
2.511196260129837e-07,2.883294002041361e-07,2.342335910937402e-07,7.309527029375777e-06
2.515884732362843e-07,2.8873566954563977e-07,2.3381662040125299e-07,7.309712644764783e-06
2.519857490832452e-07,2.890539534536411e-07,2.3341190169587265e-07,7.311597787999385e-06
2.522999035690485e-07,2.8928234972454976e-07,2.3301606186420231e-07,7.315051461209239e-06
2.525194739736568e-07,2.894177155539176e-07,2.3262571579931803e-07,7.3198519197394375e-06
2.5263431672235715e-07,2.894560767252787e-07,2.322389995337152e-07,7.325699583829898e-06
2.526367218402354e-07,2.8939376872186465e-07,2.3185725245640025e-07,7.332235677950858e-06
2.52520827359867e-07,2.892272439644586e-07,2.3148505401640342e-07,7.339064225019677e-06
2.522814663377165e-07,2.889523311014145e-07,2.311288730006021e-07,7.345770298344258e-06
2.519139734524544e-07,2.885643307361416e-07,2.3079500796206412e-07,7.351931044146399e-06
2.514145656672705e-07,2.8805887355899017e-07,2.3048756836401997e-07,7.357130902792696e-06
2.507808333013328e-07,2.874325615374325e-07,2.3020794845624963e-07,7.360983460957837e-06
2.500119370761159e-07,2.866827615729857e-07,2.2995647977862425e-07,7.363140806727553e-06
2.49108500618452e-07,2.858075233351367e-07,2.2973428866452853e-07,7.363286807551653e-06
2.480730794108172e-07,2.848063530533031e-07,2.2954297368810872e-07,7.361129940870971e-06
2.469107620351829e-07,2.836804494743717e-07,2.2938352594887525e-07,7.356399986289058e-06
2.456288172123076e-07,2.8243189986762053e-07,2.2925683355123557e-07,7.3488498366530164e-06
2.4423549095061176e-07,2.8106348363333076e-07,2.2916476005577172e-07,7.33826804058628e-06
2.4273882576359617e-07,2.7957900876015e-07,2.291104871652865e-07,7.324491734462154e-06
2.411463925555302e-07,2.779830887301352e-07,2.2909851689799018e-07,7.307400778943851e-06
2.394655856483396e-07,2.7628099523960327e-07,2.2913456977986174e-07,7.286895185232034e-06
2.3770376416176872e-07,2.74478585810849e-07,2.292252039337729e-07,7.262873668810268e-06
2.3586847499208488e-07,2.7258195973224424e-07,2.29377108302392e-07,7.235228228103903e-06
2.339679244107288e-07,2.705980691372093e-07,2.2959634048008827e-07,7.203871422064612e-06
2.3201148734926762e-07,2.685363523215095e-07,2.2988760561310807e-07,7.168789495357402e-06
2.3001016321648716e-07,2.664090276760804e-07,2.302533737513313e-07,7.1300695270044315e-06
2.279774336930344e-07,2.642290893759079e-07,2.306934413685852e-07,7.087867956874827e-06
2.259302249648977e-07,2.620081524122476e-07,2.312059837515077e-07,7.042352180331433e-06
2.238878644736488e-07,2.597560466977665e-07,2.3178957350202012e-07,6.993664575846477e-06
2.2186911573041205e-07,2.57482077216361e-07,2.3244396455367607e-07,6.941932314774872e-06
2.1989033888138932e-07,2.55196849348957e-07,2.3316889202982868e-07,6.887305165199775e-06
2.179655894289753e-07,2.529130855108599e-07,2.3396310017517081e-07,6.829974730627622e-06
2.1610708380295926e-07,2.5064460150337145e-07,2.3482482101157232e-07,6.770155775185855e-06
2.1432523774433038e-07,2.484043715406379e-07,2.3575184047892628e-07,6.708052951081994e-06
2.1262890662271442e-07,2.462032582798997e-07,2.3674072035528048e-07,6.643837486159033e-06
2.110263697766413e-07,2.440498808964596e-07,2.37787031334694e-07,6.5776486077945315e-06
2.095258754127448e-07,2.419508581943143e-07,2.3888626727613e-07,6.509630911012466e-06
2.0813471124302973e-07,2.399111716241625e-07,2.400335526298298e-07,6.4399882795892636e-06
2.068582161972584e-07,2.3793511717315192e-07,2.4122242846744525e-07,6.369003922393501e-06
2.057003815446975e-07,2.360272038685787e-07,2.42444388464595e-07,6.2970066135486116e-06
2.046646929480297e-07,2.3419203263228717e-07,2.4368929338090506e-07,6.2243163131291124e-06
2.0375331963996609e-07,2.324335409586373e-07,2.449456234241784e-07,6.1512073162706435e-06
2.0296625890775198e-07,2.3075422527483058e-07,2.462007330535907e-07,6.0778964807440174e-06
2.023028171906072e-07,2.2915472680590148e-07,2.4744265889335533e-07,6.004544161365929e-06
2.0176390242875272e-07,2.276342575209927e-07,2.486635117565036e-07,5.9312654840174176e-06
2.0135185761701268e-07,2.2619142754248646e-07,2.4986110451661484e-07,5.8581714745518764e-06
2.01068033838675e-07,2.248245344862321e-07,2.5103653180308943e-07,5.785452854416228e-06
2.0091121649113372e-07,2.235313084659379e-07,2.521905851396952e-07,5.713459306214632e-06
2.0087877417278517e-07,2.223088763837863e-07,2.533226305847925e-07,5.642698973618092e-06
2.0096898891597692e-07,2.211545160123005e-07,2.544315288649218e-07,5.573761357444768e-06
2.0118130992373328e-07,2.2006680474023656e-07,2.5551662369293625e-07,5.507229848487043e-06
2.015145273456081e-07,2.1904578375682674e-07,2.56578780599993e-07,5.443625864557193e-06
2.019660824598696e-07,2.1809173747460412e-07,2.576212539163013e-07,5.3834079175623424e-06
2.0253275503595762e-07,2.1720407992763802e-07,2.586491359261737e-07,5.327040576514456e-06
2.0321048258246785e-07,2.1638100015006863e-07,2.596684729097695e-07,5.275082523634077e-06
2.039942213776497e-07,2.1561909174414735e-07,2.606862658591217e-07,5.228206826427636e-06
2.0487914581837855e-07,2.1491315189230837e-07,2.617103576414406e-07,5.18714855216487e-06
2.0586121563489307e-07,2.14257204533976e-07,2.6274899600574225e-07,5.1526406147713655e-06
2.069366293120594e-07,2.1364672000253252e-07,2.638105809030469e-07,5.125368495966862e-06
2.0810177071564483e-07,2.1307988182426318e-07,2.6490300306062346e-07,5.1059373744767135e-06
2.0935331037913933e-07,2.1255633108530175e-07,2.66032590809962e-07,5.09484148430968e-06
2.106875903871387e-07,2.120751431126021e-07,2.6720414644333034e-07,5.092439489351752e-06
2.1209966958583855e-07,2.1163403480912424e-07,2.6842177621225873e-07,5.098949241898107e-06
2.1358289376575672e-07,2.1122970301148648e-07,2.69688743569622e-07,5.1144638267147e-06
2.1512946664368148e-07,2.108585549546616e-07,2.7100717328075924e-07,5.1389696396868064e-06
2.1673158813630046e-07,2.1051724500695133e-07,2.723794789921453e-07,5.172345091464777e-06
2.1838248845641169e-07,2.1020313040371683e-07,2.7381054488114874e-07,5.214344709248416e-06
2.200766929220045e-07,2.0991481916142065e-07,2.753081909222469e-07,5.2645956727871316e-06
2.2180896741748148e-07,2.096522253837705e-07,2.768814918278009e-07,5.322621742224604e-06
2.2357280036556288e-07,2.094162216311308e-07,2.785387174859382e-07,5.38788424602918e-06
2.253604760421378e-07,2.092082626642329e-07,2.802865359885505e-07,5.459824369216385e-06
2.27164895687006e-07,2.0902979143571411e-07,2.8213074038425643e-07,5.5378953902282885e-06
2.2898034515563263e-07,2.0888177421695347e-07,2.8407762079505136e-07,5.6215800025406685e-06
2.3080124702878218e-07,2.0876452475414586e-07,2.8613456331671337e-07,5.710398080294475e-06
2.3262170385302855e-07,2.08677464527397e-07,2.88309088963708e-07,5.803907774375693e-06
2.344362943975659e-07,2.0861885667725091e-07,2.9060687868688674e-07,5.9016944738504765e-06
2.3623971564886326e-07,2.085854237287856e-07,2.9302997949917346e-07,6.003346661730028e-06
2.380256987799696e-07,2.0857207897044585e-07,2.9557621275084746e-07,6.108426532738031e-06
2.397868740814804e-07,2.085723914701235e-07,2.9823968835746213e-07,6.216444799011873e-06
2.415151271952264e-07,2.085795726132643e-07,3.01011469956462e-07,6.326849399432301e-06
2.432018843596004e-07,2.085877315937368e-07,3.038802874003833e-07,6.4390325693649556e-06
2.448387908040059e-07,2.0859294021684466e-07,3.0683431083336747e-07,6.55234479829048e-06
2.4641856855940073e-07,2.0859284738034931e-07,3.098640782158719e-07,6.666106534438512e-06
2.479351004776538e-07,2.085853231333001e-07,3.1296401448805553e-07,6.7796248921835854e-06
2.493826727810425e-07,2.0856805569971518e-07,3.161301100176249e-07,6.892216290101779e-06
2.5075536616336997e-07,2.0853917403276147e-07,3.193557894865469e-07,7.003222123879745e-06
2.520474171563162e-07,2.08497699890818e-07,3.226300696388359e-07,7.1120121936306765e-06
2.532537675266532e-07,2.0844373067002202e-07,3.259386810997428e-07,7.217993810709323e-06
2.5436978623098624e-07,2.0837891012312935e-07,3.292661470172614e-07,7.3206363905062054e-06
2.55391958338903e-07,2.0830674649570308e-07,3.3259732930964343e-07,7.41948677081719e-06
2.563205229180717e-07,2.0823196485213045e-07,3.359174702276882e-07,7.514164027956348e-06
2.571604922007244e-07,2.0815930700598453e-07,3.3921094156515267e-07,7.60434993241601e-06
2.5791946593445547e-07,2.0809300628568288e-07,3.424607481205623e-07,7.68977643596885e-06
2.586051469369668e-07,2.080372040441085e-07,3.456494812382659e-07,7.77020137933438e-06
2.5922413047111805e-07,2.079959134252727e-07,3.4875985911010123e-07,7.845380375498508e-06
2.597819444263257e-07,2.0797192050190845e-07,3.5177414520797357e-07,7.915060442000405e-06
2.602839369248325e-07,2.0796653796742395e-07,3.5467376155022394e-07,7.97900838615173e-06
2.607358032638827e-07,2.0798158567096788e-07,3.574397191411233e-07,8.037046697012015e-06
2.6114324739530365e-07,2.0802161942702264e-07,3.600535897582979e-07,8.089060731499318e-06
2.615109490739475e-07,2.0809385774519613e-07,3.6249847299115294e-07,8.134979358065242e-06
2.6184169720351987e-07,2.0820666360707532e-07,3.6475904298944826e-07,8.17475201626493e-06
2.6213683556640463e-07,2.0836867056580427e-07,3.668207522509597e-07,8.208338412735123e-06
2.623972491637803e-07,2.0858862035877763e-07,3.6866943230905954e-07,8.23573126372309e-06
2.626235775819349e-07,2.088757496720432e-07,3.702917010906197e-07,8.257002512231465e-06
2.62816409595471e-07,2.0924063789620003e-07,3.7167562617657976e-07,8.27231924734098e-06
2.629772074673365e-07,2.0969493495684801e-07,3.7281123250343095e-07,8.281913304803165e-06
2.631089216853804e-07,2.1024944595232922e-07,3.736909076551851e-07,8.286037104506247e-06
2.6321513958393757e-07,2.1091257186295482e-07,3.743099693677665e-07,8.28492553685413e-06
2.6329824873854807e-07,2.1169028565340345e-07,3.746668876994937e-07,8.278771196296431e-06
2.6335841093731565e-07,2.1258633264303574e-07,3.747628226852623e-07,8.26772015631733e-06
2.6339384038204424e-07,2.1360150794850908e-07,3.7460091301384063e-07,8.251882299480959e-06
2.63401320959056e-07,2.1473342980504943e-07,3.741849789693148e-07,8.231338538071779e-06
2.6337664616178735e-07,2.1597812625479713e-07,3.735180080692168e-07,8.20613715350094e-06
2.633153976230183e-07,2.1733183578874145e-07,3.726021333651826e-07,8.176288774496146e-06
2.632142501594923e-07,2.1879166839274038e-07,3.714401506803854e-07,8.141769398977937e-06
2.630726431980453e-07,2.203552772917931e-07,3.700367748483649e-07,8.102528758807826e-06
2.6289359869317235e-07,2.2201971537066455e-07,3.683983153601185e-07,8.058496662780921e-06
2.6268252004458427e-07,2.2378114420197692e-07,3.6653118471411203e-07,8.009589164461215e-06
2.624450545840716e-07,2.2563613582150468e-07,3.6444100258112345e-07,7.955724757741241e-06
2.621856469220777e-07,2.275820983345569e-07,3.62133409076778e-07,7.89684963667224e-06
2.619071753613125e-07,2.2961559673580818e-07,3.5961542112874885e-07,7.832951902001093e-06
2.6161135942083146e-07,2.3173034125968798e-07,3.5689587350762905e-07,7.764053075547174e-06
2.612994899485736e-07,2.339168581924924e-07,3.5398564287140243e-07,7.690192153194909e-06
2.6097356996779625e-07,2.361638180275701e-07,3.5089789545992824e-07,7.611418452857468e-06
2.60637525318994e-07,2.3845908405398304e-07,3.4764731085476625e-07,7.527791209018947e-06
2.602972661869827e-07,2.407895156043989e-07,3.442488158460668e-07,7.4393785027562255e-06
2.599594644163209e-07,2.431413648826808e-07,3.407168911037969e-07,7.346256088433984e-06
2.5963063986393755e-07,2.455024209860987e-07,3.3706598728273445e-07,7.2485115985593595e-06
2.593177701121051e-07,2.4786295833295286e-07,3.3331212472021516e-07,7.146255573523221e-06
2.590291714984777e-07,2.50213736133888e-07,3.294743241668292e-07,7.0396366142430345e-06
2.5877343024581186e-07,2.525439992933401e-07,3.255749288019411e-07,6.928853892903122e-06
2.585568903236887e-07,2.5484144653972503e-07,3.216392073104492e-07,6.814157562852042e-06
2.583822353306799e-07,2.5709336445615e-07,3.1769417591946484e-07,6.695838118944269e-06
2.582486267751487e-07,2.5928807229452657e-07,3.13766472349438e-07,6.574213823128848e-06
2.581524004598577e-07,2.614157616888496e-07,3.098804283545609e-07,6.449618225870283e-06
2.580879918115649e-07,2.6346800974245603e-07,3.0605768217572825e-07,6.32239187753786e-06
2.580485081867477e-07,2.654368135474888e-07,3.023177318054709e-07,6.19288512283595e-06
2.580261506335063e-07,2.673152542025237e-07,2.9867766110982265e-07,6.06146056261667e-06
2.5801362640257633e-07,2.690996896773478e-07,2.9515090274130877e-07,5.9284837939034225e-06
2.580056258278842e-07,2.707900705189475e-07,2.917466890687249e-07,5.794310688181154e-06
2.5799896510451e-07,2.723874699171732e-07,2.8847103048939893e-07,5.6592827004467045e-06
2.5799199433171137e-07,2.738922553482285e-07,2.853281901676201e-07,5.5237460294413916e-06
2.5798416733854304e-07,2.753048270158414e-07,2.82321110347739e-07,5.388095859795757e-06
2.5797631365196555e-07,2.7662725808371985e-07,2.794508177625531e-07,5.2528056164501675e-06
2.579711693856647e-07,2.778637436013975e-07,2.7671647265089047e-07,5.118407857805771e-06
2.579731296825616e-07,2.790198211057931e-07,2.741170136531199e-07,4.98544402822362e-06
2.579872188070268e-07,2.801013370265815e-07,2.716531695038488e-07,4.8544193221428284e-06
2.5801743192493894e-07,2.81113799827562e-07,2.6932740405555345e-07,4.725785706695687e-06
2.580651232307681e-07,2.820628707173745e-07,2.6714176280381106e-07,4.59996468098267e-06
2.5812899423107826e-07,2.829547365093961e-07,2.6509661616708844e-07,4.477398245241143e-06
2.582065504804728e-07,2.8379457455969327e-07,2.631916685049692e-07,4.358581682557368e-06
2.582950994339219e-07,2.845853950206344e-07,2.6142747063472765e-07,4.244041708972448e-06
2.583918149665831e-07,2.8532922702266557e-07,2.5980539313817284e-07,4.134280140449278e-06
2.584935983515563e-07,2.860284864570423e-07,2.5832620527979924e-07,4.029727654260619e-06
2.585964258954457e-07,2.866867997721848e-07,2.569891833670121e-07,3.930722476381518e-06
2.5869470553798214e-07,2.873105846995045e-07,2.557922368147008e-07,3.8375046047189695e-06
2.587823417655612e-07,2.879097259382015e-07,2.5473197591253085e-07,3.7502214476613922e-06
2.5885500092816896e-07,2.8849568516653016e-07,2.538036976030312e-07,3.668948638794294e-06
2.589111024454289e-07,2.8907888116633483e-07,2.530014466111288e-07,3.5937430236920428e-06
2.589508158880604e-07,2.896672323582013e-07,2.5231777771500106e-07,3.524727683980161e-06
2.5897475013581683e-07,2.9026585086683324e-07,2.5174381304326127e-07,3.462144121421044e-06
2.5898341206778047e-07,2.9087720047528467e-07,2.5126972379274264e-07,3.406320205102805e-06
2.5897720947496207e-07,2.915014970314137e-07,2.508847418207016e-07,3.3575939911053973e-06
2.589570694007964e-07,2.9213694725376674e-07,2.505770877169166e-07,3.316249396220067e-06
2.589253187535298e-07,2.9277960095361683e-07,2.5033456951838564e-07,3.282491031737513e-06
2.588855560636455e-07,2.9342405687374904e-07,2.5014541001998683e-07,3.2564934957976974e-06
2.5884117651456424e-07,2.940651087770331e-07,2.4999884983563844e-07,3.2385079326738583e-06
2.5879417394308945e-07,2.9469879011808853e-07,2.498853793460184e-07,3.228920214355315e-06
2.587461063834797e-07,2.9532307327766397e-07,2.4979666485146515e-07,3.228208849411746e-06
2.5870038248959925e-07,2.959393717063293e-07,2.497257712423438e-07,3.2368619579489812e-06
2.586630457112258e-07,2.965534749288229e-07,2.4966797496646485e-07,3.2553102997971776e-06
2.586410555977426e-07,2.971741484729341e-07,2.496213908492404e-07,3.283883579630181e-06
2.586396523436355e-07,2.9781087027532395e-07,2.495861846212533e-07,3.322778224889808e-06
2.58661000536691e-07,2.984725446196256e-07,2.4956289523433e-07,3.372028685088565e-06
2.587049159863346e-07,2.991666212225569e-07,2.495516881072729e-07,3.431490956041008e-06
2.587703850676629e-07,2.998979073100723e-07,2.495524321586884e-07,3.5008476977223367e-06
2.5885649148818565e-07,3.006676481331552e-07,2.49564764804448e-07,3.5796292025381897e-06
2.5896314242420093e-07,3.014734687081241e-07,2.4958855456664127e-07,3.6672399758873992e-06
2.5909129148477876e-07,3.0231017999863355e-07,2.4962490479149616e-07,3.762983624700544e-06
2.5924151833885816e-07,3.031713944267932e-07,2.496771564837247e-07,3.866084777373317e-06
2.594129431906622e-07,3.0405156283081214e-07,2.4975057316802744e-07,3.975712693090359e-06
2.596045792043527e-07,3.0494805295310213e-07,2.498500439550302e-07,4.091010453190275e-06
2.598168278544808e-07,3.05863182892874e-07,2.499785068131011e-07,4.2111288743492695e-06
2.6005069112625716e-07,3.068044492015259e-07,2.501382646145756e-07,4.335254807240025e-06
2.603063853694577e-07,3.077813926631156e-07,2.503326009155852e-07,4.462623263013179e-06
2.605834673322588e-07,3.088022937636037e-07,2.505648442573425e-07,4.592517289334532e-06
2.6088138181219265e-07,3.098740510418483e-07,2.508361818236534e-07,4.724260261262053e-06
2.6119927796009385e-07,3.110030508635093e-07,2.5114500368455736e-07,4.8571961924362385e-06
2.6153616366350653e-07,3.121947127978522e-07,2.514881033065125e-07,4.990662773352741e-06
2.618916615573586e-07,3.1345291267301285e-07,2.518616681731147e-07,5.123973880235421e-06
2.6226660268796327e-07,3.1477952863623927e-07,2.522610911067742e-07,5.256424161812314e-06
2.6266409303605017e-07,3.161735382192477e-07,2.5268120837466485e-07,5.387319123714165e-06
2.6309065919552746e-07,3.176307559128929e-07,2.5311779908758807e-07,5.5160200184315055e-06
2.635556855859743e-07,3.1914410530287087e-07,2.535691942745986e-07,5.641974034272108e-06
2.6406973678737266e-07,3.2070351435690326e-07,2.540369786356338e-07,5.7647085544690245e-06
2.646426930330628e-07,3.222967428523841e-07,2.545252593085605e-07,5.883805346459639e-06
2.6528171638022185e-07,3.239117966851531e-07,2.5503883211271604e-07,5.9988854115173304e-06
2.659909859111879e-07,3.2553856391094536e-07,2.555816461075531e-07,6.109612235125211e-06
2.6677354145186876e-07,3.2716802488537396e-07,2.561562279421266e-07,6.2156942049823475e-06
2.676316853911995e-07,3.287907404736605e-07,2.5676333283026127e-07,6.3168673256865935e-06
2.685651405850828e-07,3.3039675832046807e-07,2.574014560306229e-07,6.412866608350493e-06
2.695702418751844e-07,3.319766959818196e-07,2.580670300771691e-07,6.5034163301004285e-06
2.7064089406450644e-07,3.3352231471034725e-07,2.587555226099957e-07,6.5882642798896444e-06
2.717696375301667e-07,3.350257103120577e-07,2.594621217083359e-07,6.667247796649888e-06
2.729487718588148e-07,3.364785061812172e-07,2.601814868655307e-07,6.740336420765553e-06
2.7417170927244696e-07,3.378728565460362e-07,2.609076875875343e-07,6.807616498146709e-06
2.7543355968665516e-07,3.392032177074953e-07,2.616346197630047e-07,6.869245311961553e-06
2.767306947304064e-07,3.404665793401936e-07,2.623564754662073e-07,6.925405612563287e-06
2.7806038306274185e-07,3.4166078317454896e-07,2.630685467691186e-07,6.976262912467468e-06
2.794203441154353e-07,3.427822553975702e-07,2.637680460291151e-07,7.021937807218618e-06
2.808072919126156e-07,3.438248733872881e-07,2.6445390124174053e-07,7.0625062892050014e-06
2.8221571967418537e-07,3.447803585757638e-07,2.6512563366751515e-07,7.098013249696277e-06
2.836381339299028e-07,3.4563925460020406e-07,2.657827468082424e-07,7.1284815255247134e-06
2.850661077548111e-07,3.4639208334958374e-07,2.6642486065274945e-07,7.153917633007117e-06
2.8649173795418444e-07,3.4703053095709876e-07,2.6705147129812933e-07,7.1743376516655e-06
2.8790879654507816e-07,3.475481582305681e-07,2.676616061047616e-07,7.189838142217627e-06
2.8931256515344386e-07,3.479400758681487e-07,2.6825370182082894e-07,7.2006682898459996e-06
2.9069924442961245e-07,3.482017615921413e-07,2.688248655515431e-07,7.207218653516616e-06
2.9206572012637227e-07,3.4832879051576943e-07,2.6937007611014906e-07,7.209938778982285e-06
2.9340857874594714e-07,3.483180632135499e-07,2.6988291857673396e-07,7.20928862207365e-06
2.947224550696396e-07,3.481681178682951e-07,2.7035832944667925e-07,7.205773072240381e-06
2.9599925886111753e-07,3.4787757124124546e-07,2.707956997296244e-07,7.1999922798487915e-06
2.9722861894939236e-07,3.47443917801767e-07,2.711995439415228e-07,7.192628751946236e-06
2.983991351374324e-07,3.468638235133957e-07,2.715777053486025e-07,7.1843832681713455e-06
2.995000164839165e-07,3.461336856741114e-07,2.719394349207553e-07,7.175912784757338e-06
3.005219323480687e-07,3.4524979820611536e-07,2.7229382867721076e-07,7.167791240741174e-06
3.01456683408876e-07,3.44208700557075e-07,2.726482895152373e-07,7.160490988511278e-06
3.022965394741039e-07,3.430078500915431e-07,2.7300785664994266e-07,7.154377572597377e-06
3.0303345577295406e-07,3.416467950955673e-07,2.733752514938408e-07,7.149708110270407e-06
3.0365840510268447e-07,3.4012902613268287e-07,2.7375066116562876e-07,7.146626178947097e-06
3.04161405299333e-07,3.3846302282450466e-07,2.741315745099176e-07,7.145157515459331e-06
3.0453209192682917e-07,3.3666150907975114e-07,2.745132134374425e-07,7.14521955481356e-06
3.047604471724648e-07,3.3473987519569946e-07,2.7488930965121934e-07,7.1466452216115204e-06
3.048374660456391e-07,3.3271455756631165e-07,2.752528070096444e-07,7.149202941246696e-06
3.047553160300364e-07,3.3060154994354236e-07,2.755964008823011e-07,7.152602638126707e-06
3.045069288101869e-07,3.2841517010332857e-07,2.759131868622448e-07,7.156501226493763e-06
3.0408611729233517e-07,3.2616775011788216e-07,2.7619786793039464e-07,7.160525208073778e-06
3.0348853278898604e-07,3.2387031140752626e-07,2.7644893087695126e-07,7.164307667239702e-06
3.027122601788936e-07,3.21532581050922e-07,2.766700664749617e-07,7.167517463239189e-06
3.017579264366097e-07,3.1916228467529896e-07,2.768683755667601e-07,7.169866879167578e-06
3.0062859370425267e-07,3.167659590058001e-07,2.770513078413027e-07,7.171106723962697e-06
2.9932884259459484e-07,3.1435093718246044e-07,2.772258859338823e-07,7.171021553980905e-06
2.978637117808979e-07,3.119254872726313e-07,2.77399781484884e-07,7.169430889206128e-06
2.9623828243131963e-07,3.0949702791943386e-07,2.77581487295939e-07,7.166194038531253e-06
2.944573859802184e-07,3.070712679356388e-07,2.777789034104757e-07,7.161206613956689e-06
2.92525720418037e-07,3.046531383339891e-07,2.7799800582085316e-07,7.154384323073807e-06
2.904489071221469e-07,3.022477775062791e-07,2.782427975329313e-07,7.145640808038272e-06
2.88234610773371e-07,2.998605468568459e-07,2.78516097357607e-07,7.134870969818641e-06
2.858925974715161e-07,2.9749642562753644e-07,2.7881977239183085e-07,7.1219607708471375e-06
2.83434172153574e-07,2.951591564144644e-07,2.791543444384237e-07,7.106822536077783e-06
2.808722236962181e-07,2.9285080685552767e-07,2.7951920158417286e-07,7.089415864234462e-06
2.782212931218772e-07,2.905719731817072e-07,2.799134668907259e-07,7.069731604286897e-06
2.7549636885664397e-07,2.88322197171709e-07,2.8033656017138573e-07,7.047759969443321e-06
2.7271157372880287e-07,2.861003569413009e-07,2.807877518808433e-07,7.023472520985455e-06
2.698804656644261e-07,2.839045737818071e-07,2.81264929524691e-07,6.996828520243033e-06
2.670166505156218e-07,2.8173185269848784e-07,2.817634257356075e-07,6.967797823706323e-06
2.641329968372596e-07,2.795783331020467e-07,2.822758462257988e-07,6.936384658218028e-06
2.612407280336761e-07,2.774402060845255e-07,2.827935777832338e-07,6.902631926160637e-06
2.583499270012316e-07,2.753147454286505e-07,2.833098143966725e-07,6.866597197596661e-06
2.554706025946173e-07,2.7320033790502055e-07,2.838226460639673e-07,6.828322639091916e-06
2.526131695849593e-07,2.710954403691453e-07,2.843353052625665e-07,6.7878379509407235e-06
2.49788563076925e-07,2.689985526352462e-07,2.848528841723177e-07,6.7452076774313024e-06
2.470079336226461e-07,2.669094094779152e-07,2.8537943743745604e-07,6.7005796179638e-06
2.44281668028439e-07,2.64829158813076e-07,2.85918061925532e-07,6.654182237895757e-06
2.4161887001894584e-07,2.627590850412403e-07,2.864721681305328e-07,6.606276938522485e-06
2.3902815115807435e-07,2.6069961930835445e-07,2.870457903245645e-07,6.55711288828119e-06
2.365187320842165e-07,2.5865111860661396e-07,2.876432376093422e-07,6.506911051314693e-06
2.341004111977365e-07,2.5661529444753733e-07,2.882696962432841e-07,6.45586504351437e-06
2.317826955848073e-07,2.54594746819946e-07,2.889320297208773e-07,6.40413814312605e-06
2.295747226617722e-07,2.5259141916389105e-07,2.896379461133708e-07,6.351862427575027e-06
2.2748588759327245e-07,2.50606865110653e-07,2.903940497358972e-07,6.2991738068428035e-06
2.2552591394393201e-07,2.486434365020699e-07,2.912042624020301e-07,6.246291984780922e-06
2.2370441118022586e-07,2.467043610137499e-07,2.920701227827342e-07,6.193580593039586e-06
2.2203034289954571e-07,2.447938147804661e-07,2.9299289066506076e-07,6.141521639356665e-06
2.205117118054945e-07,2.4291733652749684e-07,2.939747688364371e-07,6.09063297875976e-06
2.1915603194227647e-07,2.410818599245326e-07,2.950181246763758e-07,6.041391418653809e-06
2.1797119811197338e-07,2.392961216688766e-07,2.9612411954083e-07,5.994191755614561e-06
2.1696557650134907e-07,2.375707728244248e-07,2.9729187482124853e-07,5.94937791695352e-06
2.1614684644337697e-07,2.3591720468882485e-07,2.985188634138327e-07,5.90735075094104e-06
2.155206932772368e-07,2.343465204526904e-07,2.9980189477118375e-07,5.868659196306912e-06
2.150911647784648e-07,2.3286899506399178e-07,3.0113736059789283e-07,5.833991304090703e-06
2.1486203866038142e-07,2.314931947080765e-07,3.025211141259813e-07,5.804099000089941e-06
2.1483682536404482e-07,2.302255187860881e-07,3.0394854635125015e-07,5.779723933772106e-06
2.150177281044598e-07,2.290709244284174e-07,3.054146832175549e-07,5.761543074671973e-06
2.1540560396601657e-07,2.2803380870645627e-07,3.069147374399755e-07,5.750131190155696e-06
2.1600074192679462e-07,2.271173842534051e-07,3.084456050268525e-07,5.745938632940643e-06
2.1680266067893624e-07,2.2632267270569587e-07,3.10006530883553e-07,5.749282290946276e-06
2.1780897754291896e-07,2.2564960755326547e-07,3.115969972658256e-07,5.760345698818202e-06
2.1901512133454503e-07,2.250987305480669e-07,3.132146119993739e-07,5.7791793775598826e-06
2.20414890483113e-07,2.246715818684617e-07,3.1485574010371305e-07,5.805696589620493e-06
2.2200050987547975e-07,2.2437121867958106e-07,3.1651625037829014e-07,5.839677471069831e-06
2.2376245224516073e-07,2.242024784182332e-07,3.1819062385915537e-07,5.8807917298677866e-06
2.2568943104131512e-07,2.241709020600616e-07,3.1987168206639736e-07,5.928624724712222e-06
2.2776796193690105e-07,2.2428264718189526e-07,3.2155206353484306e-07,5.982695754555629e-06
2.2998191530991568e-07,2.2454584923941298e-07,3.232256165504002e-07,6.04248009955538e-06
2.323127045288732e-07,2.2497054563098735e-07,3.2488721136551514e-07,6.107439872992785e-06
2.3473998536714068e-07,2.2556670629388765e-07,3.265322135746501e-07,6.177051147202079e-06
2.372428754416615e-07,2.2634191501893893e-07,3.281569589409769e-07,6.250819885429384e-06
2.398015577542047e-07,2.272997065007872e-07,3.297594982283272e-07,6.328290196500288e-06
2.423988629415412e-07,2.284391056016616e-07,3.3133949148742565e-07,6.409044219957237e-06
2.450207135275855e-07,2.2975485647017797e-07,3.328966187771627e-07,6.4926901160112035e-06
2.476543587864903e-07,2.3123788837346806e-07,3.344287353400446e-07,6.5788420211674375e-06
2.502860260239955e-07,2.328761733801982e-07,3.359319786861877e-07,6.667095664533946e-06
2.529010676024005e-07,2.3465554758446664e-07,3.3740202952370506e-07,6.757003550932168e-06
