3.101530893386691e-07,2.6910395601061464e-07,5.857647116215262e-07,1.6556359865133168e-05
3.0865870129859305e-07,2.709147208303412e-07,5.816455352816961e-07,1.664588355915048e-05
3.0715811715375845e-07,2.7278473218997324e-07,5.771846334576161e-07,1.6724643879798425e-05
3.0566445864820644e-07,2.7471320030932104e-07,5.724024191003753e-07,1.679247676085442e-05
3.0419155943674693e-07,2.766954025519126e-07,5.673205631200941e-07,1.6849285193382755e-05
3.027552446229273e-07,2.787230829005375e-07,5.619645496637327e-07,1.6895079957339608e-05
3.0137244949000866e-07,2.807858402905993e-07,5.563691025394412e-07,1.6929991438981907e-05
3.000595700811916e-07,2.828727513070284e-07,5.505824323973602e-07,1.6954257814177248e-05
2.988327002705353e-07,2.849727665958748e-07,5.446650199084023e-07,1.6968195294838272e-05
2.977080619764065e-07,2.870743159583655e-07,5.386821921805162e-07,1.6972238238621233e-05
2.967000500673061e-07,2.891661295656264e-07,5.326951509717021e-07,1.6967047579640117e-05
2.958186295019905e-07,2.9123862791291025e-07,5.267572434871425e-07,1.6953513836261024e-05
2.950685541020152e-07,2.9328338066865074e-07,5.209171674452186e-07,1.6932613729028874e-05
2.944500456854781e-07,2.9529129719438245e-07,5.1522342725634e-07,1.6905270189275946e-05
2.939596793138589e-07,2.972520704980713e-07,5.097243961078858e-07,1.6872351109110966e-05
2.9359131582753703e-07,2.991550591812565e-07,5.0446502746155e-07,1.6834815504012245e-05
2.933372212550914e-07,3.0099078984641827e-07,4.994837022712606e-07,1.6793839318838995e-05
2.9318912914048747e-07,3.0275255403664946e-07,4.948107486955975e-07,1.6750772999030014e-05
2.9313931190224407e-07,3.044368508115744e-07,4.904686399031795e-07,1.670699825544969e-05
2.9318154159498894e-07,3.060431549422828e-07,4.864728353183558e-07,1.6663806127768328e-05
2.9331160798761376e-07,3.0757444235327395e-07,4.828327785433758e-07,1.6622325714025776e-05
2.9352800980608805e-07,3.090366335446348e-07,4.795528968520057e-07,1.6583485445107337e-05
2.938321434620344e-07,3.1043571404379074e-07,4.766331409353901e-07,1.6547988754789967e-05
2.9422612704703504e-07,3.1177549443911015e-07,4.7407020775604045e-07,1.6516298048831135e-05
2.9470987968765174e-07,3.13057629378738e-07,4.7186064887397777e-07,1.6488635723055953e-05
2.952802349328475e-07,3.142818137760102e-07,4.7000300887514037e-07,1.6465019835366218e-05
2.959317492469637e-07,3.154461684563368e-07,4.684954771362198e-07,1.644532522611248e-05
2.966577550386565e-07,3.165504196497956e-07,4.673314708944921e-07,1.6429320558040532e-05
2.974505031283617e-07,3.1759955152170744e-07,4.664982699110575e-07,1.6416655808589014e-05
2.9830069769466205e-07,3.1860272454171816e-07,4.659792413126218e-07,1.640683415004606e-05
2.9919849095065844e-07,3.195695224574341e-07,4.657557452836045e-07,1.639921425599917e-05
3.001355410876279e-07,3.205093333728025e-07,4.658067006817231e-07,1.6393057116113692e-05
3.0110525329576057e-07,3.2143331794820765e-07,4.661086702010114e-07,1.638758798939684e-05
3.021012131783912e-07,3.223553154614296e-07,4.6663878678067617e-07,1.6382033100166935e-05
3.031161884814291e-07,3.232908707209917e-07,4.673782889270955e-07,1.637563424650534e-05
3.0414189035556886e-07,3.2425492240285895e-07,4.683128188556035e-07,1.6367670040143728e-05
3.0516864227587585e-07,3.252596275198573e-07,4.6942862959524747e-07,1.635748917572321e-05
3.06185611427252e-07,3.263134175648281e-07,4.7070831500599433e-07,1.634453797830859e-05
3.07181604482626e-07,3.274207133855437e-07,4.721294684909252e-07,1.6328361359950667e-05
3.081454567439548e-07,3.2858236876141577e-07,4.7366584531981317e-07,1.6308578569328562e-05
3.090662553057297e-07,3.297962946797796e-07,4.7528968657563e-07,1.6284850235003166e-05
3.0993336081428965e-07,3.3105720273536803e-07,4.769739015212539e-07,1.62568462788841e-05
3.10735862212185e-07,3.323569296479619e-07,4.786919012360703e-07,1.6224238745826852e-05
3.114629101310616e-07,3.3368609770446576e-07,4.804153752383424e-07,1.618672589157692e-05
3.121054463402661e-07,3.350348322763402e-07,4.821132906106443e-07,1.614403644489384e-05
3.126570930708484e-07,3.3639179143100773e-07,4.837533326114783e-07,1.6095890983030523e-05
3.131135186572462e-07,3.377435159288609e-07,4.853039370736862e-07,1.6041964852374498e-05
3.134727418911565e-07,3.390752857465952e-07,4.867359538273384e-07,1.5981886650363117e-05
3.1373677777172453e-07,3.403726488119065e-07,4.880244870975472e-07,1.5915267717559146e-05
3.1391172649159177e-07,3.4162204561890174e-07,4.891499806841051e-07,1.5841758506686168e-05
3.140055154235168e-07,3.428105464578501e-07,4.90097391960186e-07,1.5761132654757462e-05
3.140255626227656e-07,3.439259652060456e-07,4.908547807294235e-07,1.567336420760549e-05
3.139780555437062e-07,3.449572422734088e-07,4.914124873908902e-07,1.557866359537262e-05
3.1386810061756985e-07,3.458945306682702e-07,4.917624102852027e-07,1.5477491246788573e-05
3.136993521158605e-07,3.4672910063145e-07,4.918980546158966e-07,1.5370550648158608e-05
3.134739625909837e-07,3.474534503550915e-07,4.918167606082823e-07,1.525872918563222e-05
3.131937466989528e-07,3.480619153335452e-07,4.915225049149508e-07,1.5142994846054986e-05
3.128611208053503e-07,3.485508210237366e-07,4.910258207474369e-07,1.5024282828270114e-05
3.124789076336248e-07,3.4891767021310893e-07,4.903412245835785e-07,1.4903416397860644e-05
3.1204984221152546e-07,3.491607411201457e-07,4.894856738614705e-07,1.4781110999725009e-05
3.115768171503271e-07,3.492795038218761e-07,4.884781354236588e-07,1.46580380493341e-05
3.110641002670569e-07,3.492746958700764e-07,4.873377527297325e-07,1.453486659909144e-05
3.1051858597331646e-07,3.491477185871982e-07,4.860815490685675e-07,1.4412250938919663e-05
3.099497577991149e-07,3.489002945625546e-07,4.847238889866028e-07,1.4290786983680145e-05
3.093677167776667e-07,3.485347832169531e-07,4.832764676164357e-07,1.4170988992658276e-05
3.087804669603916e-07,3.4805442141128695e-07,4.817478168819356e-07,1.4053326223709708e-05
3.0819273901310073e-07,3.474629435865357e-07,4.801437126330504e-07,1.3938268153734653e-05
3.0760687935101426e-07,3.467638559612649e-07,4.784682981823902e-07,1.3826302255198144e-05
3.0702456008461105e-07,3.459602731193628e-07,4.767246020134014e-07,1.371796271371544e-05
3.064481139581304e-07,3.450557027785305e-07,4.749142797315565e-07,1.3613850923953185e-05
3.0588060849585464e-07,3.4405465012331216e-07,4.7303677389097786e-07,1.3514616427968946e-05
3.053248623987793e-07,3.4296211570486e-07,4.710888297344206e-07,1.342092168684089e-05
3.0478297154317087e-07,3.417835720650609e-07,4.690657870110022e-07,1.3333402097270005e-05
3.042572372730806e-07,3.4052655232952534e-07,4.669642878309818e-07,1.325261688622865e-05
3.037519435678903e-07,3.392012889122147e-07,4.647841490307086e-07,1.317899421202109e-05
3.0327446565117504e-07,3.37819018648518e-07,4.625274926756555e-07,1.3112784595297936e-05
3.0283449171377656e-07,3.3639004911193014e-07,4.601959392492304e-07,1.3054040924472525e-05
3.024422978039121e-07,3.3492279522919066e-07,4.5778876754583025e-07,1.3002623183371989e-05
3.0210754473410046e-07,3.334238360089777e-07,4.5530340561437033e-07,1.2958212949929809e-05
3.018384244273056e-07,3.31898724590431e-07,4.527373383655121e-07,1.2920335103772552e-05
3.0164109432875317e-07,3.3035222698016855e-07,4.5009008131332035e-07,1.2888386096476324e-05
3.0151974990625374e-07,3.287877081106025e-07,4.4736405373543433e-07,1.2861657940015404e-05
3.014764282476828e-07,3.272069302433077e-07,4.44564428990654e-07,1.283935227086632e-05
3.015103870740293e-07,3.2561030581871e-07,4.416989012673408e-07,1.2820597127565692e-05
3.016184134003852e-07,3.239969879052471e-07,4.3877715071793634e-07,1.2804479202445145e-05
3.017959517505956e-07,3.223656062843479e-07,4.358100850398834e-07,1.2790078050248935e-05
3.020379332184962e-07,3.207157078714434e-07,4.3280964262846e-07,1.2776482275951938e-05
3.0233927487612726e-07,3.1904822515406487e-07,4.297882635133612e-07,1.2762791508237171e-05
3.02695273172316e-07,3.173644769194585e-07,4.2675759696999757e-07,1.2748121132178222e-05
3.0310148839607e-07,3.15664823145679e-07,4.2372768852340715e-07,1.2731623224280995e-05
3.035533407340866e-07,3.1394795030419e-07,4.2070683589566436e-07,1.2712522215574048e-05
3.0404660153331013e-07,3.122110429284148e-07,4.177018932108015e-07,1.2690144648169467e-05
3.045784289163141e-07,3.104503568513251e-07,4.147187423081479e-07,1.26639303360883e-05
3.0514725013028513e-07,3.086616771684041e-07,4.117617124720269e-07,1.2633427978724872e-05
3.057520003134225e-07,3.0684113475566e-07,4.088322067314152e-07,1.2598274368557491e-05
3.063922779073185e-07,3.0498669554143485e-07,4.0592852265006726e-07,1.2558160576457202e-05
3.070685190451495e-07,3.030985857644646e-07,4.030476130830099e-07,1.2512799297295571e-05
3.0778136462182387e-07,3.011783140486524e-07,4.001879251041774e-07,1.2461922189284102e-05
3.085317485982134e-07,2.992291091768709e-07,3.9735123567427843e-07,1.2405330112154531e-05
3.093219430879316e-07,2.972567989501853e-07,3.9454126652752563e-07,1.234294750884861e-05
3.1015510594097054e-07,2.9526788683296127e-07,3.9176058286460253e-07,1.2274810607073391e-05
3.1103258106632426e-07,2.932669057391982e-07,3.890099861711044e-07,1.2201012251275654e-05
3.1195166611663945e-07,2.912560274050883e-07,3.8629106373528573e-07,1.2121664091368015e-05
3.1290542163675e-07,2.892362934659069e-07,3.8360804921942097e-07,1.2036880515217004e-05
3.138833806166741e-07,2.872089048214458e-07,3.809664469576442e-07,1.194677744046243e-05
3.1487243907247073e-07,2.8517596334243735e-07,3.783703174227337e-07,1.185150402921776e-05
3.15857796661107e-07,2.8314101962706106e-07,3.7582074179155274e-07,1.1751287217276993e-05
3.1682358013151776e-07,2.8110926469729233e-07,3.733157079559355e-07,1.1646428187002072e-05
3.177533984788241e-07,2.790867421650163e-07,3.708507182942537e-07,1.1537249063206274e-05
3.186312473967966e-07,2.770790456848422e-07,3.684198493542779e-07,1.1424050721559593e-05
3.1944254566687267e-07,2.750907389293377e-07,3.660171502106761e-07,1.1307111505623898e-05
3.2017560985412077e-07,2.7312592797008106e-07,3.6363763487508333e-07,1.1186732711390738e-05
3.208246506343358e-07,2.711893201997806e-07,3.612779957845118e-07,1.1063326846802877e-05
3.2139267267882057e-07,2.692872277777016e-07,3.589380997847271e-07,1.0937470086975536e-05
3.2189091498401534e-07,2.67427504727997e-07,3.566228263381092e-07,1.0809843092669054e-05
3.223357636648559e-07,2.656179880347064e-07,3.543432731746242e-07,1.068111094596332e-05
3.22745772309079e-07,2.638655822871041e-07,3.521162775883943e-07,1.055183914107719e-05
3.2313896270200446e-07,2.621772149940384e-07,3.499616271834024e-07,1.0422474302832816e-05
3.235312301244499e-07,2.6056151233365076e-07,3.479005881427235e-07,1.0293359314791118e-05
3.2393661690376105e-07,2.5902981097795127e-07,3.459599422343888e-07,1.0164750496900092e-05
3.243677160836144e-07,2.575955240737697e-07,3.441779469814334e-07,1.0036845284462773e-05
3.2483469218817737e-07,2.562725967403239e-07,3.42604346310078e-07,9.909867629598947e-06
3.25343895814306e-07,2.5507417301411466e-07,3.412936745206705e-07,9.784202423541392e-06
3.2589777599912073e-07,2.540113580133954e-07,3.40298464747438e-07,9.660452750005124e-06
3.2649588545823357e-07,2.53092661752435e-07,3.396653858353097e-07,9.539347242378604e-06
3.2713587149457715e-07,2.5232448771385946e-07,3.394324936923239e-07,9.421595824177136e-06
3.278144589004236e-07,2.517117313734502e-07,3.396274989087031e-07,9.307795004697237e-06
3.2852826326403763e-07,2.5125780685474076e-07,3.402672742360296e-07,9.198419454586378e-06
3.292738632763799e-07,2.509643669572063e-07,3.413578446074503e-07,9.093956499842297e-06
3.300479404781288e-07,2.508321510505218e-07,3.428961380310546e-07,8.99513330688002e-06
3.308477923699161e-07,2.5086285433878733e-07,3.448744776748146e-07,8.903024313750043e-06
3.316710970978677e-07,2.510592914740432e-07,3.4728411232686965e-07,8.818960695471443e-06
3.325152658514814e-07,2.5142340083113754e-07,3.501137173030445e-07,8.74437704411988e-06
3.3337721791723964e-07,2.519549405597301e-07,3.5334569421770136e-07,8.68068738978828e-06
3.3425339956018033e-07,2.5265275659710457e-07,3.5695565040744634e-07,8.6291816484128e-06
3.351398665916728e-07,2.535175522181138e-07,3.609149310501521e-07,8.590934759193456e-06
3.3603168166563357e-07,2.545529786225568e-07,3.6519368305080585e-07,8.56673713732227e-06
3.369213676408453e-07,2.557634088523611e-07,3.697636215545109e-07,8.557057541803356e-06
3.377980979782764e-07,2.571512396209433e-07,3.7459925439452426e-07,8.56204414871647e-06
3.386485424059381e-07,2.587163360474496e-07,3.7967793731447094e-07,8.581553313937767e-06
3.394579168475282e-07,2.604565892267566e-07,3.849804113421329e-07,8.615189580199988e-06
3.4021040876504725e-07,2.623682695968399e-07,3.9048955408108003e-07,8.662354556939494e-06
3.408903067824236e-07,2.6444556388924405e-07,3.961860125345804e-07,8.722311326833395e-06
3.414844714116721e-07,2.666796553194417e-07,4.0204469301272667e-07,8.794257766265925e-06
3.419847021008452e-07,2.690587262673192e-07,4.080345462235689e-07,8.877390287906993e-06
3.4238805473707316e-07,2.715689363444603e-07,4.141202416193525e-07,8.970950085997216e-06
3.426947305023718e-07,2.741955019096441e-07,4.2026541390027704e-07,9.074252597699828e-06
3.429059627007573e-07,2.769232659860914e-07,4.264376135970832e-07,9.186695763235147e-06
3.430236589921843e-07,2.797363635087269e-07,4.326116687347308e-07,9.307745121063733e-06
3.430501230789628e-07,2.826174168316582e-07,4.387686516623975e-07,9.436897904116867e-06
3.4298690057968733e-07,2.855472706324773e-07,4.4489268467408656e-07,9.573628828153607e-06
3.428339348974534e-07,2.8850570662758e-07,4.509684456433051e-07,9.717335805137446e-06
3.4258946343850267e-07,2.914727335133513e-07,4.569798488350937e-07,9.867311326856987e-06
3.4225078735653536e-07,2.9442937610086345e-07,4.6291034898096934e-07,1.0022738621087793e-05
3.418157504235641e-07,2.973572503268303e-07,4.687444061109578e-07,1.018270678257852e-05
3.4128398793337536e-07,3.002379152468661e-07,4.744677658468097e-07,1.0346263005996997e-05
3.406578673140689e-07,3.030531508186409e-07,4.80065604025715e-07,1.0512482601063147e-05
3.3994257520539277e-07,3.0578590498090026e-07,4.855202914920444e-07,1.0680495873603109e-05
3.3914426521205223e-07,3.0842118877033483e-07,4.908109153549401e-07,1.0849470355907167e-05
3.38267789597815e-07,3.109461787697122e-07,4.959146148894456e-07,1.1018601305124504e-05
3.37316202633021e-07,3.133491423757216e-07,5.008076586192125e-07,1.1187130626162476e-05
3.362917366648312e-07,3.1561838274745424e-07,5.054653309587988e-07,1.1354368197662836e-05
3.3519671652373263e-07,3.177430370024133e-07,5.098621035630611e-07,1.1519704552763125e-05
3.340335541388102e-07,3.1971480252428226e-07,5.139729494485844e-07,1.1682643978770087e-05
3.328046120778925e-07,3.2152773419554585e-07,5.177748617471136e-07,1.184284436201968e-05
3.3151279812076204e-07,3.2317667066831297e-07,5.212476365428278e-07,1.2000107594936247e-05
3.301618331530992e-07,3.2465742730787613e-07,5.24373800126234e-07,1.215431115274577e-05
3.287554967733725e-07,3.2596839150175144e-07,5.271378788521945e-07,1.2305307475481916e-05
3.272971361244739e-07,3.2711084922656414e-07,5.295253628438828e-07,1.2452838968573018e-05
3.257897833397295e-07,3.2808777660670545e-07,5.315225606590931e-07,1.2596513010516704e-05
3.2423588989051736e-07,3.289025837574855e-07,5.331183716732188e-07,1.2735824302645744e-05
3.2263749965136253e-07,3.2955910616081384e-07,5.34306149013879e-07,1.2870202701550003e-05
3.2099802614936416e-07,3.300625615939365e-07,5.350831655379684e-07,1.2999085490710574e-05
3.1932386931062496e-07,3.3042028097421185e-07,5.354488383611509e-07,1.3121981303997467e-05
3.1762342858335376e-07,3.3064201222962713e-07,5.35403983203694e-07,1.3238482241442787e-05
3.159046022098693e-07,3.307397960143644e-07,5.349509117951515e-07,1.3348231465263965e-05
3.1417496423865187e-07,3.3072746571831217e-07,5.340935120069025e-07,1.3450893839114956e-05
3.1244581851552865e-07,3.306195866729145e-07,5.328371321092662e-07,1.3546194987427055e-05
3.1073482953337514e-07,3.304295620664247e-07,5.311885270180783e-07,1.363402391068836e-05
3.09063018037516e-07,3.301685939426473e-07,5.291563439278968e-07,1.3714463316198852e-05
3.0744973662649877e-07,3.2984679823661853e-07,5.26751584492837e-07,1.3787701088171017e-05
3.059100471637119e-07,3.294746341689962e-07,5.239871834987778e-07,1.3853935249146026e-05
3.044542171151139e-07,3.29063524975688e-07,5.208768259837558e-07,1.3913321322695553e-05
3.030886563661985e-07,3.286265369889525e-07,5.174335241260302e-07,1.3965944344666046e-05
3.0181826002889237e-07,3.281777814118913e-07,5.136687970635492e-07,1.401181145179364e-05
3.006482338542932e-07,3.2773006981733986e-07,5.095929350511354e-07,1.4050856871223914e-05
2.995835571332992e-07,3.272943905547297e-07,5.052159153801648e-07,1.4082953960491147e-05
2.986273905555306e-07,3.268816270750393e-07,5.005483626156882e-07,1.41079292598641e-05
2.977805890663525e-07,3.265027340374493e-07,4.956019294220447e-07,1.412556930101592e-05
2.970422534206769e-07,3.261668040617005e-07,4.903887769760137e-07,1.4135615562823242e-05
2.964101159879034e-07,3.258795710933481e-07,4.849208966554589e-07,1.413776094724226e-05
2.9588023484944236e-07,3.256430100555819e-07,4.792102071584065e-07,1.4131663630659405e-05
2.9544639226779296e-07,3.254550931955439e-07,4.7326885019732656e-07,1.4116971774002347e-05
2.950999412397896e-07,3.2531004837003625e-07,4.671090634876281e-07,1.4093356343648893e-05
2.948304994025355e-07,3.251998438369104e-07,4.6074364387156256e-07,1.4060555285032967e-05
2.94626896411644e-07,3.251158523860352e-07,4.5418696254624393e-07,1.4018400718729102e-05
2.944776963249879e-07,3.250495658408136e-07,4.474550461816828e-07,1.3966796649025229e-05
2.9437127322950693e-07,3.249927375916139e-07,4.405648119354908e-07,1.3905666922750229e-05
2.942957293410178e-07,3.2493721418249113e-07,4.3353348260980646e-07,1.3834924495618567e-05
2.942398014886673e-07,3.2487442235072487e-07,4.2637815807108827e-07,1.3754479096495267e-05
2.9419508644019735e-07,3.247948890345254e-07,4.191150615964425e-07,1.3664255323921087e-05
2.9415758105833997e-07,3.24687896050951e-07,4.1175888087209103e-07,1.356420184955448e-05
2.941269527560202e-07,3.245415330465744e-07,4.043233026711109e-07,1.3454304240937551e-05
2.941045820179875e-07,3.2434421405187287e-07,3.968229094572217e-07,1.3334603893379753e-05
2.940925575442405e-07,3.240873264649198e-07,3.892750649203033e-07,1.320520879249772e-05
2.9409388935845014e-07,3.23766135382932e-07,3.8170036154492956e-07,1.3066302042762232e-05
2.941123806825141e-07,3.233779638834112e-07,3.741222401037738e-07,1.2918154996536716e-05
2.941517534380829e-07,3.229205888772112e-07,3.6656740873835174e-07,1.2761124721765595e-05
2.942144717911129e-07,3.223924237733777e-07,3.5906612195063133e-07,1.2595624392060276e-05
2.943008485764596e-07,3.217928960040514e-07,3.5164998859375e-07,1.2422086274013667e-05
2.944098435144122e-07,3.2112252608085407e-07,3.4434842968424804e-07,1.2240958680171416e-05
2.945407916370137e-07,3.203832154762415e-07,3.3718693535110105e-07,1.2052764203592776e-05
2.9469333355162504e-07,3.195780416749166e-07,3.301873157670115e-07,1.1858158930812804e-05
2.9486594951489837e-07,3.187105831948672e-07,3.2336827814966523e-07,1.1657904482374198e-05
2.9505532821915124e-07,3.177844429353141e-07,3.167464884196507e-07,1.1452787198619856e-05
2.952566568016489e-07,3.1680282583176625e-07,3.103389051813317e-07,1.1243574620168797e-05
2.954642990493134e-07,3.157681146482821e-07,3.0416479939462236e-07,1.1031019949807007e-05
2.9567278483100384e-07,3.146814268105731e-07,2.982451274090229e-07,1.0815892805632305e-05
2.9587777810492765e-07,3.1354219799187194e-07,2.9260004772403733e-07,1.0599012181796638e-05
2.9607689104983046e-07,3.123480772129738e-07,2.872476073169297e-07,1.0381230541011284e-05
2.962697610403081e-07,3.1109503481013244e-07,2.82204591710823e-07,1.016337109519299e-05
2.9645743730855305e-07,3.097776405071311e-07,2.7748900298713205e-07,9.946208769819338e-06
2.966423058958516e-07,3.083896531151575e-07,2.7312475112388627e-07,9.730559095103544e-06
2.968279826627929e-07,3.0692518843850665e-07,2.6914715502298927e-07,9.517425051797825e-06
2.9701804845382883e-07,3.0538067260821264e-07,2.656046891528685e-07,9.308087067700897e-06
2.972147672247438e-07,3.037560616194557e-07,2.625550942409879e-07,9.104076024392276e-06
2.9741886133423065e-07,3.020535943001025e-07,2.600586458685626e-07,8.907061726455349e-06
2.9762957399591777e-07,3.002757733911231e-07,2.5817174175930204e-07,8.718702154138687e-06
2.9784450185201604e-07,2.984253451723953e-07,2.569420126774201e-07,8.540487192524484e-06
2.9806019462227664e-07,2.96506489562555e-07,2.564054552173532e-07,8.373644719146172e-06
2.982744892734193e-07,2.945250124161079e-07,2.5658656983827647e-07,8.219144054517965e-06
2.984886811995584e-07,2.924880220965283e-07,2.575015349624942e-07,8.077731527922157e-06
2.9870656247565323e-07,2.904035686351021e-07,2.59161628581362e-07,7.949955043623258e-06
2.989318226252661e-07,2.8827918288434537e-07,2.615745275245562e-07,7.836241912812582e-06
2.991666556336398e-07,2.861202878977944e-07,2.647444853231379e-07,7.737057071831931e-06
2.994112192752421e-07,2.8392997817953896e-07,2.6867267288420937e-07,7.653006873332972e-06
2.996643613180228e-07,2.817098553623076e-07,2.7335747673393675e-07,7.584755977855155e-06
2.99926385227778e-07,2.794621376819633e-07,2.7879404084403626e-07,7.532847886465518e-06
3.002015078039412e-07,2.771925330564145e-07,2.849732943793655e-07,7.4976452919595554e-06
3.0049838473317127e-07,2.749108991475904e-07,2.918822185333956e-07,7.4794944116740115e-06
3.008294024665724e-07,2.726291006569758e-07,2.995043179574699e-07,7.4790043681904965e-06
3.012089016874057e-07,2.7035878742601966e-07,3.0781730851479416e-07,7.4971976918328995e-06
3.016509835711849e-07,2.681105193439089e-07,3.1679015663953836e-07,7.5354181183769565e-06
3.021676626487433e-07,2.658940883516831e-07,3.263835438494523e-07,7.595117950227196e-06
3.0276698109775894e-07,2.637188715043684e-07,3.365524437305017e-07,7.677664503607678e-06
3.0345223788310924e-07,2.6159314454948374e-07,3.4724693326755254e-07,7.784197812082886e-06
3.0422379058270037e-07,2.595232267035481e-07,3.58410836503633e-07,7.915533442346368e-06
3.050812874794693e-07,2.575133216416541e-07,3.699815252426623e-07,8.072105445833756e-06
3.060235526962212e-07,2.555657848619673e-07,3.818939334987132e-07,8.253944135365761e-06
3.07047749100414e-07,2.536815827212468e-07,3.9408708958164395e-07,8.460680550387837e-06
3.0815046336463e-07,2.5186070251023283e-07,4.0650807080307e-07,8.69156688812998e-06
3.0932953292346536e-07,2.501020842804793e-07,4.1911131819573006e-07,8.945503846238724e-06
3.1058434609769933e-07,2.484035797317368e-07,4.3185500032075044e-07,9.22107042483014e-06
3.119143561738257e-07,2.467630832094201e-07,4.4469685498538464e-07,9.516567486616252e-06
3.133177169901329e-07,2.451808096551629e-07,4.575914151658028e-07,9.830092295940112e-06
3.147917719788909e-07,2.436611159789377e-07,4.7048915637602004e-07,1.0159638215991364e-05
3.1633366712458e-07,2.4221235141091924e-07,4.833375756920535e-07,1.0503198340330375e-05
3.179391015069972e-07,2.408450990649569e-07,4.960837342540978e-07,1.0858846494396183e-05
3.1960084829482266e-07,2.3957003296504076e-07,5.086766679267063e-07,1.1224767215696497e-05
3.213086812532268e-07,2.3839631606238728e-07,5.210682397449826e-07,1.1599243690441096e-05
3.23049776567415e-07,2.373308034977439e-07,5.332118226026821e-07,1.198064597968992e-05
3.248090554701848e-07,2.363774398232049e-07,5.450605062090146e-07,1.2367429097943013e-05
3.2657051447127627e-07,2.3553692246717592e-07,5.565680952502875e-07,1.2758108425610804e-05
3.283192197620549e-07,2.3480711997559037e-07,5.67691970747252e-07,1.3151201646430995e-05
3.3004169971675656e-07,2.3418381155676852e-07,5.783943045627175e-07,1.3545173394260111e-05
3.3172466345318987e-07,2.336612655868556e-07,5.886416308993983e-07,1.3938407588284873e-05
3.333543124909483e-07,2.3323297185167488e-07,5.98404282437136e-07,1.4329207375458097e-05
3.349169033739125e-07,2.3289281044537052e-07,6.076562293136889e-07,1.4715843315388559e-05
3.363999356812014e-07,2.326355641365379e-07,6.163755426643077e-07,1.509663431489172e-05
3.377932131163808e-07,2.3245596696298565e-07,6.245443638372637e-07,1.5469986977464553e-05
3.390893973692282e-07,2.3234749787994948e-07,6.321472449528453e-07,1.583437896714245e-05
3.402841853306197e-07,2.3230197664101672e-07,6.391696069085081e-07,1.618833011202303e-05
3.413754073654399e-07,2.3230985117147693e-07,6.455980985892979e-07,1.653037553042317e-05
3.423614099350201e-07,2.3236068450430821e-07,6.514214990039754e-07,1.6859050339123026e-05
3.4324039658179496e-07,2.3244339583399268e-07,6.566304761713152e-07,1.7172909738087462e-05
3.440109115143168e-07,2.3254676490204558e-07,6.612166291271746e-07,1.747057360959716e-05
3.446720297179774e-07,2.3266078798264746e-07,6.651720357507528e-07,1.7750751167799164e-05
3.452222724319525e-07,2.3277767109741016e-07,6.684898769572835e-07,1.8012231080824624e-05
3.456586706793105e-07,2.3289143098234296e-07,6.711655647651524e-07,1.825386544639847e-05
3.459771954542043e-07,2.329974691060477e-07,6.731969117391736e-07,1.8474579596330717e-05
3.461736087263414e-07,2.330925587518311e-07,6.745834534354158e-07,1.8673432266153e-05
3.462441254500984e-07,2.3317395493285733e-07,6.753261778550136e-07,1.8849700563721985e-05
3.461856675922009e-07,2.3323828672332425e-07,6.754270344533015e-07,1.900289839356022e-05
3.4599566284453175e-07,2.3328172363345837e-07,6.748881833400112e-07,1.9132707077290398e-05
3.456720713664258e-07,2.3330123193945962e-07,6.737126018350768e-07,1.9238907916102733e-05
3.452132297445642e-07,2.3329566336126982e-07,6.719053790121344e-07,1.9321368257583173e-05
3.446168581946509e-07,2.3326550255192372e-07,6.694738613268433e-07,1.9380047806241656e-05
3.43879503747679e-07,2.3321176279025545e-07,6.6642741159783e-07,1.941499171688401e-05
3.429975097463088e-07,2.3313549361806842e-07,6.627780715375139e-07,1.942632193019935e-05
3.41968515427144e-07,2.330378786351573e-07,6.585418970030094e-07,1.9414291301869214e-05
3.407923763143325e-07,2.329201578577319e-07,6.537408156433949e-07,1.937945328808828e-05
3.3947149766616996e-07,2.327833200815768e-07,6.484033819104084e-07,1.9322836527660786e-05
3.3801024039988337e-07,2.326280345417441e-07,6.425626495228972e-07,1.924593818075988e-05
3.364138436490181e-07,2.3245521940619941e-07,6.362542192674479e-07,1.9150547872101708e-05
3.3468859260862453e-07,2.322663016036633e-07,6.295184374212483e-07,1.9038550632135973e-05
3.328425966490095e-07,2.3206232251052715e-07,6.224054284888075e-07,1.891178844127536e-05
3.3088556177799093e-07,2.318431631449151e-07,6.149774623894177e-07,1.8772043694251324e-05
3.288281791176402e-07,2.31607657703864e-07,6.073049495347204e-07,1.8621189798316407e-05
3.266815891043345e-07,2.3135432279934306e-07,5.994592946626829e-07,1.846136095523299e-05
3.24457179504113e-07,2.3108281389269987e-07,5.9150904320957e-07,1.8294933389821842e-05
3.221672200604636e-07,2.3079459547586068e-07,5.835204472983244e-07,1.812435252617414e-05
3.1982471465999607e-07,2.304914935829282e-07,5.755585465703871e-07,1.7951963858315188e-05
3.174417713092958e-07,2.301742115699049e-07,5.676862874648732e-07,1.77798967178538e-05
3.150286192519502e-07,2.298429421042345e-07,5.599622459610436e-07,1.760998764626546e-05
3.1259381985383203e-07,2.2949899013050946e-07,5.524395032604514e-07,1.7443737721248942e-05
3.101448368557442e-07,2.2914559994222945e-07,5.451667837206252e-07,1.7282308407601552e-05
3.076890229505454e-07,2.287885487820645e-07,5.381885839024562e-07,1.7126566852655447e-05
3.052346893153713e-07,2.2843660381651801e-07,5.315425693299443e-07,1.697716374022443e-05
3.027919488185961e-07,2.2810036296507692e-07,5.252570758266072e-07,1.68345850385555e-05
3.0037259897750644e-07,2.277907507163742e-07,5.193503914970642e-07,1.669914722074687e-05
2.979883941877953e-07,2.2751892589600448e-07,5.138315867872052e-07,1.6570976572478953e-05
2.9564963587670666e-07,2.2729671928086902e-07,5.087030983251852e-07,1.6450004976918427e-05
2.93364890285319e-07,2.271364471354269e-07,5.039637754378485e-07,1.6335976731518946e-05
2.911403515401848e-07,2.2704938773066326e-07,4.996102120894271e-07,1.6228480485259352e-05
2.8897933562130307e-07,2.2704375885738787e-07,4.956361455594931e-07,1.6127013398489312e-05
2.8688300380663024e-07,2.2712407087011285e-07,4.920311924972209e-07,1.603103696403822e-05
2.848516708447895e-07,2.2729191657070365e-07,4.887807675175672e-07,1.5940001752455396e-05
2.828854458805059e-07,2.2754701624195337e-07,4.858680242407372e-07,1.5853364108771412e-05
2.809837943746085e-07,2.2788772873928266e-07,4.83275787764729e-07,1.5770598676960545e-05
2.7914573845588325e-07,2.2831113531669122e-07,4.809861003200616e-07,1.5691192729629882e-05
2.7737197068474604e-07,2.2881394552407637e-07,4.78978859282202e-07,1.5614634738460814e-05
2.7566612118331947e-07,2.293950585977448e-07,4.772332974299764e-07,1.554040674178471e-05
2.7403346572454054e-07,2.3005791916938468e-07,4.7573197832166655e-07,1.5467973701753076e-05
2.724804297316715e-07,2.3081061801775408e-07,4.744623445939e-07,1.5396789110729213e-05
2.710155547554236e-07,2.316645164891474e-07,4.7341355833029673e-07,1.532633283112924e-05
2.6964838836770924e-07,2.3263250382540368e-07,4.7257211382437497e-07,1.5256137508033813e-05
2.683871017698254e-07,2.337270633483349e-07,4.719198912779947e-07,1.5185761946050653e-05
2.672377422264276e-07,2.349588589119423e-07,4.7143475148824033e-07,1.5114738643542657e-05
2.662041526838709e-07,2.3633634177718335e-07,4.71092949697513e-07,1.5042543528673093e-05
2.652876310671462e-07,2.3786538446740512e-07,4.708730683090696e-07,1.4968602176698987e-05
2.644869531343848e-07,2.395481947228002e-07,4.7075883685437204e-07,1.4892322711108904e-05
2.637983134267912e-07,2.4138282315293104e-07,4.707378830327505e-07,1.4813145410752296e-05
2.632150851706551e-07,2.433639617006543e-07,4.7079845717840634e-07,1.4730595292173396e-05
2.6272813699396573e-07,2.454836709387903e-07,4.709286184146692e-07,1.4644345102180537e-05
2.623266228566368e-07,2.4773170305368965e-07,4.7111728693858223e-07,1.4554314560475308e-05
2.6199877400201937e-07,2.5009682292268946e-07,4.713534593321226e-07,1.4460748316485724e-05
2.6173332382741014e-07,2.525694045770876e-07,4.716242631113575e-07,1.4364171635369876e-05
2.61521961109647e-07,2.551428829933047e-07,4.7191426917554686e-07,1.4265239792113422e-05
2.6136022731420177e-07,2.578120827408534e-07,4.722058447679142e-07,1.416458639830584e-05
2.6124527945079174e-07,2.605703298449368e-07,4.724810046762552e-07,1.406275184544859e-05
2.611737256488318e-07,2.6340829717663e-07,4.727261247049591e-07,1.3960215840098026e-05
2.6114196896181106e-07,2.6631486236494824e-07,4.7293732959112063e-07,1.3857482201352432e-05
2.611473876131895e-07,2.692783466407986e-07,4.731215754173806e-07,1.3755129205904647e-05
2.611882582641457e-07,2.7228696806425176e-07,4.732919440240532e-07,1.3653799474139073e-05
2.612626308179746e-07,2.753287943779525e-07,4.7346114894829456e-07,1.355415399865445e-05
2.6136728876371744e-07,2.783913027747215e-07,4.736382871607633e-07,1.3456826764067875e-05
2.614971461281896e-07,2.814602942672401e-07,4.738312029305622e-07,1.336246127591356e-05
2.616453673802401e-07,2.845193788094066e-07,4.7405195164430506e-07,1.3271844721498801e-05
2.618041772364064e-07,2.875510854634928e-07,4.7431963969145967e-07,1.3185977615122105e-05
2.6196541743290293e-07,2.9053848832009357e-07,4.746587982904574e-07,1.3105972507406167e-05
2.6212038515068175e-07,2.9346576516476324e-07,4.750955229354293e-07,1.303292071433568e-05
2.622597474745945e-07,2.963178338216025e-07,4.7565249200085867e-07,1.2967884442154144e-05
2.623748544573959e-07,2.9908039817254073e-07,4.763447759003617e-07,1.2911952637697028e-05
2.624602324960718e-07,3.0174053586313074e-07,4.771795244120956e-07,1.286622456731879e-05
2.625148319078181e-07,3.042869215848968e-07,4.781586056802489e-07,1.283173384121128e-05
2.625408139976293e-07,3.067097630255943e-07,4.792804805080564e-07,1.2809386590758675e-05
2.6254132790887696e-07,3.090007854923839e-07,4.805402191308954e-07,1.2799917213418307e-05
2.625186851807059e-07,3.111527109285413e-07,4.819304266499189e-07,1.280384083472283e-05
2.624731733912421e-07,3.131583384226615e-07,4.834452645708774e-07,1.282140276673766e-05
2.62402624121206e-07,3.150101929645425e-07,4.850845722425675e-07,1.2852546523136205e-05
2.623029382972491e-07,3.16700670221854e-07,4.868538956244021e-07,1.2896918878732565e-05
2.6216883586943806e-07,3.182221605157168e-07,4.887610549628389e-07,1.295389809296203e-05
2.619940057766425e-07,3.1956735970474136e-07,4.908144360922879e-07,1.3022628752312527e-05
2.617714506159417e-07,3.2072986318115967e-07,4.930271462968538e-07,1.3102071735988175e-05
2.614947004271409e-07,3.2170478122171845e-07,4.954236836281977e-07,1.3191061515682455e-05
2.61158952492172e-07,3.2248882208376297e-07,4.980412203094995e-07,1.3288336148788748e-05
2.607616864919043e-07,3.230797626047477e-07,5.009228193346535e-07,1.3392539352602605e-05
2.603037196314497e-07,3.2347634359371324e-07,5.041079295866015e-07,1.350223743879891e-05
2.597903747725219e-07,3.2367858182068417e-07,5.07626204527177e-07,1.3615968466046136e-05
2.5923070368601043e-07,3.2368744439524257e-07,5.114952558106945e-07,1.373229462319416e-05
2.5863490540297856e-07,3.23504291316989e-07,5.157210745701332e-07,1.384983885077576e-05
2.5801247204747015e-07,3.231313405062352e-07,5.203007577837727e-07,1.3967311321936945e-05
2.573717484377749e-07,3.2257345031333234e-07,5.25226141272335e-07,1.4083528440229425e-05
2.5671999372053214e-07,3.218399394786723e-07,5.304861529876799e-07,1.419743206754154e-05
2.560641064071846e-07,3.2094460905828746e-07,5.360659134026906e-07,1.4308109070550412e-05
2.5541160895684107e-07,3.1990389861242214e-07,5.419435728247825e-07,1.4414786134439224e-05
2.547701769650285e-07,3.187345048710525e-07,5.480891134723569e-07,1.45167946238147e-05
2.541458500181316e-07,3.174512887407845e-07,5.544661213852744e-07,1.461352462851434e-05
2.5354206845806363e-07,3.1606608358250406e-07,5.610338991291744e-07,1.4704382412340243e-05
2.5296021484700324e-07,3.145879823865716e-07,5.677493027227334e-07,1.4788791168958004e-05
2.524003570098605e-07,3.130248902163324e-07,5.745690148433311e-07,1.4866259109457377e-05
2.518613814400033e-07,3.113849972712159e-07,5.814510305108189e-07,1.4936439818653605e-05
2.513411961022737e-07,3.0967656921025576e-07,5.883540110233913e-07,1.4999104709232013e-05
2.508378981523712e-07,3.079066024376678e-07,5.952362237081289e-07,1.5054064647605295e-05
2.5035138516386213e-07,3.060804438908013e-07,6.020556282622614e-07,1.5101122203821228e-05
2.4988399264369643e-07,3.042026803128565e-07,6.087694462653806e-07,1.5140069821082705e-05
2.494396936229012e-07,3.022780292532303e-07,6.15333177694808e-07,1.5170717832487327e-05
2.4902260825635254e-07,3.003118142505893e-07,6.21701158717525e-07,1.5192926535280807e-05
2.486360071018265e-07,2.983113230943964e-07,6.278280856777903e-07,1.5206589388996189e-05
2.482826385294291e-07,2.9628820258679065e-07,6.33670041566921e-07,1.5211584762164931e-05
2.4796598935375704e-07,2.9425896718421717e-07,6.391855292564724e-07,1.5207773869927167e-05
2.476914035270163e-07,2.922430309578129e-07,6.443365588870463e-07,1.5195054779392234e-05
2.474664617853732e-07,2.902614611723461e-07,6.490882919090072e-07,1.5173443848927884e-05
2.473002937060113e-07,2.8833686977881024e-07,6.534074770141938e-07,1.5143154585005496e-05
2.472023898901205e-07,2.864920556204712e-07,6.572623277155487e-07,1.5104610911942996e-05
2.471819545571389e-07,2.8474771885840864e-07,6.606242931295955e-07,1.505836294653852e-05
2.47247155075843e-07,2.831213923709372e-07,6.634687903107152e-07,1.500496843969287e-05
2.474038655671494e-07,2.816275020945477e-07,6.65773712416423e-07,1.4944939681844885e-05
2.476550370485095e-07,2.8027727015446076e-07,6.675183694941734e-07,1.4878774757453946e-05
2.48000954514878e-07,2.7907865515256697e-07,6.686851205206842e-07,1.480698551605396e-05
2.484399025475812e-07,2.780365868820876e-07,6.692619416478876e-07,1.4730061989956726e-05
2.4896891460896985e-07,2.77152684346762e-07,6.692428712223621e-07,1.4648441739511487e-05
2.4958383873783625e-07,2.764246773580019e-07,6.686266203101041e-07,1.4562594381216479e-05
2.502784995907175e-07,2.758468817048833e-07,6.674154648203409e-07,1.447319045986048e-05
2.510443371615303e-07,2.754119321793393e-07,6.656145650559525e-07,1.4381170636898352e-05
2.518714669634453e-07,2.751122676212984e-07,6.632311681385089e-07,1.4287631528498638e-05
2.527503084180512e-07,2.749402141400813e-07,6.602745481465921e-07,1.4193652073317193e-05
2.536729428639436e-07,2.748874901797247e-07,6.567571773622305e-07,1.4100184330122181e-05
2.546336883773297e-07,2.749452588409987e-07,6.526957368856908e-07,1.400805574258621e-05
2.55627993630032e-07,2.751044201175249e-07,6.481105376786687e-07,1.3918118857628586e-05
2.566501289392613e-07,2.7535573380901126e-07,6.430238798438907e-07,1.3831456484601294e-05
2.576916523839067e-07,2.756901176961927e-07,6.374585004532139e-07,1.3749441150796042e-05
2.5874160782516844e-07,2.7609897576153347e-07,6.314364731720872e-07,1.3673620044851317e-05
2.597876576133186e-07,2.7657414665679776e-07,6.249790417075592e-07,1.3605561993784855e-05
2.6081673508726805e-07,2.771079015361277e-07,6.181077777994814e-07,1.354673599556132e-05
2.618151186990974e-07,2.776935838141602e-07,6.108460176694228e-07,1.3498415060179946e-05
2.627692708134747e-07,2.7832627194899804e-07,6.032193583555957e-07,1.3461606073000567e-05
2.6366714317822107e-07,2.7900237013056824e-07,5.952557029470985e-07,1.3437015571092388e-05
2.644982376145213e-07,2.797184286337016e-07,5.869852545510914e-07,1.3425053381130783e-05
2.652532020123888e-07,2.8046990199989374e-07,5.78439783667523e-07,1.3425858886149284e-05
2.659245662675846e-07,2.812502904868595e-07,5.696508536366437e-07,1.3439330832724005e-05
2.665071732889981e-07,2.820513493065171e-07,5.606477740352996e-07,1.3465149914265356e-05
2.669969753772512e-07,2.828638601122295e-07,5.514570775235146e-07,1.350279024503846e-05
2.673904156861216e-07,2.836781760342871e-07,5.421036794575031e-07,1.3551525693413625e-05
2.6768641057282947e-07,2.8448460299708217e-07,5.326118871392091e-07,1.3610450217565084e-05
2.6788831595796014e-07,2.852732747533663e-07,5.230058972361277e-07,1.3678538671751465e-05
2.680024631193705e-07,2.860336305168698e-07,5.133099476812457e-07,1.375474351400566e-05
2.680351359167133e-07,2.867541854894214e-07,5.035475265222211e-07,1.3838073393631754e-05
2.679913732351797e-07,2.8742273937445394e-07,4.937402368966325e-07,1.3927619345839895e-05
2.678756983393341e-07,2.880269877159084e-07,4.839074913756176e-07,1.4022559074314505e-05
2.6769384581419894e-07,2.8855498167450005e-07,4.7406731513620757e-07,1.4122170876195263e-05
2.67454270766498e-07,2.889955903959135e-07,4.6423731252566994e-07,1.4225842600393536e-05
2.6716869072365216e-07,2.8934016971128845e-07,4.544344133376471e-07,1.433304811979642e-05
2.668523599450007e-07,2.8958362181787446e-07,4.4467386947067776e-07,1.4443281769701285e-05
2.66523357593013e-07,2.897227837110352e-07,4.3496896223676797e-07,1.4555971119472705e-05
2.6620003367165854e-07,2.897548342673445e-07,4.2533133306945297e-07,1.4670427212866525e-05
2.658985052689819e-07,2.896780009511543e-07,4.157713158408783e-07,1.4785872218698513e-05
2.6563229859887326e-07,2.894930970865693e-07,4.0629851765054396e-07,1.4901490086402869e-05
2.65413718736549e-07,2.8920337393723394e-07,3.9692377915038745e-07,1.5016423630317484e-05
2.652545783033317e-07,2.8881211544652554e-07,3.8766255199496387e-07,1.5129733723584613e-05
2.651654995536365e-07,2.8832048032506554e-07,3.785360605237733e-07,1.5240385270135474e-05
2.651551805899396e-07,2.877273029667016e-07,3.695681513806515e-07,1.534728344566453e-05
2.652300754676734e-07,2.870298626715128e-07,3.607816260425536e-07,1.544932844883947e-05
2.653943298450487e-07,2.8622452659816735e-07,3.521966899026061e-07,1.554544483179748e-05
2.656498489773096e-07,2.8530775188805623e-07,3.438300970475273e-07,1.5634586456440688e-05
2.6599608863993977e-07,2.842782394710061e-07,3.356946703512789e-07,1.5715746704050067e-05
2.6643020425282195e-07,2.831384124068233e-07,3.278001936009497e-07,1.578798368484453e-05
2.669479499941113e-07,2.8189357284970653e-07,3.201551016646665e-07,1.585045399775415e-05
2.675449101187571e-07,2.8055055476275466e-07,3.127670566902592e-07,1.5902460124445518e-05
2.682192950809811e-07,2.7911699047250056e-07,3.056421219683094e-07,1.5943510746088197e-05
2.689753727304739e-07,2.776011292902554e-07,2.9878461124256094e-07,1.5973331997711004e-05
2.698224852732424e-07,2.76013071827401e-07,2.921983103218686e-07,1.5991786377889194e-05
2.707697348899921e-07,2.7436618797469937e-07,2.858871830877491e-07,1.599878484040481e-05
2.7182265594996905e-07,2.726765381980928e-07,2.7985462326372164e-07,1.5994278174358988e-05
2.729840570189033e-07,2.709611753930317e-07,2.741026786956076e-07,1.5978287406736504e-05
2.742552977975699e-07,2.6923680520322665e-07,2.686325292862954e-07,1.5950910804391934e-05
2.756354295898428e-07,2.6751851377177085e-07,2.6344572841091554e-07,1.591231093902912e-05
2.771198652497217e-07,2.658186357485362e-07,2.585448321710383e-07,1.5862703339376776e-05
2.78700844036402e-07,2.641467238219881e-07,2.539327116475452e-07,1.580238058355329e-05
2.8036915966837896e-07,2.6251054973847013e-07,2.496113158368627e-07,1.573180659233148e-05
2.8211505718249076e-07,2.609164609438389e-07,2.4558116802490786e-07,1.565170357172802e-05
2.839277500758557e-07,2.5936851411250205e-07,2.418423492241073e-07,1.556301442362401e-05
2.857946782436439e-07,2.578679692617247e-07,2.383971443788675e-07,1.546677694338301e-05
2.877013071120503e-07,2.564138290142489e-07,2.3525318390282941e-07,1.536400949122906e-05
2.896317427828939e-07,2.550037217038104e-07,2.32424893991118e-07,1.5255657633233215e-05
2.915699982203698e-07,2.536345078567202e-07,2.2993202205820765e-07,1.5142668991099429e-05
2.935018796860184e-07,2.523024815742056e-07,2.277955782068655e-07,1.5026184741588233e-05
2.954169485730249e-07,2.510041574717135e-07,2.2603327174872927e-07,1.4907662541723847e-05
2.973083045833149e-07,2.497385059621282e-07,2.2465717951306761e-07,1.4788812118885351e-05
2.9917102652802447e-07,2.485090199595745e-07,2.2367404505071803e-07,1.4671439134505124e-05
3.0100262855006014e-07,2.47322793699887e-07,2.2308608447165532e-07,1.4557314435783161e-05
3.0280381417088964e-07,2.461871073807193e-07,2.2289065285598803e-07,1.4448086174024564e-05
3.045767105106874e-07,2.451070056433654e-07,2.230797676631742e-07,1.4345216615701095e-05
3.0632237360813174e-07,2.4408506110360085e-07,2.236419135852336e-07,1.4249938471979666e-05
3.080394392514182e-07,2.4312190767641447e-07,2.2456596894473504e-07,1.4163233043110965e-05
3.097238307716807e-07,2.4221675778725746e-07,2.2584384028463422e-07,1.4085824922696578e-05
3.113692279924131e-07,2.4136794198280226e-07,2.274698234736614e-07,1.4018181237168189e-05
3.1296753052422325e-07,2.405734249458413e-07,2.2943916124817768e-07,1.3960507494374719e-05
3.145087749802713e-07,2.3983168945523054e-07,2.317508440577167e-07,1.3912754065018438e-05
3.159812071693854e-07,2.391437000700604e-07,2.3441605487343842e-07,1.3874657521667789e-05
3.173718699927587e-07,2.3851558173506425e-07,2.3746633711899036e-07,1.3845809082679055e-05
3.1866717676359994e-07,2.379603953088841e-07,2.409549120039716e-07,1.382572393711396e-05
3.198536579045993e-07,2.374971668624214e-07,2.4495017983959647e-07,1.3813909545462634e-05
3.209191553482511e-07,2.371471298913963e-07,2.495240006617325e-07,1.3809934611423553e-05
3.218537654965776e-07,2.3692958469739194e-07,2.5473958311459714e-07,1.3813475679202704e-05
3.2265114219420465e-07,2.3685924954008464e-07,2.60644895507432e-07,1.3824327392476068e-05
3.233116667094213e-07,2.3694505430694856e-07,2.672720015499279e-07,1.384238719345134e-05
3.238447972711244e-07,2.3719007932120642e-07,2.746381916034073e-07,1.3867617418078196e-05
3.242660067748352e-07,2.375925045796144e-07,2.82748747041696e-07,1.3899980560004748e-05
3.2459028269479644e-07,2.381470661671084e-07,2.916022937461287e-07,1.3939363310403055e-05
3.2482830811208325e-07,2.3884654332624925e-07,3.011951227102648e-07,1.398551502191513e-05
3.2498674410783237e-07,2.3968297642978376e-07,3.115208338846529e-07,1.4038026003284827e-05
3.250703248953593e-07,2.406485612938893e-07,3.225672386702897e-07,1.4096377954332313e-05
3.2508389679164943e-07,2.4173626280589773e-07,3.343151411374972e-07,1.4160040168577215e-05
3.2503270103501576e-07,2.429395945090085e-07,3.467395168284605e-07,1.4228515925614471e-05
3.249210106978593e-07,2.442517530220473e-07,3.5981057088482586e-07,1.430131885410516e-05
3.247513990275578e-07,2.456658636971505e-07,3.734941147641177e-07,1.4377948174396313e-05
3.2452539118074843e-07,2.471762879728525e-07,3.877515806809069e-07,1.4457896989507187e-05
3.2424415644710283e-07,2.487784568173655e-07,4.0253908099105846e-07,1.4540664608961975e-05
3.2390849641100674e-07,2.5046721676440605e-07,4.17806337116921e-07,1.4625744647118811e-05
3.235185198531164e-07,2.52235938798786e-07,4.334966793696546e-07,1.4712631045255375e-05
3.2307364791152613e-07,2.5407643427372287e-07,4.4954697414350917e-07,1.4800871739943554e-05
3.2257381616092486e-07,2.5597895315489004e-07,4.658874799332097e-07,1.489011166768274e-05
3.220212574091701e-07,2.579323504514914e-07,4.824431223393397e-07,1.4980092487569587e-05
3.214205743767157e-07,2.5992412151219874e-07,4.99135249766658e-07,1.507062392025367e-05
3.2077673862180854e-07,2.6194043088520443e-07,5.158835917099469e-07,1.5161535022718487e-05
3.200929202135079e-07,2.639669588914771e-07,5.326099680612654e-07,1.5252616546063267e-05
3.193695153836807e-07,2.659902127700516e-07,5.49242030624769e-07,1.5343561390721702e-05
3.1860440842661424e-07,2.67998168249397e-07,5.657141308485496e-07,1.543392638966126e-05
3.1779415648244697e-07,2.699808783113759e-07,5.81966251017396e-07,1.5523153615986766e-05
3.169352415606534e-07,2.7193130659180985e-07,5.979426352871145e-07,1.5610647370050986e-05
3.160241947669248e-07,2.738446646883811e-07,6.135904866646585e-07,1.569586228826421e-05
3.150575424857741e-07,2.757165587705975e-07,6.288607586748805e-07,1.5778358974884388e-05
3.1403322019900827e-07,2.7754194095493285e-07,6.437112274397481e-07,1.5857793616322477e-05
3.1295202876099103e-07,2.7931547310698516e-07,6.581077405043918e-07,1.5933858923101624e-05
3.118169978260991e-07,2.810328162328937e-07,6.720216071460725e-07,1.6006258366678586e-05
3.106313584476824e-07,2.8269148878241645e-07,6.854252568632984e-07,1.6074739152526033e-05
3.093972936941448e-07,2.842900790505106e-07,6.982897305510504e-07,1.6139143782601777e-05
3.081166151208574e-07,2.8582690270678626e-07,7.105866681714063e-07,1.6199447886407817e-05
3.067923674223793e-07,2.873003289116761e-07,7.222932168549944e-07,1.6255741197489113e-05
3.054293274081157e-07,2.887105476738216e-07,7.333951036288519e-07,1.6308156124098347e-05
3.0403295708575413e-07,2.9006063006360476e-07,7.438854301001519e-07,1.6356803844234774e-05
3.0260826815477817e-07,2.913557184803941e-07,7.537613086572778e-07,1.640174002831316e-05
3.011600272215154e-07,2.9260061725028646e-07,7.630216497483034e-07,1.6442938502969613e-05
2.9969379947754e-07,2.9379756536794736e-07,7.716672169493299e-07,1.6480255322893217e-05
2.982157387140319e-07,2.949457751283216e-07,7.797021396702134e-07,1.6513404099594718e-05
2.967311959698074e-07,2.9604206326191213e-07,7.871351245113918e-07,1.654196702064355e-05
2.952449199314473e-07,2.970814468527996e-07,7.93979368482072e-07,1.6565422633219723e-05
2.937629653278384e-07,2.980576879726466e-07,8.002522697256522e-07,1.6583168899823845e-05
2.922930298132966e-07,2.9896427866656763e-07,8.059750814225424e-07,1.6594548909974925e-05
2.908425319670031e-07,2.997957043417821e-07,8.111705739261003e-07,1.659887816236753e-05
2.894171083133034e-07,3.0054793041868525e-07,8.158597726174339e-07,1.6595462677115126e-05
2.8802082482630656e-07,3.012179540049181e-07,8.200612964170742e-07,1.6583623601408332e-05
2.866578211424957e-07,3.018032750486758e-07,8.237929061055373e-07,1.6562748829685412e-05
2.85334401125624e-07,3.023017738793245e-07,8.270727821271659e-07,1.65323498023493e-05
2.8405941682805657e-07,3.027125165633377e-07,8.299208242321255e-07,1.6492083117860153e-05
2.8284291900591077e-07,3.0303708487929977e-07,8.323606350395498e-07,1.6441736698457667e-05
2.816949499476105e-07,3.032795460331272e-07,8.344211170699468e-07,1.638120964275413e-05
2.806247144135204e-07,3.034447357012425e-07,8.361368760831898e-07,1.6310500538510255e-05
2.7964062241703346e-07,3.035364243763824e-07,8.375468058406441e-07,1.6229705369140338e-05
2.787518137127792e-07,3.0355643583083173e-07,8.386907781661309e-07,1.6139021267230658e-05
2.7796882290847895e-07,3.035050330260481e-07,8.396066097586669e-07,1.6038742891880514e-05
2.773028123047748e-07,3.03381783328495e-07,8.403284678647591e-07,1.592924782432673e-05
2.767665296625369e-07,3.03185833403972e-07,8.408849648136311e-07,1.581098407326146e-05
2.7637571176127377e-07,3.02916571464932e-07,8.412965287368276e-07,1.5684465850550478e-05
2.761466121004323e-07,3.025753752050095e-07,8.415736469463135e-07,1.555027242399017e-05
2.760919491786373e-07,3.021663865736125e-07,8.417165104972047e-07,1.5409030785787488e-05
2.762209998152872e-07,3.016949162160932e-07,8.417162231756471e-07,1.5261374010704983e-05
2.765432349611182e-07,3.0116535365827586e-07,8.415581493123701e-07,1.5107919374718335e-05
2.770700183309318e-07,3.005807283699925e-07,8.412255568839055e-07,1.4949281466668436e-05
2.778126506295961e-07,2.999431960381793e-07,8.407005321408244e-07,1.4786059116370096e-05
2.7877954631722173e-07,2.992540903048388e-07,8.399632799987738e-07,1.4618786840964908e-05
2.799745916710887e-07,2.98513810760981e-07,8.389929652052805e-07,1.4447916609279676e-05
2.813967634220136e-07,2.977221412701084e-07,8.377705774756274e-07,1.4273863419681318e-05
2.830402634650917e-07,2.9687915961591055e-07,8.362832341507024e-07,1.4097099376262182e-05
2.848948534136841e-07,2.959858067077626e-07,8.345282074571092e-07,1.391823129992781e-05
2.869469795846076e-07,2.9504324983059723e-07,8.325133838738014e-07,1.3737975132742724e-05
2.891815154230535e-07,2.940525405009138e-07,8.302534992238071e-07,1.3557052968422396e-05
2.915828444045498e-07,2.9301549830172985e-07,8.277647393533037e-07,1.3376124518331552e-05
2.941348344577084e-07,2.919349797718688e-07,8.250607986723494e-07,1.3195776882920606e-05
2.96820825766399e-07,2.9081381867397514e-07,8.221519529375272e-07,1.3016521878414626e-05
2.9962411292914445e-07,2.896540377887547e-07,8.190464062912748e-07,1.2838779462804847e-05
3.0252765366988353e-07,2.88456776473854e-07,8.157530694846619e-07,1.266286238676152e-05
3.055133685575153e-07,2.872223125724727e-07,8.122840197777247e-07,1.2488981988901713e-05
3.0856316040390764e-07,2.859504707871593e-07,8.08653502498895e-07,1.2317284438907353e-05
3.1166040066772454e-07,2.846413647975275e-07,8.048741409801337e-07,1.2147912054209191e-05
3.1478942395848205e-07,2.832958351851421e-07,8.009539893853924e-07,1.1981047535565432e-05
3.179346003592405e-07,2.8191580245997096e-07,7.968956552743927e-07,1.1816902130975626e-05
3.210805936142439e-07,2.80504788368212e-07,7.926971213122615e-07,1.1655680238898795e-05
3.242129369126188e-07,2.790681674439743e-07,7.883536593974639e-07,1.1497556769017348e-05
3.2731821816742394e-07,2.7761305118087373e-07,7.838592596901776e-07,1.1342683260051425e-05
3.303836209752473e-07,2.7614807197453945e-07,7.792066646347886e-07,1.1191270165657403e-05
3.3339606705980337e-07,2.7468287540876505e-07,7.743866535352838e-07,1.1043706116364951e-05
3.3634159077923013e-07,2.732277816512999e-07,7.693878103224266e-07,1.0900605266721413e-05
3.392055468396523e-07,2.7179503923030465e-07,7.641975890394685e-07,1.0762795519201636e-05
3.419737626057968e-07,2.704006804027832e-07,7.588035852329087e-07,1.063127921792239e-05
3.4463398232591057e-07,2.6906405786356894e-07,7.531935385648071e-07,1.0507126160872979e-05
3.471766029627957e-07,2.67804840783455e-07,7.473546989305184e-07,1.0391333415366548e-05
3.4959405779530623e-07,2.666397933913696e-07,7.412738881950042e-07,1.028473187580696e-05
3.5187981357077644e-07,2.655811678818473e-07,7.34939385610516e-07,1.0187942851608068e-05
3.540277770282651e-07,2.646368821821841e-07,7.283445933652955e-07,1.0101353692688133e-05
3.5603148805948007e-07,2.6381128228985253e-07,7.21490153755155e-07,1.0025116175591934e-05
3.578835704419939e-07,2.6310587398916464e-07,7.143821211867065e-07,9.959177456651943e-06
3.595765687998873e-07,2.625207512892666e-07,7.070286569018852e-07,9.903321562419077e-06
3.6110471355458653e-07,2.620556659506655e-07,6.994379193252744e-07,9.857197964697826e-06
3.624647039052787e-07,2.617088793819909e-07,6.916173768017878e-07,9.82033917445883e-06
3.636547415009045e-07,2.6147555198619066e-07,6.835739039326935e-07,9.792177286493068e-06
3.6467365859079116e-07,2.613481917999929e-07,6.753135466691607e-07,9.77206048564066e-06
3.655209380373125e-07,2.613188221383841e-07,6.668412807410426e-07,9.75926841238687e-06
3.6619652702551177e-07,2.613818155950488e-07,6.58162196117402e-07,9.753047421119363e-06
3.667004796472872e-07,2.615364647411061e-07,6.492830420325417e-07,9.75269006058906e-06
3.6703319581807424e-07,2.6178738673014013e-07,6.402123741376839e-07,9.757626434155667e-06
3.6719702472318356e-07,2.621416765948051e-07,6.309598936125526e-07,9.767463460990983e-06
3.671982394516989e-07,2.6260470209046713e-07,6.215360612375787e-07,9.781957088359326e-06
3.6704683957963684e-07,2.6317771450859863e-07,6.119523552163974e-07,9.800948766310276e-06
3.667548647092786e-07,2.638582118846095e-07,6.022215920608881e-07,9.824298614281959e-06
3.663351116861891e-07,2.6464146688356944e-07,5.923573507374907e-07,9.85183400680302e-06
3.6579963915166725e-07,2.655220848001504e-07,5.823728703092249e-07,9.883320631194909e-06
3.651585008045324e-07,2.6649505468535904e-07,5.722804163222766e-07,9.918451702535938e-06
3.6442076544894684e-07,2.6755538156527037e-07,5.620915064859893e-07,9.956840519229434e-06
3.6359703079005397e-07,2.686970551172609e-07,5.518176944822681e-07,9.998013458562525e-06
3.627008880304293e-07,2.6991343813066345e-07,5.414722617233502e-07,1.0041410617124444e-05
3.6174886034548453e-07,2.711988945641243e-07,5.310741337891159e-07,1.0086391390603696e-05
3.6075861902114255e-07,2.725491967503517e-07,5.206524419039632e-07,1.0132261283258984e-05
3.5974589443080896e-07,2.739602091868792e-07,5.102469405206478e-07,1.0178354781787673e-05
3.587228037975913e-07,2.754268262818929e-07,4.999028417989242e-07,1.0224142191547303e-05
3.576982621852444e-07,2.7694288104518964e-07,4.896641690518135e-07,1.026924950467344e-05
3.5667855064476717e-07,2.785010296995945e-07,4.795700562316056e-07,1.0313365383293487e-05
3.556672244877604e-07,2.800924059490244e-07,4.6965478363182793e-07,1.0356157386769806e-05
3.5466476606648563e-07,2.8170662795509465e-07,4.5994915766904935e-07,1.0397287422949079e-05
3.536685984435777e-07,2.833320215892552e-07,4.504812166437546e-07,1.0436486610969162e-05
3.526735916993258e-07,2.849557661316381e-07,4.4127632649995744e-07,1.0473594101716254e-05
3.516733997400745e-07,2.86563877493247e-07,4.3235657546041096e-07,1.0508506701110962e-05
3.506630349113625e-07,2.881410298965525e-07,4.2373970231719397e-07,1.0541092168674698e-05
3.496405463905632e-07,2.8967066342297093e-07,4.1543903948229254e-07,1.0571151154458597e-05
3.486055414887439e-07,2.9113564219227443e-07,4.074649786820316e-07,1.0598429118854151e-05
3.4755659009414876e-07,2.925192563725825e-07,3.998278177561981e-07,1.0622626393958276e-05
3.464905302656073e-07,2.9380618920418465e-07,3.925420259135789e-07,1.0643391454093297e-05
3.454031889342812e-07,2.9498302813105287e-07,3.856311141605682e-07,1.0660319442343733e-05
3.4428986006249535e-07,2.960380933033755e-07,3.791318982013332e-07,1.0672963104883153e-05
3.431454161017056e-07,2.969611217786175e-07,3.730955756087172e-07,1.0680852052652432e-05
3.4196442287260696e-07,2.977441756811368e-07,3.6758227074400657e-07,1.068352350086735e-05
3.4074140005533054e-07,2.983841768428661e-07,3.626511086829669e-07,1.068055181632654e-05
3.3947099459172177e-07,2.9888463600008467e-07,3.5835225599344725e-07,1.0671556983389874e-05
3.38147870137599e-07,2.992543071237269e-07,3.547232662317784e-07,1.0656199856930822e-05
3.3676744794569807e-07,2.995047211149121e-07,3.517881964720287e-07,1.0634191046781163e-05
3.3532771906851105e-07,2.996485758819993e-07,3.495590616143509e-07,1.0605349667534993e-05
3.338297451444289e-07,2.996981607130957e-07,3.480387733549479e-07,1.0569704870141713e-05
3.32276632990804e-07,2.996641001222159e-07,3.472227592587959e-07,1.0527532412364546e-05
3.306740753624993e-07,2.995556316739021e-07,3.47098656342477e-07,1.0479274794922668e-05
3.290324976624077e-07,2.993822639352837e-07,3.476465725922315e-07,1.0425441628735393e-05
3.273673611860421e-07,2.99154917736775e-07,3.48840559193876e-07,1.0366551438526252e-05
3.2569725228896926e-07,2.98885742757649e-07,3.5065015400695484e-07,1.0303088449082742e-05
3.2404252666181245e-07,2.98588307449675e-07,3.5304294550236844e-07,1.0235471709197516e-05
3.224252405095972e-07,2.982778598004837e-07,3.5598823487002047e-07,1.0164063783915764e-05
3.2086884713785354e-07,2.979703450824395e-07,3.5945863045424796e-07,1.0089213354512061e-05
3.1939706379897484e-07,2.97680842635518e-07,3.6342867051104887e-07,1.0011290674915698e-05
3.1803254168806736e-07,2.9742171319728725e-07,3.678739149241869e-07,9.930687943147032e-06
3.167956588466804e-07,2.9720099567801514e-07,3.727728559396169e-07,9.847786000238803e-06
3.157038916766908e-07,2.970223299529361e-07,3.781089460854936e-07,9.762908510039847e-06
3.147717455104567e-07,2.9688611592894664e-07,3.838689522527144e-07,9.676295020134633e-06
3.1401021990211205e-07,2.967905910346435e-07,3.900384043516321e-07,9.588106562573016e-06
3.1342615606452194e-07,2.967320738809784e-07,3.965975829183446e-07,9.498441832194957e-06
3.130225485348905e-07,2.9670489369661585e-07,4.0352006666360974e-07,9.407344957537153e-06
3.127998117514521e-07,2.9670203265661826e-07,4.107736163139864e-07,9.314817964066118e-06
3.1275753393786357e-07,2.967161250807553e-07,4.183217825293645e-07,9.220848278153568e-06
3.12895201915017e-07,2.967400683165323e-07,4.261247041337098e-07,9.125438521829919e-06
3.13210839424688e-07,2.967673852634357e-07,4.341387156397964e-07,9.028622431164894e-06
3.136996345486798e-07,2.9679316653230536e-07,4.4231586577464545e-07,8.93046636527469e-06
3.1435395153105693e-07,2.968167763611109e-07,4.506045234020084e-07,8.831069532764568e-06
3.1516324664083987e-07,2.968444989317893e-07,4.589506129114253e-07,8.73056766384187e-06
3.161137207489391e-07,2.968888137921112e-07,4.672984812293128e-07,8.629133531354209e-06
3.1718965535724765e-07,2.9696545312870265e-07,4.755922209652426e-07,8.526971022074972e-06
3.183770920387583e-07,2.970907578777412e-07,4.837783484788425e-07,8.424307309510729e-06
3.1966650614959394e-07,2.9727971010095445e-07,4.91808468607021e-07,8.32139347471516e-06
3.210508980591937e-07,2.975450729315937e-07,4.996414844333646e-07,8.218506664941769e-06
3.225220384023397e-07,2.978975392605737e-07,5.072452061317437e-07,8.11592598498585e-06
3.240691343267188e-07,2.983455568734792e-07,5.145948878425425e-07,8.013889865671671e-06
3.25679506379927e-07,2.988942001752064e-07,5.216688822658464e-07,7.912579413957716e-06
3.2733994885072425e-07,2.995441079913973e-07,5.284452984110166e-07,7.81214992976205e-06
3.29038016467905e-07,3.002917470242459e-07,5.349014653228393e-07,7.712802049143878e-06
3.3076273679571837e-07,3.011309032623201e-07,5.41014443020638e-07,7.614837366441313e-06
3.3250553283019536e-07,3.0205420834168446e-07,5.467612655925171e-07,7.518629019685935e-06
3.342603386360561e-07,3.0305384215791094e-07,5.521207086303385e-07,7.424538074465689e-06
3.360212958975341e-07,3.041217564945232e-07,5.570772426560453e-07,7.332863648944962e-06
3.377801435060279e-07,3.052501913544276e-07,5.616233882070429e-07,7.2438518393474424e-06
3.395257305808352e-07,3.064320519726855e-07,5.657576532889304e-07,7.1577396371970595e-06
3.412448245347361e-07,3.0766024711574513e-07,5.694802185440203e-07,7.074788352236238e-06
3.4292277382877023e-07,3.089269365227411e-07,5.727902930219514e-07,6.995276666200314e-06
3.445439140072197e-07,3.102236755859102e-07,5.756864963620839e-07,6.919479921507795e-06
3.4609184830051017e-07,3.115414620057961e-07,5.781678784758927e-07,6.847656873636196e-06
3.475496454818959e-07,3.1287031901661785e-07,5.80233208562221e-07,6.7800319852896274e-06
3.489003227889132e-07,3.1419919219482496e-07,5.818795407551258e-07,6.71677200804647e-06
3.501275573480184e-07,3.1551614287464065e-07,5.83102373474674e-07,6.657971382484816e-06
3.512159330201699e-07,3.168089605703733e-07,5.838979621837765e-07,6.603655015405073e-06
3.521505816592775e-07,3.1806630514987346e-07,5.842663526812754e-07,6.553788739335724e-06
3.5291702037747134e-07,3.192782968658685e-07,5.84213425757306e-07,6.508288180770558e-06
3.535018718179829e-07,3.204364912143273e-07,5.837506959849564e-07,6.46702499288561e-06
3.5389390074547773e-07,3.2153390871263453e-07,5.828925296132333e-07,6.429825063821646e-06
3.540845738409443e-07,3.225642365410186e-07,5.816525566938193e-07,6.396462405170799e-06
3.540681035127865e-07,3.235201713264824e-07,5.800415776796005e-07,6.3666584900003925e-06
3.5384072125509977e-07,3.243924954527577e-07,5.780674087615932e-07,6.340094485377736e-06
3.5339941883218005e-07,3.25170186654875e-07,5.757359136518868e-07,6.316467866241913e-06
3.5274120309412854e-07,3.258412297066812e-07,5.730526530136302e-07,6.295601539532938e-06
3.518633456253664e-07,3.263941889718052e-07,5.700251254646195e-07,6.277513352654367e-06
3.507643395001425e-07,3.268193895581139e-07,5.666655077216086e-07,6.262370704652074e-06
3.4944451036965925e-07,3.2710895551274164e-07,5.629922800025846e-07,6.250384142699863e-06
3.4790578740563695e-07,3.272566466484173e-07,5.590292400603025e-07,6.241718455202469e-06
3.4615154076708716e-07,3.272575894101367e-07,5.548033859335824e-07,6.236459158697502e-06
3.4418687976540377e-07,3.271074815144424e-07,5.503429227714342e-07,6.23462953747652e-06
3.4201916985349845e-07,3.2680188920378836e-07,5.456756527575158e-07,6.236200373827324e-06
3.39658127382941e-07,3.263362025155273e-07,5.408311932182011e-07,6.2410679891691416e-06
3.371148050774079e-07,3.2570602255959946e-07,5.358479683546318e-07,6.2490404620916314e-06
3.344005886374505e-07,3.249074270376885e-07,5.307775933150544e-07,6.259847422516242e-06
3.31526846564415e-07,3.239373772382909e-07,5.256805483169259e-07,6.273151689727259e-06
3.2850433141209487e-07,3.227947681110864e-07,5.206167797789425e-07,6.288558255808969e-06
3.253428894360042e-07,3.214808486409078e-07,5.156385804892611e-07,6.3056322175608295e-06
3.2205216194334536e-07,3.199981963439373e-07,5.107885502362548e-07,6.3239213031432684e-06
3.1864213027043125e-07,3.183497422187629e-07,5.061012723315468e-07,6.342968845165099e-06
3.151227423225811e-07,3.1653836819317715e-07,5.016058063174733e-07,6.362328244554861e-06
3.1150354867587534e-07,3.1456657236559763e-07,4.97325767745734e-07,6.3815935095291085e-06
3.0779412511811966e-07,3.1243722004791145e-07,4.932774332937636e-07,6.400414377374222e-06
3.040045499855504e-07,3.101558160889097e-07,4.89469256278116e-07,6.418469888102216e-06
3.00145046141138e-07,3.0773227846376856e-07,4.859033156760946e-07,6.435435712502299e-06
2.962252110177892e-07,3.051805411413108e-07,4.825765942447439e-07,6.450982780659024e-06
2.922539392980043e-07,3.0251665239798877e-07,4.794813208768961e-07,6.4648013761672825e-06
2.882406301359649e-07,2.997567457973933e-07,4.766054646990651e-07,6.476621589004267e-06
2.841969828050829e-07,2.9691599546434803e-07,4.7393376808794316e-07,6.4862079563839485e-06
2.8013762521317896e-07,2.94009222654712e-07,4.714486737504057e-07,6.493339845358541e-06
2.760788164741753e-07,2.910517490541768e-07,4.6913167192529963e-07,6.497801812070526e-06
2.7203621727360285e-07,2.880586544596692e-07,4.6696541053497715e-07,6.499386481182078e-06
2.680234079670948e-07,2.850434364198021e-07,4.649344704157014e-07,6.4979029061749236e-06
2.6405246497125174e-07,2.8201762166909735e-07,4.6302384620751116e-07,6.493192036251322e-06
2.601356762958219e-07,2.789909845282235e-07,4.6121782179929897e-07,6.485147071407517e-06
2.5628592417606174e-07,2.759718747454649e-07,4.595005375843649e-07,6.473723229375247e-06
2.5251542020692676e-07,2.729677265722972e-07,4.578559075333562e-07,6.458935566628329e-06
2.4883523037525355e-07,2.699852498397887e-07,4.5626657550447177e-07,6.4408620401169464e-06
2.4525717795860226e-07,2.670298211670507e-07,4.547143005423008e-07,6.419645173103442e-06
2.417958931917253e-07,2.641049087177147e-07,4.5318165371700476e-07,6.39546354803742e-06
2.3846817204921233e-07,2.612121857993419e-07,4.5165446817530184e-07,6.368482900019639e-06
2.352906108262391e-07,2.58351959177758e-07,4.5012491173209135e-07,6.338832717849436e-06
2.3227755441006922e-07,2.5552438478515674e-07,4.485912526471174e-07,6.306626192958672e-06
2.294403764315382e-07,2.5273175712500865e-07,4.4705308862747746e-07,6.2720139877728365e-06
2.2678910361712336e-07,2.499796236593038e-07,4.455073979731089e-07,6.23526028243411e-06
2.2433484752684775e-07,2.47275177627047e-07,4.4394807002100154e-07,6.1968007057699225e-06
2.220897332950552e-07,2.446250589561728e-07,4.423668273185912e-07,6.1572230712068925e-06
2.2006436502345747e-07,2.420345744361707e-07,4.4075406796647005e-07,6.117173069362275e-06
2.1826561352814522e-07,2.3950778836995977e-07,4.3910032139168117e-07,6.077257226574644e-06
2.166959341436964e-07,2.370477047324935e-07,4.3739868504663926e-07,6.038011796296122e-06
2.1535354892622093e-07,2.346563529741149e-07,4.3564634165245495e-07,5.999964855382269e-06
2.1423327265531894e-07,2.3233460559567533e-07,4.3384465278520977e-07,5.963752782362929e-06
2.133280690944138e-07,2.3008203700204573e-07,4.319989358237694e-07,5.930189257593838e-06
2.1263046552145642e-07,2.2789711428823513e-07,4.3011734961583044e-07,5.900224623890903e-06
2.121330535323775e-07,2.2577757698138727e-07,4.2820889402641245e-07,5.874838229858402e-06
2.1182850034965586e-07,2.237212492525077e-07,4.262817247674354e-07,5.854947675214124e-06
2.1170933959669023e-07,2.2172692331869077e-07,4.2434241648507526e-07,5.841376753355334e-06
2.1176744979384736e-07,2.1979420207883763e-07,4.223964126912269e-07,5.8348542092636424e-06
2.119935852021473e-07,2.1792277837574395e-07,4.2045012833679673e-07,5.836006735258426e-06
2.1237680642237839e-07,2.161123920361806e-07,4.185144166208677e-07,5.845372047250842e-06
2.1290409811734122e-07,2.1436298812786943e-07,4.1660567825346176e-07,5.8634983433874865e-06
2.1356121792434163e-07,2.126745114990465e-07,4.147423678089039e-07,5.891129671916268e-06
2.1433375725065477e-07,2.1104753031337825e-07,4.1294158568550283e-07,5.929324707002113e-06
2.152071102106798e-07,2.094844800336536e-07,4.112193619168392e-07,5.979364886553622e-06
2.161667164750386e-07,2.0798917764546058e-07,4.095916020654906e-07,6.042524686601672e-06
2.171992545697965e-07,2.0656501961539444e-07,4.080734286433003e-07,6.119871175891177e-06
2.182930842269996e-07,2.0521431575222212e-07,4.066802502470443e-07,6.212203810639718e-06
2.1943746659979693e-07,2.0393857038701728e-07,4.0543318494460676e-07,6.320198112866939e-06
2.206219200546432e-07,2.027384751308407e-07,4.0436438277016366e-07,6.444658296591667e-06
2.2183676887751352e-07,2.0161430870701922e-07,4.035164005039606e-07,6.586635665850795e-06
2.230745683012365e-07,2.005676443248409e-07,4.029362894578826e-07,6.747330456442333e-06
2.243305713340311e-07,1.9960260762218333e-07,4.026686638631311e-07,6.9279171572845654e-06
2.256019602003529e-07,1.9872471013132738e-07,4.027509926707133e-07,7.129404732881993e-06
2.26887664255106e-07,1.9793909225616587e-07,4.032132377909039e-07,7.3525411174938535e-06
2.2818831162755853e-07,1.9725017905678362e-07,4.0408158579101594e-07,7.597753159139383e-06
2.295046691306187e-07,1.9666155074298e-07,4.053827788674853e-07,7.865117872298238e-06
2.308356704737721e-07,1.961755714228049e-07,4.0714486906259045e-07,8.154358637472284e-06
2.321778024227119e-07,1.957936942857409e-07,4.093938850698597e-07,8.464866725168712e-06
2.335256991060007e-07,1.9551644707508851e-07,4.121507493381535e-07,8.795749559719895e-06
2.3487344163050607e-07,1.953426116935802e-07,4.154310911507569e-07,9.145875628677769e-06
2.362163532147025e-07,1.9526949077846661e-07,4.192446736768504e-07,9.51387642407918e-06
2.3755232467341728e-07,1.9529419325858125e-07,4.235921827927082e-07,9.898118043206965e-06
2.3888175698935e-07,1.9541400496682786e-07,4.284627930655271e-07,1.0296697369490567e-05
2.402065621240466e-07,1.956260279096779e-07,4.3383558853574935e-07,1.0707501547545099e-05
2.415291378811087e-07,1.959273156175147e-07,4.39682917911512e-07,1.112831675577048e-05
2.4285162078797943e-07,1.96315466856676e-07,4.4597201491516686e-07,1.1556926113318765e-05
2.441755301199389e-07,1.9678878111794537e-07,4.526647772899825e-07,1.1991151632976433e-05
2.455021304621121e-07,1.9734556015133122e-07,4.5971853903668366e-07,1.2428860215062503e-05
2.4683405170930446e-07,1.9798316490356559e-07,4.670881995568454e-07,1.2867967621838744e-05
2.4817742544092715e-07,1.9869751004102053e-07,4.747281391403627e-07,1.3306433389894118e-05
2.4954176891378005e-07,1.9948284248525493e-07,4.825940200343654e-07,1.3742237793143805e-05
2.5093666849765905e-07,2.0033158949450568e-07,4.906440863198658e-07,1.4173351964195264e-05
2.5236844064518556e-07,2.012352187340515e-07,4.988384104862136e-07,1.4597714044846897e-05
2.538397011426246e-07,2.021861746791132e-07,5.071364318622759e-07,1.501323746563609e-05
2.553507878752055e-07,2.0317849134918317e-07,5.154953661763761e-07,1.5417868990277382e-05
2.569005997974124e-07,2.0420662039155034e-07,5.238715575304735e-07,1.580965110949839e-05
2.5848626138758266e-07,2.052650626311948e-07,5.322224766928982e-07,1.6186730034009014e-05
2.6010241120885727e-07,2.063491927243536e-07,5.405056781473364e-07,1.6547331993539992e-05
2.617412296529449e-07,2.07455354469077e-07,5.486769967028344e-07,1.6889759328352397e-05
2.6339401841955484e-07,2.0857990849233085e-07,5.566925200425258e-07,1.7212405337083106e-05
2.6505330557415745e-07,2.0971924788786745e-07,5.645126813593661e-07,1.7513770911707693e-05
2.667131507056244e-07,2.1087199504671066e-07,5.721037887924346e-07,1.7792481867474828e-05
2.683678666273993e-07,2.120405749715028e-07,5.794368072516072e-07,1.8047311217902152e-05
2.700115088401731e-07,2.1322937316619386e-07,5.864865795869106e-07,1.8277206154861504e-05
2.7163822053894855e-07,2.1444155905437623e-07,5.932322727296589e-07,1.848131406805323e-05
2.732418598505743e-07,2.1567734939671736e-07,5.996562006297823e-07,1.8659004924832096e-05
2.748151181963936e-07,2.1693357882703729e-07,6.057405270595822e-07,1.880990052382641e-05
2.7634992311274056e-07,2.1820406789429174e-07,6.114653053601091e-07,1.8933934415799747e-05
2.77839536489783e-07,2.194807608363981e-07,6.168084836826255e-07,1.9031411509598364e-05
2.7927994379018306e-07,2.207550636031228e-07,6.217461973356446e-07,1.910297169471868e-05
2.8066868541615764e-07,2.220186803314655e-07,6.262539206809629e-07,1.91494435601374e-05
2.8200284950682346e-07,2.2326410227384838e-07,6.303088853867671e-07,1.917169770361417e-05
2.832784156763833e-07,2.244854713791077e-07,6.338927421349812e-07,1.917058443671577e-05
2.844912274651891e-07,2.25679378217731e-07,6.369940004091882e-07,1.914693521801828e-05
2.856384828401313e-07,2.2684456548135122e-07,6.39609365975175e-07,1.910157162238241e-05
2.867187878429626e-07,2.2798065521864385e-07,6.417430035455554e-07,1.903530755308505e-05
2.877308644475302e-07,2.290868696052789e-07,6.434043205907425e-07,1.8949003360698968e-05
2.886733568348085e-07,2.301621938466299e-07,6.446046547830374e-07,1.884372705767642e-05
2.895462397344166e-07,2.3120702659028477e-07,6.453538623477189e-07,1.872091093033652e-05
2.903515735026145e-07,2.3222380334083928e-07,6.456592406278215e-07,1.8582328375240647e-05
2.910926793278199e-07,2.332154936113325e-07,6.455266072776811e-07,1.8429909001314083e-05
2.917730508049396e-07,2.341838007729423e-07,6.449621121036216e-07,1.826553281067677e-05
2.9239558111267466e-07,2.3512826927260875e-07,6.439748422107203e-07,1.8090927818151767e-05
2.92962601871632e-07,2.360463571554965e-07,6.425782240473017e-07,1.790777973884338e-05
2.9347756457760813e-07,2.369343706198216e-07,6.407883396339453e-07,1.771799922739504e-05
2.9394713276212905e-07,2.377881868909421e-07,6.386216090904116e-07,1.7523881949221348e-05
2.9438171563535533e-07,2.386031197613498e-07,6.360941637057593e-07,1.732801362629339e-05
2.947939051286336e-07,2.393737836236368e-07,6.332219202345001e-07,1.7133057741593384e-05
2.951958081630691e-07,2.400951028232284e-07,6.300198848233073e-07,1.6941588528826434e-05
2.955972922370073e-07,2.407643592840547e-07,6.265010143473496e-07,1.675598713560674e-05
2.9600626325019443e-07,2.4138183088650604e-07,6.226754441674222e-07,1.657837250456533e-05
2.964303286072462e-07,2.4194909183530414e-07,6.185501999626456e-07,1.6410561555580584e-05
2.968783361844428e-07,2.4246740812558226e-07,6.141298555200496e-07,1.6254058619297934e-05
2.973611079939784e-07,2.429375222766564e-07,6.094180693072218e-07,1.611006339737427e-05
2.978920520940536e-07,2.433607421041545e-07,6.044189224568039e-07,1.5979487823590432e-05
2.984871983758118e-07,2.4374109125473084e-07,5.991375078310007e-07,1.586297522060737e-05
2.9916337620729104e-07,2.4408701062500324e-07,5.9357989778705e-07,1.576090272483065e-05
2.9993566098070867e-07,2.4441094687762306e-07,5.877534729525691e-07,1.5673364777958914e-05
3.0081623309472905e-07,2.447267103189656e-07,5.816682040730514e-07,1.5600176253111152e-05
3.018142481634328e-07,2.4504673748325565e-07,5.753369459543559e-07,1.554092410040896e-05
3.0293511320005816e-07,2.45381845254248e-07,5.687733519360103e-07,1.5495054632406922e-05
3.0417962329795826e-07,2.4574283607673827e-07,5.6198944752913e-07,1.546196482548917e-05
3.0554411891181056e-07,2.461408669987524e-07,5.549947943141919e-07,1.5441064092078094e-05
3.070215270184777e-07,2.4658601016329103e-07,5.477968638274767e-07,1.5431801527305927e-05
3.0860335402120625e-07,2.4708660901180267e-07,5.404018302563483e-07,1.5433689501897573e-05
3.102820622520686e-07,2.476500628550273e-07,5.328153320652004e-07,1.5446332409513463e-05
3.120525600720631e-07,2.4828259896793965e-07,5.250430210253761e-07,1.5469433542924113e-05
3.13913778949198e-07,2.489876242502448e-07,5.170909025155998e-07,1.5502768507139834e-05
3.158695262400361e-07,2.497646501297985e-07,5.08965337103906e-07,1.5546134532914895e-05
3.179253996065978e-07,2.5060931324742657e-07,5.006732380267257e-07,1.5599282068896415e-05
3.200841557767378e-07,2.515144395695238e-07,4.922232191648673e-07,1.5661857877902733e-05
3.2234395076321586e-07,2.524724565510594e-07,4.83626470641286e-07,1.573340129441572e-05
3.246985492622773e-07,2.5347719052040983e-07,4.748962475776927e-07,1.5813374473777842e-05
3.2713844408843603e-07,2.5452322913325665e-07,4.660474273524045e-07,1.5901179782279818e-05
3.296533973855467e-07,2.556047660216647e-07,4.5709647200809477e-07,1.5996168240248227e-05
3.322337852938265e-07,2.567154805266588e-07,4.480606062335676e-07,1.6097658658659506e-05
3.3486952566078417e-07,2.578489282962343e-07,4.389569370163149e-07,1.6204953802018902e-05
3.3754941648531536e-07,2.5899936411928336e-07,4.298026446261525e-07,1.631731627260528e-05
3.4026116164702817e-07,2.6016183211360877e-07,4.206154480593892e-07,1.6433906590173708e-05
3.4299091819948306e-07,2.6133112220882826e-07,4.114131769267769e-07,1.6553748548990248e-05
3.457235158442129e-07,2.6250203040395396e-07,4.0221344893158564e-07,1.6675744036732574e-05
3.4844343415315423e-07,2.6367056870765e-07,3.930351560922377e-07,1.679869105595874e-05
3.511355515714572e-07,2.6483377592384074e-07,3.8390002778502996e-07,1.6921303287929323e-05
3.5378596293360904e-07,2.6598916047817714e-07,3.7483142167349246e-07,1.7042286095656884e-05
3.563824882691414e-07,2.671349438441648e-07,3.6585185955019494e-07,1.71604595257395e-05
3.589140787968872e-07,2.6826995401295034e-07,3.5698253569174025e-07,1.727482651318882e-05
3.613703412441617e-07,2.6939273564118126e-07,3.482453066284482e-07,1.7384529227672738e-05
3.637422359903914e-07,2.7050083870393553e-07,3.3966579155840075e-07,1.7488746990393395e-05
3.660227728895103e-07,2.715906052370172e-07,3.312753572486608e-07,1.7586615291340705e-05
3.6820614325685456e-07,2.72657165458367e-07,3.231099842178542e-07,1.767720182410829e-05
3.7028605268002096e-07,2.73695086672228e-07,3.1520664283594033e-07,1.775952747944962e-05
3.7225548149217685e-07,2.746997217395734e-07,3.075996757739734e-07,1.7832613697022892e-05
3.741072750557037e-07,2.7566781467317805e-07,3.003185763323669e-07,1.7895582993620983e-05
3.758339812999307e-07,2.765963373382361e-07,2.933874928212593e-07,1.7947841145208125e-05
3.7742786592803047e-07,2.7748107074153646e-07,2.868270602025228e-07,1.7989242390201572e-05
3.788814766959331e-07,2.783174876683324e-07,2.806586258958729e-07,1.8020076993698865e-05
3.8018740685902e-07,2.791040878296803e-07,2.749079075902568e-07,1.8040892308889867e-05
3.8133742809087937e-07,2.798456586652863e-07,2.696040347592283e-07,1.8052295140701252e-05
3.8232283000732275e-07,2.8055348251678336e-07,2.647748353055469e-07,1.8054835547800562e-05
3.8313578320936153e-07,2.8124200241134964e-07,2.6044329900844e-07,1.8049044804583325e-05
3.83770203839523e-07,2.8192526897838544e-07,2.566280829275314e-07,1.8035647103489346e-05
3.842221406701018e-07,2.826151391986553e-07,2.5334580913222943e-07,1.8015771194953898e-05
3.8448941531388407e-07,2.833202681007474e-07,2.506120731088884e-07,1.7990954485665085e-05
3.8457026609153633e-07,2.840466666039821e-07,2.4844399403921016e-07,1.7962971931477302e-05
3.844629038169777e-07,2.847993125213466e-07,2.468671894991713e-07,1.7933647558393364e-05
3.8416721313867325e-07,2.855820311047085e-07,2.459212145630697e-07,1.790470968587002e-05
3.836864635421537e-07,2.863964568328664e-07,2.456564943701522e-07,1.7877682375503374e-05
3.8302644016203366e-07,2.872421180980673e-07,2.461252203447381e-07,1.7853818083093455e-05
3.82193074975701e-07,2.88117074739274e-07,2.473730501282649e-07,1.783407311087134e-05
3.811911470779212e-07,2.890185004833489e-07,2.4943416393047574e-07,1.7819099370223215e-05
3.8002415869864175e-07,2.8994283717080624e-07,2.523302266691199e-07,1.7809234257092794e-05
3.786944542042717e-07,2.908849857125859e-07,2.5607363260068266e-07,1.7804500247992777e-05
3.7720343423663065e-07,2.918376548075428e-07,2.606717653032776e-07,1.7804630369584345e-05
3.755522169314485e-07,2.927917337717576e-07,2.661289464042706e-07,1.7809127734655842e-05
3.7374270216559416e-07,2.937370673124053e-07,2.7244674759983685e-07,1.781734524030279e-05
3.717780070170301e-07,2.9466379716845217e-07,2.7962407473233285e-07,1.7828560330489787e-05
3.696619581047614e-07,2.9556396873617013e-07,2.87656730836194e-07,1.7842044261800486e-05
3.6739909912190756e-07,2.9643187610372945e-07,2.965355377366429e-07,1.785712323983172e-05
3.649956087849046e-07,2.972630998199113e-07,3.062435601357981e-07,1.787319986261911e-05
3.624592911885121e-07,2.980530689096352e-07,3.1675484423524754e-07,1.7889728996205325e-05
3.597988837104197e-07,2.987957328749872e-07,3.280358834141125e-07,1.790618740744243e-05
3.5702529510851174e-07,2.994833802262483e-07,3.400482691814212e-07,1.7922056429683028e-05
3.541536960530452e-07,3.0010747557671827e-07,3.5275061783568847e-07,1.7936800742970102e-05
3.512025258675797e-07,3.006590251283958e-07,3.660985370785106e-07,1.7949835464217394e-05
3.481898994102871e-07,3.011284974968689e-07,3.8004245776334617e-07,1.796049498134343e-05
3.451313987161624e-07,3.015065320746257e-07,3.945255003891169e-07,1.7968031383895602e-05
3.420402107121659e-07,3.0178521325117e-07,4.0948318243724115e-07,1.7971677257447197e-05
3.3892771621359074e-07,3.0195903942356575e-07,4.2484397315217815e-07,1.797075955396149e-05
3.3580344683659674e-07,3.020253661862727e-07,4.405301380968672e-07,1.796477751955326e-05
3.326747895981162e-07,3.019836437872024e-07,4.5646014903663863e-07,1.7953390759417807e-05
3.2954707858569e-07,3.0183372063353304e-07,4.725530408751153e-07,1.7936363658439068e-05
3.264246235019849e-07,3.0157544087984966e-07,4.887334958800405e-07,1.7913525672462224e-05
3.2331283566144836e-07,3.01209756303448e-07,5.049355357193538e-07,1.7884756903542247e-05
3.202197408400415e-07,3.007392166502615e-07,5.211033622586168e-07,1.784997316561888e-05
3.1715507229011284e-07,3.001671675721655e-07,5.371899251186235e-07,1.780910371921335e-05
3.1412829046165674e-07,2.9949703834731284e-07,5.531532363765928e-07,1.7762118375105034e-05
3.1114802988595874e-07,2.9873363060085866e-07,5.689507369558996e-07,1.7709121676979764e-05
3.082230247298891e-07,2.97885815470408e-07,5.845352509444392e-07,1.7650416773015397e-05
3.0536321101748877e-07,2.9696799366366267e-07,5.998542990220019e-07,1.7586474596895418e-05
3.025802955515513e-07,2.959995180611054e-07,6.148506888899771e-07,1.7517859881080746e-05
2.998867933848405e-07,2.9500200902905303e-07,6.294634733395145e-07,1.744517089558523e-05
2.9729398213689077e-07,2.939954269847527e-07,6.436294678819534e-07,1.736898550618841e-05
2.948116912138321e-07,2.929960269709133e-07,6.572847601093714e-07,1.7289797966565634e-05
2.924502098551143e-07,2.9201706742710826e-07,6.703665547301812e-07,1.7207994397335182e-05
2.9022132954062986e-07,2.9106987407649734e-07,6.828153977933847e-07,1.7123900275017284e-05
2.8813857843559777e-07,2.901639164469492e-07,6.945760504316086e-07,1.7037818352730012e-05
2.862195105583747e-07,2.893065246036069e-07,7.05596814699648e-07,1.6949989221828807e-05
2.844893824267448e-07,2.8850271613998514e-07,7.158291572798415e-07,1.6860538917379595e-05
2.829822847262617e-07,2.8775480221411645e-07,7.252282985769544e-07,1.6769523495283626e-05
2.8173797805169485e-07,2.870619807240737e-07,7.33754230313525e-07,1.6677120634115632e-05
2.8079676219542705e-07,2.8642068133575e-07,7.413725921509849e-07,1.6583848246275348e-05
2.801956004009532e-07,2.8582519390146576e-07,7.480546370801212e-07,1.6490579560026896e-05
2.799656316007349e-07,2.8526808804539425e-07,7.537765510409295e-07,1.6398364029485448e-05
2.801303797750057e-07,2.847414604027755e-07,7.585204116452652e-07,1.6308284614256178e-05
2.807075322822693e-07,2.842389010524613e-07,7.622777065450939e-07,1.622140505952312e-05
2.8171532577861147e-07,2.8375627250209897e-07,7.650524677475148e-07,1.6138721726955506e-05
2.83177030735468e-07,2.832909508428967e-07,7.668605782352491e-07,1.606111650882462e-05
2.851186282556232e-07,2.828410173866611e-07,7.677255130365504e-07,1.5989322171806776e-05
2.8756406295796386e-07,2.824050078858141e-07,7.676738556284515e-07,1.592388354658532e-05
2.905332904703649e-07,2.819821403383059e-07,7.667323216245813e-07,1.5865125093806094e-05
2.940427402780463e-07,2.8157289888568304e-07,7.649260562907573e-07,1.5813150338052512e-05
2.981067372575028e-07,2.811792376780135e-07,7.622787584286097e-07,1.5767868772300248e-05
3.02739539405697e-07,2.8080437316206716e-07,7.588139859201485e-07,1.572902411714066e-05
3.079569073337916e-07,2.804527517313403e-07,7.54555683539273e-07,1.569621703794675e-05
3.1377569116547327e-07,2.801303414652416e-07,7.495282618994177e-07,1.5668935576159923e-05
3.202107552921117e-07,2.7984471157296785e-07,7.437577345748659e-07,1.5646605534083022e-05
3.2727013034856574e-07,2.7960383921320496e-07,7.372730835618084e-07,1.5628650412187647e-05
3.3495075885283927e-07,2.794142950132741e-07,7.301058649598694e-07,1.561451857591989e-05
3.4323691170344605e-07,2.7928030965579536e-07,7.222889348633612e-07,1.5603649330842228e-05
3.521009593875772e-07,2.792035727179888e-07,7.138567893466209e-07,1.559541637827487e-05
3.6150494948989157e-07,2.791833893069884e-07,7.048467618158353e-07,1.5589108532890302e-05
3.714027084296754e-07,2.792173224132574e-07,6.952991823532385e-07,1.5583950496280688e-05
3.8174237010603275e-07,2.7930231006672077e-07,6.85257336141505e-07,1.5579128049203078e-05
3.92468870160652e-07,2.7943587034623077e-07,6.747678881239736e-07,1.5573801209814028e-05
4.035268870722438e-07,2.79616437372655e-07,6.638806745689868e-07,1.5567114462715743e-05
4.148633248035389e-07,2.798430090601788e-07,6.526471889572678e-07,1.555821765862236e-05
4.264266542438101e-07,2.8011605240493953e-07,6.411182480173328e-07,1.5546309657546448e-05
4.381641018393897e-07,2.8043930207447357e-07,6.29342377025628e-07,1.5530701446664718e-05
4.5002010926187117e-07,2.8081934533441803e-07,6.173668396241784e-07,1.5510854043349854e-05
4.6193592552947427e-07,2.812631486176191e-07,6.052413890749287e-07,1.5486345296016332e-05
4.738494199358141e-07,2.817763336376046e-07,5.93021745708895e-07,1.5456789918315148e-05
4.856964948812388e-07,2.823625014625405e-07,5.807689688452301e-07,1.5421797719282158e-05
4.974138331464997e-07,2.83022895825156e-07,5.685443610150975e-07,1.5381033911154115e-05
5.089406679091387e-07,2.8375655803089325e-07,5.564043055907034e-07,1.5334344579300202e-05
5.202193215602451e-07,2.8456088143516267e-07,5.443990134402007e-07,1.5281814944807683e-05
5.311954612880756e-07,2.854323521241718e-07,5.325740681587765e-07,1.5223680210911212e-05
5.418179645112267e-07,2.863667961587146e-07,5.209712378986964e-07,1.5160181565970621e-05
5.520393946002721e-07,2.8735886713854353e-07,5.096275244564996e-07,1.5091491401102247e-05
5.618187460616672e-07,2.8840244107966925e-07,4.98573986170409e-07,1.5017715940855075e-05
5.71124401671826e-07,2.89492497077922e-07,4.878354619875346e-07,1.4938946895544214e-05
5.799326713426932e-07,2.9062600605695176e-07,4.774313409355109e-07,1.4855323256652627e-05
5.882223182684697e-07,2.918009239086765e-07,4.67376999868106e-07,1.4767037068853674e-05
5.959704973006539e-07,2.930151224521309e-07,4.5768505740248526e-07,1.4674283457120935e-05
6.031522857228262e-07,2.942655158527104e-07,4.483668023984145e-07,1.4577226515466751e-05
6.097421925769568e-07,2.955470486308547e-07,4.3943631974569685e-07,1.4476033912670159e-05
6.157162610833663e-07,2.968521842918217e-07,4.3091838058404896e-07,1.4370982059775555e-05
6.210534773114124e-07,2.981711139913196e-07,4.228557196625509e-07,1.4262569713930576e-05
6.257356717599729e-07,2.994933227311778e-07,4.1530871374653357e-07,1.4151542808162107e-05
6.297466225113754e-07,3.008098957215364e-07,4.0834570513679954e-07,1.4038799686479178e-05
6.330718949598093e-07,3.0211374795623104e-07,4.020304336970108e-07,1.3925236103524506e-05
6.356999969361697e-07,3.033976032883953e-07,3.9641450709281134e-07,1.3811611752059307e-05
6.376236231307071e-07,3.046525297966547e-07,3.9153625208246436e-07,1.3698492106426006e-05
6.388401142651018e-07,3.0586802120174365e-07,3.874215322421146e-07,1.3586268595822196e-05
6.393510681344e-07,3.0703236240662553e-07,3.8408381791812073e-07,1.3475221149192245e-05
6.391613942220986e-07,3.081327571805403e-07,3.815244676770589e-07,1.3365600026952385e-05
6.382793939262965e-07,3.0915636244315497e-07,3.797334535061368e-07,1.3257750057539294e-05
6.367176216408284e-07,3.1009229346444987e-07,3.7869086457424977e-07,1.3152255644031206e-05
6.344922657599575e-07,3.1093225465293944e-07,3.7837109892184256e-07,1.304997876857873e-05
6.316213883257286e-07,3.116688822429725e-07,3.7874846646594453e-07,1.2951931641663956e-05
6.281238099087104e-07,3.122941719424462e-07,3.798011391298693e-07,1.2859088861376618e-05
6.24019091152368e-07,3.1279984082604426e-07,3.8151390095986403e-07,1.2772260921443715e-05
6.193281778585114e-07,3.13178374397554e-07,3.8387983590557606e-07,1.2692119209955682e-05
6.140742564654575e-07,3.134229820193164e-07,3.868984324923224e-07,1.26194115162027e-05
6.082834722768469e-07,3.1352695518854985e-07,3.9056988882985724e-07,1.2555209486779526e-05
6.019845364096065e-07,3.134839713853899e-07,3.9488856014953655e-07,1.250094636746429e-05
5.952069627393782e-07,3.1328954576321376e-07,3.998387696166615e-07,1.2458239439268836e-05
5.879795932853185e-07,3.1294228791380284e-07,4.0539476340998494e-07,1.242867871424449e-05
5.803305184235961e-07,3.124438527850075e-07,4.115235551769701e-07,1.2413686645114148e-05
5.722879355938928e-07,3.117981121424944e-07,4.1818756667142e-07,1.2414439586275544e-05
5.638811398432357e-07,3.110107514060504e-07,4.253455589870268e-07,1.2431818434727384e-05
5.551407167014147e-07,3.1008903225590377e-07,4.329528036336728e-07,1.2466376247898586e-05
5.460975484933685e-07,3.0904102704978244e-07,4.4096202335968506e-07,1.2518326583219275e-05
5.367815946181847e-07,3.0787541425945807e-07,4.493240988223421e-07,1.2587553606162087e-05
5.272215975063512e-07,3.066022437463351e-07,4.579874560402085e-07,1.267363265569478e-05
5.17445359151729e-07,3.052331355938428e-07,4.668994147744242e-07,1.2775845748953007e-05
5.074795539656255e-07,3.037803039227264e-07,4.760103556250251e-07,1.2893197077924416e-05
4.973494397850169e-07,3.022557064123835e-07,4.852751928470477e-07,1.302445279490947e-05
4.870795540061056e-07,3.006716332157228e-07,4.946500995701096e-07,1.3168216140371205e-05
4.766947897998832e-07,2.9904160090596017e-07,5.040893258663518e-07,1.332302540826348e-05
4.662207819427363e-07,2.973793472547937e-07,5.135454324126077e-07,1.3487453875258395e-05
4.556841463113884e-07,2.9569678193831393e-07,5.229707312437332e-07,1.3660186108286945e-05
4.4511278010288456e-07,2.9400355930759303e-07,5.323171359437601e-07,1.3840056160553894e-05
4.3453548532139596e-07,2.923082376442992e-07,5.41535239261734e-07,1.4026062922666058e-05
4.239811075606466e-07,2.906191925729184e-07,5.505750366668195e-07,1.4217369098009238e-05
4.134782747744889e-07,2.8894441756395425e-07,5.593886993403167e-07,1.4413257318946594e-05
4.03055691429566e-07,2.872905601850333e-07,5.679329915215211e-07,1.4613028819966406e-05
3.92741684144016e-07,2.8566270062019697e-07,5.761689525617744e-07,1.4815885003869174e-05
3.825629413752217e-07,2.840654753331886e-07,5.840600608117611e-07,1.5020877861565994e-05
3.725434681359886e-07,2.825046154195707e-07,5.915714337666855e-07,1.5226976661731427e-05
3.6270421255615476e-07,2.809885530834368e-07,5.986704147553536e-07,1.5433191209067662e-05
3.5306312795011355e-07,2.795289113820109e-07,6.053285003439596e-07,1.5638649492589554e-05
3.436354726955784e-07,2.781383095681133e-07,6.115237569676633e-07,1.5842591436762932e-05
3.3443479915311587e-07,2.768276503941088e-07,6.172415103694731e-07,1.6044321718099383e-05
