2.8720867224224183e-07,3.790798327700009e-07,6.238342576357175e-07,1.7553102463709954e-05
2.886168413684535e-07,3.76255413274639e-07,6.314692396998789e-07,1.7707938788899722e-05
2.90058848341368e-07,3.733719895518458e-07,6.391423839272247e-07,1.7863408301834744e-05
2.915282137475612e-07,3.7044244681523703e-07,6.468429019789778e-07,1.801839655507493e-05
2.9301684301881964e-07,3.67483857477986e-07,6.545529982095531e-07,1.817175692540008e-05
2.945173235308646e-07,3.645171312832051e-07,6.622484478095052e-07,1.832243000444853e-05
2.9602483871355903e-07,3.615638122430384e-07,6.699001193678938e-07,1.846950995009508e-05
2.9753619153398445e-07,3.5864352498438396e-07,6.774755391536957e-07,1.861221046820408e-05
2.9904820321966763e-07,3.5577289695875245e-07,6.849406765251879e-07,1.8749783819253304e-05
3.005575096853832e-07,3.529647403251831e-07,6.922608304966183e-07,1.888144689869472e-05
3.020601144639846e-07,3.502277263904829e-07,6.993999609535433e-07,1.900637368335829e-05
3.0355068044570606e-07,3.475665230074761e-07,7.063200575611671e-07,1.9123784274314304e-05
3.050229270237646e-07,3.449822353470072e-07,7.129814963922072e-07,1.9233058543665514e-05
3.064703825764381e-07,3.4247356626471647e-07,7.193435864848821e-07,1.9333772193222918e-05
3.078864258159209e-07,3.400377947553299e-07,7.253655785422812e-07,1.9425648219538005e-05
3.092641134463334e-07,3.3767089941655414e-07,7.310083937339755e-07,1.9508480829114253e-05
3.105966804731136e-07,3.353682776558406e-07,7.362351565808613e-07,1.958209682867331e-05
3.118779787411178e-07,3.331264766243589e-07,7.410099457056222e-07,1.964644163001834e-05
3.131021088711201e-07,3.3094404806911375e-07,7.452969659125597e-07,1.9701747143255786e-05
3.1426332779960213e-07,3.288202959697583e-07,7.490612890062436e-07,1.9748554213350808e-05
3.153564073897994e-07,3.2675303656860627e-07,7.522702860224421e-07,1.978753903390163e-05
3.163763985234977e-07,3.247375337453789e-07,7.548956778746644e-07,1.9819384639400657e-05
3.1731774331038697e-07,3.2276719016756694e-07,7.569160710732013e-07,1.984479601688406e-05
3.181735891111821e-07,3.208343731352409e-07,7.583173403714613e-07,1.9864503799303024e-05
3.189361059667491e-07,3.1893042520699073e-07,7.590897999038767e-07,1.987919393086135e-05
3.195970893903677e-07,3.170461793008368e-07,7.592251936253705e-07,1.9889428764820227e-05
3.201482175987648e-07,3.151734517875395e-07,7.587155933726894e-07,1.9895590283596482e-05
3.205821597661004e-07,3.133056098707821e-07,7.575538900227138e-07,1.98978533207702e-05
3.208935331041948e-07,3.1143641767460013e-07,7.557356159921647e-07,1.989620099947673e-05
3.210778309519349e-07,3.095588413204581e-07,7.532609819184735e-07,1.9890478130898613e-05
3.211304708548115e-07,3.0766504592284237e-07,7.501351285145364e-07,1.988044881595328e-05
3.2104763897450986e-07,3.057472108791779e-07,7.463664371862765e-07,1.986582062556004e-05
3.208271612605873e-07,3.037984203572484e-07,7.419653622587434e-07,1.9846230831173206e-05
3.204681559456097e-07,3.0181313940851285e-07,7.369463533360636e-07,1.982122478977933e-05
3.199698776746431e-07,2.997871383622421e-07,7.313314990566771e-07,1.979026002093593e-05
3.19330808786035e-07,2.977172476262536e-07,7.251510770900748e-07,1.9752730211653605e-05
3.185492437160706e-07,2.956019336825777e-07,7.184399899429805e-07,1.970798305227566e-05
3.176256311403759e-07,2.934435953147793e-07,7.112340021950569e-07,1.9655335433355307e-05
3.1656447774343014e-07,2.912511864066068e-07,7.035674061871832e-07,1.959409570150561e-05
3.153732038359768e-07,2.8903985003054786e-07,6.95471572830185e-07,1.952357795196687e-05
3.140592785230968e-07,2.8682734152370853e-07,6.869752877771953e-07,1.9443107975131413e-05
3.1262875863019125e-07,2.8463046320315753e-07,6.781066332143676e-07,1.9352042066365145e-05
3.1108661577121266e-07,2.824637847752709e-07,6.68895217416191e-07,1.924978950011284e-05
3.0943788965238924e-07,2.8034037351922327e-07,6.593750352354719e-07,1.9135818466213707e-05
3.076891860933797e-07,2.782723439596628e-07,6.495867007078034e-07,1.9009662455054832e-05
3.0584962773506305e-07,2.7627044128260887e-07,6.395758294635786e-07,1.887093730605171e-05
3.039310376139347e-07,2.743441098098049e-07,6.293882623447043e-07,1.8719343731715547e-05
3.01948763432192e-07,2.725019516320223e-07,6.190671614154982e-07,1.855465384674748e-05
2.999224483440698e-07,2.707514764762513e-07,6.086544173030319e-07,1.8376708678621525e-05
2.978744054403368e-07,2.690988327772583e-07,5.981933595351768e-07,1.8185439282950614e-05
2.958268661648091e-07,2.675492951140256e-07,5.877289169406981e-07,1.7980927334125685e-05
2.938005855908786e-07,2.661078763799826e-07,5.773053012893035e-07,1.7763496371216468e-05
2.9181505152121285e-07,2.647792502423124e-07,5.669648965727051e-07,1.7533754317104282e-05
2.898893191792257e-07,2.63566924209231e-07,5.567505614387922e-07,1.7292530835041955e-05
2.8804133242181356e-07,2.6247310315269217e-07,5.46708508867679e-07,1.7040754602188806e-05
2.862858823673672e-07,2.6150001738268145e-07,5.368893109456485e-07,1.6779357877630684e-05
2.8463443490707146e-07,2.6065094496174607e-07,5.2734918346105e-07,1.650926007999773e-05
2.830965890714385e-07,2.5993027474220363e-07,5.181510251910369e-07,1.623140268555829e-05
2.816806729574595e-07,2.593437834124002e-07,5.09361219091099e-07,1.594675463407462e-05
2.803938979553761e-07,2.588985797866061e-07,5.010437960630411e-07,1.5656270156630533e-05
2.7924246556352874e-07,2.586013143026661e-07,4.932566682670457e-07,1.536087563492993e-05
2.7823105614601264e-07,2.584555451405051e-07,4.860499618903528e-07,1.5061528584517968e-05
2.773626973330745e-07,2.5846075562056e-07,4.794643167781678e-07,1.47593089563411e-05
2.7664009680133737e-07,2.5861453777170986e-07,4.735293865376399e-07,1.445550969928596e-05
2.7606748097549854e-07,2.589169448645809e-07,4.6826339445441763e-07,1.4151697895582459e-05
2.7565046589200913e-07,2.5937300988455765e-07,4.6367347123594686e-07,1.384968234761701e-05
2.7539335180956996e-07,2.599904591042264e-07,4.597572261474167e-07,1.355136756208254e-05
2.752963548835837e-07,2.6077513994438946e-07,4.565067533481122e-07,1.3258564012341025e-05
2.753551277578424e-07,2.617281358336916e-07,4.5391402853406546e-07,1.2972855279199496e-05
2.755624010752448e-07,2.628453485641746e-07,4.5197324690623045e-07,1.269556405515314e-05
2.7590952686298773e-07,2.6411880065989123e-07,4.5067798956254044e-07,1.2427767695732002e-05
2.7638688870697715e-07,2.6553863005869953e-07,4.500178254909647e-07,1.2170318646559856e-05
2.76984329071205e-07,2.6709406439344174e-07,4.4997837659025104e-07,1.1923905490317329e-05
2.7769176095185716e-07,2.687727677739089e-07,4.505427758604761e-07,1.1689202526280895e-05
2.7849913094497963e-07,2.705602444600391e-07,4.516911992598877e-07,1.1467026856479726e-05
2.793955414114408e-07,2.724405955123942e-07,4.533988814108629e-07,1.1258326453871485e-05
2.8036828855434717e-07,2.743983310969223e-07,4.5563526450378544e-07,1.1064001039345464e-05
2.8140344701645004e-07,2.764208242925445e-07,4.583647448082966e-07,1.0884758771706065e-05
2.8248868907864017e-07,2.7849988636719733e-07,4.615476383091197e-07,1.0721127076893692e-05
2.8361661527752124e-07,2.8063075075845253e-07,4.651406353837643e-07,1.0573606921274634e-05
2.847854152888933e-07,2.8281004264885267e-07,4.6909712885575045e-07,1.0442924063308678e-05
2.859957057256809e-07,2.8503500076016324e-07,4.733681762282636e-07,1.0330222544948e-05
2.872472450088335e-07,2.873032781269289e-07,4.779037464783767e-07,1.0237035657358771e-05
2.885393469138557e-07,2.89612298804354e-07,4.826533805037982e-07,1.016509180171226e-05
2.8987281628448357e-07,2.919585369884025e-07,4.875666070266301e-07,1.0116121880473371e-05
2.912506741611501e-07,2.943372660746001e-07,4.925941260233643e-07,1.0091714462881656e-05
2.9267930394975963e-07,2.967434618004817e-07,4.976888448477325e-07,1.0093186793414805e-05
2.9416923074035466e-07,2.9917352106430305e-07,5.028050657387733e-07,1.0121468597383785e-05
2.9573297135434516e-07,3.016257780724072e-07,5.078975236261618e-07,1.0177021803696988e-05
2.9738227477753937e-07,3.041004373339873e-07,5.129235099387861e-07,1.0259815554766008e-05
2.99127201915642e-07,3.066020552875117e-07,5.178468716714606e-07,1.0369351951435538e-05
3.009761539531307e-07,3.091427358336606e-07,5.226387682436164e-07,1.050472853584789e-05
3.029353173655912e-07,3.1174142138842165e-07,5.2727385559241e-07,1.0664734339166933e-05
3.050068991806776e-07,3.144206044490306e-07,5.317263894711e-07,1.0847960133467551e-05
3.071880897910738e-07,3.172037576775871e-07,5.35969796914791e-07,1.1052886782699992e-05
3.0947250162176517e-07,3.201123250859193e-07,5.399781163827359e-07,1.1277938680284296e-05
3.118525754605764e-07,3.2316236164594715e-07,5.437267678025194e-07,1.1521519348613587e-05
3.1432026162180855e-07,3.2636363339038575e-07,5.471944191097567e-07,1.178204852940503e-05
3.1686574709299456e-07,3.2972022750020127e-07,5.503671043335529e-07,1.2057995953580078e-05
3.194771809545418e-07,3.332305883737887e-07,5.532402061758276e-07,1.2347900761799714e-05
3.2214201481734534e-07,3.36888231882618e-07,5.558162275968997e-07,1.2650385478499628e-05
3.248477742900017e-07,3.4068458331387865e-07,5.581017397467263e-07,1.2964165769699338e-05
3.275833514407263e-07,3.44612815946992e-07,5.601046667461234e-07,1.3288039478962904e-05
3.303419908852447e-07,3.486695607129534e-07,5.618312907882046e-07,1.3620844816814964e-05
3.331228790919284e-07,3.52852485063428e-07,5.632847637234042e-07,1.3961378479572063e-05
3.359292182109539e-07,3.5715638538631883e-07,5.644655480563677e-07,1.4308298566514813e-05
3.38764554692808e-07,3.615730922934606e-07,5.65372348470117e-07,1.4660100908199435e-05
3.4163021702740047e-07,3.6609533149052883e-07,5.66003320654432e-07,1.5015201784668137e-05
3.4452539531588447e-07,3.707182039220512e-07,5.663566365808915e-07,1.5372028037081355e-05
3.474492340081174e-07,3.75436112521345e-07,5.66429478161454e-07,1.5729034637829004e-05
3.504020018272232e-07,3.8024068401754434e-07,5.662168325054917e-07,1.608468715755606e-05
3.5338298640004417e-07,3.8512171356624345e-07,5.657112115758774e-07,1.6437459902186414e-05
3.5638744912092585e-07,3.900670401023768e-07,5.649030832557907e-07,1.6785849854149696e-05
3.594061613361578e-07,3.950613044505744e-07,5.637818895761557e-07,1.71283788389749e-05
3.6242690254842883e-07,4.0008714337458025e-07,5.623383237757576e-07,1.7463557192802208e-05
3.654355406894791e-07,4.0512738377312457e-07,5.605677997661578e-07,1.7789831417504456e-05
3.6841637287005317e-07,4.101643400085186e-07,5.584722952781464e-07,1.8105574993248155e-05
3.7135241918785797e-07,4.151774878272651e-07,5.56058802397126e-07,1.840914466484261e-05
3.742254361144153e-07,4.201433707467865e-07,5.533368948650201e-07,1.869897094694683e-05
3.770156361309169e-07,4.250373845354342e-07,5.503176220183533e-07,1.8973648102911168e-05
3.7970187934845536e-07,4.298347319989e-07,5.470128018192094e-07,1.9231994990871666e-05
3.8226270981968455e-07,4.345103793401165e-07,5.434337008122328e-07,1.947303695973086e-05
3.8467782976420963e-07,4.390391316642978e-07,5.39589791776545e-07,1.969591408687547e-05
3.869289255499847e-07,4.4339612095607946e-07,5.354890104872012e-07,1.989981194402352e-05
3.8899948489311793e-07,4.475578125196541e-07,5.311400068375028e-07,2.0083964013596072e-05
3.9087503164310716e-07,4.51503216313701e-07,5.265547742311396e-07,2.024768179793868e-05
3.925446199588549e-07,4.552150205093482e-07,5.217499818606068e-07,2.039037152935479e-05
3.940018030196583e-07,4.5868097492938976e-07,5.167472731755867e-07,2.051152485997302e-05
3.95243356504104e-07,4.6189497857767077e-07,5.115724652153878e-07,2.0610716863744456e-05
3.962672814375381e-07,4.648565779739362e-07,5.062529459848411e-07,2.0687716802585007e-05
3.970721435587064e-07,4.675689632694515e-07,5.00814483828551e-07,2.0742705250336746e-05
3.9765714273673103e-07,4.7003747399410676e-07,4.952792509537283e-07,2.077637698757295e-05
3.980219420370175e-07,4.72269096715973e-07,4.896654756257742e-07,2.0789808287598244e-05
3.981665524606189e-07,4.742709581757646e-07,4.839883083742739e-07,2.0784225506046128e-05
3.980916543812669e-07,4.760482686741577e-07,4.782605534689335e-07,2.0760825926043525e-05
3.9779909683572175e-07,4.776039501414109e-07,4.7249231578046034e-07,2.072073339001881e-05
3.972921925917083e-07,4.789393675059166e-07,4.666913444273347e-07,2.0665151608598027e-05
3.965768382654512e-07,4.80054590884915e-07,4.6086602962161426e-07,2.05956007833378e-05
3.956633824247496e-07,4.80948223673966e-07,4.550285245954157e-07,2.051398781243533e-05
3.945659964771772e-07,4.816174828543021e-07,4.4919386320009634e-07,2.0422468647213147e-05
3.93299285764171e-07,4.820588969907549e-07,4.433765900113218e-07,2.0323261347757826e-05
3.918760107731547e-07,4.822691716594177e-07,4.375901641129379e-07,2.0218499101866087e-05
3.903072811653697e-07,4.822454527369917e-07,4.318505191460217e-07,2.0110127192617948e-05
3.88603586903049e-07,4.819850439073369e-07,4.2618037214278667e-07,1.999984288905357e-05
3.867753512379051e-07,4.8148569411141e-07,4.2061081135922274e-07,1.988907637796287e-05
3.848325411569474e-07,4.807474254494167e-07,4.1517986419149e-07,1.9779004708733127e-05
3.827836711464111e-07,4.79775107765061e-07,4.0992945991137867e-07,1.9670577573306527e-05
3.806351206609275e-07,4.785798191871721e-07,4.04901804062864e-07,1.9564531033700385e-05
3.7839107206373225e-07,4.771779060769682e-07,4.0013626072892476e-07,1.946138110020402e-05
3.760537478667669e-07,4.7558811001944455e-07,3.9566719226712277e-07,1.93614047849437e-05
3.7362371329323783e-07,4.7382827136023817e-07,3.91522071590156e-07,1.9264631096444198e-05
3.7110012861284927e-07,4.719137825695328e-07,3.87720307470456e-07,1.9170872024284827e-05
3.6848129829208975e-07,4.6985817854480286e-07,3.8427385275524796e-07,1.9079799666822118e-05
3.6576597552655563e-07,4.6767356070569354e-07,3.8118867169836716e-07,1.8991041119552304e-05
3.629547009572564e-07,4.6536969445763104e-07,3.784654974748938e-07,1.8904253097689668e-05
3.600500371002907e-07,4.6295336246808366e-07,3.760997761095696e-07,1.8819154723199968e-05
3.570560496989232e-07,4.604292016156697e-07,3.740816140798296e-07,1.8735532547710292e-05
3.5397820011900223e-07,4.578013288525259e-07,3.723964119641584e-07,1.865324130105425e-05
3.50824050658665e-07,4.550748040094901e-07,3.7102562546537797e-07,1.857219258019567e-05
3.4760372718586283e-07,4.522567146359568e-07,3.6994724052025097e-07,1.8492323588061293e-05
3.443288632791153e-07,4.493559884921193e-07,3.691370154719007e-07,1.8413562443450336e-05
3.410110375188449e-07,4.463815885885275e-07,3.6857044679696737e-07,1.833579439333689e-05
3.3766123713653076e-07,4.433415936092247e-07,3.682248006347129e-07,1.8258840790090007e-05
3.34289988858768e-07,4.40244288875549e-07,3.680810917008844e-07,1.8182497912487912e-05
3.309075696207384e-07,4.3709878483093223e-07,3.6812468844842745e-07,1.810661343472244e-05
3.2752425022743806e-07,4.339142200396543e-07,3.683443766283847e-07,1.8031096414305207e-05
3.241502929936568e-07,4.30699357289396e-07,3.687316637886197e-07,1.795584806285538e-05
3.2079546322798037e-07,4.2746316057392344e-07,3.692807573724535e-07,1.7880701715316846e-05
3.174686488817964e-07,4.24214560415443e-07,3.6998831398811953e-07,1.7805416964726692e-05
3.1417796254059865e-07,4.209609315907996e-07,3.7085168950430325e-07,1.7729698169101815e-05
3.1093025848542397e-07,4.177074934181147e-07,3.7186566062278673e-07,1.7653200800695162e-05
3.077299164601253e-07,4.1445831641546934e-07,3.730202985389772e-07,1.7575540995183232e-05
3.0457828546780377e-07,4.112172375844795e-07,3.7430238506769813e-07,1.749635850270576e-05
3.014740115895382e-07,4.079882770103922e-07,3.7569944286288707e-07,1.7415441525522034e-05
2.984135361716029e-07,4.047772274689973e-07,3.7720260610314897e-07,1.733282724721332e-05
2.953917408702693e-07,4.0159419534078826e-07,3.788056257552879e-07,1.7248779110418797e-05
2.924029815502353e-07,3.9845413556270753e-07,3.805020078610441e-07,1.716366582669231e-05
2.894426516969877e-07,3.9537466443622155e-07,3.8228345141054075e-07,1.7077836897391353e-05
2.865093411636297e-07,3.9237303848879685e-07,3.8413945970599973e-07,1.6991538086145794e-05
2.836063341569095e-07,3.894636937496638e-07,3.860572202051826e-07,1.6904882792047575e-05
2.807411948280446e-07,3.8665692389386726e-07,3.880222443511893e-07,1.6817887339959192e-05
2.779244800803239e-07,3.839590841716087e-07,3.9001930029034966e-07,1.673052901074189e-05
2.7516805683359687e-07,3.813742550198704e-07,3.920331467542313e-07,1.6642770825443172e-05
2.724827885361715e-07,3.7890524396066607e-07,3.940501552163249e-07,1.655454060700835e-05
2.6987732944333856e-07,3.7655259481799846e-07,3.960592531022569e-07,1.6465708018708318e-05
2.6735879616133305e-07,3.7431392053682397e-07,3.9805034477553116e-07,1.6376159622228077e-05
2.6493378391892443e-07,3.7218459887293907e-07,4.000140834574572e-07,1.6285993207735322e-05
2.626092322097149e-07,3.701581915571003e-07,4.0194585316827507e-07,1.6195646290492924e-05
2.603937366827074e-07,3.6822639243823965e-07,4.038498561523112e-07,1.610580362834473e-05
2.582980459368309e-07,3.663793262098143e-07,4.0573822875672114e-07,1.6017226907982884e-05
2.5633303673991427e-07,3.6460629025289796e-07,4.076253767220673e-07,1.5930745666390106e-05
2.545068742988813e-07,3.628969752843541e-07,4.095226858343361e-07,1.584736848239686e-05
2.5282405198300353e-07,3.612422587520874e-07,4.114384596073385e-07,1.576829048070219e-05
2.512857607274276e-07,3.596336756492425e-07,4.1338286651417397e-07,1.5694769131197366e-05
2.498902252452711e-07,3.580630738372696e-07,4.153730267607335e-07,1.5627998314199213e-05
2.486335479296948e-07,3.565233993225025e-07,4.174332453717567e-07,1.5569037807729694e-05
2.4751126843168946e-07,3.550093177147251e-07,4.1959034794985645e-07,1.5518787224850546e-05
2.465199052159334e-07,3.535167426251657e-07,4.218693521365188e-07,1.5477976450769973e-05
2.456578363799893e-07,3.5204158064957526e-07,4.24293951143304e-07,1.5447148181581334e-05
2.4492440156111716e-07,3.505789399603921e-07,4.2689062865193636e-07,1.5426639708398535e-05
2.443177701751085e-07,3.491239009357509e-07,4.29690939018892e-07,1.541658414104886e-05
2.438343490705757e-07,3.47672995248389e-07,4.327278089299444e-07,1.5416928301144155e-05
2.434700821416569e-07,3.4622435535881576e-07,4.360282961806624e-07,1.5427454159639275e-05
2.432218791401959e-07,3.447764358653685e-07,4.396091959572674e-07,1.5447798947270277e-05
2.430888490177103e-07,3.433271180562779e-07,4.4347832911525156e-07,1.5477457865719566e-05
2.4307290296505106e-07,3.418741207265301e-07,4.476386966864726e-07,1.55157655614857e-05
2.4317752643785553e-07,3.404158553443187e-07,4.520909766696339e-07,1.556190372080481e-05
2.4340610283343894e-07,3.389512459156104e-07,4.568332103837413e-07,1.5614975420637473e-05
2.437622693346693e-07,3.3747909141986196e-07,4.618592130138797e-07,1.5674105462467992e-05
2.442504888206179e-07,3.359984408634303e-07,4.6715637740482367e-07,1.5738496321415953e-05
2.44874605215357e-07,3.345087410358201e-07,4.7270402672623216e-07,1.5807434631295035e-05
2.4563707481839253e-07,3.330090298907982e-07,4.784736791243422e-07,1.588028772259847e-05
2.4654027228022525e-07,3.3149778674033177e-07,4.844303842318829e-07,1.5956508530051762e-05
2.475867213858216e-07,3.2997355745140177e-07,4.905345439868906e-07,1.603563965049169e-05
2.4877712629184826e-07,3.2843554984971534e-07,4.967448159542446e-07,1.6117299005451033e-05
2.5010885569422003e-07,3.268837419442393e-07,5.030205823798754e-07,1.6201140649167585e-05
2.515759400031721e-07,3.2531790567736047e-07,5.093220543124403e-07,1.628680078423753e-05
2.531694871690157e-07,3.237368082054098e-07,5.156099047777789e-07,1.6373840830977704e-05
2.548784996299033e-07,3.221390159791941e-07,5.218459972491431e-07,1.6461712091455128e-05
2.566908982255106e-07,3.205237423361225e-07,5.279930123801074e-07,1.6549784259591127e-05
2.5859391998378675e-07,3.188909100243937e-07,5.34012578102399e-07,1.6637417022569353e-05
2.605744098684444e-07,3.1724204964135177e-07,5.398642328035693e-07,1.672398319785648e-05
2.6261959727040386e-07,3.1558148881787963e-07,5.455059535925182e-07,1.680883025227621e-05
2.647178009565382e-07,3.1391570923771074e-07,5.508955161471361e-07,1.6891258163981168e-05
2.668585572376611e-07,3.122515770366889e-07,5.55991949413921e-07,1.6970540637550253e-05
2.690323868515121e-07,3.105952595803277e-07,5.607565357441411e-07,1.7045964834625067e-05
2.7123051824692413e-07,3.089520219530141e-07,5.651533655048216e-07,1.711687177616392e-05
2.734452607299514e-07,3.0732703384281697e-07,5.691506231403568e-07,1.7182657610112126e-05
2.756718387300743e-07,3.057267228780166e-07,5.7272333248103e-07,1.724272197907235e-05
2.779096084636475e-07,3.041590258753737e-07,5.758550567295136e-07,1.729643743442827e-05
2.801598596070618e-07,3.026326163572649e-07,5.785358837561639e-07,1.7343196784670142e-05
2.8242208171969556e-07,3.011559482791808e-07,5.80758539506421e-07,1.738250475987899e-05
2.846922567976013e-07,2.997359868904522e-07,5.825168404625103e-07,1.741405642828499e-05
2.86963535468821e-07,2.9837740408807566e-07,5.838079938470738e-07,1.7437749277516913e-05
2.892275607840485e-07,2.9708319317313025e-07,5.846352784636162e-07,1.7453600190151878e-05
2.914750081240387e-07,2.9585583056386943e-07,5.850073827594437e-07,1.7461640780751635e-05
2.936952765356572e-07,2.9469723031035014e-07,5.849360832896229e-07,1.74619037535992e-05
2.958763492794777e-07,2.936074514557698e-07,5.844345232820492e-07,1.7454485858237685e-05
2.9800522639203136e-07,2.9258387541563337e-07,5.835152541802826e-07,1.7439589375838986e-05
3.0006817264424617e-07,2.916216949428647e-07,5.821888996548298e-07,1.741750549157968e-05
3.020511347893593e-07,2.907152609638905e-07,5.804650509656608e-07,1.7388557975982157e-05
3.0394168459305173e-07,2.898593505304001e-07,5.7835406133554e-07,1.7353073416609436e-05
3.057309812988861e-07,2.890498163268936e-07,5.758679279243193e-07,1.7311454547644096e-05
3.0741319236194767e-07,2.882844604579525e-07,5.730197511979615e-07,1.7264271225936187e-05
3.089837354260671e-07,2.875648069579227e-07,5.698221994515526e-07,1.7212210856099735e-05
3.1043927698628213e-07,2.868969634239734e-07,5.662865354891338e-07,1.7155929261517034e-05
3.117792158853578e-07,2.862893579399143e-07,5.624231046967509e-07,1.7095942351937712e-05
3.1300605410787547e-07,2.8574911669819533e-07,5.582423095438161e-07,1.7032617390022402e-05
3.1412385135071394e-07,2.852802839930121e-07,5.537551025688444e-07,1.6966306161655235e-05
3.151365060105349e-07,2.848838769411025e-07,5.489728566687016e-07,1.6897572848893688e-05
3.160472061451965e-07,2.8455844920562136e-07,5.439068047663189e-07,1.6827307999438003e-05
3.168589696396568e-07,2.8430043706008817e-07,5.385677709575172e-07,1.6756627623834533e-05
3.1757625554474344e-07,2.841041848548224e-07,5.329670608891681e-07,1.6686683201881044e-05
3.1820696154267413e-07,2.83962502915104e-07,5.271181495134447e-07,1.6618506632069517e-05
3.187624524124069e-07,2.838679243910814e-07,5.210372914490593e-07,1.6552916343125792e-05
3.192553779796768e-07,2.838132542387412e-07,5.147422986656968e-07,1.6490486552653473e-05
3.196986087120955e-07,2.8379079499367145e-07,5.082516141548553e-07,1.6431563838130234e-05
3.201066310145988e-07,2.837916804311295e-07,5.015861742990077e-07,1.6376287030354627e-05
3.2049667039015786e-07,2.838067068503735e-07,4.947732918117379e-07,1.6324586444400306e-05
3.2088734290236194e-07,2.838284583417336e-07,4.87848843821651e-07,1.6276185720476055e-05
3.2129671843373514e-07,2.8385297542264883e-07,4.808557334394247e-07,1.6230627819665052e-05
3.217424777978754e-07,2.838790736865655e-07,4.738400412567833e-07,1.6187309668110283e-05
3.222424116913056e-07,2.8390630724034857e-07,4.668470974502508e-07,1.6145509554765016e-05
3.2281259803930806e-07,2.8393408358743145e-07,4.59918724615512e-07,1.610441760957417e-05
3.234644870481944e-07,2.839618054430821e-07,4.5309149819090823e-07,1.606318416750108e-05
3.242033897544273e-07,2.8398888264320396e-07,4.46395713711973e-07,1.6020988283119982e-05
3.250294174072597e-07,2.8401434405769374e-07,4.398558869316781e-07,1.5977108323856906e-05
3.2593996654482885e-07,2.8403647003742906e-07,4.334926292336643e-07,1.5930965813539484e-05
3.269318193995585e-07,2.840536122694787e-07,4.2732347092694477e-07,1.5882137793589125e-05
3.2800264390872286e-07,2.840649837313035e-07,4.213617196148037e-07,1.5830351029019975e-05
3.291522388631135e-07,2.840696398159348e-07,4.1561636444726585e-07,1.577545485775865e-05
3.3038180011519816e-07,2.8406541484669685e-07,4.1009579374891036e-07,1.5717361103330985e-05
3.316908557297276e-07,2.8404902343109653e-07,4.0481342461613676e-07,1.5655967157541952e-05
3.330745949738067e-07,2.8401708880828177e-07,3.9979121989423326e-07,1.5591109197828108e-05
3.345234015091969e-07,2.839684803413517e-07,3.9506010337956594e-07,1.5522584920454236e-05
3.360240804053436e-07,2.839064558595025e-07,3.906582300201288e-07,1.5450241608384445e-05
3.375613678363e-07,2.8383827181026077e-07,3.8662679746399347e-07,1.537406420640033e-05
3.391191362716337e-07,2.837729086022941e-07,3.830039153383581e-07,1.529418488008217e-05
3.406820645357744e-07,2.837195371391062e-07,3.798202672026959e-07,1.5210823210214746e-05
3.422373036368477e-07,2.836868684418682e-07,3.770996548826583e-07,1.5124236365205892e-05
3.437740851390478e-07,2.836815311747026e-07,3.748622010576042e-07,1.5034717155704199e-05
3.452815384581429e-07,2.837066940887631e-07,3.7312566258635283e-07,1.4942603202935413e-05
3.467475055204459e-07,2.837637693578996e-07,3.7190384005359505e-07,1.4848240281710669e-05
3.4816014179601324e-07,2.838557188784787e-07,3.712054692383575e-07,1.4751909400735473e-05
3.495116010637063e-07,2.839874852561296e-07,3.7103677747126587e-07,1.4653803280396674e-05
3.5080026050897716e-07,2.8416333026400565e-07,3.7140478473063547e-07,1.4554120350047912e-05
3.5202849899719046e-07,2.84384925147538e-07,3.723166163928983e-07,1.445322990387721e-05
3.5319843338900924e-07,2.846513051250041e-07,3.737779745436517e-07,1.4351762727499405e-05
3.543094749908783e-07,2.849594741963562e-07,3.757954173476293e-07,1.4250554489943148e-05
3.5535812824499026e-07,2.853052255895976e-07,3.7837952322849274e-07,1.4150504784264005e-05
3.5633923964304e-07,2.856836901719532e-07,3.815458816082539e-07,1.40524289066159e-05
3.5724775165755135e-07,2.860897545246303e-07,3.853141272954346e-07,1.395695903604209e-05
3.580800143082039e-07,2.8651884905534646e-07,3.897038865256893e-07,1.3864532968964966e-05
3.5883443624133185e-07,2.869674101973772e-07,3.9472892936043896e-07,1.377543833543277e-05
3.5951090025723205e-07,2.874321807354001e-07,4.003950644397925e-07,1.3689847377291862e-05
3.6010890326287604e-07,2.879091605766302e-07,4.067029663563218e-07,1.3607822607432443e-05
3.6062583601083594e-07,2.883943920936894e-07,4.136504658472424e-07,1.3529318465386815e-05
3.610564849561215e-07,2.8888615452146256e-07,4.2123090691185095e-07,1.345424776518682e-05
3.6139381083807995e-07,2.8938566488822725e-07,4.294298263972048e-07,1.3382660554418794e-05
3.616309280160909e-07,2.898959356562715e-07,4.3822290734395115e-07,1.331490609687491e-05
3.617632817842945e-07,2.9042015281230375e-07,4.4757544033279116e-07,1.3251589843092886e-05
3.617889540534311e-07,2.909604817892841e-07,4.574427656614361e-07,1.3193395464239384e-05
3.617071648106186e-07,2.91518218360959e-07,4.67772549823084e-07,1.3141026286260464e-05
3.61516904271944e-07,2.920946989822917e-07,4.785084898578086e-07,1.3095310671915144e-05
3.6121605658453467e-07,2.9269099965489695e-07,4.895923206758904e-07,1.3057268771523008e-05
3.6080102490524996e-07,2.933061955580382e-07,5.009634933811971e-07,1.3028039211870545e-05
3.602677035265493e-07,2.9393612891249036e-07,5.125607229909698e-07,1.3008751902858687e-05
3.596127147110086e-07,2.9457377299908854e-07,5.243271613077992e-07,1.3000420799138928e-05
3.5883314186005783e-07,2.9521029107245806e-07,5.362142285754911e-07,1.3003863565195077e-05
3.5792588920864406e-07,2.9583580010763665e-07,5.481794674011738e-07,1.3019649671416204e-05
3.568879461562445e-07,2.964401590616371e-07,5.601815661631105e-07,1.304808162709444e-05
3.557164704118347e-07,2.9701418860112984e-07,5.721800553595578e-07,1.308919598721788e-05
3.54408342697222e-07,2.9755035091101407e-07,5.841407058789488e-07,1.3142768433643193e-05
3.529606751399106e-07,2.9804257213062603e-07,5.960391038544849e-07,1.3208332603783528e-05
3.5137260498787216e-07,2.984865364063437e-07,6.078579736645915e-07,1.3285226531375165e-05
3.4964627307208874e-07,2.9888028265066964e-07,6.195828614769771e-07,1.3372645867200345e-05
3.477858802424358e-07,2.992232793284925e-07,6.312011628791368e-07,1.3469661151469895e-05
3.457968095240294e-07,2.995142312831752e-07,6.42703073073249e-07,1.357519985340243e-05
3.4368654686046307e-07,2.9974998499363377e-07,6.540800239557237e-07,1.368804702164786e-05
3.4146611155534585e-07,2.999269474034787e-07,6.653202362411615e-07,1.3806892159576621e-05
3.3914984085914093e-07,3.000442056080157e-07,6.76406575812675e-07,1.3930391798409904e-05
3.3675358337907485e-07,3.001051299420713e-07,6.873192283234766e-07,1.4057214874020813e-05
3.342926881302394e-07,3.0011554242736057e-07,6.980385634893125e-07,1.4186064910498718e-05
3.3178074394856485e-07,3.000813639442278e-07,7.085444797379016e-07,1.4315686768193549e-05
3.29229230755387e-07,3.000075835920421e-07,7.188146383512231e-07,1.4444876713504873e-05
3.2664761075267447e-07,2.998974376705317e-07,7.288239637968302e-07,1.4572512398063606e-05
3.2404360096158337e-07,2.9975306163773704e-07,7.385442158356812e-07,1.4697596940828565e-05
3.214233047691712e-07,2.995781256343991e-07,7.479437369366644e-07,1.481929058572823e-05
3.187908436748617e-07,2.993794907838505e-07,7.569893930563566e-07,1.4936904398958514e-05
3.161479258524434e-07,2.991660949077116e-07,7.656498570676773e-07,1.5049852319049771e-05
3.134939501708779e-07,2.9894643291306985e-07,7.738974007379137e-07,1.5157587037277054e-05
3.108267711850845e-07,2.987270272344777e-07,7.81707515983868e-07,1.5259571248267667e-05
3.081439463140285e-07,2.985125402419169e-07,7.890573638145532e-07,1.5355303973698488e-05
3.0544387675416134e-07,2.983061291996277e-07,7.959239554928578e-07,1.54443395144832e-05
3.0272602317325766e-07,2.981090299108551e-07,8.02283331093287e-07,1.552625342861064e-05
2.9999043896421517e-07,2.979199899820176e-07,8.081112638446416e-07,1.560061346648576e-05
2.972375036340202e-07,2.97735196568404e-07,8.133838313869475e-07,1.566699842589797e-05
2.944675932055033e-07,2.975488203934199e-07,8.180771424594388e-07,1.5725018306749657e-05
2.9168056834977296e-07,2.973543947549484e-07,8.221686095353126e-07,1.577431597124193e-05
2.888759025118429e-07,2.971460808254035e-07,8.256404742094503e-07,1.5814567031588687e-05
2.860532975952254e-07,2.9691851614556013e-07,8.284819831898888e-07,1.584545749650197e-05
2.832127623286161e-07,2.966659467747847e-07,8.30687829731265e-07,1.5866648518414118e-05
2.803540466699842e-07,2.963819190572052e-07,8.32255023294935e-07,1.5877774265005226e-05
2.774762970530273e-07,2.960595829855131e-07,8.331810582980476e-07,1.587848177267012e-05
2.745782999033242e-07,2.956925582478228e-07,8.334641869256679e-07,1.5868507849315855e-05
2.716588757097103e-07,2.95276155750434e-07,8.331055475425641e-07,1.584776145058264e-05
2.687172576482642e-07,2.948079387312333e-07,8.321115246295942e-07,1.5816328048762646e-05
2.657535803825686e-07,2.942872740214505e-07,8.304935836516373e-07,1.577438454312291e-05
2.6276916049113695e-07,2.937142650040685e-07,8.282657097696886e-07,1.572213809987752e-05
2.5976663299386395e-07,2.930885265050633e-07,8.254421976466596e-07,1.565986019506385e-05
2.5675064902760045e-07,2.9240855744457987e-07,8.220365100549025e-07,1.5587951130547692e-05
2.5372839625402644e-07,2.9167175436953165e-07,8.1806111328032e-07,1.5506941378512987e-05
2.507083847459713e-07,2.9087449014444997e-07,8.135287018338602e-07,1.5417417610897227e-05
2.4769854644271124e-07,2.9001230565848806e-07,8.084535571648134e-07,1.5319972975424913e-05
2.447061007465894e-07,2.890808086323588e-07,8.028523391077663e-07,1.52152919494118e-05
2.4173864595828946e-07,2.880775465149478e-07,7.967442927523812e-07,1.5104293409051922e-05
2.388041266613325e-07,2.870032459710405e-07,7.901505211709302e-07,1.498813677235571e-05
2.3591023911334354e-07,2.8586066931110783e-07,7.830944517370604e-07,1.486807010293385e-05
2.3306528115689307e-07,2.846526742901214e-07,7.756038036545644e-07,1.4745261872174772e-05
2.3027897579593858e-07,2.8338181974194826e-07,7.677105383943443e-07,1.4620715430644982e-05
2.2756109103209481e-07,2.8205089906806745e-07,7.594487212411865e-07,1.4495325478152076e-05
2.249196914168026e-07,2.8066261679746854e-07,7.508533117073399e-07,1.437009029594927e-05
2.2236155662497486e-07,2.79218493083664e-07,7.419609955046976e-07,1.4246315522463824e-05
2.1989413691889839e-07,2.7771880652213656e-07,7.328114987475091e-07,1.4125604402525784e-05
2.1752610523243108e-07,2.7616454770422693e-07,7.234464543418955e-07,1.4009676909396295e-05
2.1526532558245893e-07,2.7455942424000585e-07,7.139057702608578e-07,1.3900200145880062e-05
2.1311685725866734e-07,2.729093277155545e-07,7.042251688394942e-07,1.3798684108361611e-05
2.1108279247336968e-07,2.712202482454673e-07,6.944368421705936e-07,1.370640015367561e-05
2.091628129099336e-07,2.694970909390949e-07,6.845707338497535e-07,1.3624312798865093e-05
2.0735508893391682e-07,2.677437294387422e-07,6.746538736177368e-07,1.355304604958471e-05
2.0565853394418781e-07,2.6596377838185693e-07,6.647093206156511e-07,1.3492891717413885e-05
2.0407531518698822e-07,2.641617108302509e-07,6.547565632052858e-07,1.3443845728631524e-05
2.0261064203817282e-07,2.623439277335879e-07,6.448125251829394e-07,1.340565028725608e-05
2.012704149059602e-07,2.605187701480164e-07,6.348924960337157e-07,1.3377842359748222e-05
2.000606689110901e-07,2.5869475572090523e-07,6.25010393545106e-07,1.3359825172020955e-05
1.9898903594125507e-07,2.568786342608001e-07,6.151778015470814e-07,1.335093977586966e-05
1.9806458772687895e-07,2.550747004606877e-07,6.054029652563402e-07,1.3350496396389187e-05
1.97295714003278e-07,2.532851298341665e-07,5.956906783038583e-07,1.3357777936242713e-05
1.9668891998126712e-07,2.515113433569883e-07,5.860425903104727e-07,1.337205780900855e-05
1.96249067010207e-07,2.49756039202159e-07,5.764577424985424e-07,1.3392637537966655e-05
1.9597958896453023e-07,2.480245145871861e-07,5.669336353149909e-07,1.3418876983554915e-05
1.9588229953246077e-07,2.46324527691259e-07,5.574679195302978e-07,1.345020518954726e-05
1.9595715915897703e-07,2.446650098263052e-07,5.480605648374962e-07,1.3486114905264807e-05
1.9620205207621378e-07,2.4305440282801105e-07,5.387160746662285e-07,1.352613826871536e-05
1.9661271740421158e-07,2.414995806632083e-07,5.294452415616816e-07,1.3569803324617235e-05
1.971831852448948e-07,2.4000533501016673e-07,5.202655068627801e-07,1.3616577412208172e-05
1.9790743624877135e-07,2.385740290729544e-07,5.111988742673931e-07,1.366582591755382e-05
1.987824338678731e-07,2.3720663167272357e-07,5.022684586722389e-07,1.371683756524972e-05
1.998100008526384e-07,2.3590552841055203e-07,4.934953687167691e-07,1.3768908419741297e-05
2.009951533596468e-07,2.346759510901832e-07,4.848967839726469e-07,1.3821397263683396e-05
2.023428318352106e-07,2.335239598396081e-07,4.7648646997323684e-07,1.3873717278058135e-05
2.0385608913205773e-07,2.324537305304076e-07,4.682763732261979e-07,1.3925321760919052e-05
2.0553557692463924e-07,2.314667741864209e-07,4.6027685208936034e-07,1.3975714956302094e-05
2.0737911814301323e-07,2.305622623481719e-07,4.524966079444577e-07,1.402446051946557e-05
2.093815129062118e-07,2.297375687158814e-07,4.4494327016425135e-07,1.4071161196489367e-05
2.1153500820901673e-07,2.289896100096118e-07,4.3762483953257493e-07,1.4115422187706986e-05
2.1383054505914137e-07,2.2831620861033968e-07,4.305523768067627e-07,1.415686288277777e-05
2.1625885738672103e-07,2.277155329952746e-07,4.23740687442605e-07,1.4195214975046464e-05
2.18809880890387e-07,2.2718423206753674e-07,4.172054992287791e-07,1.4230438853574235e-05
2.2147126037128768e-07,2.2671675274822807e-07,4.1096245727349856e-07,1.426276144593703e-05
2.242279851564199e-07,2.263066982058442e-07,4.0503142076827406e-07,1.4292610186072408e-05
2.2706290705360022e-07,2.2594915641733736e-07,3.9944243952659153e-07,1.4320478465191766e-05
2.2995724021412873e-07,2.256419037372997e-07,3.942381604906165e-07,1.4346784991654086e-05
2.32891957868962e-07,2.2538439936203532e-07,3.894709472621719e-07,1.4371803207827313e-05
2.358502154041875e-07,2.251765037952763e-07,3.8519643042598256e-07,1.4395690027895817e-05
2.388182787604464e-07,2.250183866246296e-07,3.81466351438056e-07,1.4418556561668964e-05
2.41783984404905e-07,2.2491036422649732e-07,3.7832378952066797e-07,1.444051059095452e-05
2.447356293748929e-07,2.2485205973080468e-07,3.75803092471681e-07,1.4461655369159631e-05
2.476632937258828e-07,2.2484197285356307e-07,3.7393271280011273e-07,1.4482055740630964e-05
2.505607261597073e-07,2.2487837669421764e-07,3.727363882640857e-07,1.4501708454507138e-05
2.534250389106587e-07,2.2496073499571406e-07,3.7223211763448035e-07,1.4520615668069321e-05
2.562545718543613e-07,2.2508980142610101e-07,3.724310962913874e-07,1.4538964815691269e-05
2.590476157094728e-07,2.2526662817312012e-07,3.733364547343625e-07,1.4557209519511658e-05
2.618023475019004e-07,2.254926977019125e-07,3.749414234293522e-07,1.4575964385761725e-05
2.645166571894133e-07,2.2577149898527965e-07,3.772283418288999e-07,1.4595893476898724e-05
2.671876703850355e-07,2.2610959666237079e-07,3.801699551562417e-07,1.4617678257784634e-05
2.698114288329998e-07,2.2651620534648806e-07,3.837330414968335e-07,1.4641985807228125e-05
2.723833766992184e-07,2.2700141502421647e-07,3.878827115513783e-07,1.4669424810714566e-05
2.7489894318961625e-07,2.2757385656803602e-07,3.9258496814380725e-07,1.470051645021705e-05
2.7735291041478573e-07,2.2823975661732306e-07,3.9780623901780723e-07,1.4735671726904862e-05
2.797383115662323e-07,2.2900386486761703e-07,4.0351117780261933e-07,1.4775168715655667e-05
2.820460024803765e-07,2.2987017004035878e-07,4.096619629001949e-07,1.4819129811236198e-05
2.842649790288018e-07,2.3084124507398394e-07,4.162194499519213e-07,1.486750688080607e-05
2.863839898916883e-07,2.3191766802639123e-07,4.231426103931136e-07,1.4920083778116766e-05
2.883945086329051e-07,2.330990273268432e-07,4.303862130095849e-07,1.4976481987343036e-05
2.902928261925876e-07,2.3438596968754817e-07,4.3790062024044025e-07,1.5036158835982003e-05
2.9207937800628146e-07,2.3578146738281933e-07,4.456341739185505e-07,1.5098418791865387e-05
2.937562191075298e-07,2.372897664461048e-07,4.5353637839338424e-07,1.5162442538938156e-05
2.953249246013964e-07,2.389138012237825e-07,4.615612853273735e-07,1.5227310672665906e-05
2.9678622543041446e-07,2.4065456517605746e-07,4.696694335938022e-07,1.529202684992854e-05
2.98140441592153e-07,2.4251392783493173e-07,4.778268157475105e-07,1.5355559179277973e-05
2.993872681536307e-07,2.444971218104148e-07,4.860024014161331e-07,1.5416879940281355e-05
3.0052515931321645e-07,2.466114763420923e-07,4.941664963304631e-07,1.547498229329511e-05
3.0155142551348766e-07,2.48863615057465e-07,5.022900628943643e-07,1.5528891320961663e-05
3.024633903441576e-07,2.512585913413616e-07,5.103436552729353e-07,1.5577681653734458e-05
3.0325963129290893e-07,2.5380039074678125e-07,5.182961980475121e-07,1.5620491591277765e-05
3.039404588051617e-07,2.564912452303282e-07,5.261152439925661e-07,1.5656531331012998e-05
3.045078137585499e-07,2.593301040305075e-07,5.337678062331569e-07,1.5685090739720506e-05
3.049646113798526e-07,2.6231240904333556e-07,5.412198032894887e-07,1.5705547815184186e-05
3.0531384749630477e-07,2.6543077927049376e-07,5.484353915242257e-07,1.57173715287118e-05
3.055585038453832e-07,2.68675859374542e-07,5.553778696461128e-07,1.5720112912934735e-05
3.0570230996067137e-07,2.7203773342742265e-07,5.620114311146265e-07,1.571338592876531e-05
3.0575031943854627e-07,2.755062117570044e-07,5.683032077441903e-07,1.5696846004579017e-05
3.057086975132682e-07,2.790695891005074e-07,5.742248392895229e-07,1.5670197680747064e-05
3.05583551880084e-07,2.827149853590832e-07,5.797519665885664e-07,1.5633263250472508e-05
3.053793008158829e-07,2.864303211509632e-07,5.848624278876478e-07,1.5586058512914677e-05
3.05098085834481e-07,2.902048304432844e-07,5.895357478300045e-07,1.552877491909736e-05
3.047406980821551e-07,2.940275666529027e-07,5.937541186079067e-07,1.546167964109864e-05
3.0430776118907213e-07,2.9788552313767355e-07,5.975024372283686e-07,1.538503654658216e-05
3.0379995061347625e-07,3.0176275014569824e-07,6.007668850472387e-07,1.5299104849601095e-05
3.032178183296299e-07,3.0564080829083643e-07,6.035342691356878e-07,1.5204199752650207e-05
3.025625298481884e-07,3.094995469352692e-07,6.057928017616203e-07,1.5100738841974444e-05
3.0183658051071485e-07,3.133179568558825e-07,6.075332260426186e-07,1.498920680566031e-05
3.0104340327056324e-07,3.1707592388515373e-07,6.08749525772881e-07,1.4870076398234359e-05
3.001866761105341e-07,3.207554745181298e-07,6.094388336618136e-07,1.4743768230091018e-05
2.9926946971521925e-07,3.243398827445058e-07,6.096008239362035e-07,1.461068041766864e-05
2.9829358042936446e-07,3.278121024546987e-07,6.092375375515632e-07,1.4471284133575704e-05
2.972604556608448e-07,3.311542408589702e-07,6.083545876020782e-07,1.432624062522207e-05
2.9617260327976286e-07,3.3434839016778877e-07,6.069627977185107e-07,1.417643924301069e-05
2.950336488736477e-07,3.373778831831817e-07,6.050771041334428e-07,1.4022906167781574e-05
2.9384849619154893e-07,3.402278639291059e-07,6.027129043309811e-07,1.3866661752662954e-05
2.926237864906876e-07,3.428864162251442e-07,5.998839460787088e-07,1.3708645008967708e-05
2.913663540428872e-07,3.453465226439984e-07,5.966024073884178e-07,1.3549713061161627e-05
2.900808632589388e-07,3.476059792711225e-07,5.928791699025947e-07,1.339062211790143e-05
2.8876947732609505e-07,3.4966506558505357e-07,5.887245559006491e-07,1.3231975957191437e-05
2.874331465465792e-07,3.515250285285349e-07,5.841496146563463e-07,1.3074234627973704e-05
2.860726259122557e-07,3.5318833950776074e-07,5.791668297028831e-07,1.291784991284452e-05
2.846891418991095e-07,3.5465937688739474e-07,5.737901980324143e-07,1.2763469422667885e-05
2.832858623151884e-07,3.5594543862848455e-07,5.680348433445098e-07,1.2612039260841518e-05
2.818692435974803e-07,3.5705886363608066e-07,5.619162023816179e-07,1.246472221590195e-05
2.804480874604519e-07,3.580180986870989e-07,5.554494876554222e-07,1.2322735357449515e-05
2.7903109779368987e-07,3.588455559282792e-07,5.486499468042831e-07,1.2187216433550634e-05
2.77625273988499e-07,3.595639283671417e-07,5.415340652756622e-07,1.2059163974445852e-05
2.762357711207808e-07,3.6019268296360616e-07,5.341224277017057e-07,1.193952509899742e-05
2.748670315068861e-07,3.6074588456237593e-07,5.264437385816175e-07,1.1829400168486536e-05
2.735240964954175e-07,3.612328989824493e-07,5.185356534254254e-07,1.1730144953760413e-05
2.722128587051113e-07,3.6166115176652423e-07,5.104398602063122e-07,1.164326852832336e-05
2.709400057553377e-07,3.620387967712842e-07,5.021962887326695e-07,1.1570258839574175e-05
2.697127728223296e-07,3.6237660608453025e-07,4.938412444864351e-07,1.1512454745831649e-05
2.68537581343013e-07,3.6268842125746267e-07,4.854082173056001e-07,1.1470977768248186e-05
2.674187296444735e-07,3.629893578626096e-07,4.769297800757243e-07,1.144670226936443e-05
2.6635819452683763e-07,3.6329280743638156e-07,4.684405556088751e-07,1.1440241057265912e-05
2.653556630315722e-07,3.636082977198405e-07,4.599785799572673e-07,1.1451939338285362e-05
2.64408474290906e-07,3.63941370710796e-07,4.515828303807436e-07,1.1481877472872224e-05
2.635121746012235e-07,3.642944121285833e-07,4.4328972703565644e-07,1.152987361406037e-05
2.6266203092413577e-07,3.646668912812327e-07,4.351317289147417e-07,1.1595480814827624e-05
2.618549549985709e-07,3.650560402606352e-07,4.271374626639805e-07,1.167798216895189e-05
2.6109043604097316e-07,3.6545936623174294e-07,4.1933282952305627e-07,1.1776395888422185e-05
2.6036947828703327e-07,3.658772281430127e-07,4.1174434607491524e-07,1.1889507993774515e-05
2.59692623409655e-07,3.6631259094062207e-07,4.0440398941984465e-07,1.2015938997621436e-05
2.590592581927977e-07,3.6676843259604456e-07,3.973514900921643e-07,1.2154228750824561e-05
2.584687176241632e-07,3.67246002251046e-07,3.9063125087884743e-07,1.2302903885911247e-05
2.5792169603320844e-07,3.6774566942104346e-07,3.8428589665517564e-07,1.2460508058413292e-05
2.574206790699623e-07,3.682687790738239e-07,3.783507973043342e-07,1.2625623708793853e-05
2.569695064416831e-07,3.688178758160923e-07,3.728524542219226e-07,1.2796917358357296e-05
2.5657252018961077e-07,3.6939559797506635e-07,3.678116015029656e-07,1.2973188548830396e-05
2.5623329681975415e-07,3.700041642661896e-07,3.6324994765434216e-07,1.3153377161526614e-05
2.5595362700951804e-07,3.7064478065072816e-07,3.5919695520781605e-07,1.3336517338900811e-05
2.5573343697678855e-07,3.713159627525982e-07,3.5569151395604245e-07,1.352166589260718e-05
2.5557081537903586e-07,3.72012950413635e-07,3.5277680347943935e-07,1.3707842628461434e-05
2.554617653340797e-07,3.727297250412447e-07,3.5049292206535904e-07,1.3894018642116443e-05
2.554005139147253e-07,3.7346116075681074e-07,3.488723481950652e-07,1.4079146363407895e-05
2.5538026357616145e-07,3.7420357250380407e-07,3.4793885340341146e-07,1.4262169064189858e-05
2.553937500535221e-07,3.749554378292001e-07,3.477084483816836e-07,1.4441993708214373e-05
2.554338674853877e-07,3.7571815340344476e-07,3.4819088056621697e-07,1.461747456740495e-05
2.5549459039393977e-07,3.764944334169461e-07,3.493895696835673e-07,1.4787425266904959e-05
2.5557167365757924e-07,3.7728569359013035e-07,3.513000059772445e-07,1.4950669806923367e-05
2.55662557384077e-07,3.780913239471445e-07,3.5390963519662363e-07,1.5106167525777585e-05
2.557654513039152e-07,3.789094785743989e-07,3.5719916968409404e-07,1.5253161428872007e-05
2.5587863424764205e-07,3.797376517845955e-07,3.611423724146892e-07,1.5391225069983178e-05
2.5600063288840143e-07,3.805725124882226e-07,3.6570511968685043e-07,1.552019208527939e-05
2.561299208844133e-07,3.814096759401183e-07,3.708465725147676e-07,1.5640045371665232e-05
2.5626363109533317e-07,3.8224444730670316e-07,3.765224777737153e-07,1.575080515093903e-05
2.563969278824523e-07,3.8307361424640727e-07,3.826881001714677e-07,1.5852448970830653e-05
2.565235890299971e-07,3.8389674382788956e-07,3.892986077095424e-07,1.5944893520068883e-05
2.566368518087057e-07,3.847154734974208e-07,3.963079247293063e-07,1.6028021408440714e-05
2.5672974545187844e-07,3.855321513288318e-07,4.036679344158165e-07,1.6101741907253064e-05
2.5679496109994524e-07,3.8634994401905493e-07,4.113280716499531e-07,1.6166073428489625e-05
2.5682508859349685e-07,3.871725725283751e-07,4.1923540232804616e-07,1.6221193342890427e-05
2.5681319385560807e-07,3.880018100125837e-07,4.273353177149253e-07,1.626742505705755e-05
2.567528052940412e-07,3.8883542052146476e-07,4.355732398046797e-07,1.63051891935771e-05
2.566373662334838e-07,3.8966732976786974e-07,4.4389790347961e-07,1.6334938879703187e-05
2.5645990447118005e-07,3.9048861102243524e-07,4.522640559259917e-07,1.6357087231786955e-05
2.562131835975637e-07,3.9128832283406636e-07,4.6063192003288774e-07,1.637197138588262e-05
2.558903286076095e-07,3.92054135520714e-07,4.6896443413522217e-07,1.6379877512920265e-05
2.554855674989641e-07,3.9277292000809117e-07,4.772248008476028e-07,1.6381070337736593e-05
2.5499466129902466e-07,3.934312337435893e-07,4.853750704785875e-07,1.6375776042709184e-05
2.544151220051657e-07,3.940157656466235e-07,4.933756228627297e-07,1.6364143648620608e-05
2.537459229755461e-07,3.9451405663779823e-07,5.011855668783686e-07,1.634622328512966e-05
2.5298656918441293e-07,3.9491436177989063e-07,5.087635636649742e-07,1.632195812971038e-05
2.5213638127155424e-07,3.95205023646613e-07,5.160686939235743e-07,1.629118611468841e-05
2.5119435620332585e-07,3.9537621495044187e-07,5.230615448671018e-07,1.625366243340273e-05
2.5015941807864353e-07,3.9542232027051906e-07,5.297053945360842e-07,1.6209086979579206e-05
2.490307344985868e-07,3.953409670015877e-07,5.359667492696719e-07,1.6157115813009334e-05
2.4780785288567044e-07,3.95130831852634e-07,5.418145705731173e-07,1.609736614404295e-05
2.4649114465018053e-07,3.947912844452536e-07,5.472187804884793e-07,1.602942578724731e-05
2.450822035505042e-07,3.943227109525983e-07,5.521499589776243e-07,1.5952868780078147e-05
2.435832601893562e-07,3.937269082794386e-07,5.565809154728132e-07,1.586727723219579e-05
2.419967152170548e-07,3.930075443946482e-07,5.604880333064465e-07,1.5772261497698465e-05
2.40326001900435e-07,3.9216959879109936e-07,5.638517090260622e-07,1.5667478482816425e-05
2.3857621476764477e-07,3.9121835259268725e-07,5.666575055427789e-07,1.55526460334452e-05
2.367532011067832e-07,3.901588385898346e-07,5.688963905630233e-07,1.5427538615276376e-05
2.348625078212814e-07,3.8899498000422405e-07,5.70562489734735e-07,1.5291978379314183e-05
2.32909002546422e-07,3.8772870627513706e-07,5.716513934233167e-07,1.5145844770381866e-05
2.3089643274341372e-07,3.863605914480187e-07,5.721602011926017e-07,1.4989083631008545e-05
2.2882709797847186e-07,3.8489153861265117e-07,5.720876697689322e-07,1.4821699456658255e-05
2.2670219885973616e-07,3.833231327813004e-07,5.714350840536292e-07,1.4643757862094565e-05
2.245223760214162e-07,3.816564880632932e-07,5.702082159519622e-07,1.445541886213566e-05
2.2228796626766518e-07,3.798918214687458e-07,5.684183003215639e-07,1.4256980086449619e-05
2.199994242575705e-07,3.780287818481523e-07,5.660806645767082e-07,1.4048904113508413e-05
2.1765811625872306e-07,3.760664021145779e-07,5.632120917678269e-07,1.3831825779046116e-05
2.152668057273448e-07,3.740034801767858e-07,5.598292108770839e-07,1.3606536551292537e-05
2.1282941263334328e-07,3.7183957422771593e-07,5.559487849410172e-07,1.3373939437599395e-05
2.1035046789868105e-07,3.6957574864958225e-07,5.515889463730484e-07,1.3134983169615624e-05
2.0783500118717762e-07,3.672146866317323e-07,5.467700948337633e-07,1.2890600728498425e-05
2.052888674164761e-07,3.647602417249639e-07,5.415144489267553e-07,1.2641690683559324e-05
2.027185915802037e-07,3.6221775647200364e-07,5.358446720018452e-07,1.2389156610019862e-05
2.0013069341847309e-07,3.595952758543167e-07,5.297829367545935e-07,1.2133946183136453e-05
1.9753133430869773e-07,3.56903348988041e-07,5.233509283331194e-07,1.1877028720945876e-05
1.949266965084252e-07,3.5415389717946683e-07,5.165706905044654e-07,1.1619339538179475e-05
1.923240184355512e-07,3.513610682664234e-07,5.09465757672873e-07,1.1361749898939767e-05
1.8973205428463296e-07,3.485430428054306e-07,5.020625979857624e-07,1.1105082916534048e-05
1.8715991222924572e-07,3.4572187487214713e-07,4.943932046117933e-07,1.0850170013064753e-05
1.8461551732845173e-07,3.429215596409759e-07,4.864964739808064e-07,1.0597902707908698e-05
1.821057055834228e-07,3.401657916464488e-07,4.784153208833593e-07,1.034921903641754e-05
1.7963802281751574e-07,3.374762661005826e-07,4.701926523818064e-07,1.010503563478654e-05
1.772215797314369e-07,3.348713857582555e-07,4.6187053328783283e-07,9.866191058171444e-06
1.7486558031124685e-07,3.3236493652608984e-07,4.534909028929443e-07,9.633444534028509e-06
1.725780231794232e-07,3.299660399857557e-07,4.450945958993392e-07,9.407543925577273e-06
1.7036618184884277e-07,3.2768155474279734e-07,4.367196113448647e-07,9.189337096015054e-06
1.6823773007556384e-07,3.2551931285857055e-07,4.2840116794449647e-07,8.979840224104653e-06
1.6620142294204203e-07,3.234899952095697e-07,4.201730337190403e-07,8.780190780509824e-06
1.642666577002348e-07,3.2160705788125657e-07,4.1206861696709147e-07,8.591514217265163e-06
1.6244254439221128e-07,3.198851865232801e-07,4.0412176977839115e-07,8.414787476817723e-06
1.6073839062526204e-07,3.1833820801233046e-07,3.963661613388024e-07,8.250759956853935e-06
1.5916463608902865e-07,3.1697753374862045e-07,3.8883242836434046e-07,8.099937933475366e-06
1.5773159941935373e-07,3.1581254405624763e-07,3.815454366067215e-07,7.962596624433298e-06
1.5644737498692574e-07,3.148529250170427e-07,3.745235497093407e-07,7.838815707795711e-06
1.5531744861699936e-07,3.141105119718239e-07,3.677793522665618e-07,7.728582236802399e-06
1.5434519477100664e-07,3.1359872984357737e-07,3.6132175849312356e-07,7.631961014817633e-06
1.53531788232511e-07,3.133297656565858e-07,3.551598451422001e-07,7.549211220643842e-06
1.5287646369390234e-07,3.1331132904477913e-07,3.49306301992238e-07,7.480731500953505e-06
1.523785191340931e-07,3.1354548733893646e-07,3.437786072457258e-07,7.4268953954218244e-06
1.5203936389496312e-07,3.140299307645122e-07,3.385982222241445e-07,7.387911761431817e-06
1.5186213010374198e-07,3.147594210782359e-07,3.337875194992368e-07,7.363782998565452e-06
1.5185023998813688e-07,3.1572589108400503e-07,3.2936629367618734e-07,7.354427256506917e-06
1.5200678205195295e-07,3.16918390996115e-07,3.2535152761947e-07,7.359945799437817e-06
1.523337840454479e-07,3.183240232319512e-07,3.2175886872554827e-07,7.3808226933573375e-06
1.5283106001192213e-07,3.199286300586046e-07,3.1860186652244976e-07,7.417881237824281e-06
1.5349597221240555e-07,3.217161919361972e-07,3.158898192251773e-07,7.4720787477383104e-06
1.5432497913754878e-07,3.236681119610287e-07,3.136277212968174e-07,7.544309054587668e-06
1.5531579720387142e-07,3.257632298277869e-07,3.1181807774641534e-07,7.635275941766463e-06
1.5646787857927392e-07,3.2797794012088854e-07,3.1046089731226374e-07,7.745423817507152e-06
1.5778119055391535e-07,3.3028648940714174e-07,3.09552143493764e-07,7.874904601386004e-06
1.59255020182684e-07,3.3266227679389117e-07,3.090863023946473e-07,8.023575511299631e-06
1.6088716668941546e-07,3.350798917478612e-07,3.09065106758284e-07,8.191023035354155e-06
1.62673481603076e-07,3.375162732846627e-07,3.095060785245637e-07,8.376590720861824e-06
1.6460812035221226e-07,3.3995004958797214e-07,3.1044384570285094e-07,8.57938838755754e-06
1.6668466932605546e-07,3.4236018916919287e-07,3.1192393046683577e-07,8.798285057342173e-06
1.688981633529824e-07,3.4472544817514656e-07,3.139932778402927e-07,9.031911704638644e-06
1.712464456502101e-07,3.470244407836213e-07,3.166917563239086e-07,9.278689896527223e-06
1.7372957315181802e-07,3.492359937866971e-07,3.200468758463367e-07,9.536877440288968e-06
1.7634867680508748e-07,3.513407369512764e-07,3.240723210882409e-07,9.804636305266628e-06
1.791047554502614e-07,3.533232979739146e-07,3.287699194931296e-07,1.0080138367878148e-05
1.819968483424116e-07,3.5517270001179353e-07,3.341331270830101e-07,1.0361680628288394e-05
1.8502072820573932e-07,3.568806522220219e-07,3.401498418181352e-07,1.0647761549347704e-05
1.8816875024478886e-07,3.584396900890868e-07,3.468038562178092e-07,1.0937101169675504e-05
1.914306313409756e-07,3.598428010026808e-07,3.5407440694961784e-07,1.1228608057207167e-05
1.9479490924307173e-07,3.610838035112673e-07,3.6193394993810523e-07,1.1521316399587174e-05
1.982497187214216e-07,3.621567790027067e-07,3.703465803040743e-07,1.1814330607818573e-05
2.0178226286587625e-07,3.6305498143185993e-07,3.7926832105342563e-07,1.2106781085499435e-05
2.053786192527272e-07,3.637703767766785e-07,3.8864921476958e-07,1.2397776255556265e-05
2.0902468477859663e-07,3.642939040402717e-07,3.984380072285128e-07,1.2686374259133045e-05
2.1270707831129672e-07,3.6461618968422706e-07,4.085866359483379e-07,1.297159971165078e-05
2.1641341791303362e-07,3.6472857447446865e-07,4.190499692208397e-07,1.325247730399044e-05
2.201323910232787e-07,3.6462441970843526e-07,4.2978201878414185e-07,1.3528048110494245e-05
2.2385400419777775e-07,3.642999486825314e-07,4.407331171416585e-07,1.3797374763275607e-05
2.2757012212935986e-07,3.637539766102797e-07,4.5184991060105495e-07,1.4059554701589707e-05
2.3127509159649172e-07,3.629872472940326e-07,4.6307774866326256e-07,1.431373875064766e-05
2.3496558913430682e-07,3.62002808741674e-07,4.7436407268649227e-07,1.455912486046616e-05
2.386390927962853e-07,3.608076951908866e-07,4.856606395346735e-07,1.4794919260019973e-05
2.422926975322648e-07,3.5941328410924577e-07,4.969232669386224e-07,1.5020302795607855e-05
2.4592354976060793e-07,3.578326409618882e-07,5.081096613967814e-07,1.5234428276202893e-05
2.495291565684593e-07,3.5607772104558344e-07,5.191774683413495e-07,1.5436443829615993e-05
2.5310706745954324e-07,3.541589659289893e-07,5.300836442749265e-07,1.5625543014375087e-05
2.566551065070893e-07,3.5208600758030894e-07,5.407836983881052e-07,1.5801050496656464e-05
2.6017118103265505e-07,3.498679527310049e-07,5.512308946673065e-07,1.5962503926458474e-05
2.636517121049741e-07,3.475135065617616e-07,5.613781061018414e-07,1.610964979458955e-05
2.6709039381699016e-07,3.450308631275475e-07,5.711819430388288e-07,1.6242349098321094e-05
2.704789880046328e-07,3.424274906501483e-07,5.806046247101192e-07,1.636048158305376e-05
2.7380920586694173e-07,3.397112333107137e-07,5.896128623543024e-07,1.6463900520840935e-05
2.7707337363655096e-07,3.368921730687881e-07,5.98178227936971e-07,1.6552416983099098e-05
2.802637741444043e-07,3.339827640996249e-07,6.062800917818414e-07,1.6625791891344007e-05
2.8337225820517003e-07,3.3099614235248087e-07,6.139085852608449e-07,1.6683743820233653e-05
2.86390190045592e-07,3.279447603976854e-07,6.210658379318289e-07,1.6726014736893782e-05
2.8930834806433075e-07,3.248401512461916e-07,6.277634987262759e-07,1.6752540958955448e-05
2.921169883224727e-07,3.21692615672243e-07,6.34016803746019e-07,1.6763635875051868e-05
2.948059492212801e-07,3.185107356623253e-07,6.398401148050124e-07,1.6759981031371803e-05
2.9736533931714285e-07,3.1530240408591853e-07,6.452477050379883e-07,1.6742418741889518e-05
2.99787003621274e-07,3.120768459862874e-07,6.502595659591597e-07,1.6711756888091776e-05
3.0206527007260745e-07,3.0884467064401805e-07,6.549088219965311e-07,1.6668736682821438e-05
3.041965299603327e-07,3.0561593780397645e-07,6.592438172745513e-07,1.6614187976405136e-05
3.061788519832793e-07,3.02399457479901e-07,6.633223167464293e-07,1.6549304082680995e-05
3.080116658278086e-07,2.992040231944836e-07,6.672027510871485e-07,1.6475839608456383e-05
3.096948604210502e-07,2.960391103477969e-07,6.709361348804118e-07,1.6396065817418898e-05
3.1122758271391037e-07,2.929137772057196e-07,6.74560550166101e-07,1.6312551728142372e-05
3.126075183820091e-07,2.89834995340852e-07,6.780999032531207e-07,1.6227936453253306e-05
3.1383141243163384e-07,2.868073769175913e-07,6.81565429651113e-07,1.6144751687571725e-05
3.14896281541867e-07,2.8383458506156847e-07,6.849578050267732e-07,1.6065283152114724e-05
3.157996665714035e-07,2.809202912006368e-07,6.882694051907049e-07,1.5991470523317167e-05
3.165390178726616e-07,2.780674933200341e-07,6.914866527826911e-07,1.5924850553094738e-05
3.1711197870038506e-07,2.7527760991578213e-07,6.94592215166838e-07,1.5866535534661467e-05
3.17517788708499e-07,2.7255035464240297e-07,6.975666855607014e-07,1.5817225339129054e-05
3.177583622849553e-07,2.6988410075315827e-07,7.00389329844869e-07,1.577726761663617e-05
3.178384773635177e-07,2.672764909758993e-07,7.030380157162825e-07,1.5746763376529007e-05
3.1776485167989823e-07,2.647250231653962e-07,7.0548913646628e-07,1.572568329056208e-05
3.175443008004105e-07,2.62227345759777e-07,7.077177288386102e-07,1.571395409511784e-05
3.171828281902641e-07,2.597813576939839e-07,7.09697662271679e-07,1.5711503449407593e-05
3.166862572476853e-07,2.573854768211163e-07,7.114021949591328e-07,1.5718292315640685e-05
3.160612018354504e-07,2.550393570196052e-07,7.128051054687355e-07,1.5734353902413748e-05
3.15315637726618e-07,2.5274456761649585e-07,7.138817974654838e-07,1.575981129061585e-05
3.1445887348065537e-07,2.5050434766173106e-07,7.146090936145574e-07,1.579485881296835e-05
3.1350096541623093e-07,2.4832271617108736e-07,7.149643921192198e-07,1.583973456196555e-05
3.124513796333961e-07,2.462038038747894e-07,7.149261802938366e-07,1.589468860824615e-05
3.113173558878552e-07,2.441518300147321e-07,7.144753673469646e-07,1.5959922861401865e-05
3.101037198040428e-07,2.4217208777346147e-07,7.135956937312341e-07,1.6035509940526456e-05
3.088144626794173e-07,2.4027192364387565e-07,7.122736990192116e-07,1.6121323143453768e-05
3.0745395728225004e-07,2.384602471169721e-07,7.105001432230506e-07,1.621700180433833e-05
3.0602670550561965e-07,2.3674619393400622e-07,7.082721866160933e-07,1.6321983793893797e-05
3.045370021366713e-07,2.351383362964009e-07,7.055931867523893e-07,1.6435610345411504e-05
3.029890163631059e-07,2.3364503140601482e-07,7.024705806383876e-07,1.6557222170710534e-05
3.013864998548477e-07,2.3227516789218002e-07,6.989150090522369e-07,1.668617666238274e-05
2.997322483958129e-07,2.310380115875739e-07,6.949409512419151e-07,1.682182713929674e-05
2.980276342693855e-07,2.2994204520013818e-07,6.905672269127504e-07,1.6963520895663253e-05
2.962728960168423e-07,2.289935228658457e-07,6.858156218945498e-07,1.7110610559030154e-05
2.944692056911436e-07,2.281957058392589e-07,6.807074951935077e-07,1.7262439519613503e-05
2.9262081567060517e-07,2.2754936124401149e-07,6.752612302458859e-07,1.741826969671651e-05
2.9073436045192696e-07,2.2705362019705964e-07,6.694926714814188e-07,1.7577192431468148e-05
2.888165453999116e-07,2.267061118843052e-07,6.634173543353761e-07,1.773811050265133e-05
2.868737197345523e-07,2.265028274797412e-07,6.570522151146614e-07,1.7899804816258013e-05
2.849132068639291e-07,2.2643831273409767e-07,6.504154018752802e-07,1.8061029121553976e-05
2.829436831600885e-07,2.2650589293200397e-07,6.435248233046107e-07,1.8220606170934253e-05
2.809737705301948e-07,2.2669824103580648e-07,6.36397220647029e-07,1.8377507431729424e-05
2.7901067809835893e-07,2.2700863402320533e-07,6.290476897138987e-07,1.853085210475258e-05
2.770611725089205e-07,2.2743187323254928e-07,6.214893770098605e-07,1.8679820783667817e-05
2.7513427351272576e-07,2.2796396738441905e-07,6.137346273528396e-07,1.8823598796497235e-05
2.732429106754158e-07,2.286007313157104e-07,6.057964087639359e-07,1.8961422665901458e-05
2.7140384916454467e-07,2.2933679720045838e-07,5.976879749952639e-07,1.9092658238890484e-05
2.696362757539873e-07,2.301671024216105e-07,5.894223849069576e-07,1.9216815040964973e-05
2.679589840675467e-07,2.310893328207329e-07,5.8101383941641e-07,1.9333486934018964e-05
2.663878802634071e-07,2.321035055197858e-07,5.724809502952665e-07,1.9442288010217998e-05
2.649365997584065e-07,2.332095792133943e-07,5.63850704658623e-07,1.9542894168733228e-05
2.6362045293582484e-07,2.3440725142041374e-07,5.551597047303977e-07,1.9635185323002184e-05
2.6245950053514014e-07,2.3569768427844428e-07,5.464509582961992e-07,1.97193104618682e-05
2.614767938335546e-07,2.370841855780408e-07,5.377684917519338e-07,1.9795593487361404e-05
2.606942092018988e-07,2.3857290387606145e-07,5.291524764980653e-07,1.9864387048810125e-05
2.6013055747202525e-07,2.4017394942027376e-07,5.206371244815012e-07,1.9925964526379243e-05
2.5980124542003787e-07,2.4189913836504395e-07,5.12252384575225e-07,1.99804934170096e-05
2.597171401440756e-07,2.437570422100019e-07,5.040264195361965e-07,2.0028150768979887e-05
2.598845756535416e-07,2.457504948053297e-07,4.959856802077729e-07,2.006931044545985e-05
2.60307356838588e-07,2.478773307510673e-07,4.881540752542302e-07,2.0104593520200444e-05
2.60987821750367e-07,2.501313656341757e-07,4.805528325809032e-07,2.013473926302915e-05
2.6192637860834786e-07,2.5250235034710327e-07,4.7319979031062097e-07,2.0160441632653174e-05
2.6312160077496423e-07,2.5497589404620253e-07,4.661081305493594e-07,2.0182235118928627e-05
2.6457092409332144e-07,2.5753405616776853e-07,4.592862217198696e-07,2.0200434515802824e-05
2.662702233953405e-07,2.601563644606561e-07,4.527387107202713e-07,2.02151289005542e-05
2.682127058053289e-07,2.628209118386941e-07,4.4646728908864365e-07,2.022620912549789e-05
2.7038890974742604e-07,2.655050854206153e-07,4.404706566323638e-07,2.0233393577472287e-05
2.727874494706265e-07,2.681860664469733e-07,4.3474479013282916e-07,2.0236244144572063e-05
2.7539599617706745e-07,2.7084168225079414e-07,4.292836163270754e-07,2.023418516216277e-05
2.7820217825777675e-07,2.7345082515038517e-07,4.240800969182492e-07,2.0226526112260988e-05
2.8119320488846987e-07,2.7599308354284657e-07,4.191277365230416e-07,2.021248208900277e-05
2.8435522996989824e-07,2.78449040678712e-07,4.1442045951024476e-07,2.019119627308158e-05
2.8767331291028035e-07,2.8080082929240537e-07,4.099505942163397e-07,2.0161770490433725e-05
2.911304015779108e-07,2.830314764915748e-07,4.057077172991897e-07,2.0123301118782907e-05
2.947057911613759e-07,2.8512399184961447e-07,4.0167961802513546e-07,2.007492596412146e-05
2.9837501221852964e-07,2.870611916384709e-07,3.9785526967766266e-07,2.0015888698726504e-05
3.0211101798508056e-07,2.888258518352841e-07,3.9422864252936637e-07,1.994560251629392e-05
3.0588522302622496e-07,2.904011818451102e-07,3.9079981499986844e-07,1.9863694216130385e-05
3.0966792579883707e-07,2.9177185357869844e-07,3.87572299574125e-07,1.9770021097953603e-05
3.134290005447981e-07,2.9292515009003605e-07,3.845503523906112e-07,1.9664654731084493e-05
3.1713900685479287e-07,2.9385158698812014e-07,3.817379794437831e-07,1.9547841899778368e-05
3.207698322262025e-07,2.945446735467985e-07,3.791377456249061e-07,1.941995839890417e-05
3.242946964314351e-07,2.9499985613631464e-07,3.767493174366742e-07,1.9281455326402617e-05
3.276884228085557e-07,2.9521337426539805e-07,3.7456937959256257e-07,1.9132807947816973e-05
3.309283312798381e-07,2.9518194445753764e-07,3.7259304804688674e-07,1.897450428332173e-05
3.339942088129064e-07,2.949036137522184e-07,3.7081500450704977e-07,1.8807074058741973e-05
3.368668767444377e-07,2.94379690156309e-07,3.692292603138121e-07,1.8631106458912336e-05
3.3952740099314514e-07,2.936170580933761e-07,3.678285707522976e-07,1.8447236088474452e-05
3.419579099640236e-07,2.92629206319158e-07,3.6660403050108634e-07,1.825612421070336e-05
3.441429520736516e-07,2.9143434296281874e-07,3.655445436788864e-07,1.805845707767377e-05
3.460699734792338e-07,2.900519655025005e-07,3.646369785793842e-07,1.7854940837440936e-05
3.47728872060648e-07,2.885012839825545e-07,3.638680659717266e-07,1.764625625728088e-05
3.4911208559035785e-07,2.868013597499285e-07,3.6322718677168017e-07,1.7432999392906913e-05
3.5021502886323927e-07,2.849705922820091e-07,3.6270737248571897e-07,1.7215663653567817e-05
3.5103563162448375e-07,2.830257935753801e-07,3.623039011457801e-07,1.6994655403345206e-05
3.515735662799833e-07,2.809818634472972e-07,3.6201246442900063e-07,1.6770325824471116e-05
3.518298730882492e-07,2.788517800066361e-07,3.618276652966945e-07,1.6543043310367578e-05
3.51806675285085e-07,2.766465920947784e-07,3.617419661188468e-07,1.63132900957332e-05
3.5150692021707395e-07,2.743756321119461e-07,3.617456890799769e-07,1.608170232369498e-05
3.5093448379292304e-07,2.720469510111316e-07,3.6182781843192077e-07,1.5849011965078498e-05
3.5009453520431014e-07,2.696676321986076e-07,3.619773097720112e-07,1.5615963333132735e-05
3.489933849918883e-07,2.6724432178604266e-07,3.621845089638185e-07,1.5383306383785304e-05
3.476377452348832e-07,2.647841189501388e-07,3.62441793792298e-07,1.5151849314767394e-05
3.460343233887445e-07,2.6229482716344844e-07,3.627437402508374e-07,1.492246832302545e-05
3.441903957148973e-07,2.597847029178939e-07,3.630868257775661e-07,1.4696041684304433e-05
3.4211471814576267e-07,2.5726284984517204e-07,3.634680933743656e-07,1.4473377278914864e-05
3.398173251833373e-07,2.547401086915006e-07,3.6388404027368973e-07,1.4255249155448336e-05
3.373087627979333e-07,2.5223089762921107e-07,3.6433045976522863e-07,1.4042568404998401e-05
3.3460143098771627e-07,2.4975609767092946e-07,3.6480313028594817e-07,1.3836517186992733e-05
3.317129724435931e-07,2.473432052801924e-07,3.652992849072487e-07,1.3638496953344234e-05
3.286674572976961e-07,2.4502180070890694e-07,3.658172950424025e-07,1.3449973961103565e-05
3.2549239028110924e-07,2.4281845308371147e-07,3.663540340648256e-07,1.3272341861832546e-05
3.2221510015956867e-07,2.407547596695512e-07,3.669035561294586e-07,1.3106829550156067e-05
3.188610351872817e-07,2.388479049548539e-07,3.674578317206412e-07,1.2954529484019512e-05
3.1545309046045735e-07,2.3711163926329394e-07,3.680078233146443e-07,1.2816557618483146e-05
3.120119445663184e-07,2.355572295628477e-07,3.6854459212175095e-07,1.2694153548188215e-05
3.085566225706156e-07,2.341951361534949e-07,3.690602271531633e-07,1.2588607832428118e-05
3.051040804208432e-07,2.330357536103887e-07,3.6954836151316454e-07,1.2501122130087687e-05
3.016695659105474e-07,2.3208754914366583e-07,3.700041954624744e-07,1.2432701282968352e-05
2.982677945280088e-07,2.313552490247508e-07,3.7042382713499595e-07,1.2384079046134967e-05
2.949123025399704e-07,2.3084006691931802e-07,3.708030054490824e-07,1.235567109868002e-05
2.9161395563862626e-07,2.305405285409995e-07,3.711358648994794e-07,1.2347571065180831e-05
2.88381360257841e-07,2.3045318993935732e-07,3.7141436843589203e-07,1.2359582677477224e-05
2.8522212374146986e-07,2.305736911348538e-07,3.716283827371381e-07,1.239125675591832e-05
2.82142964108184e-07,2.3089837512461672e-07,3.7176614855962747e-07,1.244191638993116e-05
2.7914932693583546e-07,2.314267503391541e-07,3.718156818367376e-07,1.2510664132502718e-05
2.762459291885023e-07,2.32163670419478e-07,3.7176665331070596e-07,1.259637170566339e-05
2.734386382950325e-07,2.3311876295605574e-07,3.7161084457391365e-07,1.269767619201504e-05
2.7073623148858924e-07,2.3430335987643252e-07,3.713411620983967e-07,1.2813010848158093e-05
2.681497513271995e-07,2.357278455184299e-07,3.7095121208453847e-07,1.294067908654736e-05
2.656897730533246e-07,2.3740041113258623e-07,3.7043529898515614e-07,1.3078960366152526e-05
2.633646152081684e-07,2.3932644290240177e-07,3.6978760970353714e-07,1.3226211859132283e-05
2.611810645401245e-07,2.415083244247696e-07,3.690013239955276e-07,1.3380928728989395e-05
2.5914553768187147e-07,2.439458022623093e-07,3.6806853724127456e-07,1.3541770920532111e-05
2.572636843057118e-07,2.4663652186295904e-07,3.669806850847851e-07,1.3707586634878681e-05
2.555399136369732e-07,2.495755097214242e-07,3.6572889040699724e-07,1.3877423280467044e-05
2.539781449019578e-07,2.527544050432464e-07,3.6430496681749946e-07,1.4050488379860544e-05
2.5258206677741905e-07,2.561629795902584e-07,3.6270463055104326e-07,1.4226062502932035e-05
2.5135411555701044e-07,2.5979125755546926e-07,3.609307064041614e-07,1.44034116057944e-05
2.5029465864822734e-07,2.636284549816389e-07,3.589922607031827e-07,1.4581736048360363e-05
2.4940210913296837e-07,2.676601332799601e-07,3.5690123515822174e-07,1.4760176476899127e-05
2.486735748026811e-07,2.718671802256409e-07,3.5467068632973387e-07,1.4937872155477329e-05
2.481054486016105e-07,2.7622668364518946e-07,3.5231421517685254e-07,1.5114019323517944e-05
2.476933748883763e-07,2.807133663808859e-07,3.4984492339485503e-07,1.5287894886554353e-05
2.4743161428770005e-07,2.853013400829365e-07,3.472747762086453e-07,1.545886772051105e-05
2.4731234589176644e-07,2.8996606106678664e-07,3.446145208167964e-07,1.5626414537256473e-05
2.473258197556445e-07,2.946857437303376e-07,3.418733331110363e-07,1.579011406823868e-05
2.474615879037263e-07,2.994412191594787e-07,3.3905902520854e-07,1.5949583370523864e-05
2.4770911319296236e-07,3.042146621803229e-07,3.361791021796835e-07,1.6104381243612533e-05
2.480568432423225e-07,3.089883892680796e-07,3.332408585087093e-07,1.6253953672308528e-05
2.484914409288486e-07,3.1374398203896123e-07,3.302502724196525e-07,1.639764681985519e-05
2.489983032066197e-07,3.184621990277516e-07,3.272120730510756e-07,1.6534763520114183e-05
2.49562335595714e-07,3.23123999644436e-07,3.24131716329524e-07,1.6664662702798638e-05
2.501680339712501e-07,3.2771199818778817e-07,3.210178024575516e-07,1.6786897318680034e-05
2.507997386313426e-07,3.322116623181813e-07,3.17884405473532e-07,1.6901309836700685e-05
2.5144346254166734e-07,3.3661112106951947e-07,3.147528253581457e-07,1.7007989504600627e-05
2.520893216342705e-07,3.408990361830327e-07,3.116509854365842e-07,1.7107114721338556e-05
2.527319641262672e-07,3.450629687065917e-07,3.086095556103253e-07,1.719880628918198e-05
2.53369359359347e-07,3.490907133936905e-07,3.056569328467024e-07,1.7283070687520386e-05
2.5400215635204946e-07,3.52973144337792e-07,3.028168204161301e-07,1.7359805537208014e-05
2.5463285719635906e-07,3.567055848717093e-07,3.0010892712171803e-07,1.7428811881516643e-05
2.5526438106855285e-07,3.6028694864320564e-07,2.975499364329015e-07,1.7489817658338194e-05
2.5590021008603936e-07,3.6371771185977136e-07,2.951536052932705e-07,1.7542585784708818e-05
2.5654524638081465e-07,3.669980269927625e-07,2.929312536343625e-07,1.758710999084333e-05
2.5720544374986445e-07,3.701268466940754e-07,2.9089277275265185e-07,1.7623720396850484e-05
2.578872594880443e-07,3.731019877331217e-07,2.890472458136305e-07,1.7652969162763094e-05
2.585969727156211e-07,3.7592086303445243e-07,2.874039033736081e-07,1.767541714776221e-05
2.5933980539163164e-07,3.785815613364246e-07,2.85974259370398e-07,1.7691492046261677e-05
2.6011992382415735e-07,3.810828587447504e-07,2.8477371400173626e-07,1.770149023372041e-05
2.6094064328733365e-07,3.83422789222168e-07,2.838208945761448e-07,1.7705760100396663e-05
2.618041992454908e-07,3.8559772092825155e-07,2.831364382892667e-07,1.770498205197827e-05
2.627114812530889e-07,3.8760281395015295e-07,2.8274340804138257e-07,1.770030938502864e-05
2.636621727143205e-07,3.8943300310895724e-07,2.826680739982726e-07,1.76932661527146e-05
2.646557726459579e-07,3.9108382757102826e-07,2.8293892033628194e-07,1.7685540914423557e-05
2.656927573627157e-07,3.9255165581774564e-07,2.8358375027506924e-07,1.7678816182055713e-05
2.667747135095884e-07,3.9383305353443754e-07,2.8462603960771327e-07,1.7674646335180605e-05
2.679036147657436e-07,3.949239664423707e-07,2.8608186943637034e-07,1.767436120270139e-05
2.6908134982163656e-07,3.958200660578006e-07,2.879583205721108e-07,1.7679001595610676e-05
2.703097507200788e-07,3.9651815253214773e-07,2.9025366038818433e-07,1.7689298352482252e-05
2.71590099082526e-07,3.9701702668382934e-07,2.9295869278872555e-07,1.7705679191357213e-05
2.7292220950322704e-07,3.973170771998693e-07,2.96058377288888e-07,1.772828118034854e-05
2.743043285707229e-07,3.974191336197907e-07,2.9953436332622837e-07,1.7756975615736372e-05
2.757345648726549e-07,3.9732397538892786e-07,3.033695890770996e-07,1.7791423303617445e-05
2.772133074800861e-07,3.970333680348864e-07,3.075534751970252e-07,1.783114056157018e-05
2.7874412672219263e-07,3.9655149994457385e-07,3.120837539892295e-07,1.7875534701003727e-05
2.803316184953248e-07,3.958850333903013e-07,3.1696300703842465e-07,1.792391899295762e-05
2.8197841939242906e-07,3.950412514330521e-07,3.221928677444989e-07,1.7975553123462414e-05
2.836837317707253e-07,3.9402572884882395e-07,3.2777027538211453e-07,1.802970665768035e-05
2.854431401123846e-07,3.928417387985346e-07,3.336864179264834e-07,1.8085698353020998e-05
2.8724942721983556e-07,3.91491838004501e-07,3.399260177508033e-07,1.814289617937131e-05
2.8909378953793827e-07,3.8998009081935346e-07,3.464664606192409e-07,1.820070615321816e-05
2.909663176962994e-07,3.88313304203864e-07,3.5327822607556007e-07,1.825856238960412e-05
2.92856719403506e-07,3.865011886373808e-07,3.6032638602852004e-07,1.8315905315292293e-05
2.947558233785227e-07,3.8455616463878323e-07,3.6757166351514283e-07,1.8372145189973152e-05
2.96655986565174e-07,3.8249245383063437e-07,3.7497125978163326e-07,1.8426624359277044e-05
2.985497907699563e-07,3.8032408961470744e-07,3.8248082559909856e-07,1.847861825812913e-05
3.0042860727410804e-07,3.7806283674954036e-07,3.9005687124585297e-07,1.8527416279092896e-05
3.0228217751097267e-07,3.757172066966922e-07,3.976572803060441e-07,1.8572428902852844e-05
3.0409905202124145e-07,3.7329258826481023e-07,4.0524057052757823e-07,1.8613211764398968e-05
3.058676824593344e-07,3.707917459867486e-07,4.1276691029493753e-07,1.864939830783798e-05
3.075777771376453e-07,3.6821535435294034e-07,4.2020082519708095e-07,1.8680620698167293e-05
3.092213031357368e-07,3.655623716966513e-07,4.275126577826843e-07,1.8706475059192285e-05
3.10793040732451e-07,3.6283031323402424e-07,4.3467740023055603e-07,1.872652910152025e-05
3.122903398047191e-07,3.6001628447865354e-07,4.416722013839386e-07,1.8740329230647468e-05
3.1371232791082876e-07,3.571184932853925e-07,4.4847401531919346e-07,1.8747396441185827e-05
3.150597052888209e-07,3.541366298935377e-07,4.5505796100519333e-07,1.874725114345079e-05
3.1633484349005024e-07,3.510712083596817e-07,4.613969548414952e-07,1.8739476835524897e-05
3.17540890419892e-07,3.479232420225911e-07,4.674622510468243e-07,1.872379337765841e-05
3.186800328995329e-07,3.446943615085539e-07,4.7322392152115077e-07,1.870013036098315e-05
3.1975252188856914e-07,3.413870174163578e-07,4.786514927145461e-07,1.866870762559561e-05
3.2075688808946056e-07,3.380049283072527e-07,4.837150716115119e-07,1.863008413877289e-05
3.216902489520771e-07,3.3455386107798264e-07,4.883862924731075e-07,1.8585109953160582e-05
3.2254862095281647e-07,3.3104234541725194e-07,4.926389079986441e-07,1.853477912805018e-05
3.233276433281322e-07,3.274811245425981e-07,4.964507314234654e-07,1.848004150867109e-05
3.24022893600146e-07,3.238816663489545e-07,4.998074175294697e-07,1.842165187472116e-05
3.246294353263552e-07,3.2025592877593235e-07,5.027041739653664e-07,1.836011966278464e-05
3.251416245001317e-07,3.166166250167255e-07,5.051428973442957e-07,1.829573870393629e-05
3.2555382089392875e-07,3.1297584644303826e-07,5.071289178838968e-07,1.8228631167477667e-05
3.258616696293971e-07,3.093434427641205e-07,5.086714796417803e-07,1.8158828712151827e-05
3.2606292863680713e-07,3.057268568709924e-07,5.097856144183285e-07,1.808645420570469e-05
3.261570786330136e-07,3.0213180408344736e-07,5.104920695475407e-07,1.8011892572753844e-05
3.2614474976241023e-07,2.9856335782718484e-07,5.108155986411117e-07,1.793575272496853e-05
3.2602754236374013e-07,2.950269743833308e-07,5.10782198257436e-07,1.7858660307592872e-05
3.2580715686040785e-07,2.915283287096729e-07,5.104160022121096e-07,1.7781096961161686e-05
3.254846415216969e-07,2.8807204353448373e-07,5.097378513411614e-07,1.7703404447850627e-05
3.250611612544949e-07,2.846606811330453e-07,5.087657896220814e-07,1.762596447360815e-05
3.245387703636053e-07,2.812949261894735e-07,5.075158399972214e-07,1.7549469778580112e-05
3.239197947991981e-07,2.779746784942366e-07,5.060023579184132e-07,1.7475081887227794e-05
3.2320608731700027e-07,2.7470024307657053e-07,5.042384367479347e-07,1.7404363436138323e-05
3.223993069508369e-07,2.7147335460729014e-07,5.022366225345386e-07,1.7339095058083178e-05
3.2150161494194843e-07,2.6829772569738805e-07,5.000099880477872e-07,1.7281109033193755e-05
3.2051620147836577e-07,2.651786102372892e-07,4.975730092492919e-07,1.7232170881887383e-05
3.194475995055418e-07,2.621219803459568e-07,4.949407809642794e-07,1.7193894075743385e-05
3.18301103275527e-07,2.591340706671453e-07,4.92127489222356e-07,1.716766542068056e-05
3.1708174119927175e-07,2.5622127057771046e-07,4.891469930033491e-07,1.7154581797114177e-05
3.157946574572908e-07,2.53390617159769e-07,4.860150236731273e-07,1.7155419818770887e-05
3.144459666856286e-07,2.5065108330835053e-07,4.827504074739621e-07,1.7170637866662688e-05
3.1304178082117065e-07,2.480142441629598e-07,4.793749479333032e-07,1.7200375548549006e-05
3.115864749825027e-07,2.454926329260852e-07,4.7591224524770443e-07,1.7244433285047465e-05
3.1008259654791123e-07,2.430971998669317e-07,4.723855064808041e-07,1.7302278469665422e-05
3.0853264727209397e-07,2.408365436688486e-07,4.688165123546768e-07,1.7373120653148552e-05
3.069410630271122e-07,2.387179190492902e-07,4.6522673123585213e-07,1.7456025619556895e-05
3.053144614797229e-07,2.367480385030417e-07,4.6163763250677387e-07,1.755001431750501e-05
3.0366008875314745e-07,2.3493236226110158e-07,4.5806855184329156e-07,1.7654118702260153e-05
3.019844734325086e-07,2.3327389716204929e-07,4.5453444061752433e-07,1.7767396216201698e-05
3.00293696503583e-07,2.317727653289439e-07,4.5104546308282956e-07,1.788893356443595e-05
2.985941687812947e-07,2.3042623395397387e-07,4.476077102882125e-07,1.801786195331656e-05
2.9689214270840674e-07,2.292291765734407e-07,4.442240297423543e-07,1.8153363320857527e-05
2.951925407646721e-07,2.2817536595059762e-07,4.4089458975791385e-07,1.829463865732356e-05
2.934984988395088e-07,2.2725915357386915e-07,4.376170979896825e-07,1.844084100794613e-05
2.918119310189766e-07,2.264761245233785e-07,4.343870536928629e-07,1.8591000842800258e-05
2.901356778184713e-07,2.2582281114319425e-07,4.3119795666512213e-07,1.8743982524733888e-05
2.884763805303833e-07,2.252978767350913e-07,4.2804138196356636e-07,1.889851030041457e-05
2.868448514506909e-07,2.2490429779513826e-07,4.249073688411757e-07,1.90532540691057e-05
2.852536783996058e-07,2.2464893073748435e-07,4.217850504767642e-07,1.920690044732412e-05
2.837156049403593e-07,2.245393332003087e-07,4.186629886054262e-07,1.9358163602756515e-05
2.822431841716673e-07,2.245810473641778e-07,4.155297197927649e-07,1.950577168201686e-05
2.808473562259452e-07,2.2477665397805652e-07,4.123755441927856e-07,1.9648471357932885e-05
2.795357851253839e-07,2.251262116101861e-07,4.0919460907307953e-07,1.9785046423350062e-05
2.7831282522031627e-07,2.256283548970365e-07,4.059850200962853e-07,1.9914325536773115e-05
2.771800127339421e-07,2.2628028154360272e-07,4.027470573025326e-07,2.003518132358251e-05
2.7613613001108176e-07,2.270765255140285e-07,3.994822235994718e-07,2.0146546130610986e-05
2.7517760849721285e-07,2.280093150513976e-07,3.961935338992921e-07,2.0247453368067386e-05
2.742990797684376e-07,2.2907174560767428e-07,3.928850061275521e-07,2.03370981792547e-05
2.73493964809546e-07,2.3026085262824663e-07,3.8956112085451176e-07,2.0414912134882986e-05
2.72755797720082e-07,2.3157748143085576e-07,3.8622716462620857e-07,2.0480650425463808e-05
2.7207897373830173e-07,2.330235164406828e-07,3.828884698319421e-07,2.0534447319965906e-05
2.714580746657403e-07,2.3459901709314083e-07,3.7954843448903936e-07,2.0576755342109522e-05
2.708874246696404e-07,2.3630103074796948e-07,3.762078489205496e-07,2.0608170544702946e-05
2.703611866623505e-07,2.3812386902034483e-07,3.728667039297295e-07,2.0629249593114435e-05
2.6987364650349604e-07,2.4005979810737053e-07,3.6952655805640346e-07,2.0640405281063266e-05
2.694205050327373e-07,2.420998826962873e-07,3.6619054461274844e-07,2.0641885063872927e-05
2.6900066648995035e-07,2.4423464325087037e-07,3.628614243170947e-07,2.063378964815644e-05
2.6861676089504927e-07,2.4645428392576944e-07,3.595403026770018e-07,2.0616102223609782e-05
2.6827351504549477e-07,2.4874837588208765e-07,3.5622683263675925e-07,2.058875214818032e-05
2.679750309538137e-07,2.511047873916548e-07,3.5292122228277274e-07,2.0551768342498763e-05
2.677237137433702e-07,2.5350876506218875e-07,3.496277960069754e-07,2.0505448315149657e-05
2.675217655633115e-07,2.5594295638305496e-07,3.46356805485265e-07,2.045035286840359e-05
2.6737270045425577e-07,2.583880252931947e-07,3.431223261733268e-07,2.0387128391139662e-05
2.6728085282186216e-07,2.608238547230713e-07,3.399389011103192e-07,2.031634462539743e-05
2.672498082623898e-07,2.6323154386703684e-07,3.368196703174381e-07,2.0238459394530343e-05
2.672813114543499e-07,2.655948200655143e-07,3.337755051345013e-07,2.0153943484590115e-05
2.6737491046100304e-07,2.678993734976749e-07,3.308142040518624e-07,2.006353036205488e-05
2.6752814407036144e-07,2.701313061284806e-07,3.2794064703316497e-07,1.996839473093052e-05
2.677372085595181e-07,2.722771661311434e-07,3.251587478744423e-07,1.98700965341363e-05
2.679979634063879e-07,2.743261817433711e-07,3.224736487759242e-07,1.9770390811471078e-05
2.683070888877172e-07,2.762718830502065e-07,3.198924794608783e-07,1.9671076845511906e-05
2.68662734506017e-07,2.7811057018967836e-07,3.174238059072384e-07,1.957391112449512e-05
2.690640070730134e-07,2.7983897861559855e-07,3.15076826713386e-07,1.948053804408835e-05
2.695097825365371e-07,2.814538667539869e-07,3.128616173965675e-07,1.9392421698105133e-05
2.6999818075094513e-07,2.8295233496254487e-07,3.107900765603995e-07,1.931079895938019e-05
2.7052698291235034e-07,2.843316230752793e-07,3.088757063506687e-07,1.923667628384837e-05
2.710939054622783e-07,2.855889465282617e-07,3.0713265379377264e-07,1.917084555091384e-05
2.716966442422144e-07,2.867219175042012e-07,3.055772998725989e-07,1.9113874120487708e-05
2.723327500999103e-07,2.877290953350819e-07,3.0423256866731036e-07,1.9066068655063246e-05
2.7299865703134516e-07,2.886097073209733e-07,3.0313001792815186e-07,1.9027444421412075e-05
2.736892767122798e-07,2.8936291409563105e-07,3.023064798945777e-07,1.89977220466114e-05
2.743995719271161e-07,2.89987481730593e-07,3.0179720258719106e-07,1.8976362708206872e-05
2.751258234485333e-07,2.904818142538409e-07,3.016300800825139e-07,1.8962644278425585e-05
2.7586515552727626e-07,2.9084433726937176e-07,3.018237941943135e-07,1.895575671821276e-05
2.766154647689261e-07,2.910741126623485e-07,3.02388599462814e-07,1.8954875120791068e-05
2.7737588534958147e-07,2.911720587093638e-07,3.033284830710865e-07,1.895919489823269e-05
2.781459992431361e-07,2.911428185037442e-07,3.0464448309182193e-07,1.8967954347665696e-05
2.7892456969927484e-07,2.9099531203641764e-07,3.0633678671408876e-07,1.8980457436225337e-05
2.7970911258770673e-07,2.907413217479238e-07,3.0840388827166856e-07,1.8996075568742638e-05
2.8049621118782984e-07,2.903939335275156e-07,3.1084030680169783e-07,1.9014211967001363e-05
2.812818181091257e-07,2.899674417749739e-07,3.1363492185110987e-07,1.9034243190238612e-05
2.820611595637483e-07,2.894783145561477e-07,3.167709431298039e-07,1.9055470955819464e-05
2.8282965523421765e-07,2.889449839642077e-07,3.202271873880592e-07,1.9077117155196355e-05
2.8358521296812675e-07,2.8838664155898674e-07,3.239793089097487e-07,1.9098370854338164e-05
2.8432901582300017e-07,2.878230958052567e-07,3.2800069783674664e-07,1.9118435117175284e-05
2.850634962715414e-07,2.872743652302032e-07,3.322637328811089e-07,1.9136514012382684e-05
2.857899996287283e-07,2.8675861008031375e-07,3.36740364197338e-07,1.9151764253959333e-05
2.865079407618819e-07,2.862903678683331e-07,3.4140130946143746e-07,1.9163269742105808e-05
2.8721480892623324e-07,2.858800669864012e-07,3.462161369980827e-07,1.9170055358086395e-05
2.879064514347372e-07,2.8553408247619983e-07,3.511554506639849e-07,1.9171136326416955e-05
2.885779881178812e-07,2.852550840890108e-07,3.5619327582614457e-07,1.916561377560369e-05
2.892255435556019e-07,2.850425472459568e-07,3.6130753362004595e-07,1.9152803786677668e-05
2.8984769292417807e-07,2.848935799425158e-07,3.664783997500157e-07,1.9132333247392398e-05
2.9044513092988624e-07,2.8480381270414746e-07,3.716869938111422e-07,1.9104161439249358e-05
2.9101904879198534e-07,2.8476753931883717e-07,3.7691584871579704e-07,1.906854275746684e-05
2.915700860911081e-07,2.8477774596935447e-07,3.821490617102819e-07,1.9025952759617906e-05
2.920990676480721e-07,2.848270974058161e-07,3.873710414896986e-07,1.8977009773463205e-05
2.926085497627768e-07,2.849092071911848e-07,3.925653085589945e-07,1.8922407252502052e-05
2.931030817850372e-07,2.850187223541965e-07,3.9771417083792096e-07,1.886283140011589e-05
2.9358917571915606e-07,2.8515041206599736e-07,4.027986036431986e-07,1.8798881869876472e-05
2.940760916666632e-07,2.852992165734517e-07,4.0779834183046017e-07,1.8731051972547167e-05
2.945745828017806e-07,2.854612844510885e-07,4.126939154293368e-07,1.865975446191125e-05
2.950932836192078e-07,2.8563436533599854e-07,4.174703409081411e-07,1.8585342824759164e-05
2.956367353908625e-07,2.858178770162821e-07,4.2211861923065453e-07,1.850812239369173e-05
2.962061371986329e-07,2.8601320907322785e-07,4.266328559061604e-07,1.8428370977908736e-05
2.9680024250300987e-07,2.862229251202935e-07,4.3100590218984185e-07,1.8346399918738032e-05
2.9741510813148854e-07,2.8644872341176077e-07,4.352273099583788e-07,1.826263374334913e-05
2.9804422806715645e-07,2.866909153171555e-07,4.39283639054441e-07,1.8177623973028962e-05
2.9868044014257807e-07,2.8695045233503585e-07,4.4315955774601573e-07,1.809202613482564e-05
2.993182888112565e-07,2.872311569898652e-07,4.4683934662179096e-07,1.8006621116310206e-05
2.999547451940057e-07,2.875401502951037e-07,4.503080705109629e-07,1.7922322543442546e-05
3.00587951056205e-07,2.878860984462064e-07,4.535519089919714e-07,1.784011419602976e-05
3.012153803029757e-07,2.882767785132561e-07,4.565584967189695e-07,1.7760965769799052e-05
3.018334117368899e-07,2.887179816075787e-07,4.59317172789445e-07,1.768576920365737e-05
3.024386855309998e-07,2.892137892748839e-07,4.618186079661896e-07,1.7615293089861883e-05
3.030292569886613e-07,2.8976736357485214e-07,4.640539084453145e-07,1.7550137251467993e-05
3.0360367304920237e-07,2.9038182710229823e-07,4.660133196641271e-07,1.7490693050678638e-05
3.04158734496079e-07,2.910606728383268e-07,4.676855962780738e-07,1.7437131410722635e-05
3.046883652944442e-07,2.918073484282755e-07,4.6905860903920326e-07,1.738940787584642e-05
3.051842415208191e-07,2.926244841160021e-07,4.7012071285548773e-07,1.7347264615140365e-05
3.0563743234808785e-07,2.935133447718672e-07,4.708630639545967e-07,1.7310243932406574e-05
3.0604094691408444e-07,2.944738412196431e-07,4.7128183010332356e-07,1.727772577912654e-05
3.063916414101476e-07,2.955048560617872e-07,4.713780233842868e-07,1.724896527527049e-05
3.0668910084456657e-07,2.966043517991423e-07,4.7115580888371935e-07,1.7223116034260607e-05
3.069326479376945e-07,2.9776991272528064e-07,4.706218630627993e-07,1.7199269167623512e-05
3.0711940600792196e-07,2.990001399787321e-07,4.697856695698922e-07,1.7176522344432356e-05
3.072443988582543e-07,3.002956586911089e-07,4.686595936903059e-07,1.7154041974927236e-05
3.0730214980201147e-07,3.016582519534364e-07,4.672582910260288e-07,1.713108959923277e-05
3.072883805412385e-07,3.0308898176228127e-07,4.6559740112534884e-07,1.7107012137858333e-05
3.0720126444610947e-07,3.045884834946958e-07,4.636925216537439e-07,1.7081204237178915e-05
3.07042297684896e-07,3.061590535905263e-07,4.615592660615958e-07,1.7053073526599842e-05
3.068155633369075e-07,3.078048829039641e-07,4.5921348541117355e-07,1.7022042240332292e-05
3.0652581217114876e-07,3.0953044934605174e-07,4.5667024691140795e-07,1.698757658954431e-05
3.061771677220593e-07,3.113388074626605e-07,4.5394216976725894e-07,1.6949206564271405e-05
3.057725034255077e-07,3.1323006106915777e-07,4.510389210292422e-07,1.6906515404318586e-05
