1.1773039517958971e-06,2.238664277436366e-06,5.363803071072661e-07,1.630922496641317e-05
1.19101896886613e-06,2.2579815507874057e-06,5.380251208831138e-07,1.6421084263920363e-05
1.2044803139614507e-06,2.2780179777294727e-06,5.394553280027767e-07,1.6540826850704266e-05
1.2176352025427694e-06,2.298569029802484e-06,5.406570499438144e-07,1.6668052981040484e-05
1.230426747289183e-06,2.3194463855803537e-06,5.416154571261359e-07,1.6802100947837925e-05
1.242795292136023e-06,2.3404785352723868e-06,5.423150628748798e-07,1.6942142911354966e-05
1.254685336410632e-06,2.361505397681615e-06,5.427407048158781e-07,1.7087293162981813e-05
1.2660527523777214e-06,2.3823746861847698e-06,5.428781936594882e-07,1.7236679554089912e-05
1.2768641988453924e-06,2.4029502083191285e-06,5.427138514704315e-07,1.738948867007529e-05
1.2870889363342536e-06,2.4231199432493057e-06,5.422343073184848e-07,1.754501683689305e-05
1.2966922791525416e-06,2.4427886981347918e-06,5.414277129183553e-07,1.770271001035241e-05
1.3056359476900459e-06,2.4618623224894025e-06,5.402849156012579e-07,1.7862167169836675e-05
1.3138819793868755e-06,2.480238277813148e-06,5.387988466968893e-07,1.8023122581072456e-05
1.321394914229698e-06,2.497811223114226e-06,5.369630772668119e-07,1.818541789712492e-05
1.3281408544435058e-06,2.5144933658706328e-06,5.347719842163002e-07,1.8348956029480802e-05
1.334085784258527e-06,2.5302366152114083e-06,5.322235920379754e-07,1.851363855550128e-05
1.3391945782609482e-06,2.5450397538303293e-06,5.293234172150086e-07,1.8679288841420998e-05
1.343430467424101e-06,2.558933785276555e-06,5.260857688985963e-07,1.8845575200330515e-05
1.3467562230443842e-06,2.571954552625808e-06,5.225317528134149e-07,1.901198563836202e-05
1.3491370212850571e-06,2.584124142054926e-06,5.186872977957158e-07,1.91778866122413e-05
1.3505418814294728e-06,2.5954551001090976e-06,5.145823644306599e-07,1.934259793423476e-05
1.350942508674167e-06,2.6059719974336517e-06,5.102495414568514e-07,1.9505392932584447e-05
1.3503122022876414e-06,2.6157380684181563e-06,5.057222258296033e-07,1.966545443406524e-05
1.3486268488319057e-06,2.6248751056134618e-06,5.01034600830119e-07,1.982187654217399e-05
1.3458669216175474e-06,2.6335628358062767e-06,4.962252118883962e-07,1.9973717781759922e-05
1.3420207510905078e-06,2.6420114738743246e-06,4.913423951748273e-07,2.0120034581831533e-05
1.337091066560835e-06,2.6504217740278492e-06,4.864464213022399e-07,2.0259855568648497e-05
1.331100776328181e-06,2.6589626050568275e-06,4.816064196889608e-07,2.0392146471186787e-05
1.3240907990623678e-06,2.667782945905651e-06,4.76894620807365e-07,2.0515816947118453e-05
1.3161134701654295e-06,2.6770382719592538e-06,4.7238023116589526e-07,2.062974861632008e-05
1.307232296946196e-06,2.686896242437865e-06,4.681249882175536e-07,2.073282560277448e-05
1.2975291194423322e-06,2.6975139756776285e-06,4.641821929316714e-07,2.0823992685160327e-05
1.2871111734185136e-06,2.709009142889144e-06,4.6059753240639675e-07,2.0902339836952772e-05
1.2761126906585366e-06,2.721446296509476e-06,4.574085980019519e-07,2.096714657349454e-05
1.2646885282747718e-06,2.7348388251124218e-06,4.546433225153904e-07,2.101784211730288e-05
1.2530011191653532e-06,2.749156840775398e-06,4.5231907754958775e-07,2.105394790838931e-05
1.2412066837072931e-06,2.764341386674018e-06,4.504428898299736e-07,2.1075089837410227e-05
1.229445827378345e-06,2.780324761886368e-06,4.490133215230154e-07,2.1081064502502217e-05
1.217839746151087e-06,2.797042258958722e-06,4.4802352063446904e-07,2.1071891491732204e-05
1.2064897816503564e-06,2.814431160565928e-06,4.474628935291573e-07,2.1047814256424263e-05
1.195476524693157e-06,2.832436673761518e-06,4.473171933457753e-07,2.1009249632499484e-05
1.1848579625617512e-06,2.85103085597913e-06,4.4756909452153166e-07,2.0956758150523027e-05
1.1746694996708916e-06,2.870219948556766e-06,4.481993569667744e-07,2.089110139483115e-05
1.1649264044812372e-06,2.890024091063244e-06,4.491887347511369e-07,2.0813294186957603e-05
1.155627329900693e-06,2.9104480002691224e-06,4.5052150167414143e-07,2.072454006910916e-05
1.146760142299348e-06,2.931471505244195e-06,4.5218811849112254e-07,2.062609432047218e-05
1.1383116506873057e-06,2.9530643496946516e-06,4.541836222365285e-07,2.0519135485841958e-05
1.1302782897828104e-06,2.9752073205090268e-06,4.5650314123413754e-07,2.0404705999334755e-05
1.1226725843460226e-06,2.997903350757272e-06,4.591392715956275e-07,2.0283800939696848e-05
1.1155240564321064e-06,3.0211689788465517e-06,4.620828430678157e-07,2.0157548470222005e-05
1.1088763562061823e-06,3.0450084517732538e-06,4.6532522041555243e-07,2.002727381320527e-05
1.102780083147536e-06,3.069393400600068e-06,4.688624531322668e-07,1.9894377762499148e-05
1.097280841334208e-06,3.0942683637260706e-06,4.726999591321656e-07,1.9760160854057024e-05
1.092408564036081e-06,3.1195768543633e-06,4.768508458198547e-07,1.962570501135413e-05
1.0881771813243456e-06,3.1452895604675427e-06,4.813266645761899e-07,1.949182642319536e-05
1.0845968479955471e-06,3.1714167687600237e-06,4.861290933492985e-07,1.935907136597314e-05
1.0816896344066908e-06,3.1979942457102938e-06,4.912477425652446e-07,1.9227730842185128e-05
1.079496601411993e-06,3.2250503260810397e-06,4.966618336645659e-07,1.909787577929887e-05
1.0780741528503736e-06,3.2525769648773087e-06,5.023434345080607e-07,1.896941221803876e-05
1.0774849352610815e-06,3.2805193784422414e-06,5.082615361188777e-07,1.8842122908995688e-05
1.077785729505151e-06,3.308778565709526e-06,5.143856272113076e-07,1.871567610906704e-05
1.0790145668286511e-06,3.3372153906170937e-06,5.206873701507082e-07,1.8589632704889977e-05
1.0811827893736513e-06,3.3656554884804923e-06,5.271406766529352e-07,1.8463478638341105e-05
1.0842751011460094e-06,3.3939028636186167e-06,5.337218979658449e-07,1.833667237926448e-05
1.0882555709174409e-06,3.4217613772143755e-06,5.404107546133622e-07,1.8208693805250985e-05
1.0930763627180423e-06,3.4490476888468285e-06,5.471906494286135e-07,1.8079092027910124e-05
1.0986853393742776e-06,3.4755916145970114e-06,5.540469704920878e-07,1.7947517916242207e-05
1.1050290778113865e-06,3.501245607198603e-06,5.60966158596659e-07,1.7813724127515512e-05
1.11205299012546e-06,3.5259116007630714e-06,5.679386382506522e-07,1.7677541266589665e-05
1.1197039766051556e-06,3.549562458592537e-06,5.749605606467554e-07,1.75388481995874e-05
1.1279368069219989e-06,3.5722392211754304e-06,5.820307716426347e-07,1.7397542578879717e-05
1.1367193820326382e-06,3.594028530002521e-06,5.891485697590125e-07,1.725351604832627e-05
1.1460325001200704e-06,3.615034648546662e-06,5.963148296837021e-07,1.7106634892360204e-05
1.15586459967997e-06,3.635353985486206e-06,6.03532602350199e-07,1.6956725145095627e-05
1.1662041105862186e-06,3.6550523148666566e-06,6.108048873896244e-07,1.6803593540909877e-05
1.1770321853073358e-06,3.6741505519770315e-06,6.181306641343681e-07,1.6647112746749035e-05
1.188321752130432e-06,3.692625364646356e-06,6.255014643187223e-07,1.64873131522437e-05
1.2000468376095843e-06,3.710419447501769e-06,6.329006818260175e-07,1.6324401301859132e-05
1.212193417583089e-06,3.7274564120557587e-06,6.40306179596546e-07,1.615871800425702e-05
1.2247600872583258e-06,3.7436586888025666e-06,6.476952760488969e-07,1.5990695572477072e-05
1.237750084324405e-06,3.7589603521716966e-06,6.550503018483683e-07,1.582083269619378e-05
1.2511618168765385e-06,3.7733076184858118e-06,6.62360818981733e-07,1.564966257366522e-05
1.2649800037484378e-06,3.78665021484616e-06,6.69620453438265e-07,1.547769983223232e-05
1.2791704926959958e-06,3.7989312632852373e-06,6.7682129002125e-07,1.5305407124210226e-05
1.293683504562975e-06,3.810081127197001e-06,6.83949259712731e-07,1.5133215277521469e-05
1.3084622468849873e-06,3.82001952367648e-06,6.90982719291381e-07,1.496157136703006e-05
1.323448759164111e-06,3.828665732716919e-06,6.978948569130642e-07,1.4790997890897314e-05
1.3385841210665394e-06,3.835946519230593e-06,7.046574671184665e-07,1.4622174070216007e-05
1.3538049429467137e-06,3.8417918556501545e-06,7.112446607771203e-07,1.4456021360406552e-05
1.3690397848747649e-06,3.846123884219621e-06,7.17637357968672e-07,1.4293731416007113e-05
1.3842096634110683e-06,3.848855336153299e-06,7.23826297610144e-07,1.4136680994356893e-05
1.399232008959379e-06,3.849906678858752e-06,7.298102239515924e-07,1.3986253982839447e-05
1.4140238299817382e-06,3.849231733042988e-06,7.355905148335e-07,1.384366409650854e-05
1.428503470200086e-06,3.846829448949856e-06,7.411659760143692e-07,1.3709855305631188e-05
1.442593673096782e-06,3.842732192199511e-06,7.465303110899779e-07,1.3585473884483384e-05
1.4562260005223803e-06,3.836984397396949e-06,7.516721704998861e-07,1.3470870008946824e-05
1.4693415110667631e-06,3.829628499331348e-06,7.565764677166835e-07,1.3366133758683548e-05
1.4818848044664798e-06,3.820699025065055e-06,7.61226559974055e-07,1.3271216224007044e-05
1.4937973875613702e-06,3.81022114186282e-06,7.65605962996026e-07,1.3186117690420435e-05
1.5050162231528088e-06,3.7982199425008057e-06,7.696985775318675e-07,1.3110980537626278e-05
1.5154749118953452e-06,3.784741304139464e-06,7.734883956452606e-07,1.3045985265127139e-05
1.525104009405795e-06,3.769865854647566e-06,7.769585372721822e-07,1.2991196253775045e-05
1.533831474391504e-06,3.7537012780136223e-06,7.800899377301003e-07,1.294653197693914e-05
1.5415843181034046e-06,3.736359829049238e-06,7.828615916926987e-07,1.2911873795943628e-05
1.548290853655311e-06,3.7179358100779123e-06,7.852518343497988e-07,1.2887282798879516e-05
1.5538824542021126e-06,3.6984952077442564e-06,7.872392649029853e-07,1.2873244576996373e-05
1.5582940791258013e-06,3.6780840180573e-06,7.888038928411304e-07,1.2870758250734868e-05
1.5614640255221457e-06,3.656749156191314e-06,7.899280102529343e-07,1.2881198472873218e-05
1.5633341545675457e-06,3.634559268853097e-06,7.905952799845402e-07,1.2906087286175281e-05
1.5638520219161698e-06,3.6116168062916716e-06,7.907894952159277e-07,1.2946901096219522e-05
1.562974089105761e-06,3.5880533926958155e-06,7.904956672048865e-07,1.3004933478044265e-05
1.5606669310485891e-06,3.5640083433790498e-06,7.897031135780609e-07,1.3081214883338866e-05
1.556906254664735e-06,3.539614062274238e-06,7.884075043462286e-07,1.3176475961360921e-05
1.5516761045763863e-06,3.5150104045648247e-06,7.866098971833377e-07,1.3291122286559507e-05
1.5449685434177475e-06,3.4903753733855736e-06,7.843141352685259e-07,1.3425217251478916e-05
1.5367830480650097e-06,3.465948228582821e-06,7.815247237212254e-07,1.3578481092044972e-05
1.5271269465925346e-06,3.4420352428812437e-06,7.78246178500843e-07,1.375029143557272e-05
1.5160176787203242e-06,3.4189912516802762e-06,7.744839016754347e-07,1.3939705311187753e-05
1.5034832730241786e-06,3.3971744474637836e-06,7.702454780822258e-07,1.414555505999829e-05
1.4895586347100088e-06,3.376895869111925e-06,7.655414252050067e-07,1.4366593220033584e-05
1.474281565319251e-06,3.3583983747267963e-06,7.603848342772844e-07,1.4601604524413309e-05
1.4576916499300597e-06,3.3418690626304025e-06,7.54789487089183e-07,1.48494635194151e-05
1.4398306676681088e-06,3.3274513551922512e-06,7.48768359834685e-07,1.510915647145467e-05
1.4207435158906562e-06,3.315236809269878e-06,7.423349456391513e-07,1.5379771477741472e-05
1.4004790917858611e-06,3.3052538764781818e-06,7.355054633363509e-07,1.5660484818145373e-05
1.3790900763291452e-06,3.2974703165528094e-06,7.282988117319795e-07,1.595057265166515e-05
1.3566320359000141e-06,3.291802515672095e-06,7.207348384268006e-07,1.6249411365498536e-05
1.3331626502453258e-06,3.2881227029096735e-06,7.128336237699514e-07,1.6556425333914392e-05
1.308740874530606e-06,3.2862664740506804e-06,7.046173860590559e-07,1.687100501204946e-05
1.2834260709579942e-06,3.2860426543751262e-06,6.961132890049717e-07,1.7192426441367242e-05
1.2572779240212419e-06,3.2872407621075773e-06,6.873545010407016e-07,1.7519777210815745e-05
1.2303578461140262e-06,3.2896325067278776e-06,6.783787386454372e-07,1.7851917598462138e-05
1.20273101212829e-06,3.292972982373386e-06,6.692251271386958e-07,1.818750869514336e-05
1.1744668346292592e-06,3.2970121648344965e-06,6.599322091899182e-07,1.852507352662861e-05
1.1456379899984815e-06,3.3015146699543078e-06,6.505386668967291e-07,1.8863038937179265e-05
1.1163203255126999e-06,3.3062687911637607e-06,6.410845926256213e-07,1.9199766260588283e-05
1.0865933218550826e-06,3.3110772768856027e-06,6.316117552141686e-07,1.953360155015695e-05
1.056538928633768e-06,3.3157499587982947e-06,6.221641174196454e-07,1.9862920017870085e-05
1.0262391847608641e-06,3.320111099793487e-06,6.127886993813167e-07,2.018611326029162e-05
9.95774516944753e-07,3.3240064286213816e-06,6.035343417891551e-07,2.0501542122898496e-05
9.65223028483392e-07,3.3273010305324644e-06,5.944478982427524e-07,2.0807538350691018e-05
9.346598081112915e-07,3.3298775927070918e-06,5.85570686393846e-07,2.1102501878533434e-05
9.041559612869974e-07,3.3316358169663014e-06,5.769374621966392e-07,2.1385038076536332e-05
8.737786968702449e-07,3.332485202053885e-06,5.685775954931223e-07,2.1654006017401668e-05
8.435930474207712e-07,3.3323350532640742e-06,5.605165977890757e-07,2.1908441962556075e-05
8.136638900511087e-07,3.331093772708118e-06,5.52776121942519e-07,2.2147452894435035e-05
7.840575829277138e-07,3.3286835028250665e-06,5.45372457590898e-07,2.2370149289580184e-05
7.548426194997765e-07,3.325070528259338e-06,5.383157705699868e-07,2.257563202464602e-05
7.260882318658431e-07,3.3203043380678944e-06,5.316111123189717e-07,2.276304590979469e-05
6.978621816563805e-07,3.3145399548431684e-06,5.252595590015635e-07,2.2931665911757378e-05
6.702295694976932e-07,3.30801486808387e-06,5.192581988739112e-07,2.308095080553385e-05
6.432518039184996e-07,3.300989273381253e-06,5.135996173894546e-07,2.3210557695638405e-05
6.169848223882759e-07,3.293700562733436e-06,5.082724967911319e-07,2.3320326299172862e-05
5.914784607479824e-07,3.2863661563019944e-06,5.032652372003118e-07,2.341022858775397e-05
5.667790468086065e-07,3.279211666633476e-06,4.985709237128071e-07,2.3480353807806534e-05
5.429340378553578e-07,3.2724839177345305e-06,4.94187871843203e-07,2.3530947999351732e-05
5.199958074149904e-07,3.2664355345355088e-06,4.90115942639935e-07,2.356239082869263e-05
4.980234897629752e-07,3.2612927810146325e-06,4.863552013046585e-07,2.3575144064671305e-05
4.770835381722434e-07,3.2572257521715167e-06,4.829095405489857e-07,2.356985761892727e-05
4.5724973298446894e-07,3.2543347209459843e-06,4.797916141467016e-07,2.3547566289132472e-05
4.38601547090542e-07,3.2526562959038093e-06,4.770221695770025e-07,2.3509724059901027e-05
4.212184018994796e-07,3.252182134255455e-06,4.7462212680513656e-07,2.345805098485249e-05
4.0517109856314343e-07,3.2528758367342613e-06,4.726048712601594e-07,2.3394346487162905e-05
3.9051556568253204e-07,3.2546820950190484e-06,4.7097414987166435e-07,2.332034610172536e-05
3.7729190270556005e-07,3.2575349645979137e-06,4.6972600919320153e-07,2.3237626330036746e-05
3.655268641763176e-07,3.261366866404277e-06,4.688526311198058e-07,2.3147542637422125e-05
3.5523681382611216e-07,3.266110458524871e-06,4.6834689826642437e-07,2.3051183826250673e-05
3.4643005606227265e-07,3.271690949365965e-06,4.682045343590065e-07,2.294936053520623e-05
3.3910838143016137e-07,3.2780195409514267e-06,4.684211989900537e-07,2.2842647642653075e-05
3.332703599642363e-07,3.2850049349748225e-06,4.6898814268356104e-07,2.2731444800394955e-05
3.289181819275261e-07,3.2925844033433964e-06,4.698924055769861e-07,2.261599864268183e-05
3.260646992473793e-07,3.3007501357523582e-06,4.711219230105177e-07,2.249638725297158e-05
3.247374423258016e-07,3.309545407844183e-06,4.726710612526551e-07,2.2372518480776845e-05
3.2497708106281013e-07,3.31903091859076e-06,4.745413774271046e-07,2.2244173427658352e-05
3.268278516284431e-07,3.3292459307116608e-06,4.767368582342043e-07,2.211108628358948e-05
3.303236639973881e-07,3.340190771761925e-06,4.792604697480965e-07,2.197303297279223e-05
3.354785015082045e-07,3.3518330221012886e-06,4.821150599616368e-07,2.1829897026695003e-05
3.422854622068903e-07,3.3641163211852236e-06,4.853019680397355e-07,2.1681706406851225e-05
3.5072111663623427e-07,3.3769595292601717e-06,4.888159346104008e-07,2.152865215864891e-05
3.6074914776960283e-07,3.3902534798414767e-06,4.926427812456108e-07,2.1371081324202e-05
3.723214900518519e-07,3.403861187811023e-06,4.967606638968663e-07,2.1209467125394487e-05
3.8537998801860204e-07,3.417619107797297e-06,5.011414511584721e-07,2.104438690976661e-05
3.9985939058092155e-07,3.431338272655362e-06,5.057521339074049e-07,2.087650999142023e-05
4.1568949959011713e-07,3.4448072616728347e-06,5.105560514299914e-07,2.0706562924209404e-05
4.327972428285064e-07,3.4577994570988367e-06,5.155128198677241e-07,2.053526479411715e-05
4.5110957078900843e-07,3.470086751054458e-06,5.205787844450162e-07,2.0363259272854533e-05
4.7055384898646545e-07,3.4814576126729097e-06,5.257104781998847e-07,2.0191069598468617e-05
4.910543123146814e-07,3.4917308805892823e-06,5.308699055006747e-07,2.001909684297103e-05
5.125287197029961e-07,3.5007555943921293e-06,5.360273588046655e-07,1.9847662790401692e-05
5.348882783902344e-07,3.50839609749025e-06,5.411600501021101e-07,1.9677048764708632e-05
5.580402694790207e-07,3.514517180526246e-06,5.462492131422829e-07,1.9507483542244488e-05
5.818936042296806e-07,3.518988570761284e-06,5.512790389985411e-07,1.9339105993596586e-05
6.063663736662825e-07,3.5217090887387428e-06,5.562383722276398e-07,1.917195682021866e-05
6.313910423276849e-07,3.522630080100534e-06,5.61122265574728e-07,1.900601605250177e-05
6.569141080853188e-07,3.5217634845585886e-06,5.659312275854867e-07,1.884126426211416e-05
6.828898318798404e-07,3.519178585891304e-06,5.706701029908002e-07,1.8677719055152122e-05
7.092706105815163e-07,3.5149927408984666e-06,5.753472375325133e-07,1.8515409837703486e-05
7.359995325873096e-07,3.5093507940064652e-06,5.799712326899967e-07,1.8354314189064526e-05
7.63008248030395e-07,3.502394390671813e-06,5.84545881963329e-07,1.819431205912275e-05
7.902184430958694e-07,3.494241603624758e-06,5.890682368441638e-07,1.803519937475312e-05
8.17544763841441e-07,3.484990008717328e-06,5.935309246750897e-07,1.7876762341580694e-05
8.448995707130245e-07,3.4747280778253265e-06,5.979242404269024e-07,1.771884174817193e-05
8.722005121425708e-07,3.463536572384062e-06,6.022355326189621e-07,1.7561308599158387e-05
8.993772873245663e-07,3.4514812419810792e-06,6.064484812215104e-07,1.7403991795709693e-05
9.263708964456541e-07,3.4386075658826187e-06,6.105445515186829e-07,1.7246672240667724e-05
9.531270069265385e-07,3.4249411291011053e-06,6.145055037684325e-07,1.7089160982169142e-05
9.795932841111008e-07,3.4104880556204336e-06,6.183153312654692e-07,1.693137163001018e-05
1.0057224185407109e-06,3.395234662859927e-06,6.219620189145803e-07,1.6773314426112364e-05
1.031471427604585e-06,3.3791561729657544e-06,6.254402353421783e-07,1.661502347080291e-05
1.0567936677736191e-06,3.3622372182859404e-06,6.287539896354987e-07,1.6456522693475775e-05
1.0816314666475958e-06,3.3444904664772457e-06,6.319182056779485e-07,1.6297925806294488e-05
1.105915406976038e-06,3.325960040479608e-06,6.3496039072923e-07,1.613956901607459e-05
1.1295680940444045e-06,3.3067086265666767e-06,6.37921757856421e-07,1.5981989952932652e-05
1.1525078546801625e-06,3.286795607179193e-06,6.408544193773843e-07,1.582577332312214e-05
1.1746502782419935e-06,3.266259429174113e-06,6.438133786594068e-07,1.567142360359244e-05
1.1959111310875007e-06,3.245116080764881e-06,6.468464626910314e-07,1.5519354177446718e-05
1.216217514366145e-06,3.2233702759769383e-06,6.499875428461508e-07,1.5370026200287166e-05
1.2355262838715571e-06,3.201024515628105e-06,6.532562236262885e-07,1.5224181903978835e-05
1.2538384781189293e-06,3.178078304624852e-06,6.566627080909164e-07,1.5082973003709824e-05
1.271200101318203e-06,3.1545239407148065e-06,6.602132807960937e-07,1.494787195586132e-05
1.287688050821559e-06,3.1303522640884143e-06,6.639120664244667e-07,1.482048457871789e-05
1.3033874924906178e-06,3.1055725373095988e-06,6.677592142815946e-07,1.470238177258637e-05
1.3183726331764362e-06,3.080231199909386e-06,6.717490274746933e-07,1.4594947512954844e-05
1.33269871571435e-06,3.0544118938828554e-06,6.758694617066472e-07,1.4499251285202488e-05
1.3464021023912057e-06,3.0282192920997125e-06,6.801026144687069e-07,1.4415988270597058e-05
1.359503605027127e-06,3.0017628131342635e-06,6.844258795912012e-07,1.4345485680319503e-05
1.372012795274272e-06,2.975147315532409e-06,6.888123186398533e-07,1.4287733313000845e-05
1.383930603777432e-06,2.9484664996440702e-06,6.932311941399211e-07,1.4242415759856442e-05
1.3952502302679314e-06,2.9218009963100623e-06,6.976516475890642e-07,1.4208949861880201e-05
1.4059571037078018e-06,2.8952276854394024e-06,7.020474063923952e-07,1.4186532670262177e-05
1.4160272959193525e-06,2.86883242108435e-06,7.063979759508757e-07,1.4174207356292435e-05
1.4254273664231502e-06,2.8427095087119245e-06,7.10686321033282e-07,1.4170951272309542e-05
1.4341198272820162e-06,2.816944975176522e-06,7.148962422790868e-07,1.4175774980884976e-05
1.4420719658759002e-06,2.791598536795189e-06,7.190111622054923e-07,1.4187816500374716e-05
1.4492610777342016e-06,2.766699632636333e-06,7.230138444183938e-07,1.4206413702995697e-05
1.4556739158442841e-06,2.742257936514172e-06,7.268868478473457e-07,1.4231135680105344e-05
1.461303159752786e-06,2.718276905201024e-06,7.306128867634515e-07,1.426177479826414e-05
1.4661424330495276e-06,2.69476024748692e-06,7.341735215023998e-07,1.4298321494582312e-05
1.4701808570654543e-06,2.671709986707665e-06,7.375472195736715e-07,1.434093073725291e-05
1.4733997743341257e-06,2.649120727499709e-06,7.40709040761302e-07,1.4389869202715933e-05
1.4757738782606397e-06,2.6269745191982925e-06,7.436326794321663e-07,1.4445431427115378e-05
1.4772754241395328e-06,2.605239289441452e-06,7.46294016966013e-07,1.4507827564804438e-05
1.4778775183110587e-06,2.5838751819341384e-06,7.486730883680547e-07,1.4577082428884378e-05
1.4775549294648143e-06,2.562848057902471e-06,7.507520179427091e-07,1.4653012177726621e-05
1.4762837191569098e-06,2.542137777664739e-06,7.525115205356192e-07,1.4735281000332336e-05
1.4740404647746178e-06,2.521734379926275e-06,7.539299628020614e-07,1.4823452252248504e-05
1.470802231126645e-06,2.501631616882144e-06,7.549846458782883e-07,1.491698512344723e-05
1.4665479649714667e-06,2.4818229466384444e-06,7.556532659964107e-07,1.5015217053550991e-05
1.461259172161962e-06,2.46229657630774e-06,7.559159014670223e-07,1.5117385284420232e-05
1.4549196368331282e-06,2.4430390283092003e-06,7.557573148961373e-07,1.5222696408713556e-05
1.447517008272846e-06,2.424057559683121e-06,7.551669892431557e-07,1.533038776375246e-05
1.4390458606228037e-06,2.4054047768745084e-06,7.541370413944787e-07,1.543972902003222e-05
1.4295095307217736e-06,2.3871787847625112e-06,7.526621752555023e-07,1.5549997976298503e-05
1.4189212156394958e-06,2.3694979772710663e-06,7.507429593047365e-07,1.5660465326623197e-05
1.407305820514534e-06,2.3524788093877497e-06,7.483890778599235e-07,1.577036472846438e-05
1.3947018435144086e-06,2.336238658811361e-06,7.45621398422822e-07,1.587885870319982e-05
1.3811608721197583e-06,2.3209095723667755e-06,7.424742749039674e-07,1.598505123343674e-05
1.3667421411166712e-06,2.3066352514208197e-06,7.389966239391247e-07,1.608803331298361e-05
1.351504578549035e-06,2.293549910855961e-06,7.352496325081588e-07,1.6186900299874826e-05
1.3355029008068413e-06,2.2817643946022134e-06,7.313015511669749e-07,1.6280751346661357e-05
1.3187901673312149e-06,2.271375415893095e-06,7.272202230433064e-07,1.636873134516155e-05
1.3014241090563538e-06,2.2624807369043618e-06,7.230658238468997e-07,1.645009865599517e-05
1.2834747687746826e-06,2.255176640637506e-06,7.188886663971681e-07,1.6524242579429698e-05
1.2650319630550613e-06,2.2495405367135413e-06,7.147319209694083e-07,1.6590636118684656e-05
1.2462091078072422e-06,2.245617193118552e-06,7.106336310613281e-07,1.6648779215012088e-05
1.227140527603725e-06,2.243415616117405e-06,7.066253027481154e-07,1.6698216049721707e-05
1.207973170202756e-06,2.2429135125525624e-06,7.027295644898401e-07,1.6738694738906447e-05
1.1888546940524093e-06,2.2440704785607685e-06,6.989600441748121e-07,1.6770375173476535e-05
1.1699208027259486e-06,2.2468485823655304e-06,6.953247169972209e-07,1.6793864452618107e-05
1.1512868017545816e-06,2.2512280135990387e-06,6.918316338894104e-07,1.6810042341056507e-05
1.13304567498669e-06,2.2572061212158776e-06,6.884930947444567e-07,1.681984495546912e-05
1.1152695405545247e-06,2.264782453480223e-06,6.853250018475486e-07,1.682413058630537e-05
1.0980117707362396e-06,2.2739437673914533e-06,6.823429211939988e-07,1.6823688933983553e-05
1.0813116511724637e-06,2.284659564302269e-06,6.795587252732911e-07,1.6819408604702556e-05
1.0652023695410228e-06,2.2968852488666577e-06,6.769793754512871e-07,1.6812445290792525e-05
1.0497172124587692e-06,2.310561589506634e-06,6.746082641810147e-07,1.6804206039815628e-05
1.034889248588917e-06,2.325606812845578e-06,6.724497667316801e-07,1.679618625557674e-05
1.020746355271234e-06,2.3419143128905745e-06,6.705127110197854e-07,1.6789790743775158e-05
1.0073066530238077e-06,2.359371435955961e-06,6.68807133882651e-07,1.6786193969984075e-05
9.945781615138105e-07,2.377894165725852e-06,6.673379253678876e-07,1.6786266538567318e-05
9.825621118805469e-07,2.397449321305357e-06,6.66102997656285e-07,1.6790575003478086e-05
9.7125504358133e-07,2.4180400021889993e-06,6.6509813725974e-07,1.679941545963455e-05
9.60648262370932e-07,2.4396667227039046e-06,6.643250023663763e-07,1.6812840828117918e-05
9.507281829189458e-07,2.462302692462505e-06,6.637952372074039e-07,1.6830674425728795e-05
9.414777943483959e-07,2.4858985015440185e-06,6.635269185285084e-07,1.6852524250820653e-05
9.328767320140469e-07,2.510394313254144e-06,6.635370193615258e-07,1.687781955070742e-05
9.249007560810284e-07,2.5357186574934343e-06,6.638354553473358e-07,1.690586731061839e-05
9.175235181902651e-07,2.5617788639360267e-06,6.644226987246385e-07,1.6935897634214e-05
9.107224080558548e-07,2.588461138019839e-06,6.652900881595381e-07,1.6967101191870244e-05
9.044867014035999e-07,2.6156491396447035e-06,6.664225073736412e-07,1.699868950782648e-05
8.988218855366991e-07,2.6432488618997684e-06,6.67802118528801e-07,1.702995844712833e-05
8.937455451635841e-07,2.671196172869275e-06,6.694096190062198e-07,1.7060309074441197e-05
8.892771117073351e-07,2.6994398598123556e-06,6.712226710145751e-07,1.7089231659481893e-05
8.854283276989649e-07,2.727923727583537e-06,6.732144054445656e-07,1.7116295870583798e-05
8.822004819565081e-07,2.756593852280477e-06,6.753529625796767e-07,1.7141157765547876e-05
8.795883549688333e-07,2.7854268268300704e-06,6.776013681217617e-07,1.7163552442914807e-05
8.775853559490239e-07,2.8144537316790014e-06,6.799178768599148e-07,1.7183249750964357e-05
8.76188143844763e-07,2.843756905489952e-06,6.822571839499082e-07,1.7199985731516854e-05
8.754015596004362e-07,2.873435546097263e-06,6.845719654168307e-07,1.7213419109562423e-05
8.752392383008749e-07,2.903562847297623e-06,6.868141894692396e-07,1.722317769961421e-05
8.757182145242241e-07,2.934164666429953e-06,6.889362324566353e-07,1.7228985231657205e-05
8.768528852697505e-07,2.965227763077608e-06,6.90892442770994e-07,1.7230748190244337e-05
8.786505201487992e-07,2.9967224566676057e-06,6.926421852675279e-07,1.7228514821045222e-05
8.811091106747398e-07,3.0286217752000256e-06,6.941525792405189e-07,1.7222359336771705e-05
8.842183891247739e-07,3.060906437699726e-06,6.953980471521759e-07,1.721229393217501e-05
8.879598540781169e-07,3.0935530165539123e-06,6.963578428106625e-07,1.7198247855360493e-05
8.923052069654837e-07,3.1265129244643256e-06,6.970133041908307e-07,1.7180100178006815e-05
8.972181899783434e-07,3.1596956740955968e-06,6.973451998582946e-07,1.715775501204125e-05
9.026595254282343e-07,3.192964744857705e-06,6.973328645514828e-07,1.7131219070519614e-05
9.085908487164972e-07,3.2261446963598597e-06,6.969556098212954e-07,1.7100617758394927e-05
9.149766849496544e-07,3.2590339225138712e-06,6.961943343698292e-07,1.7066152646287766e-05
9.217839268546379e-07,3.2914182421526864e-06,6.950325075009631e-07,1.702803721638467e-05
9.289773515146587e-07,3.323081061038101e-06,6.934571896410884e-07,1.6986429096945882e-05
9.365138352816795e-07,3.3538076181085166e-06,6.91459147580625e-07,1.6941387509368455e-05
9.443396935504673e-07,3.3833836701933517e-06,6.890318114376774e-07,1.68928676819043e-05
9.52391314235314e-07,3.4115921976653715e-06,6.861710549010221e-07,1.6840739959806988e-05
9.60597355303626e-07,3.438216403885628e-06,6.828766314382236e-07,1.6784849491282867e-05
9.688815749186591e-07,3.4630514300230195e-06,6.791546282062165e-07,1.6725114155167873e-05
9.77165359668788e-07,3.4859128256779023e-06,6.750198393716484e-07,1.666158623205476e-05
9.853698027653905e-07,3.506632071940211e-06,6.70496412479958e-07,1.6594430112655426e-05
9.934192192661492e-07,3.5250458710020233e-06,6.656149315982332e-07,1.652384927158713e-05
1.001247726487876e-06,3.540991006539441e-06,6.604066290804153e-07,1.6450028291079992e-05
1.0088062087598642e-06,3.5543071115035027e-06,6.548992602621612e-07,1.6373154553609054e-05
1.0160671025742898e-06,3.5648436741635947e-06,6.491177672075789e-07,1.6293478637920552e-05
1.02302781374044e-06,3.5724685657438142e-06,6.430893530991788e-07,1.6211293603378285e-05
1.0297105311246318e-06,3.5770727142887945e-06,6.368508007257825e-07,1.6126836474170194e-05
1.0361562686686244e-06,3.578566151358893e-06,6.30453580373765e-07,1.6040214332979423e-05
1.0424173177018083e-06,3.5768694659649604e-06,6.239630919445386e-07,1.5951400662881216e-05
1.0485506327502337e-06,3.571908343764795e-06,6.17453029408521e-07,1.5860272081022423e-05
1.0546098279746827e-06,3.563613582415596e-06,6.10999475538344e-07,1.57666445500999e-05
1.0606386912387774e-06,3.5519239395438887e-06,6.046777274343017e-07,1.5670298498671907e-05
1.0666725555924152e-06,3.536789522289856e-06,5.985593820174472e-07,1.557099255576387e-05
1.0727458630295015e-06,3.5181748438452795e-06,5.92707882410445e-07,1.5468468877367645e-05
1.0789005608472878e-06,3.496060509626265e-06,5.871751895243357e-07,1.536245778205144e-05
1.0851930126072778e-06,3.470443565727075e-06,5.82000773291393e-07,1.5252678008230447e-05
1.0916954023450479e-06,3.441337439801922e-06,5.772122197025259e-07,1.5138834190844225e-05
1.098488642933027e-06,3.4087728646680038e-06,5.72826795303703e-07,1.5020625386542069e-05
1.105651146904193e-06,3.3728008091806675e-06,5.688525933134223e-07,1.489776667725882e-05
1.1132493403745768e-06,3.3334966909161703e-06,5.652897184578243e-07,1.4770011802996093e-05
1.1213322913946652e-06,3.2909661142709773e-06,5.621341598275311e-07,1.4637163134389068e-05
1.1299314757565441e-06,3.245352263490401e-06,5.593853948329393e-07,1.4499064559803619e-05
1.139063470325504e-06,3.1968407916408836e-06,5.570544196190539e-07,1.4355589262471177e-05
1.1487295732485302e-06,3.1456558909180305e-06,5.551657026496169e-07,1.420662914846832e-05
1.1589117736725976e-06,3.0920483076142173e-06,5.5375018108262e-07,1.4052080870233233e-05
1.1695713624630366e-06,3.0362908093880263e-06,5.528348125070547e-07,1.3891835354789044e-05
1.180651792784356e-06,2.978695957152824e-06,5.524363383735779e-07,1.3725779819659084e-05
1.19208291272921e-06,2.9196453266339765e-06,5.525608560918339e-07,1.355380794572835e-05
1.2037868114573672e-06,2.8595990584926508e-06,5.532055448799056e-07,1.3375831273849807e-05
1.2156846482072904e-06,2.799067061826808e-06,5.543591384312785e-07,1.3191796083229187e-05
1.2277013801089992e-06,2.738557371265148e-06,5.560013488027976e-07,1.300171631995219e-05
1.2397679971661229e-06,2.678534794606921e-06,5.581031328508736e-07,1.280570741891102e-05
1.2518222360527183e-06,2.6194057236078787e-06,5.606280827993946e-07,1.260398417216716e-05
1.2638080074160679e-06,2.5615208064488057e-06,5.635348951277078e-07,1.2396823112282492e-05
1.2756736173621898e-06,2.505183630206348e-06,5.667807844643267e-07,1.2184544469708674e-05
1.287367428976555e-06,2.4506612936131097e-06,5.703238463370507e-07,1.1967557731225455e-05
1.2988320769278008e-06,2.3981956120414385e-06,5.741239455931866e-07,1.1746444810759055e-05
1.3100023049588555e-06,2.3480093380049852e-06,5.781446092007075e-07,1.1522003371799553e-05
1.3208064255550889e-06,2.3002999803050222e-06,5.823553666809979e-07,1.1295198448715593e-05
1.331168348602296e-06,2.255225081249675e-06,5.86731287679079e-07,1.1067065628687124e-05
1.3410113093665844e-06,2.212893203438028e-06,5.912499658269169e-07,1.0838661877096733e-05
1.3502618616553168e-06,2.173367795403275e-06,5.958890418933463e-07,1.0611099747595563e-05
1.3588509686933166e-06,2.1366774381509577e-06,6.00625468820212e-07,1.0385628337295376e-05
1.3667153177078698e-06,2.1028223856840043e-06,6.054343162825224e-07,1.0163703680220754e-05
1.373800774253532e-06,2.071778426323091e-06,6.102862036809695e-07,9.946984808261977e-06
1.3800630636772508e-06,2.0435092696868697e-06,6.151467243864765e-07,9.737228463362856e-06
1.3854637728676912e-06,2.017986744063655e-06,6.199791323595502e-07,9.53613209707862e-06
1.3899667108823125e-06,1.9952033056999203e-06,6.247467868388071e-07,9.34520634818466e-06
1.393538319477447e-06,1.975170960103566e-06,6.294134100733814e-07,9.165742144613497e-06
1.396150067880534e-06,1.957914349438237e-06,6.339429622156186e-07,8.998897841898799e-06
1.3977787386424185e-06,1.9434622264764997e-06,6.383006205413831e-07,8.845854197778751e-06
1.3984035579057227e-06,1.931835440940617e-06,6.424551946091898e-07,8.707918748136051e-06
1.3980032056331864e-06,1.9230329358601228e-06,6.463834710737528e-07,8.586488555898582e-06
1.3965557876974369e-06,1.9170237415436106e-06,6.50074431863468e-07,8.482885137888953e-06
1.3940412712581166e-06,1.9137533440023966e-06,6.535285946274559e-07,8.398163324374077e-06
1.3904432016679924e-06,1.913161534457968e-06,6.567518783792905e-07,8.332999466281868e-06
1.3857478950670131e-06,1.915196517581208e-06,6.59749369716424e-07,8.287683208391249e-06
1.379943081959816e-06,1.919813390264037e-06,6.625228116382222e-07,8.262168962114046e-06
1.3730198614608134e-06,1.9269583083155603e-06,6.65070464868106e-07,8.25617332139037e-06
1.3649801829847948e-06,1.9365504089614327e-06,6.673873155321365e-07,8.269353866343014e-06
1.3558464526034595e-06,1.948476149051151e-06,6.694655519161254e-07,8.301529930468684e-06
1.3456645122069377e-06,1.9625958467162e-06,6.712948642288547e-07,8.35278617026291e-06
1.3344962252154683e-06,1.978747591757525e-06,6.728621486868325e-07,8.423379380473246e-06
1.3224093635221312e-06,1.9967457815882117e-06,6.741527478730471e-07,8.513549553408122e-06
1.3094728685414795e-06,2.016384085939212e-06,6.751536601465711e-07,8.623351097608488e-06
1.2957562377494663e-06,2.037444973361621e-06,6.758544091629889e-07,8.752583920034021e-06
1.281328705044024e-06,2.0597133227825773e-06,6.76244647073741e-07,8.900916205220256e-06
1.266257607247406e-06,2.082991998327523e-06,6.763136053628197e-07,9.06813888637585e-06
1.2506084428227763e-06,2.107113400380332e-06,6.760551931491123e-07,9.25430177441229e-06
1.234448019421846e-06,2.131942314949443e-06,6.754791680799448e-07,9.45962581749748e-06
1.217847219813613e-06,2.157370931158821e-06,6.746224922517271e-07,9.684331514922933e-06
1.200879514979831e-06,2.1833086493254096e-06,6.73550198868926e-07,9.928499096588563e-06
1.183616874013208e-06,2.209668359809014e-06,6.723442421515982e-07,1.019196740191615e-05
1.1661278266215499e-06,2.2363537954896406e-06,6.710888226887422e-07,1.0474262708030146e-05
1.1484823022869058e-06,2.263259244578381e-06,6.698596915558866e-07,1.0774561490414236e-05
1.1307648117117596e-06,2.2902849523479204e-06,6.687206692257106e-07,1.1091701947135986e-05
1.1130890857557517e-06,2.3173543848675758e-06,6.677258049117047e-07,1.1424234300360268e-05
1.0956016828445637e-06,2.3444217636470402e-06,6.669222960514794e-07,1.1770465381355405e-05
1.0784695968581032e-06,2.371468008490736e-06,6.663515360952662e-07,1.2128479512639239e-05
1.0618607138498036e-06,2.398486500807522e-06,6.660490668039917e-07,1.2496156072735245e-05
1.045929580361208e-06,2.4254666590796954e-06,6.660435016638515e-07,1.2871202509121394e-05
1.0308121063740902e-06,2.4523836369390232e-06,6.663539435917841e-07,1.3251213647305804e-05
1.0166240493522243e-06,2.4791929598917697e-06,6.669878840418082e-07,1.3633763522646336e-05
1.0034579187650495e-06,2.5058254106734702e-06,6.679413001169154e-07,1.4016513216803933e-05
9.913792804955936e-07,2.532183201160574e-06,6.692000166038489e-07,1.4397297679512021e-05
9.804261996844331e-07,2.558143153203067e-06,6.707423647222486e-07,1.4774174150113815e-05
9.706114583862923e-07,2.583568267438973e-06,6.725444318942948e-07,1.5145444943411081e-05
9.619257064384316e-07,2.608318893669839e-06,6.74584841853935e-07,1.5509650308670107e-05
9.543418095606425e-07,2.632255047410655e-06,6.768439336098716e-07,1.586550663037637e-05
9.478208946579177e-07,2.6552374058671657e-06,6.792994209597266e-07,1.621180898321503e-05
9.423205857060385e-07,2.677136600230686e-06,6.819259426066612e-07,1.6547351496581115e-05
9.37805186028686e-07,2.6978421685799646e-06,6.847005261344093e-07,1.6870893546606836e-05
9.34253743836557e-07,2.7172607574693906e-06,6.876071531092154e-07,1.7181197641437806e-05
9.316594232603023e-07,2.735309441104003e-06,6.906344398321091e-07,1.747714970578113e-05
9.300189052025856e-07,2.751919087452839e-06,6.937713090007678e-07,1.7757876631067043e-05
9.293196970183115e-07,2.767056773855044e-06,6.970076919525259e-07,1.8022759391390266e-05
9.295332665275816e-07,2.7807598013792093e-06,7.003372551255464e-07,1.827136370582886e-05
9.306140697850842e-07,2.7931632978021914e-06,7.037561906713688e-07,1.8503379738549066e-05
9.325011962098192e-07,2.804502620359617e-06,7.072588103548412e-07,1.8718612771751187e-05
9.35120844793824e-07,2.8150772903879063e-06,7.108340165790284e-07,1.8916987070738428e-05
9.383897795982441e-07,2.8251898987515936e-06,7.144644260079239e-07,1.9098496000695122e-05
9.422198398687172e-07,2.835103637435807e-06,7.181271005657078e-07,1.926310705818711e-05
9.465206736624722e-07,2.845043360303313e-06,7.217946575240803e-07,1.9410706042302747e-05
9.511989044097521e-07,2.855217211688405e-06,7.25436807539542e-07,1.9541120979994897e-05
9.56156987977781e-07,2.8658277753767033e-06,7.290219119789653e-07,1.965419397289994e-05
9.612947834293848e-07,2.877065369032466e-06,7.325177882792258e-07,1.9749873435237185e-05
9.665124093139405e-07,2.8890894921654886e-06,7.3589224333669e-07,1.9828314063203494e-05
9.717118424163359e-07,2.9020088963214198e-06,7.391142003099691e-07,1.988992699731136e-05
9.76797396815732e-07,2.915870787930544e-06,7.421550953776112e-07,1.9935321825220473e-05
9.816781306720145e-07,2.9306636994291656e-06,7.449889957082912e-07,1.9965168761461287e-05
9.862739808600479e-07,2.9463368587046964e-06,7.475919424556452e-07,1.9980061386294118e-05
9.9052078826916e-07,2.9628372427673712e-06,7.499450012905293e-07,1.9980440752915907e-05
9.943680772989479e-07,2.9801524790461035e-06,7.520422164436086e-07,1.9966589619873967e-05
9.977721834269764e-07,2.99833682361454e-06,7.538960036732615e-07,1.9938660028422736e-05
1.0006915337728063e-06,3.0175035329780867e-06,7.555341079991433e-07,1.9896717535691515e-05
1.0030869029158388e-06,3.037785181125214e-06,7.569918803675152e-07,1.984085389225542e-05
1.0049263213168301e-06,3.0592861878784215e-06,7.583053339318238e-07,1.9771392587357145e-05
1.0061923214970595e-06,3.0820592085163152e-06,7.595060523005506e-07,1.968904088378923e-05
1.0068886559661508e-06,3.1061119573067893e-06,7.606184300419842e-07,1.9594815119186398e-05
1.0070439877357011e-06,3.131424136390154e-06,7.61662116461426e-07,1.9489811676791727e-05
1.0067092591016711e-06,3.1579581839477288e-06,7.626593445503141e-07,1.93750393943985e-05
1.0059485974080096e-06,3.1856640893130256e-06,7.636396286111273e-07,1.925143734317172e-05
1.004829194423903e-06,3.2144824572961656e-06,7.646372851339322e-07,1.9120090498142e-05
1.003414799982277e-06,3.2443451957694788e-06,7.656862562399086e-07,1.898251650650327e-05
1.0017625511354807e-06,3.2751731606689888e-06,7.668172141749614e-07,1.8840794941808166e-05
9.999219095284085e-07,3.3068761202859493e-06,7.680567030416891e-07,1.8697454738356336e-05
9.97935147383831e-07,3.3393607938440367e-06,7.694256966920911e-07,1.855524273658948e-05
9.958382679730198e-07,3.372543582838272e-06,7.709379646868735e-07,1.8416899806795105e-05
9.936637093343528e-07,3.406355889934277e-06,7.726000419133464e-07,1.828498551419344e-05
9.91444930860841e-07,3.440733383495548e-06,7.744127471995905e-07,1.816175570634772e-05
9.892184008632164e-07,3.4756020786323587e-06,7.763750771101037e-07,1.8049081822923602e-05
9.870236871547803e-07,3.5108866286847778e-06,7.784877544169194e-07,1.7948399864912708e-05
9.84905349679727e-07,3.546536010233561e-06,7.807510421575667e-07,1.7860689738003713e-05
9.829130666409796e-07,3.5825304584457987e-06,7.831607449355048e-07,1.7786485058129038e-05
9.810964977900752e-07,3.618854852109719e-06,7.85708816611352e-07,1.772590360095372e-05
9.794982743560022e-07,3.655462043334606e-06,7.883849754721964e-07,1.7678695488211167e-05
9.781493603930734e-07,3.6922534682016137e-06,7.911752677977764e-07,1.7644319233952257e-05
9.770677487392125e-07,3.7290810556535774e-06,7.940616176256527e-07,1.7622049447087628e-05
9.762594649363437e-07,3.765757719336486e-06,7.970246089052668e-07,1.76111033884899e-05
9.757210176864193e-07,3.802068587854242e-06,8.000456993724932e-07,1.7610758165756605e-05
9.754418611440574e-07,3.837784560414083e-06,8.031083798471794e-07,1.762042671081899e-05
9.754044159528543e-07,3.872677423904643e-06,8.062002406442593e-07,1.7639684028086565e-05
9.755824005793506e-07,3.906529497703163e-06,8.093130584514531e-07,1.7668262508452293e-05
9.75942949280994e-07,3.939133510709722e-06,8.124397121982505e-07,1.770602866855775e-05
9.764576362712006e-07,3.970287584807186e-06,8.155727959344306e-07,1.7752935670739773e-05
9.771180748300915e-07,3.999793467711511e-06,8.187069929652016e-07,1.7808956083349433e-05
9.77942335983132e-07,4.0274614647690246e-06,8.218425012503386e-07,1.7874011855900185e-05
9.789656660050905e-07,4.053117172975599e-06,8.249869414280727e-07,1.794790906847895e-05
9.80224083438363e-07,4.076601607461857e-06,8.281534339841493e-07,1.803028821311513e-05
9.81742734478725e-07,4.097765143956974e-06,8.31354691661112e-07,1.812062322448052e-05
9.83534090230055e-07,4.116461698337435e-06,8.345969629331529e-07,1.8218271614886325e-05
9.856049588361894e-07,4.132544147253007e-06,8.378773925740212e-07,1.832250599043427e-05
9.87967868118309e-07,4.145861612872948e-06,8.411857135340079e-07,1.843248791069476e-05
9.906486766936406e-07,4.15626419488862e-06,8.44508089600734e-07,1.8547240280316172e-05
9.936825489523777e-07,4.163617076807585e-06,8.478283067972727e-07,1.8665665524646235e-05
9.97101040306756e-07,4.167818678297857e-06,8.511259338743678e-07,1.878658043827184e-05
1.0009232970378257e-06,4.1688159376003646e-06,8.543764939997287e-07,1.8908726170784185e-05
1.0051570895806394e-06,4.166611528864703e-06,8.575551904955282e-07,1.9030768997808586e-05
1.0098018131379806e-06,4.161262714760556e-06,8.60640565040473e-07,1.915132654903069e-05
1.0148473056091086e-06,4.152875644979786e-06,8.636150636426548e-07,1.926902342799282e-05
1.020271565544891e-06,4.14159518188341e-06,8.66463388062861e-07,1.9382568144224082e-05
1.0260426376116708e-06,4.127586565389724e-06,8.691712118613342e-07,1.9490836791349718e-05
1.032125124418792e-06,4.11101346728677e-06,8.717247854790516e-07,1.9592956052467985e-05
1.0384850119436822e-06,4.092031245001382e-06,8.741096778130405e-07,1.96883613074432e-05
1.0450874339704941e-06,4.070806115873923e-06,8.763080266694698e-07,1.9776756082040802e-05
1.051892143900767e-06,4.047538785124806e-06,8.782969121881659e-07,1.985796805578885e-05
1.0588547464917593e-06,4.0224647536245e-06,8.800491266790724e-07,1.9931832885058027e-05
1.0659334478247699e-06,3.995833080663669e-06,8.815343403086258e-07,1.9998204839755147e-05
1.0730959036040522e-06,3.967880532592932e-06,8.827198560268074e-07,2.0057034417031414e-05
1.0803232573797306e-06,3.938810528211431e-06,8.835713854896988e-07,2.0108406987728672e-05
1.0876106175781106e-06,3.9087827639532416e-06,8.840537563261397e-07,2.015250885396672e-05
1.0949620101295428e-06,3.8779163079739055e-06,8.841321827045751e-07,2.0189556597996608e-05
1.1023803027784048e-06,3.846301682518936e-06,8.837753157456513e-07,2.021977353359461e-05
1.1098585274200629e-06,3.8140147954234316e-06,8.82958462143289e-07,2.0243422303873904e-05
1.1173768020749758e-06,3.7811240840815454e-06,8.81662914297002e-07,2.026077520456056e-05
1.1249032436215357e-06,3.7476876772601334e-06,8.798721841327084e-07,2.0272005330425823e-05
1.1323981757418495e-06,3.7137534843873886e-06,8.775705410611368e-07,2.027713406136924e-05
1.1398216448564778e-06,3.6793709606482047e-06,8.7474498544357e-07,2.0276094926677928e-05
1.147141011454529e-06,3.6445993817301682e-06,8.713867580934479e-07,2.026889538217285e-05
1.1543348468152143e-06,3.609501794391585e-06,8.674909246255592e-07,2.0255853251992602e-05
1.1613922919500263e-06,3.574141260108676e-06,8.630572699318049e-07,2.0237770824303132e-05
1.1683087773628535e-06,3.538592728166878e-06,8.580934150764029e-07,2.021589211707594e-05
1.175079110415032e-06,3.5029574182465163e-06,8.526160092372219e-07,2.0191696361363396e-05
1.1816903526036071e-06,3.4673661243438348e-06,8.466487483452809e-07,2.0166678373718984e-05
1.1881177480321054e-06,3.4319713421655847e-06,8.402207778705228e-07,2.0142170810016472e-05
1.1943245157911904e-06,3.3969305087240003e-06,8.333667690216658e-07,2.011921319116421e-05
1.2002647955268423e-06,3.3623907473468106e-06,8.26126253921457e-07,2.0098497405923307e-05
1.2058897956571763e-06,3.3284878966834104e-06,8.185403465578079e-07,2.008039723372378e-05
1.21115566096747e-06,3.2953511392352563e-06,8.10647708174208e-07,2.0065030971093578e-05
1.2160290130294566e-06,3.263096742490529e-06,8.024832494596548e-07,2.0052305512900064e-05
1.2204881115648757e-06,3.2318159175355537e-06,7.940805092324216e-07,2.0041945919373042e-05
1.2245225583009258e-06,3.201569905034979e-06,7.854752380452716e-07,2.003354704505109e-05
1.2281330085757366e-06,3.1723914167690683e-06,7.767063334488989e-07,2.0026652066234522e-05
1.2313277509460194e-06,3.1442900913535057e-06,7.67814838816664e-07,2.002081883793837e-05
1.2341195691732736e-06,3.117265582748938e-06,7.588442989517664e-07,2.0015646841900708e-05
1.23653078647144e-06,3.091319222330032e-06,7.498401772616402e-07,2.001078048223353e-05
1.2386030975746617e-06,3.0664496302385417e-06,7.408461772424767e-07,2.0005910141652666e-05
1.2404026320630259e-06,3.042640899850175e-06,7.319019755462812e-07,2.0000765097995126e-05
1.2420154512287232e-06,3.0198621400307236e-06,7.230449212137893e-07,1.9995102702132573e-05
1.2435331561429123e-06,2.9980780041823026e-06,7.143107551004424e-07,1.9988726131292755e-05
1.245035230037236e-06,2.9772588810282613e-06,7.057308905265108e-07,1.998151795417814e-05
1.2465789120400151e-06,2.9573829265534263e-06,6.973310850752144e-07,1.9973422250490822e-05
1.2481998131935568e-06,2.9384266998639894e-06,6.891329437143968e-07,1.9964358202700293e-05
1.2499162820216257e-06,2.9203502914361684e-06,6.811540906214882e-07,1.995412533953125e-05
1.2517306965495787e-06,2.903089607125812e-06,6.734070148348554e-07,1.9942372092975365e-05
1.253628913340381e-06,2.8865633062909568e-06,6.658999164684136e-07,1.992867121161297e-05
1.2555826940114216e-06,2.870688478051595e-06,6.586384800301621e-07,1.991265832183916e-05
1.2575552374701246e-06,2.8553891751638492e-06,6.516252982332744e-07,1.989411338441874e-05
1.2595057768174056e-06,2.8405906029398893e-06,6.448577252633527e-07,1.9872951920580578e-05
1.261391739218253e-06,2.8262096855508764e-06,6.383280196859903e-07,1.9849203319375546e-05
1.2631695304862342e-06,2.8121522853761355e-06,6.320272364820947e-07,1.9823020079248133e-05
1.2647947887849457e-06,2.79831534743324e-06,6.259495534989433e-07,1.979468869627082e-05
1.266223167259018e-06,2.7845910664963194e-06,6.200924556913165e-07,1.9764581155132067e-05
1.2674114062490222e-06,2.770872609905028e-06,6.144531142662882e-07,1.9733027068500564e-05
1.268318363401656e-06,2.75705795151597e-06,6.090254839249329e-07,1.970019168329538e-05
1.2689058605155838e-06,2.7430489635801003e-06,6.038001189391394e-07,1.9666077586284532e-05
1.2691372968756474e-06,2.72875157337534e-06,5.987653137115834e-07,1.963067059676539e-05
1.2689759328515834e-06,2.7140853302798583e-06,5.939077098354099e-07,1.959411329799372e-05
1.2683894580940836e-06,2.6989967533178257e-06,5.89211851729129e-07,1.955675721185548e-05
1.26735967316848e-06,2.683463508359393e-06,5.846602360021243e-07,1.9519069698693493e-05
1.2658870578926944e-06,2.6674874323861683e-06,5.802345879031232e-07,1.948148407807016e-05
1.2639870553542637e-06,2.651082570441357e-06,5.75917115925295e-07,1.94442786200698e-05
1.2616839255476743e-06,2.634267797822141e-06,5.716917378283385e-07,1.940754363914286e-05
1.2590045900263523e-06,2.6170702363899387e-06,5.675462204513585e-07,1.9371234619530717e-05
1.2559729202121857e-06,2.5995291027826844e-06,5.63473851726982e-07,1.933522313310476e-05
1.2526066660745128e-06,2.5816878261796844e-06,5.594721453257083e-07,1.929928836833182e-05
1.248916834112504e-06,2.56358088128291e-06,5.555395226118566e-07,1.9263088341770458e-05
1.244909399016243e-06,2.545226501882753e-06,5.516741820390365e-07,1.922619050138713e-05
1.240590570040242e-06,2.5266253587164158e-06,5.478756709559742e-07,1.9188224927716948e-05
1.2359743087871506e-06,2.507763264926338e-06,5.441448601854082e-07,1.9149086814673518e-05
1.2310884732549056e-06,2.4886216814570306e-06,5.404820857483519e-07,1.9108997291324803e-05
1.2259750640794262e-06,2.469193911191057e-06,5.36886939510691e-07,1.906837516760638e-05
1.2206840446473572e-06,2.4494931589803347e-06,5.333590410488208e-07,1.902769105138173e-05
1.2152688445076799e-06,2.429544340361246e-06,5.298986474092406e-07,1.898748387110319e-05
1.2097904134422036e-06,2.4093695306151102e-06,5.265081165360868e-07,1.8948491744122627e-05
1.204324312329218e-06,2.388983391043159e-06,5.231924299664632e-07,1.891167728599715e-05
1.1989606686148152e-06,2.3684024526891228e-06,5.199575493528163e-07,1.887808648860635e-05
1.1937943471060206e-06,2.3476569096364185e-06,5.168085798292592e-07,1.8848663460117818e-05
1.188911807423445e-06,2.326795849812871e-06,5.137483615930856e-07,1.882410586362941e-05
1.184385209401065e-06,2.305886596657423e-06,5.107764924364565e-07,1.880478747741309e-05
1.1802772320428196e-06,2.285007819093072e-06,5.078891959393192e-07,1.879075164925629e-05
1.1766483707637571e-06,2.2642381872462062e-06,5.050798993553554e-07,1.878174902148401e-05
1.1735584718326485e-06,2.2436521560971186e-06,5.023413759969021e-07,1.8777289251882872e-05
1.1710634406601256e-06,2.2233276295317606e-06,4.996692659061436e-07,1.877668978079228e-05
1.169213552810577e-06,2.2033527771741106e-06,4.97064397011429e-07,1.877911163617497e-05
1.1680558985531949e-06,2.183821251849138e-06,4.94532415015063e-07,1.878357956884677e-05
1.167636838783888e-06,2.164824603732726e-06,4.920817547603375e-07,1.878899547204041e-05
1.1680003721777663e-06,2.146456721333711e-06,4.897224083173119e-07,1.87941590726829e-05
1.1691812918842058e-06,2.128822662225948e-06,4.874660436568399e-07,1.8797800914596e-05
1.1711963181089093e-06,2.1120330219213403e-06,4.853249656765674e-07,1.8798625843613287e-05
1.174040376352891e-06,2.09619384618477e-06,4.833096685081613e-07,1.87953665391829e-05
1.1776891563837074e-06,2.0814154378000667e-06,4.814276938193478e-07,1.8786830755105803e-05
1.1821013064887013e-06,2.067833275611763e-06,4.796844136886103e-07,1.8771915212009267e-05
1.1872179924392682e-06,2.0556172028876844e-06,4.780838351583122e-07,1.8749588457299883e-05
1.192964487054305e-06,2.044957997512862e-06,4.7662789242539575e-07,1.871887116559205e-05
1.1992565025146569e-06,2.0360368160917047e-06,4.753151313101406e-07,1.8678836610024296e-05
1.2060088604611808e-06,2.0289968693878724e-06,4.741403450004535e-07,1.862862849466455e-05
1.21314299574062e-06,2.0239329593501702e-06,4.7309455335026036e-07,1.856746929442905e-05
1.2205917605329266e-06,2.020893919874439e-06,4.7216494651211994e-07,1.849465012290653e-05
1.228300737536689e-06,2.019887519901675e-06,4.713361192442333e-07,1.8409521554947545e-05
1.2362253430085974e-06,2.0208851549714898e-06,4.70592844808969e-07,1.831150515939897e-05
1.2443253580397288e-06,2.023824942731618e-06,4.6992236197601616e-07,1.820014578625653e-05
1.2525591827225793e-06,2.028611544741221e-06,4.69314851972149e-07,1.807519189879664e-05
1.2608796419614165e-06,2.035115276936844e-06,4.687632696322173e-07,1.7936634787031996e-05
1.2692338793227196e-06,2.0431748376569353e-06,4.6826275894668683e-07,1.7784666606902193e-05
1.2775656049514958e-06,2.052606056233804e-06,4.678088892554756e-07,1.7619606566710917e-05
1.2858147929908449e-06,2.063219302491278e-06,4.6739642673710106e-07,1.7441865948683993e-05
1.2939158386674697e-06,2.0748446568807265e-06,4.670203682822732e-07,1.7251949329193067e-05
1.3017984337274591e-06,2.0873561802181114e-06,4.666774161572311e-07,1.7050455027054015e-05
1.309391013842818e-06,2.100684761903897e-06,4.663654429567341e-07,1.683809371989789e-05
1.3166236158246688e-06,2.114811394164773e-06,4.660817628948207e-07,1.6615715783527088e-05
1.3234277480372955e-06,2.12974036125872e-06,4.658222694476236e-07,1.6384284436813964e-05
1.3297337986818856e-06,2.1454665107645555e-06,4.655817502017227e-07,1.6144815206169025e-05
1.3354691651992796e-06,2.1619572257577264e-06,4.653558266930192e-07,1.5898339897732545e-05
1.3405597290762574e-06,2.1791557733645416e-06,4.65145329031971e-07,1.5645888342806942e-05
1.344935792882713e-06,2.1969919305616185e-06,4.649610037240171e-07,1.5388470979512486e-05
1.348541140221451e-06,2.215385172391304e-06,4.6482454189012137e-07,1.5127064930467516e-05
1.3513386861592685e-06,2.2342416518260584e-06,4.6476548796500313e-07,1.4862604477639734e-05
1.3533069835899064e-06,2.2534536960376047e-06,4.6481735448288574e-07,1.459599053767997e-05
1.3544313848663949e-06,2.2729078841251043e-06,4.650141671296768e-07,1.4328131438963504e-05
1.3546988360172222e-06,2.2924983250331557e-06,4.6538781098976786e-07,1.4059977688142966e-05
1.3541013003487075e-06,2.3121334284827003e-06,4.6596757333892707e-07,1.3792503302618753e-05
1.3526441127020687e-06,2.3317332194575002e-06,4.667805017477086e-07,1.3526645091462821e-05
1.3503497661888573e-06,2.3512275813824803e-06,4.678514270099657e-07,1.3263267667828687e-05
1.3472529387883672e-06,2.370564191631113e-06,4.6920298056562356e-07,1.3003194744565174e-05
1.3433912376738029e-06,2.389722503981992e-06,4.708537171524714e-07,1.2747253906304175e-05
1.338797793346404e-06,2.408721407227654e-06,4.7281439555184977e-07,1.2496299378647895e-05
1.3334990082384754e-06,2.4276101630286555e-06,4.750860969276157e-07,1.225122579429778e-05
1.3275175628084914e-06,2.4464428270077385e-06,4.776608093424228e-07,1.201294170237819e-05
1.3208782635958724e-06,2.4652519471787284e-06,4.805222987136315e-07,1.178230872145402e-05
1.3136123466497966e-06,2.484038954054088e-06,4.836481053185021e-07,1.15601112012812e-05
1.3057572115366163e-06,2.502777459386064e-06,4.870143650868139e-07,1.1347074375927651e-05
1.2973551361342085e-06,2.5214155186858225e-06,4.906017300275868e-07,1.1143901797850392e-05
1.2884553147127074e-06,2.5398759703230417e-06,4.943990878822226e-07,1.095129344036132e-05
1.2791149173362915e-06,2.558059630751477e-06,4.984021738082781e-07,1.0769921826181433e-05
1.2693950596458392e-06,2.575849710358484e-06,5.026071535285177e-07,1.0600384083575473e-05
1.2593555041676523e-06,2.5931149971415315e-06,5.070044572063418e-07,1.0443158570022875e-05
1.2490504406004306e-06,2.6097134410935083e-06,5.115772355767108e-07,1.0298567032985382e-05
1.2385248787371966e-06,2.6254986229162715e-06,5.163036035419403e-07,1.0166741720760138e-05
1.227813500774569e-06,2.6403291532401005e-06,5.211609110722835e-07,1.0047613862073532e-05
1.2169421365859085e-06,2.6540790095485264e-06,5.261300890412095e-07,9.94093056168526e-06
1.2059296695754923e-06,2.666645647969246e-06,5.311965387638682e-07,9.846293375224098e-06
1.1947917637785627e-06,2.67795038273591e-06,5.363467619428193e-07,9.763213396434276e-06
1.183548741647648e-06,2.68792851454472e-06,5.415646089349589e-07,9.69116998161282e-06
1.1722337776900686e-06,2.696518891582796e-06,5.468302188118954e-07,9.629651066327607e-06
1.1608958444756797e-06,2.703663031463343e-06,5.521200517640027e-07,9.578174288309586e-06
1.149596092519322e-06,2.7093072611342615e-06,5.574063853252483e-07,9.536303197658801e-06
1.138399716254717e-06,2.7134012922333734e-06,5.626584310440553e-07,9.503658302882928e-06
1.1273689788980569e-06,2.7159020031459915e-06,5.678454874080432e-07,9.479918998337192e-06
1.1165613014281948e-06,2.7167848194161232e-06,5.729384631509929e-07,9.46481780488323e-06
1.10602928795015e-06,2.71604873575354e-06,5.779086192191875e-07,9.458125443080592e-06
1.0958198350460034e-06,2.713707723836134e-06,5.827267302286342e-07,9.459631986476449e-06
1.0859727271355466e-06,2.7097775481983435e-06,5.873641893250854e-07,9.469127834185837e-06
1.0765190326661929e-06,2.704267875367753e-06,5.917934331783322e-07,9.48636696676696e-06
1.0674805151848631e-06,2.697181259993261e-06,5.959868402436839e-07,9.511011560374503e-06
1.0588706346357979e-06,2.6885155803218238e-06,5.99916957075461e-07,9.542601731250123e-06
1.050695717256571e-06,2.6782664759031953e-06,6.035585306094549e-07,9.580592208670372e-06
1.0429557981916882e-06,2.666429320835858e-06,6.068912157518301e-07,9.624431816891043e-06
1.0356465923251058e-06,2.653002047622265e-06,6.099034116203676e-07,9.673599554499554e-06
1.0287637520184387e-06,2.6379945694402857e-06,6.125954853443085e-07,9.72756577487384e-06
1.0223077473007136e-06,2.6214532481607123e-06,6.149785791330211e-07,9.785748167550217e-06
1.0162847429036813e-06,2.6034919592741573e-06,6.170689541230204e-07,9.84750518896222e-06
1.0107015629322212e-06,2.5842996341455814e-06,6.188822669055075e-07,9.91213842108526e-06
1.0055627730261586e-06,2.564110561916733e-06,6.204307429466325e-07,9.978906030386284e-06
1.0008789590611306e-06,2.5431718772979006e-06,6.217227198037465e-07,1.0047080302043183e-05
9.966800000492063e-07,2.521749499245135e-06,6.227636523067954e-07,1.0116012382779939e-05
9.930189763722986e-07,2.5001611774747767e-06,6.235576904046248e-07,1.0185142396904643e-05
9.899635044310926e-07,2.478791877965858e-06,6.241086946983079e-07,1.025399805876666e-05
9.875831126264391e-07,2.4580673661387887e-06,6.244210255626968e-07,1.032224024873146e-05
9.859397719502449e-07,2.438401710509748e-06,6.245008897574936e-07,1.0389698695534646e-05
9.850815762805542e-07,2.4201581755914777e-06,6.243570936356308e-07,1.0456340317283566e-05
9.85039016153287e-07,2.4036408622928984e-06,6.240004158257814e-07,1.0522194255868463e-05
9.858257245820178e-07,2.3890971211000373e-06,6.234433354989474e-07,1.0587268931108306e-05
9.874414885105544e-07,2.376716475133666e-06,6.227018598214639e-07,1.0651499566496054e-05
9.898726435151508e-07,2.3666344419485463e-06,6.217988474471164e-07,1.0714761213604114e-05
9.930908716252519e-07,2.3589481417722256e-06,6.207660832079421e-07,1.0776913990488576e-05
9.970554711658907e-07,2.353740461291481e-06,6.196429449336626e-07,1.0837819928863188e-05
1.0017202335712571e-06,2.351105622679106e-06,6.18472013326144e-07,1.089733136073132e-05
1.0070398694593222e-06,2.35116226855018e-06,6.172934989416905e-07,1.0955270576229212e-05
1.0129723169168823e-06,2.3540418994750668e-06,6.161415513136954e-07,1.1011418829858328e-05
1.0194802530636715e-06,2.359873450871644e-06,6.15045014484286e-07,1.1065587407889243e-05
1.0265334290695688e-06,2.3687977636423725e-06,6.140303079270848e-07,1.1117781942618093e-05
1.0341068704230615e-06,2.380998123660104e-06,6.131209890199051e-07,1.1168294062139646e-05
1.0421734615194115e-06,2.3967051211767183e-06,6.123338077276582e-07,1.1217628759141857e-05
1.0506981007861788e-06,2.416164724868906e-06,6.116769117120978e-07,1.126640200767982e-05
1.059638488401598e-06,2.4395879311305755e-06,6.111529840397311e-07,1.1315278197089501e-05
1.0689484270501448e-06,2.4671077807364904e-06,6.107631346736153e-07,1.136488402424181e-05
1.0785803169193178e-06,2.4987626189872845e-06,6.105072317601821e-07,1.1415721851761796e-05
1.088489001152392e-06,2.5345056551092142e-06,6.103837244507244e-07,1.146813162144092e-05
1.0986353456514172e-06,2.5742302512087432e-06,6.103920233516358e-07,1.152227009548732e-05
1.108984824439524e-06,2.6177981736581973e-06,6.105338188791377e-07,1.1578095262535126e-05
1.1195026925375359e-06,2.6650535285888256e-06,6.108120830041594e-07,1.1635384567719029e-05
1.1301499433149895e-06,2.715812993286097e-06,6.112295259760614e-07,1.169377956583544e-05
1.1408808853761643e-06,2.769845127502266e-06,6.117856880137417e-07,1.1752821136076193e-05
1.151642852763612e-06,2.826861273362088e-06,6.124737442092131e-07,1.1811970721424042e-05
1.162377073181775e-06,2.8865236605228413e-06,6.132799805947762e-07,1.1870638765943422e-05
1.1730189376053971e-06,2.948458597128982e-06,6.141868810425252e-07,1.1928225928764544e-05
1.183498741016625e-06,3.012272430575557e-06,6.15178008010309e-07,1.198416867871507e-05
1.1937434721197883e-06,3.0775764567243403e-06,6.162399174969915e-07,1.2037967263067253e-05
1.2036810448938259e-06,3.1440082358751144e-06,6.173596288609097e-07,1.2089165818246104e-05
1.213249386281228e-06,3.2112300651042773e-06,6.185216754947623e-07,1.2137299735650572e-05
1.2224067181804906e-06,3.2789112426984074e-06,6.197069350682368e-07,1.2181863853325748e-05
1.2311356970748931e-06,3.346721085243088e-06,6.208936734682853e-07,1.222231593664872e-05
1.2394381564434362e-06,3.4143433984439462e-06,6.220616095318021e-07,1.2258093046377937e-05
1.2473232433278624e-06,3.4814966694824167e-06,6.231956730309509e-07,1.228863604639052e-05
1.2547959791066952e-06,3.547946108128708e-06,6.242846533425571e-07,1.2313418091224714e-05
1.261852020726029e-06,3.6135086515952117e-06,6.253166259505949e-07,1.2331961415409025e-05
1.268477438741406e-06,3.6780567808838098e-06,6.262780480809023e-07,1.2343861712936916e-05
1.2746493367947408e-06,3.741521576426668e-06,6.271590804641377e-07,1.234883491614234e-05
1.280337846477772e-06,3.8038847289351957e-06,6.279584353059222e-07,1.2346728936576386e-05
1.2855109262733969e-06,3.865150297632728e-06,6.286803599663689e-07,1.2337460369048398e-05
1.2901383250054724e-06,3.9253094445680875e-06,6.293272942554577e-07,1.2320933940725184e-05
1.2941913708015713e-06,3.984331801896073e-06,6.29896960414278e-07,1.2297017850411493e-05
1.2976424183101064e-06,4.042198418690565e-06,6.303858045546038e-07,1.2265597724462904e-05
1.3004690116120906e-06,4.098947562905889e-06,6.307932825227615e-07,1.2226678645823065e-05
1.3026584640513905e-06,4.15469174475833e-06,6.311213938134089e-07,1.2180440958300753e-05
1.304205505877716e-06,4.2095890771189696e-06,6.313703929290238e-07,1.212718840306468e-05
1.305106874933896e-06,4.263787289056707e-06,6.315360492398163e-07,1.2067264990935236e-05
1.3053625561601398e-06,4.317378827017313e-06,6.316112952304966e-07,1.2001022328011431e-05
1.3049835773883977e-06,4.3703905881865445e-06,6.31590576272366e-07,1.1928828435267904e-05
1.303996738664813e-06,4.422803909178294e-06,6.314735408764964e-07,1.1851123202690475e-05
1.3024395142659575e-06,4.474585517979959e-06,6.312661837653726e-07,1.1768500174119695e-05
1.300348648495395e-06,4.525703355225421e-06,6.309795083376886e-07,1.1681713336926516e-05
1.2977511711090471e-06,4.5761127374350506e-06,6.306279214686228e-07,1.159157786157182e-05
1.2946631827033424e-06,4.625730045274492e-06,6.302308177032097e-07,1.1498845947350587e-05
1.2910962101799914e-06,4.6744222725148164e-06,6.298162689209911e-07,1.1404145112148171e-05
1.2870650781959112e-06,4.72202031626853e-06,6.29420739795404e-07,1.1308033417888032e-05
1.2825895087880158e-06,4.7683493162028935e-06,6.290836347332971e-07,1.1211146844418324e-05
1.2776900163094995e-06,4.813267235782722e-06,6.288421544899424e-07,1.1114305456812927e-05
1.2723867608366351e-06,4.856696365670102e-06,6.287286690920755e-07,1.1018476697685244e-05
1.2667051065048462e-06,4.8986339996130996e-06,6.287700765517784e-07,1.0924638727763504e-05
1.2606826966461787e-06,4.939141092877743e-06,6.289915311620365e-07,1.0833643789271716e-05
1.2543716199367378e-06,4.978313685936683e-06,6.294231158322221e-07,1.0746145041098503e-05
1.24783263213429e-06,5.016243494934092e-06,6.301025932682571e-07,1.0662599826618704e-05
1.2411250802768049e-06,5.052980501381511e-06,6.310709793118007e-07,1.0583316909942245e-05
1.2343005308849758e-06,5.08851452689722e-06,6.323641247419204e-07,1.0508518109252407e-05
1.2274036105604852e-06,5.1227792144819385e-06,6.340073269774874e-07,1.0438448953212694e-05
1.2204787302222641e-06,5.155662523240776e-06,6.360174542109145e-07,1.0373560134045473e-05
1.213579381000134e-06,5.187012314392076e-06,6.384078954832515e-07,1.0314630357830647e-05
1.2067742278520737e-06,5.216644031000978e-06,6.411887554933377e-07,1.0262697383488937e-05
1.20014372746859e-06,5.244361637676278e-06,6.443623524307032e-07,1.0218865075886645e-05
1.1937675680590081e-06,5.2699894185226175e-06,6.479194750285686e-07,1.0184122533260413e-05
1.1877144749654914e-06,5.293398548624459e-06,6.518400536055383e-07,1.0159278078688008e-05
1.1820432393436878e-06,5.314517612089787e-06,6.560992474581441e-07,1.0145097661996556e-05
1.176807179180416e-06,5.333329517997052e-06,6.606771646074568e-07,1.0142562169791288e-05
1.1720516993532885e-06,5.349857751642312e-06,6.655668569219728e-07,1.0152989696187124e-05
1.1678071203160306e-06,5.36414313536768e-06,6.7077501720539e-07,1.0177922887402947e-05
1.164084033595773e-06,5.37621922265461e-06,6.763147496629943e-07,1.0218916970368463e-05
1.1608738359625022e-06,5.3861001099817115e-06,6.821978189055962e-07,1.027736727618756e-05
1.1581522175392802e-06,5.39378846976941e-06,6.884342480244946e-07,1.0354402660027933e-05
1.1558846973737407e-06,5.3992949440359815e-06,6.950373326667136e-07,1.0450816518223187e-05
1.1540367393545841e-06,5.4026535745149735e-06,7.020278850711456e-07,1.056701400580826e-05
1.1525847064005149e-06,5.4039265601719535e-06,7.094336103461929e-07,1.070298020812618e-05
1.1515169055538428e-06,5.403194088171855e-06,7.172813267179712e-07,1.0858281089164438e-05
1.1508231266040837e-06,5.40052943129807e-06,7.255868283954153e-07,1.1032095195846567e-05
1.150485434205472e-06,5.395975085159497e-06,7.343510284323256e-07,1.1223266800741663e-05
1.1504822085138607e-06,5.389534414754991e-06,7.435636324432309e-07,1.143037124601024e-05
1.1508014491456464e-06,5.381174553042868e-06,7.532102540415658e-07,1.1651784241151195e-05
1.1514481064208641e-06,5.370831891033046e-06,7.632777390962839e-07,1.1885756005217242e-05
1.1524379342664805e-06,5.358418032012387e-06,7.73753334332615e-07,1.2130495501357815e-05
1.1537843520429878e-06,5.343825145956031e-06,7.846235558049256e-07,1.2384256390805847e-05
1.155490073429585e-06,5.326931873758493e-06,7.958809311209247e-07,1.2645400847290387e-05
1.1575501736306577e-06,5.307612079254751e-06,8.075311047300127e-07,1.2912421207000579e-05
1.159962386626332e-06,5.2857422391989685e-06,8.195882147537733e-07,1.3183927923721482e-05
1.162733241964037e-06,5.261203793220248e-06,8.320612226702474e-07,1.345863271705964e-05
1.1658732532189224e-06,5.2338880278511875e-06,8.449439691056858e-07,1.373532912348022e-05
1.1693895302060292e-06,5.203709919317301e-06,8.582152309867101e-07,1.401284035288147e-05
1.173287282073435e-06,5.170624560542305e-06,8.718436334305445e-07,1.4289943168941507e-05
1.1775737839368894e-06,5.134636221261469e-06,8.857911688425108e-07,1.4565342060064691e-05
1.1822535138265082e-06,5.095794914539321e-06,9.000141282299084e-07,1.4837747149079581e-05
1.1873197680196077e-06,5.054189971431365e-06,9.144622756783665e-07,1.5106020560756115e-05
1.192751893483423e-06,5.009958385693108e-06,9.290782213987824e-07,1.5369293939355452e-05
1.1985190627619152e-06,4.963297325107948e-06,9.437982951281681e-07,1.5626980276713402e-05
1.204590793395595e-06,4.9144493296174485e-06,9.585531339693038e-07,1.58786990568495e-05
1.210949823350074e-06,4.863661601915348e-06,9.732670689956578e-07,1.612418876568861e-05
1.2175972325949959e-06,4.811153019517632e-06,9.878581206487159e-07,1.6363242646023573e-05
1.2245462647902216e-06,4.757104740314397e-06,1.002240153370897e-06,1.6595661536367555e-05
1.2318093561680031e-06,4.701662372421242e-06,1.016327425901657e-06,1.6821226852202662e-05
1.239386894548045e-06,4.644939620883477e-06,1.0300392721103051e-06,1.7039715102022252e-05
1.2472658978679692e-06,4.587023328753051e-06,1.0433013580542477e-06,1.72509382711446e-05
1.2554263490565024e-06,4.527979557768252e-06,1.0560442842410256e-06,1.7454768252057666e-05
1.2638455797403508e-06,4.467861595021501e-06,1.0682035722996729e-06,1.7651139684916636e-05
1.272500302668412e-06,4.406720854406169e-06,1.0797214788993082e-06,1.784003377063217e-05
1.2813695408798986e-06,4.3446137149312105e-06,1.0905479490957621e-06,1.8021435961892156e-05
1.2904331814189331e-06,4.281599920362183e-06,1.1006388438915147e-06,1.819528395438784e-05
1.299667743417199e-06,4.2177492829033066e-06,1.1099521399716254e-06,1.8361431080636407e-05
1.3090519548596244e-06,4.1531762313789144e-06,1.11844533240417e-06,1.851962865976013e-05
1.318582821261374e-06,4.088086119784333e-06,1.1260755543912387e-06,1.866952407644155e-05
1.3282871175228298e-06,4.02279070392907e-06,1.1328007823897184e-06,1.8810679288690626e-05
1.3382181126673019e-06,3.957671884343908e-06,1.1385806605156122e-06,1.894259800227065e-05
1.348441736474259e-06,3.893120251386342e-06,1.143376954323682e-06,1.906473885973245e-05
1.3590218391977864e-06,3.8294990572047565e-06,1.1471554549217e-06,1.9176534673986608e-05
1.3700092625454165e-06,3.7671507849552184e-06,1.1498907510494079e-06,1.927747223944419e-05
1.381433220242453e-06,3.70641324058416e-06,1.1515710415408259e-06,1.9367196769708013e-05
1.393294723225489e-06,3.647614721613839e-06,1.1521990787554342e-06,1.9445510099549522e-05
1.4055649329418979e-06,3.591053925078628e-06,1.151788735049457e-06,1.95122628877012e-05
1.4181887374252605e-06,3.5369869538559524e-06,1.1503590500109762e-06,1.9567276190202803e-05
1.4310913276453844e-06,3.4856321287481073e-06,1.1479294002190427e-06,1.961033590538227e-05
1.444186826715155e-06,3.4371767893395347e-06,1.144518512610469e-06,1.9641217483264522e-05
1.457389072977465e-06,3.391768076926757e-06,1.1401458906570002e-06,1.965971627211665e-05
1.47062128259963e-06,3.3494990010164582e-06,1.1348334793298794e-06,1.9665670567290672e-05
1.483817518687585e-06,3.310407030106848e-06,1.1286068754579858e-06,1.965896890366973e-05
1.4969143619263732e-06,3.2744854230475413e-06,1.1214954053732084e-06,1.9639550454536122e-05
1.509841704667949e-06,3.2417035456964316e-06,1.1135306044156745e-06,1.9607416663131532e-05
1.5225205598920472e-06,3.2120277579791312e-06,1.1047443655635618e-06,1.9562651622158772e-05
1.5348647290552064e-06,3.185427088191766e-06,1.0951685692889938e-06,1.9505422042582635e-05
1.54678160975406e-06,3.1618592835838335e-06,1.0848357229713888e-06,1.943594558296718e-05
1.5581730654758762e-06,3.141258146801968e-06,1.073782437483662e-06,1.935445613055541e-05
1.5689370224301726e-06,3.1235434270655984e-06,1.062059632596292e-06,1.9261187989494642e-05
1.5789694519294275e-06,3.1086419591339346e-06,1.049742263763143e-06,1.915636697540232e-05
1.588167022942111e-06,3.096497176686632e-06,1.0369254718514398e-06,1.9040194750653938e-05
1.596430732335743e-06,3.087063025416283e-06,1.0237106028047888e-06,1.8912831702350312e-05
1.6036704765833152e-06,3.0802904186930438e-06,1.0101967315448438e-06,1.8774387563496693e-05
1.6098086943163994e-06,3.076118635164602e-06,9.964812032954769e-07,1.8624922873092968e-05
1.614784421182874e-06,3.0744799769962934e-06,9.826604674596405e-07,1.846446091548213e-05
1.6185625799411605e-06,3.0753064202580113e-06,9.688286634529348e-07,1.8293005438220555e-05
1.6211427443421194e-06,3.0785211644644777e-06,9.55079401238942e-07,1.811055759866645e-05
1.62255433620487e-06,3.08402169278675e-06,9.415111990744407e-07,1.7917129607866768e-05
1.6228405235280663e-06,3.091677783336296e-06,9.282300619824995e-07,1.7712753103742582e-05
1.6220475975690637e-06,3.101351256174057e-06,9.153452428536646e-07,1.7497488517386288e-05
1.620228120119912e-06,3.1129186270223598e-06,9.029602593520409e-07,1.7271452678744493e-05
1.6174495376717016e-06,3.126277201790508e-06,8.911645104374079e-07,1.703484962140623e-05
1.6137977056992667e-06,3.14133693389258e-06,8.800311882074867e-07,1.678796346589399e-05
1.609374319299693e-06,3.158013044368934e-06,8.696217828692402e-07,1.6531121529680208e-05
1.604291815102465e-06,3.17622061167408e-06,8.59990009034137e-07,1.626467149992229e-05
1.5986662898769017e-06,3.195861320711607e-06,8.511803327383667e-07,1.5988998000631853e-05
1.5926070274024971e-06,3.216807673027807e-06,8.432249957216871e-07,1.5704577996237217e-05
1.5862060662433347e-06,3.2388964932566937e-06,8.361457459264558e-07,1.541201941967923e-05
1.5795361818476743e-06,3.2619296976752827e-06,8.299620459738134e-07,1.5112028516527564e-05
1.5726591278566928e-06,3.285679700374674e-06,8.246988040829635e-07,1.4805349245133625e-05
1.56563491512582e-06,3.3099030409520268e-06,8.203834178712741e-07,1.4492735156297776e-05
1.5585226224477688e-06,3.334357698698092e-06,8.170340307186751e-07,1.4174960881066598e-05
1.551373968512151e-06,3.3588120832886263e-06,8.146508764931044e-07,1.3852880766305027e-05
1.5442293718697115e-06,3.383042880343848e-06,8.132156951316404e-07,1.3527502767126965e-05
1.537121572982109e-06,3.406833404619679e-06,8.126957563360295e-07,1.3199977514036224e-05
1.530081267652314e-06,3.4299809650358207e-06,8.130495994944638e-07,1.2871493460562552e-05
1.5231371813510451e-06,3.4523076359195074e-06,8.142323385367005e-07,1.254320223536724e-05
1.5163104689026286e-06,3.4736683911005188e-06,8.161971118562436e-07,1.221623009297901e-05
1.5096099626734952e-06,3.4939567846569984e-06,8.188927322694404e-07,1.1891721858817333e-05
1.5030321947023997e-06,3.513104576241958e-06,8.222622800862188e-07,1.1570900179364298e-05
1.4965647163897198e-06,3.5310697027080323e-06,8.262458980129312e-07,1.125512789489104e-05
1.4901915788135862e-06,3.5478218787603104e-06,8.307858254335362e-07,1.0945892721911706e-05
1.4838991964498752e-06,3.5633446172528963e-06,8.358289397674369e-07,1.0644686313226484e-05
1.4776776005292015e-06,3.57764836297909e-06,8.413250849380257e-07,1.0352866715682864e-05
1.4715155604125988e-06,3.5907669698148545e-06,8.472242450817102e-07,1.0071591717282562e-05
1.4653959171160131e-06,3.6027318111569532e-06,8.534758655103741e-07,9.801815494039643e-06
1.459296953649982e-06,3.613547578588356e-06,8.600302938368021e-07,9.544292384535183e-06
1.4531982986103182e-06,3.6231881191288978e-06,8.668398491343443e-07,9.29958349596067e-06
1.4470869709771182e-06,3.6316123175234297e-06,8.738577323580749e-07,9.068131171685061e-06
1.4409602073160138e-06,3.6387924693831167e-06,8.810357259726721e-07,8.850444418981198e-06
1.4348250000528117e-06,3.6447413445729217e-06,8.883236591486758e-07,8.647278358081226e-06
1.4286982176653058e-06,3.6495211928090653e-06,8.95671118299312e-07,8.459608621546783e-06
1.42260792175025e-06,3.653227571550019e-06,9.030273424151636e-07,8.2884137757002e-06
1.4165899017952674e-06,3.6559573845165633e-06,9.103379094885498e-07,8.134471280841043e-06
1.4106775916438611e-06,3.6577812576574738e-06,9.175425772942572e-07,7.998291609198864e-06
1.4048936960078195e-06,3.658735280675374e-06,9.245773299139265e-07,7.880206036914003e-06
1.399248890380005e-06,3.6588337032925554e-06,9.313790950439482e-07,7.78057895175163e-06
1.3937434721351378e-06,3.6580983598607217e-06,9.378894410924002e-07,7.70000050364054e-06
1.388368218478262e-06,3.6565944661579986e-06,9.44055199541502e-07,7.639291631020584e-06
1.383103837235346e-06,3.6544490229378928e-06,9.498289431077062e-07,7.5993579558118486e-06
1.3779198754783913e-06,3.6518323361774813e-06,9.55172179364742e-07,7.581051069808421e-06
1.3727755622543501e-06,3.648916575683085e-06,9.6005738264487e-07,7.585087028364319e-06
1.3676227041054315e-06,3.6458516662592835e-06,9.644650843250885e-07,7.6119736915920545e-06
1.3624081365470077e-06,3.6427770057903914e-06,9.6837955435864e-07,7.661930371205083e-06
1.3570756780302916e-06,3.639843680114438e-06,9.717866421553344e-07,7.734840208615301e-06
1.3515707825467992e-06,3.637213650006292e-06,9.746721831552192e-07,7.830254181680005e-06
1.345848651639603e-06,3.635033114847236e-06,9.770200521441273e-07,7.947419432074674e-06
1.3398812319510917e-06,3.6334105164498086e-06,9.788118137561053e-07,8.085312809912418e-06
1.333658444149228e-06,3.6324205379953416e-06,9.800287996767038e-07,8.242686975541752e-06
1.327184914827104e-06,3.632116602237831e-06,9.806544161922555e-07,8.41812359106857e-06
1.3204762295685208e-06,3.6325297127572654e-06,9.806743263074565e-07,8.610062566833068e-06
1.3135535149109623e-06,3.633656857595017e-06,9.800764970755413e-07,8.816813780433188e-06
1.3064352745756548e-06,3.635456328038845e-06,9.788543114135651e-07,9.036601227814677e-06
1.299133362023576e-06,3.637860263477919e-06,9.77009919381169e-07,9.267642803649237e-06
1.2916575678947158e-06,3.6407961598600867e-06,9.745522932614062e-07,9.508215972790041e-06
1.2840231439494086e-06,3.644200358701838e-06,9.714915235578538e-07,9.756689048062905e-06
1.2762548461671485e-06,3.6480137169652155e-06,9.678365240973709e-07,1.0011528136660339e-05
1.268386548543048e-06,3.6521638941642618e-06,9.635974441241784e-07,1.0271264881980354e-05
1.2604576252082307e-06,3.6565508460419024e-06,9.587870548688191e-07,1.053442171899994e-05
1.2525073203490391e-06,3.6610495539158186e-06,9.534189444836251e-07,1.0799450633462545e-05
1.2445687597283744e-06,3.665529006635978e-06,9.475066925555269e-07,1.1064730878591597e-05
1.2366654889192496e-06,3.6698742958840934e-06,9.410659797567741e-07,1.1328610686766315e-05
1.2288124239503577e-06,3.673996546445106e-06,9.341162992239073e-07,1.1589476204564571e-05
1.2210205505765036e-06,3.6778234808661753e-06,9.266801442846069e-07,1.184583912646076e-05
1.2133036303161935e-06,3.681278635700726e-06,9.187806945263193e-07,1.2096397284515845e-05
1.205682014838696e-06,3.6842673387959123e-06,9.10439219282809e-07,1.2340033016027548e-05
1.1981791711309472e-06,3.686678903197133e-06,9.01673484309252e-07,1.2575772319201104e-05
1.1908164612147032e-06,3.688397132903545e-06,8.924981857992302e-07,1.28027441045474e-05
1.1836164630471474e-06,3.689306006445153e-06,8.829284032571364e-07,1.3020159296596426e-05
1.1766133956025522e-06,3.689285821676932e-06,8.729866878987655e-07,1.3227308732597615e-05
1.169858443707405e-06,3.688206551205645e-06,8.627090375904619e-07,1.3423592744565035e-05
1.1634146017953545e-06,3.685927510045253e-06,8.521439439702884e-07,1.3608581125480198e-05
1.1573464915027055e-06,3.6823030025712928e-06,8.413485932254699e-07,1.3782038899841476e-05
1.15171229061011e-06,3.67718812146145e-06,8.303882275793253e-07,1.3943892093433496e-05
1.1465594847207238e-06,3.670444922532444e-06,8.19335920501093e-07,1.4094176044539387e-05
1.1419217762211589e-06,3.6619496658381998e-06,8.08269416544043e-07,1.4232978903764438e-05
1.1378182959093614e-06,3.651595282900973e-06,7.972662378451431e-07,1.4360373827240496e-05
1.134258414439358e-06,3.639291317606904e-06,7.863982174393777e-07,1.4476364367018357e-05
1.131250372363556e-06,3.624974144841816e-06,7.757268038432351e-07,1.4580887449754238e-05
1.1288074606044286e-06,3.6086291539351335e-06,7.65301621625873e-07,1.4673880654080686e-05
1.1269454197568884e-06,3.5903120501658965e-06,7.551617266387744e-07,1.4755345088426925e-05
1.1256728180993055e-06,3.570153703917559e-06,7.453378575537999e-07,1.4825337228953173e-05
1.1249839249252284e-06,3.5483370578122e-06,7.358570134881442e-07,1.4883906698308527e-05
1.1248596860488606e-06,3.5250562211771216e-06,7.267473772456625e-07,1.4931046875183234e-05
1.125275309165302e-06,3.5004916072626183e-06,7.180388430604708e-07,1.4966731563790854e-05
1.126209093166797e-06,3.4748155420987886e-06,7.097609616469097e-07,1.499107054665843e-05
1.127645235590361e-06,3.4482026159142998e-06,7.019420105346557e-07,1.50044625371646e-05
1.1295693364750867e-06,3.4208221252950208e-06,6.946089116277988e-07,1.5007567791902051e-05
1.1319657851185933e-06,3.3928228926261737e-06,6.877883778414195e-07,1.5001140308769565e-05
1.1348224165167e-06,3.3643279595614863e-06,6.815081012775768e-07,1.498589006639923e-05
1.1381348713740378e-06,3.3354381304397587e-06,6.757934820567704e-07,1.4962425138793691e-05
1.1419055503755736e-06,3.306237137444442e-06,6.706610949798929e-07,1.493123726383341e-05
1.1461410735412728e-06,3.2767986336251926e-06,6.661153743756493e-07,1.489270497479572e-05
1.1508486066361014e-06,3.247190207401299e-06,6.621509660448452e-07,1.4847101898358658e-05
1.1560294517533664e-06,3.217469059633317e-06,6.587581961304109e-07,1.479461227376573e-05
1.1616744341867922e-06,3.187684328305168e-06,6.559271311514372e-07,1.4735364593016214e-05
1.1677633757495434e-06,3.1579015535983706e-06,6.536477079489593e-07,1.4669479694044751e-05
1.1742659047415023e-06,3.128235200186288e-06,6.519082506070468e-07,1.45971151722961e-05
1.1811432147067428e-06,3.09886110571125e-06,6.506953947378346e-07,1.4518502659130945e-05
1.18835016132584e-06,3.0699960184392713e-06,6.499963540025242e-07,1.4433981977668995e-05
1.1958366460471001e-06,3.0418587339468153e-06,6.498024422541092e-07,1.4344018459009918e-05
1.2035513271300407e-06,3.014643085572785e-06,6.501104116397049e-07,1.424919501960684e-05
1.211448929639488e-06,2.9885119962191394e-06,6.509201156368581e-07,1.4150184060812908e-05
1.2194980559043423e-06,2.963596334444388e-06,6.522304129697089e-07,1.4047688667475491e-05
1.2276870009956957e-06,2.9399909449768776e-06,6.540345081194294e-07,1.3942354804425104e-05
1.236024205303828e-06,2.9177520145918067e-06,6.563167753218879e-07,1.3834703325256033e-05
1.24452936625365e-06,2.8968995854691053e-06,6.590547284091667e-07,1.372512182207032e-05
1.2532184612220798e-06,2.877427271366575e-06,6.62224745210966e-07,1.361390082589956e-05
1.2620923018929621e-06,2.8593109071524924e-06,6.658055617680767e-07,1.3501281696510131e-05
1.2711335295793752e-06,2.8425058073282552e-06,6.697773413851753e-07,1.3387500671728285e-05
1.280309138067875e-06,2.8269392442132923e-06,6.741198667510017e-07,1.3272822553413983e-05
1.2895736027593096e-06,2.8125115252374538e-06,6.788139558150695e-07,1.315756449985038e-05
1.2988702272698493e-06,2.799107322649697e-06,6.838447985182496e-07,1.3042123759706682e-05
1.3081320833153015e-06,2.786609395918455e-06,6.892018424871583e-07,1.2927012519527893e-05
1.3172851841329328e-06,2.774908917941299e-06,6.94873991177776e-07,1.2812874478502789e-05
1.326254606543848e-06,2.7639138964437766e-06,7.008438907165117e-07,1.270046671151668e-05
1.3349727508112771e-06,2.753557555684877e-06,7.070844654154388e-07,1.259061972735863e-05
1.3433878681890221e-06,2.7438038705451497e-06,7.135588716941437e-07,1.2484176602929084e-05
1.3514685239926506e-06,2.734647927914538e-06,7.202238911982527e-07,1.2381906210684852e-05
1.3592004397490758e-06,2.7261089979060038e-06,7.270345893505851e-07,1.2284432928782567e-05
1.3665768815582805e-06,2.718214966876585e-06,7.339473002668915e-07,1.2192213743844887e-05
1.373587800400143e-06,2.710986674578624e-06,7.409208413908206e-07,1.2105535238015386e-05
1.3802147962258796e-06,2.704434800066436e-06,7.479167875989255e-07,1.2024520657381355e-05
1.386433844048726e-06,2.698568715598663e-06,7.548984815134498e-07,1.1949164858965445e-05
1.3922193459657437e-06,2.6934025517829e-06,7.618297925354609e-07,1.1879412876590085e-05
1.3975444225164044e-06,2.68895106974428e-06,7.686744798106479e-07,1.1815265878083492e-05
1.4023788667838724e-06,2.6852327240866297e-06,7.753955280274407e-07,1.17568255853641e-05
1.4066867539856623e-06,2.6822934099616626e-06,7.819558273799481e-07,1.1704231378726447e-05
1.4104246800372557e-06,2.680230195380737e-06,7.88320473935226e-07,1.1657580390817085e-05
1.4135426118284785e-06,2.679189648221286e-06,7.94457149300644e-07,1.161690032280597e-05
1.4159886915253915e-06,2.679339516858527e-06,8.003342777824559e-07,1.158214193791514e-05
1.4177169371175154e-06,2.6808304619678432e-06,8.059207349441171e-07,1.1553165696335973e-05
1.4186942796361524e-06,2.683773370680687e-06,8.111890353815522e-07,1.1529726272611459e-05
1.4189025838343813e-06,2.6882477375880808e-06,8.161200678237964e-07,1.1511458618562323e-05
1.4183340149355618e-06,2.69432692695902e-06,8.207052137481049e-07,1.1497892953123335e-05
1.4169840631431361e-06,2.7020887239903727e-06,8.249438568644774e-07,1.14885255607599e-05
1.4148485849937416e-06,2.7115974285439184e-06,8.288382256637547e-07,1.1482906723287173e-05
1.4119254367406525e-06,2.7228761377027967e-06,8.32389452643292e-07,1.1480672696263836e-05
1.4082180072872538e-06,2.73589343382642e-06,8.35596597040335e-07,1.148152043420658e-05
1.4037383734879212e-06,2.7505679382802632e-06,8.384561346483722e-07,1.1485168517923255e-05
1.3985063684913916e-06,2.7667818321821486e-06,8.40960496666731e-07,1.1491329577230584e-05
1.3925441463670616e-06,2.784398912400025e-06,8.430976214488905e-07,1.149975305292852e-05
1.385871887812121e-06,2.803288989741835e-06,8.448533794171325e-07,1.1510324164902678e-05
1.3785088714080451e-06,2.823355791914436e-06,8.462162670170086e-07,1.1523077792538146e-05
1.370476415515699e-06,2.8445539552207493e-06,8.47180503351355e-07,1.1538137603399753e-05
1.3617965937749704e-06,2.866882386010045e-06,8.477446137968211e-07,1.15556852136864e-05
1.3524883165386119e-06,2.890356091380129e-06,8.479071616829428e-07,1.1575911454948767e-05
1.3425661176770702e-06,2.914971616466644e-06,8.476639719182541e-07,1.1598941281852804e-05
1.3320410134139263e-06,2.940687596508265e-06,8.470102498065109e-07,1.1624802443677665e-05
1.3209208919261496e-06,2.9674287463000403e-06,8.459449408846596e-07,1.1653415545267565e-05
1.3092112438637743e-06,2.9950979752416906e-06,8.444711730406751e-07,1.1684578459746056e-05
1.2969178664943221e-06,3.0235798717457237e-06,8.425931609906412e-07,1.1717962936123696e-05
1.284050244808978e-06,3.05273425833924e-06,8.403146169525305e-07,1.17531244590765e-05
1.270622334572135e-06,3.082390343321366e-06,8.376386589643505e-07,1.178951794146682e-05
1.2566512127843144e-06,3.112350734941549e-06,8.345665142148523e-07,1.1826515776953375e-05
1.2421556334258308e-06,3.1424000832197218e-06,8.310959450221254e-07,1.1863424688794072e-05
1.2271550197176523e-06,3.172308039078513e-06,8.272214523902047e-07,1.1899502024156135e-05
1.2116718411510952e-06,3.201829232949118e-06,8.229365054289713e-07,1.1933979865042908e-05
1.1957369809436035e-06,3.230710132430406e-06,8.182363536149091e-07,1.1966093203239995e-05
1.179390913696275e-06,3.258700522957539e-06,8.131196512974175e-07,1.1995092265237574e-05
1.1626800461088517e-06,3.2855573901903094e-06,8.075900013750384e-07,1.2020243564016385e-05
1.1456560376577649e-06,3.311040393444075e-06,8.016596242891605e-07,1.2040835086951367e-05
1.1283792003604178e-06,3.334910037174853e-06,7.953522342568609e-07,1.205617571784204e-05
1.1109191269869295e-06,3.3569334610758625e-06,7.887001414058922e-07,1.2065587895668374e-05
1.0933499754944098e-06,3.376894596954198e-06,7.81737597169051e-07,1.2068408857595622e-05
1.0757444613919926e-06,3.3946073180713207e-06,7.74497483661416e-07,1.206400020477164e-05
1.0581701752885244e-06,3.4099348513340178e-06,7.670146944668931e-07,1.2051760109572625e-05
1.0406890357310468e-06,3.422811600946775e-06,7.593315356024196e-07,1.203114151804731e-05
1.0233602849341811e-06,3.4332455405991814e-06,7.514975337863415e-07,1.2001679558580307e-05
1.006244366325908e-06,3.4412881235884806e-06,7.435646757102649e-07,1.1963020186701535e-05
9.89402268764978e-07,3.4469981165134436e-06,7.355860244447894e-07,1.1914933937497193e-05
9.728915869730986e-07,3.4504303108611374e-06,7.276181429773874e-07,1.1857312170251766e-05
9.567662326153982e-07,3.4516442778076537e-06,7.197203821416558e-07,1.1790158110420942e-05
9.410804160619316e-07,3.4507159004995935e-06,7.119491698564477e-07,1.1713574717763576e-05
9.258901009009458e-07,3.4477444221247405e-06,7.043519070485418e-07,1.1627744007590644e-05
9.112477691894527e-07,3.442851050447782e-06,6.969644720610752e-07,1.1532906474488229e-05
8.971954349863373e-07,3.4361712133829537e-06,6.898135562636873e-07,1.1429354026953834e-05
8.837634724770102e-07,3.427848719300888e-06,6.829225543582921e-07,1.131744564581969e-05
8.709741576649199e-07,3.418031449393723e-06,6.763171026405056e-07,1.1197632575561487e-05
8.588440218587426e-07,3.4068608587159144e-06,6.700276049877515e-07,1.1070446909111459e-05
8.473850132893063e-07,3.3944594611753965e-06,6.640889762727079e-07,1.0936465963970498e-05
8.366065724390671e-07,3.3809269985100947e-06,6.585369260870942e-07,1.0796333666125892e-05
8.265168733160581e-07,3.3663424759190463e-06,6.534021977830382e-07,1.0650824572098833e-05
8.171225372878113e-07,3.35076548075612e-06,6.487087838903711e-07,1.0500840720144007e-05
8.08429051785861e-07,3.3342374690375507e-06,6.444772964452732e-07,1.0347321840784867e-05
8.004433346384021e-07,3.3167818228469847e-06,6.407267047165461e-07,1.0191154251842401e-05
7.931785679204072e-07,3.298402630074948e-06,6.374709596961459e-07,1.0033142636387323e-05
7.866579280761941e-07,3.2790875631958425e-06,6.347158576515356e-07,9.874061583863169e-06
7.809106617848053e-07,3.258816317392095e-06,6.32460557559761e-07,9.714760477465946e-06
7.759619144270348e-07,3.237568237255357e-06,6.306998063310232e-07,9.556229439575936e-06
7.718285852722673e-07,3.215322473704415e-06,6.294229828821611e-07,9.399549024715448e-06
7.685269237933283e-07,3.1920553369142637e-06,6.286132630638858e-07,9.245764499191431e-06
7.660819357677702e-07,3.167745130462696e-06,6.282502526138699e-07,9.095786054923822e-06
7.645299441172656e-07,3.1423840767020705e-06,6.283142429488011e-07,8.950355513257409e-06
7.639161646601931e-07,3.1159902283467825e-06,6.287884835741401e-07,8.810054844479442e-06
7.642884736302922e-07,3.088612686975473e-06,6.296573351235919e-07,8.675329818146097e-06
7.656888133971505e-07,3.060323010710204e-06,6.309019013564717e-07,8.546524847052308e-06
7.68148392382583e-07,3.0311960674458647e-06,6.324972107293848e-07,8.423958973594646e-06
7.716862963096022e-07,3.0012954100571337e-06,6.344122363815724e-07,8.308050718726171e-06
7.763057638565679e-07,2.9706705919076038e-06,6.366106133735322e-07,8.199387420259679e-06
7.819896052230467e-07,2.9393637709420584e-06,6.39050822972038e-07,8.098649077367073e-06
7.886992691430135e-07,2.9074255688297127e-06,6.416867015117232e-07,8.00646391672253e-06
7.963768924652426e-07,2.8749351677979236e-06,6.444687361726641e-07,7.92331156067295e-06
