1.589347129293984e-06,4.238825271307684e-06,1.0333772816405121e-06,1.7024101512096274e-05
1.5861339025973445e-06,4.209272347391649e-06,1.0238605098827691e-06,1.6984964846819145e-05
1.582778957051244e-06,4.178099285253595e-06,1.01404291341481e-06,1.6945263363908218e-05
1.5792870315366004e-06,4.1454152547141155e-06,1.0039618169753422e-06,1.690477001424528e-05
1.575661904587244e-06,4.111314757831745e-06,9.936568206421962e-07,1.6863178350684774e-05
1.5719024031103257e-06,4.075889560522242e-06,9.831688346574142e-07,1.6820183996211498e-05
1.5679985027756538e-06,4.039237374562936e-06,9.725371208092182e-07,1.6775555264492085e-05
1.5639295238382363e-06,4.0014641629627325e-06,9.617980441607378e-07,1.6729133465265514e-05
1.559664777229896e-06,3.962678248446853e-06,9.509858196843181e-07,1.6680781368422377e-05
1.5551704308110809e-06,3.922980978659888e-06,9.401375621550369e-07,1.6630324535388253e-05
1.5504222746681611e-06,3.8824606971043084e-06,9.293021760498772e-07,1.6577509483002598e-05
1.545411791119219e-06,3.841191586422919e-06,9.185422594380999e-07,1.6522020324862567e-05
1.540137977332603e-06,3.799234883453585e-06,9.079243501155839e-07,1.6463562227948284e-05
1.5345972064216453e-06,3.756641136749128e-06,8.975098278318081e-07,1.640192265610984e-05
1.5287842513415385e-06,3.7134535470042816e-06,8.873561812191472e-07,1.6336945070136448e-05
1.5227013325981042e-06,3.669709621599482e-06,8.775213502858679e-07,1.626847564922248e-05
1.516364829201736e-06,3.6254387631521887e-06,8.680619781000298e-07,1.6196348599616508e-05
1.509803014634447e-06,3.580658396335688e-06,8.590279985733513e-07,1.6120382739014887e-05
1.5030459999617114e-06,3.5353724864622293e-06,8.504596606478606e-07,1.6040361414754253e-05
1.4961177141433252e-06,3.4895725328275697e-06,8.423888527055234e-07,1.595603216409866e-05
1.4890371619976499e-06,3.4432391370996406e-06,8.348429229642836e-07,1.58671750156215e-05
1.4818238256362239e-06,3.3963463808612945e-06,8.278467865053846e-07,1.5773748238035173e-05
1.474499999031165e-06,3.3488732950661614e-06,8.214201370462775e-07,1.567603557718767e-05
1.4670901973643047e-06,3.300820779632134e-06,8.155721423064429e-07,1.5574669750641445e-05
1.459619725803535e-06,3.2522242178800812e-06,8.102993923499731e-07,1.5470512699395796e-05
1.4521123869482022e-06,3.203151726849103e-06,8.055896225517305e-07,1.5364494959706376e-05
1.4445869183950412e-06,3.1536923252492733e-06,8.014289652763908e-07,1.5257491511270288e-05
1.4370526944437437e-06,3.1039525330580543e-06,7.978068558603699e-07,1.5150278160329276e-05
1.4295068217620204e-06,3.0540727326044494e-06,7.947149828058516e-07,1.5043626923755795e-05
1.4219359288521846e-06,3.0042518121996947e-06,7.92147231992106e-07,1.4938481315737024e-05
1.4143256926257437e-06,2.9547525169955134e-06,7.90106624355806e-07,1.4836028986051901e-05
1.4066770665085123e-06,2.905873271610177e-06,7.886119261148536e-07,1.4737620743845224e-05
1.3990188874547016e-06,2.8579108037481377e-06,7.876964934956322e-07,1.4644644028272946e-05
1.3914045112290442e-06,2.811148156333836e-06,7.874012247980876e-07,1.4558417781194766e-05
1.3838975087034755e-06,2.7658659734210882e-06,7.877667580491416e-07,1.4480107555118973e-05
1.3765675970476822e-06,2.7223500799493188e-06,7.888285151780531e-07,1.4410663041913895e-05
1.3695042869847394e-06,2.6808824213553368e-06,7.90613768019275e-07,1.4350789446150022e-05
1.3628312449942038e-06,2.641721242278448e-06,7.931379273821494e-07,1.4300953808030896e-05
1.3567046889070077e-06,2.605081831275805e-06,7.964018357081191e-07,1.4261405916010812e-05
1.3512957839112496e-06,2.571127075639032e-06,8.00394216320381e-07,1.4232183948041241e-05
1.3467668636515885e-06,2.5399682470669143e-06,8.05098189831742e-07,1.4213099287917465e-05
1.3432521365293921e-06,2.511667231383305e-06,8.104960387664408e-07,1.4203726888921713e-05
1.3408489082017888e-06,2.4862360925909716e-06,8.165701673584285e-07,1.4203428337506455e-05
1.3396181790577e-06,2.463640734448636e-06,8.233030054182978e-07,1.4211410476385134e-05
1.3395882663879162e-06,2.443812562953796e-06,8.306748910344869e-07,1.4226801742977415e-05
1.3407563679584535e-06,2.4266618891679384e-06,8.386580346886078e-07,1.4248723631642734e-05
1.343089800773061e-06,2.4120859993803507e-06,8.472115354416527e-07,1.4276331584195856e-05
1.3465313630378642e-06,2.39996932994751e-06,8.562823236316658e-07,1.4308819414122507e-05
1.351008555578835e-06,2.3901772505414657e-06,8.65809713177639e-07,1.4345416724028751e-05
1.3564430329890906e-06,2.382550335376254e-06,8.757290021202884e-07,1.4385384462639688e-05
1.3627578506299508e-06,2.3769062067163768e-06,8.859725950150316e-07,1.4427989870520205e-05
1.3698807349341408e-06,2.373054637446216e-06,8.964696667967937e-07,1.4472483870686896e-05
1.3777424734869336e-06,2.370833047493811e-06,9.07147284996212e-07,1.4518103495232558e-05
1.3862721327057285e-06,2.3701556034288525e-06,9.179342505255188e-07,1.4564072473175666e-05
1.3953913563548884e-06,2.371042967505214e-06,9.287636974922621e-07,1.460959159330643e-05
1.4050101672652482e-06,2.3736003358560603e-06,9.395719379251076e-07,1.4653862264228e-05
1.4150266326152276e-06,2.377957698782888e-06,9.502963781245365e-07,1.4696144013387995e-05
1.4253286523441318e-06,2.3842299389581628e-06,9.608757089245724e-07,1.4735781002849265e-05
1.4357953519632339e-06,2.3925279267694475e-06,9.7125329980865e-07,1.477218414553667e-05
1.446300795915814e-06,2.4029865412157138e-06,9.81382475250425e-07,1.4804815972233646e-05
1.4567219883814269e-06,2.415763116925084e-06,9.912303223952616e-07,1.4833195675260807e-05
1.466945569532349e-06,2.4310041010172003e-06,1.0007762027361806e-06,1.4856900357894919e-05
1.476867745686189e-06,2.448812419194168e-06,1.0100066819684327e-06,1.4875542357529795e-05
1.4863927715124511e-06,2.4692367525976426e-06,1.0189140457953651e-06,1.4888748921618e-05
1.4954386103391526e-06,2.492271545457769e-06,1.027499336519754e-06,1.4896178826483324e-05
1.5039465875002615e-06,2.5178540799445184e-06,1.0357744674505323e-06,1.4897564713877505e-05
1.511885325022899e-06,2.5458649176608997e-06,1.0437609930552955e-06,1.4892762800554855e-05
1.5192453159367726e-06,2.5761363844193106e-06,1.0514851439931125e-06,1.4881808029956556e-05
1.526027530605621e-06,2.608466364377244e-06,1.0589697383313663e-06,1.4864950348746327e-05
1.532237136371524e-06,2.642643107860717e-06,1.0662291789892784e-06,1.4842611399283075e-05
1.5378889665584445e-06,2.678479766101291e-06,1.0732745757041596e-06,1.4815255495189075e-05
1.5430133319684143e-06,2.7158337835066885e-06,1.0801254222097331e-06,1.4783290207818079e-05
1.5476521681410314e-06,2.754593776193982e-06,1.0868157578994956e-06,1.4747084180360073e-05
1.5518504826484087e-06,2.794659247321329e-06,1.0933881927041424e-06,1.4707038820135445e-05
1.555649109544567e-06,2.8359492260609316e-06,1.0998809017702034e-06,1.4663612957764254e-05
1.5590819501102525e-06,2.8784292823331452e-06,1.1063188563723422e-06,1.4617275132086993e-05
1.5621799056870628e-06,2.922118437614556e-06,1.1127158093267313e-06,1.4568441423098844e-05
1.564977092722919e-06,2.967065843092165e-06,1.1190819712361066e-06,1.4517511600532004e-05
1.5675126886263331e-06,3.0133163804306114e-06,1.1254271970006509e-06,1.4465025775017642e-05
1.5698279198302402e-06,3.060883599384353e-06,1.1317562103733377e-06,1.441177193032609e-05
1.5719603185935111e-06,3.1097341402589293e-06,1.1380613936171014e-06,1.4358711152872974e-05
1.573936255846819e-06,3.1597793668540745e-06,1.1443205643054537e-06,1.43068128439873e-05
1.5757662440194917e-06,3.2108760553648723e-06,1.1505020149329794e-06,1.4256924848992148e-05
1.5774497043308191e-06,3.2628400521777024e-06,1.1565712589092505e-06,1.4209727374740026e-05
1.578986333740148e-06,3.315464124019482e-06,1.1624920709651205e-06,1.4165847869516178e-05
1.5803812080899519e-06,3.368528401250728e-06,1.1682226697887713e-06,1.4126106925124586e-05
1.5816393254247733e-06,3.4218031550290982e-06,1.1737136990510023e-06,1.4091660181181022e-05
1.5827594832734237e-06,3.4750473386493623e-06,1.1789113393084464e-06,1.4063904241504835e-05
1.5837337563865787e-06,3.5280048516347918e-06,1.1837632479691812e-06,1.4044254515196021e-05
1.584549694265551e-06,3.580403163952922e-06,1.188222249290613e-06,1.4033924730055289e-05
1.585191898208043e-06,3.63195639081178e-06,1.1922465166596241e-06,1.4033773695701911e-05
1.5856404570487374e-06,3.6823706471945436e-06,1.1957996048412578e-06,1.4044255595142426e-05
1.5858676444124638e-06,3.731349292773782e-06,1.1988516087637513e-06,1.4065461078839083e-05
1.5858376188079085e-06,3.7785954351946183e-06,1.2013798140434844e-06,1.4097198692725192e-05
1.5855083139444778e-06,3.82381743434201e-06,1.2033672504256931e-06,1.4139076042596093e-05
1.5848320875289758e-06,3.8667453192014765e-06,1.2047997365154371e-06,1.41905578436992e-05
1.5837555891421742e-06,3.9071474313952095e-06,1.205664183178648e-06,1.4250983139123733e-05
1.5822212815558047e-06,3.944830854256282e-06,1.2059490238760356e-06,1.4319549228482889e-05
1.5801727894355837e-06,3.9796265838842714e-06,1.205645544527266e-06,1.439530571051871e-05
1.5775623076913444e-06,4.011374436934392e-06,1.2047487419500518e-06,1.4477195389823638e-05
1.5743549156633782e-06,4.039924163324948e-06,1.2032556881152369e-06,1.4564134748933765e-05
1.5705278960549119e-06,4.065153705781765e-06,1.201161912951162e-06,1.4655099215734411e-05
1.5660670719660157e-06,4.086983931595038e-06,1.1984599084519824e-06,1.4749179011985086e-05
1.560964024006971e-06,4.10537255559697e-06,1.1951407719201609e-06,1.484558823442521e-05
1.5552156006879464e-06,4.120294373752548e-06,1.1911961062140513e-06,1.4943643730032925e-05
1.5488223141046369e-06,4.1317314459588525e-06,1.1866196953874839e-06,1.5042738856802352e-05
1.5417854537928534e-06,4.139689037950811e-06,1.1814103039185041e-06,1.514231075767806e-05
1.5341059610351531e-06,4.144226047763459e-06,1.1755739221854755e-06,1.524179943618665e-05
1.5257845000794976e-06,4.145469317085019e-06,1.1691232553822318e-06,1.5340610794957434e-05
1.5168221029209958e-06,4.143592576173934e-06,1.1620771337568472e-06,1.5438085789631973e-05
1.5072227591231154e-06,4.1387773034289015e-06,1.154461888337896e-06,1.553348898685455e-05
1.4969986584881798e-06,4.13119011145602e-06,1.1463103850139106e-06,1.5626057878534294e-05
1.4861760589967437e-06,4.120989619425313e-06,1.1376563163285368e-06,1.5715100540170632e-05
1.4747954435718609e-06,4.10835201314886e-06,1.1285282008414094e-06,1.5800051609637816e-05
1.4629038348367118e-06,4.0934953268157885e-06,1.1189473385592802e-06,1.5880452706739677e-05
1.4505480921647757e-06,4.076685593522364e-06,1.1089294517348859e-06,1.5955919723201846e-05
1.4377752617531524e-06,4.0582208243569775e-06,1.0984873871621291e-06,1.6026137670750273e-05
1.4246343144109504e-06,4.03840227579564e-06,1.0876329291284029e-06,1.609085680836794e-05
1.4111742548988952e-06,4.0175173193095456e-06,1.0763786117501601e-06,1.6149886562296592e-05
1.397441005839431e-06,3.995845765883423e-06,1.0647412279076457e-06,1.620313926158983e-05
1.3834752900362101e-06,3.973662061252806e-06,1.0527460037304092e-06,1.6250706641959118e-05
1.3693103170615823e-06,3.951212849216477e-06,1.040428017136813e-06,1.6292874256452842e-05
1.3549702112303095e-06,3.928693346145406e-06,1.0278289285257966e-06,1.6330053153452584e-05
1.3404729963392e-06,3.90624671772258e-06,1.0149921670842877e-06,1.636268356967609e-05
1.325837556759556e-06,3.883977942319688e-06,1.00196039499021e-06,1.639115258467826e-05
1.3110884062802941e-06,3.861967525633889e-06,9.887759206896289e-07,1.641574013457542e-05
1.296254531393191e-06,3.840287783025022e-06,9.75483282740682e-07,1.6436592901260602e-05
1.28136439866311e-06,3.8190160599398035e-06,9.621300097880972e-07,1.6453738290685433e-05
1.2664405268381684e-06,3.7982253198886946e-06,9.487623687802631e-07,1.6467146218921645e-05
1.25149616615867e-06,3.777959776580899e-06,9.354215073803749e-07,1.6476794770131122e-05
1.2365366032735383e-06,3.7582222565395563e-06,9.221483312881165e-07,1.6482689855935762e-05
1.22156654365816e-06,3.7389791385855933e-06,9.089946852555051e-07,1.6484842898458618e-05
1.206600385102136e-06,3.7201748213293196e-06,8.960277075880522e-07,1.6483240557955318e-05
1.1916667173636705e-06,3.701748926421988e-06,8.833218204188415e-07,1.6477862562197153e-05
1.1768025490622185e-06,3.683646329129168e-06,8.709481224230896e-07,1.6468761227816667e-05
1.1620441734034891e-06,3.6658147148562964e-06,8.589701165774394e-07,1.6456098103328493e-05
1.1474231527884769e-06,3.648199282438056e-06,8.474428117751926e-07,1.644010204155768e-05
1.1329685855192444e-06,3.630742809355482e-06,8.364106059593294e-07,1.6421033214426087e-05
1.1187129667405389e-06,3.6133880287673858e-06,8.259058588238795e-07,1.6399147630191773e-05
1.1046972786841795e-06,3.5960805786058893e-06,8.159497051504997e-07,1.637462949125193e-05
1.0909707174024505e-06,3.5787710357634727e-06,8.065529639275559e-07,1.6347537070223873e-05
1.0775849775701486e-06,3.5614143739526565e-06,7.977161761910107e-07,1.6317791955301244e-05
1.0645874913462685e-06,3.54397272934338e-06,7.894298484170147e-07,1.6285195359135262e-05
1.0520168440521325e-06,3.526420981241678e-06,7.816754305872403e-07,1.6249448622408733e-05
1.0399006564502571e-06,3.5087423277092866e-06,7.744274309672345e-07,1.6210169081643867e-05
1.0282571624167392e-06,3.4909158622813666e-06,7.676570756697323e-07,1.6166903948454583e-05
1.0170994903116122e-06,3.4729172422494104e-06,7.613362697930698e-07,1.611914485102722e-05
1.0064366969196588e-06,3.454737793563414e-06,7.554420814045714e-07,1.606634301771406e-05
9.962705225736648e-07,3.436402745574656e-06,7.49963633731216e-07,1.6007931639570236e-05
9.865932070808017e-07,3.417970123341186e-06,7.449079301495041e-07,1.5943371833529017e-05
9.773887192986871e-07,3.399511498816113e-06,7.402979618909505e-07,1.5872224942271705e-05
9.686364840124693e-07,3.3810996428428083e-06,7.361650774447618e-07,1.5794208673042785e-05
9.603164518439536e-07,3.362823123742696e-06,7.325469222517966e-07,1.5709178660627713e-05
9.52415478304961e-07,3.344805505545348e-06,7.29494417669705e-07,1.561705027358452e-05
9.449358340753365e-07,3.3271942354069693e-06,7.270754017095092e-07,1.5517740838822408e-05
9.3790193102734e-07,3.3101259116786605e-06,7.253650250785483e-07,1.5411164832365437e-05
9.313575565840547e-07,3.2937000352848616e-06,7.244296055653416e-07,1.5297249021538324e-05
9.253544107237709e-07,3.2779724907098616e-06,7.243160941167577e-07,1.5175935698457233e-05
9.199471365014332e-07,3.2629600528667687e-06,7.250500699617531e-07,1.5047174324698499e-05
9.152044025940504e-07,3.24864729047173e-06,7.266376564259795e-07,1.4910934022343384e-05
9.112194972263591e-07,3.234992284952796e-06,7.290676404250551e-07,1.47672573435296e-05
9.081002931486555e-07,3.2219402419141567e-06,7.323129955603033e-07,1.461632695372688e-05
9.059457489336122e-07,3.2094567426094736e-06,7.363328761274326e-07,1.4458501265875333e-05
9.048313082858276e-07,3.1975647922214727e-06,7.410757023809725e-07,1.4294297004773029e-05
9.048100670837849e-07,3.186348436000324e-06,7.46481830790854e-07,1.4124331873024527e-05
9.059175800809809e-07,3.175917604711793e-06,7.524856010245188e-07,1.3949263944435938e-05
9.081728912473749e-07,3.166382378430595e-06,7.590173488878295e-07,1.3769751704151092e-05
9.115816491549631e-07,3.157866844019546e-06,7.66004442438418e-07,1.3586431144146675e-05
9.161413043190807e-07,3.1505231635157363e-06,7.733739166792496e-07,1.339990092174347e-05
9.218391829709791e-07,3.1445101596383467e-06,7.810598852513905e-07,1.321072309328033e-05
9.286456658749869e-07,3.1399648348970038e-06,7.890113328428345e-07,1.3019436537904566e-05
9.365141963481865e-07,3.1370020086745947e-06,7.971937872120658e-07,1.2826556951741673e-05
9.453868176448463e-07,3.135732110275155e-06,8.055835583858034e-07,1.2632564638897279e-05
9.551954474103865e-07,3.1362735438260843e-06,8.141576303835248e-07,1.2437914481819913e-05
9.658607730991592e-07,3.138749977843273e-06,8.228850201426192e-07,1.2243071312484766e-05
9.772969166715194e-07,3.1432699227267848e-06,8.317242815939245e-07,1.2048536134424125e-05
9.894206436610226e-07,3.1499005274469962e-06,8.406262796394986e-07,1.1854863686359724e-05
1.0021574399449815e-06,3.1586623844558675e-06,8.495389395434237e-07,1.1662690603382487e-05
1.015441363572886e-06,3.1695572829951963e-06,8.584126683335115e-07,1.1472746235998931e-05
1.029211839363507e-06,3.1826119057971238e-06,8.672049317454462e-07,1.1285824384077153e-05
1.043410245997464e-06,3.1979059521186815e-06,8.758811937709013e-07,1.1102742712712773e-05
1.0579765367243242e-06,3.215557005570108e-06,8.84412002916617e-07,1.092430811921801e-05
1.0728474564261358e-06,3.2356697282912867e-06,8.927690625053372e-07,1.0751273637444729e-05
1.087957148087058e-06,3.258302172955578e-06,9.009232758906341e-07,1.0584284381657472e-05
1.1032373050523432e-06,3.2834827233784853e-06,9.088481222722224e-07,1.0423836358958406e-05
1.1186161726074664e-06,3.311245413638832e-06,9.165274060126859e-07,1.0270262920380966e-05
1.1340200915603443e-06,3.341634550111192e-06,9.23957726731152e-07,1.012374612599247e-05
1.149378499373208e-06,3.3746739920320036e-06,9.311425407512201e-07,9.984341264145994e-06
1.1646272156389684e-06,3.410340935186557e-06,9.380886588296878e-07,9.85200604858668e-06
1.1797057077397092e-06,3.448568939492853e-06,9.448095785052601e-07,9.726671803573942e-06
1.194551163655842e-06,3.4892556691150735e-06,9.51327431809478e-07,9.608380535726833e-06
1.2090966784645857e-06,3.532255596333644e-06,9.576688021108153e-07,9.497395226367474e-06
1.223275975320968e-06,3.5773787844266534e-06,9.638571898216508e-07,9.394230241785823e-06
1.2370280403106195e-06,3.6244070688657776e-06,9.699065976617002e-07,9.299677906297576e-06
1.2502971891433224e-06,3.6731042516558973e-06,9.75819462624372e-07,9.21482033354148e-06
1.263034589225078e-06,3.7232159813136254e-06,9.81588301792275e-07,9.140952322242402e-06
1.275205739738095e-06,3.774484835450909e-06,9.87197443395325e-07,9.079452338684102e-06
1.2867977074905235e-06,3.826680000422053e-06,9.926235329514417e-07,9.031665667383744e-06
1.2978183468871e-06,3.879610141440887e-06,9.978367698052887e-07,8.998814836593894e-06
1.3082867207811244e-06,3.93310430060412e-06,1.0028029667785026e-06,8.981947208787114e-06
1.3182219276034305e-06,3.986982310609054e-06,1.0074851841110877e-06,8.981918772600647e-06
1.3276380538995931e-06,4.0410443314736506e-06,1.01184560277449e-06,8.999389896161699e-06
1.3365431763239392e-06,4.095078672074528e-06,1.015847560727257e-06,9.034816186514892e-06
1.3449364449187746e-06,4.148866035668086e-06,1.019458078427458e-06,9.088438626722637e-06
1.3528042244579122e-06,4.2021725352817284e-06,1.0226515981269952e-06,9.160281518145216e-06
1.3601196700465463e-06,4.254743839473549e-06,1.0254118003043614e-06,9.250157716777404e-06
1.3668464946411706e-06,4.306311619090236e-06,1.0277298268712258e-06,9.357674980374957e-06
1.3729449438383779e-06,4.356604150594688e-06,1.0296020776093054e-06,9.482233945492786e-06
1.3783785376777928e-06,4.405346138759029e-06,1.0310284965008006e-06,9.623017654183112e-06
1.3831195785329796e-06,4.452250939678749e-06,1.0320095810598346e-06,9.779003331293746e-06
1.3871498000042022e-06,4.497019972696167e-06,1.032543111596527e-06,9.949012747259578e-06
1.3904553931841112e-06,4.53935576507876e-06,1.032623053448929e-06,1.0131759093378316e-05
1.3930206705500751e-06,4.578986239883846e-06,1.0322407995159882e-06,1.0325853341719168e-05
1.3948249442712335e-06,4.615692655391619e-06,1.031386778640033e-06,1.0529794089569117e-05
1.3958429551599987e-06,4.649329092766218e-06,1.030052323800236e-06,1.0741982350925886e-05
1.3960460512445906e-06,4.679824111998958e-06,1.0282335830945392e-06,1.0960757861450079e-05
1.395403056304075e-06,4.707162998540519e-06,1.0259354379653924e-06,1.1184420355552389e-05
1.3938819467057286e-06,4.731357578596851e-06,1.0231730850516865e-06,1.1411226358879365e-05
1.3914520942527642e-06,4.752421799244886e-06,1.0199733494139013e-06,1.1639388368355795e-05
1.3880853310030971e-06,4.770371768223261e-06,1.016374678358097e-06,1.1867093634737108e-05
1.3837550672339274e-06,4.785243645411233e-06,1.012421006900658e-06,1.2092532820326663e-05
1.3784349387121331e-06,4.797102071595995e-06,1.008151806292578e-06,1.23139273082364e-05
1.372099138294731e-06,4.8060275852474656e-06,1.0035963150361885e-06,1.2529557737788596e-05
1.3647252282001482e-06,4.812096843275555e-06,9.9877456497415e-07,1.2737801607836467e-05
1.3562989853039593e-06,4.815373718273047e-06,9.937022565625879e-07,1.2937186962341425e-05
1.3468196426059505e-06,4.8159126836465516e-06,9.883950028482792e-07,1.3126489670706351e-05
1.336302098022085e-06,4.8137618051056265e-06,9.828684358367029e-07,1.3304881947652032e-05
1.3247739904733331e-06,4.8089678132643345e-06,9.771371554516243e-07,1.347203846029242e-05
1.312271973459575e-06,4.801597626800369e-06,9.712178690613132e-07,1.3628102983551636e-05
1.2988433743948105e-06,4.791765644103899e-06,9.651347408486623e-07,1.3773542347834487e-05
1.284551224260927e-06,4.779635647832454e-06,9.589219114233807e-07,1.3908995350521466e-05
1.2694747404862176e-06,4.7653919623392685e-06,9.526225767276286e-07,1.4035228775136802e-05
1.2537026389269206e-06,4.7492212002075265e-06,9.462857632957779e-07,1.4153204534258365e-05
1.2373252891701223e-06,4.731336000281451e-06,9.399614240077473e-07,1.4264132884315674e-05
1.2204323807673593e-06,4.7120079036666636e-06,9.336960402943548e-07,1.4369434641847748e-05
1.2031156327520364e-06,4.6915614341819086e-06,9.275323844960428e-07,1.4470635151476875e-05
1.1854718404634056e-06,4.6703298764763946e-06,9.21516296836659e-07,1.4569231672455265e-05
1.1676040939465629e-06,4.648615356651959e-06,9.157052819758228e-07,1.4666577380221201e-05
1.14962108208406e-06,4.6266911877285885e-06,9.101660267252443e-07,1.4763795851688144e-05
1.1316329928313422e-06,4.604834949437569e-06,9.049609323712759e-07,1.4861726208537656e-05
1.1137452129937862e-06,4.583343724714135e-06,9.001402107491427e-07,1.4960946240627414e-05
1.0960586598300845e-06,4.562509563478421e-06,8.957462221416309e-07,1.5061896184449713e-05
1.0786819372944856e-06,4.542589785372245e-06,8.918189904379195e-07,1.5165041492150058e-05
1.061744966604955e-06,4.523814933770469e-06,8.883948514257845e-07,1.5270995484908168e-05
1.045400712970796e-06,4.506422978947793e-06,8.855028500005577e-07,1.5380536628636982e-05
1.0298156813239828e-06,4.490672674261484e-06,8.831633719094435e-07,1.5494499639356023e-05
1.0151586360176745e-06,4.4768171943338305e-06,8.813871898379331e-07,1.5613605077694293e-05
1.0015906058333531e-06,4.465061838334789e-06,8.801739597719227e-07,1.5738341942629506e-05
9.892536344215545e-07,4.455544858231338e-06,8.795120500918345e-07,1.586899473657463e-05
9.782610761825249e-07,4.448355995339219e-06,8.793799047465051e-07,1.600575732630725e-05
9.68695475545472e-07,4.443566053773457e-06,8.797463719689722e-07,1.6148771751843626e-05
9.606133482898908e-07,4.441238511595832e-06,8.805707450542108e-07,1.6298073169985e-05
9.540495149317802e-07,4.4414195766033935e-06,8.818075008876885e-07,1.645353894502585e-05
9.49016931707164e-07,4.444115725403827e-06,8.834144334563456e-07,1.6614864903263054e-05
9.45506606902152e-07,4.449276965507713e-06,8.853561831721458e-07,1.678153990251124e-05
9.434914276092052e-07,4.456805606049836e-06,8.876009054947995e-07,1.69528263760912e-05
9.429296155246259e-07,4.466583790185789e-06,8.901149478582201e-07,1.7127767374632534e-05
9.437656801376245e-07,4.478487205336061e-06,8.928595939060253e-07,1.7305208915131676e-05
9.459345835012579e-07,4.492372346601342e-06,8.957910041100965e-07,1.7483823602796638e-05
9.493714417861546e-07,4.508065871935627e-06,8.988629834989046e-07,1.7662142266202767e-05
9.5402092643435e-07,4.525378658858902e-06,9.020299232823048e-07,1.7838593464819992e-05
9.59840736401581e-07,4.544126394205857e-06,9.052461135278452e-07,1.8011544592169193e-05
9.667988984674174e-07,4.564130622837768e-06,9.084625580533121e-07,1.817935058950565e-05
9.74866907222319e-07,4.5852023588353185e-06,9.116265676588758e-07,1.8340399571158398e-05
9.84009860276643e-07,4.607130176720366e-06,9.146847073746843e-07,1.849312345562269e-05
9.94176861945762e-07,4.629682312386711e-06,9.175848914897386e-07,1.8635982977432212e-05
1.0052969512691386e-06,4.6526122335521985e-06,9.202758056998949e-07,1.8767469539207003e-05
1.0172807723757698e-06,4.675659732613968e-06,9.227055676649677e-07,1.8886124562359225e-05
1.0300236572947751e-06,4.6985532664342855e-06,9.248220406195408e-07,1.899055252108169e-05
1.0434090286057319e-06,4.72102298737649e-06,9.265762055247824e-07,1.9079434493210184e-05
1.0573148113794389e-06,4.742821033398915e-06,9.279270161234324e-07,1.915155303416719e-05
1.07162295787618e-06,4.763732289714413e-06,9.288432187656609e-07,1.920581007151164e-05
1.0862261970135652e-06,4.783565867074167e-06,9.293023775815534e-07,1.9241228397313968e-05
1.1010255890036686e-06,4.802135765537265e-06,9.292912476896349e-07,1.9256961648954603e-05
1.1159220952929465e-06,4.8192490974699255e-06,9.288059658558799e-07,1.925232024470543e-05
1.1308134473791089e-06,4.834710564368297e-06,9.278495330769309e-07,1.9226788881929198e-05
1.1456001303273428e-06,4.848331248958751e-06,9.264291278020536e-07,1.9180030732765e-05
1.1601908181219548e-06,4.85993085868546e-06,9.245567834368564e-07,1.9111884062656367e-05
1.1744999293223915e-06,4.869340021868486e-06,9.222541921963103e-07,1.9022344875871125e-05
1.1884441341309895e-06,4.876403555974876e-06,9.195553288483576e-07,1.891154935787602e-05
1.201944794330368e-06,4.880976528983867e-06,9.165001881909681e-07,1.8779774973232167e-05
1.2149310022243242e-06,4.882919690076065e-06,9.131253633185364e-07,1.8627439031648045e-05
1.2273373724772708e-06,4.882101442152092e-06,9.094607013435776e-07,1.845507269236931e-05
1.2391011788700078e-06,4.878397323283616e-06,9.055310577504531e-07,1.8263282341754388e-05
1.2501646969528392e-06,4.8716868228197925e-06,9.0135814946658e-07,1.8052720770351785e-05
1.2604793978083464e-06,4.8618613597136135e-06,8.969608537307448e-07,1.782410341251756e-05
1.2700054157385604e-06,4.848841456419916e-06,8.923538766419693e-07,1.7578275078487698e-05
1.278706730766724e-06,4.83258654313873e-06,8.875461241737396e-07,1.731625053156259e-05
1.2865473831141706e-06,4.813093406987871e-06,8.825415274402591e-07,1.7039165208043186e-05
1.2934905740005466e-06,4.79038859246862e-06,8.773445409054901e-07,1.6748188583133717e-05
1.299499022443791e-06,4.7645178888471485e-06,8.719697104619646e-07,1.6444499374779088e-05
1.304535666711946e-06,4.735540774759063e-06,8.664500856077263e-07,1.6129353760110128e-05
1.3085645290668354e-06,4.703531042756757e-06,8.608383077827369e-07,1.5804206349341185e-05
1.3115515468608945e-06,4.668572505120683e-06,8.552025357518699e-07,1.5470805733352653e-05
1.3134654320965492e-06,4.630753833782724e-06,8.496277042123989e-07,1.5131183082002515e-05
1.314281259107653e-06,4.590176697981436e-06,8.442225963439169e-07,1.4787529612040347e-05
1.313990710437459e-06,4.546966824063219e-06,8.391196601094904e-07,1.4442046989244806e-05
1.3126149221136552e-06,4.501270369947615e-06,8.34463520325083e-07,1.409685225499262e-05
1.3102076960201612e-06,4.453247764612234e-06,8.303960530302657e-07,1.3753955611731866e-05
1.3068469931083387e-06,4.403079195258246e-06,8.270427623572834e-07,1.3415268090205447e-05
1.3026306754720174e-06,4.350964923371067e-06,8.245039403358044e-07,1.3082593327517254e-05
1.2976838955419308e-06,4.297107998324349e-06,8.228550732199509e-07,1.2757639987663691e-05
1.292163459956432e-06,4.241697233871718e-06,8.221529440161346e-07,1.2442140760715582e-05
1.286248553491548e-06,4.184904259807228e-06,8.224401788520011e-07,1.2138020956405707e-05
1.2801223721844515e-06,4.12688617048753e-06,8.237472348684495e-07,1.1847410537375715e-05
1.2739528391247541e-06,4.0677890632233e-06,8.260923538772584e-07,1.1572460511639251e-05
1.2678802654916449e-06,4.0077547175366826e-06,8.294790489924847e-07,1.1315160687286252e-05
1.2620167475286665e-06,3.94692384999325e-06,8.338943029559555e-07,1.1077262441908894e-05
1.2564548183668345e-06,3.8854355717499414e-06,8.3931124510033e-07,1.0860256254796202e-05
1.251277307011464e-06,3.8234345325028e-06,8.456936838894847e-07,1.0665443670906177e-05
1.2465615749491824e-06,3.761087111653808e-06,8.529975412361957e-07,1.0494120109656772e-05
1.2423772433848768e-06,3.698595648009472e-06,8.611723320839918e-07,1.0347693989586007e-05
1.2387803349179098e-06,3.636199766507518e-06,8.701668386879385e-07,1.022765570734283e-05
1.235808261612907e-06,3.574158297288247e-06,8.799345676058031e-07,1.0135493936372784e-05
1.23347968272798e-06,3.5127198648129144e-06,8.904344057360716e-07,1.0072625750834867e-05
1.2317974800747921e-06,3.4521088882841745e-06,9.016262806542685e-07,1.004035038578328e-05
1.2307508125668696e-06,3.3925396426889962e-06,9.134638493485977e-07,1.0039822750713094e-05
1.2303193305152302e-06,3.334230882517805e-06,9.258891416336256e-07,1.007203160777191e-05
1.2304824523563484e-06,3.277394741499508e-06,9.38833869927955e-07,1.013779092263394e-05
1.2312276547657162e-06,3.2222187620414965e-06,9.522272306905831e-07,1.0237756696061285e-05
1.2325510447241655e-06,3.1688669820167566e-06,9.660043565346515e-07,1.0372430571089106e-05
1.2344490376654895e-06,3.117489379670497e-06,9.801084907033967e-07,1.054210477163486e-05
1.2369061869563264e-06,3.0682214219022936e-06,9.944864749819486e-07,1.0746794363747991e-05
1.2398888370492836e-06,3.021175160258024e-06,1.0090827383094007e-06,1.098625435526175e-05
1.2433498938569482e-06,2.97643120024e-06,1.0238347063671923e-06,1.1260078586276794e-05
1.2472412354339651e-06,2.9340437980977807e-06,1.0386714779212865e-06,1.1567736208198535e-05
1.25152625655409e-06,2.894065375630112e-06,1.053518751486742e-06,1.1908473251413267e-05
1.25618584104885e-06,2.8565742835577245e-06,1.068306146239055e-06,1.2281268902403067e-05
1.2612159560702628e-06,2.821683310509934e-06,1.082967929854662e-06,1.2684997562635028e-05
1.2666205476923448e-06,2.7895281129172304e-06,1.0974369884792305e-06,1.3118604952677666e-05
1.2724024338331913e-06,2.7602490435075425e-06,1.1116400010289658e-06,1.3581088523263134e-05
1.2785540044734943e-06,2.7339707160766968e-06,1.125497347611255e-06,1.4071337651348777e-05
1.2850546031983937e-06,2.7107812468818904e-06,1.1389255209079751e-06,1.458797388198861e-05
1.291876751648081e-06,2.690728888543626e-06,1.151840577025905e-06,1.512926018162614e-05
1.2989901872991378e-06,2.67384236015642e-06,1.1641619709785428e-06,1.5693074561554522e-05
1.3063572196107805e-06,2.6601440205076143e-06,1.1758146952794166e-06,1.627692250795824e-05
1.3139279036479395e-06,2.649635933133106e-06,1.1867286635241145e-06,1.6877991253615734e-05
1.3216413219134226e-06,2.6422872533852424e-06,1.196836237829037e-06,1.7493226499464905e-05
1.3294295559259136e-06,2.638052321948817e-06,1.206069595214245e-06,1.811938475971177e-05
1.3372210521193597e-06,2.63690721168686e-06,1.2143605457422229e-06,1.8753060789706946e-05
1.3449424524111338e-06,2.638871245248834e-06,1.2216437152120906e-06,1.9390713913555513e-05
1.3525180884828877e-06,2.643991375611338e-06,1.227859913704118e-06,2.002870754336415e-05
1.359868289344228e-06,2.652300519834268e-06,1.2329576430608831e-06,2.0663387699681968e-05
1.3669089403431805e-06,2.6637919697619114e-06,1.2368952674841385e-06,2.1291268039085807e-05
1.3735526682247529e-06,2.678436012475703e-06,1.2396446922769938e-06,2.1909372569791367e-05
1.379711178865168e-06,2.6962208930166544e-06,1.2411930550011358e-06,2.2515542503403478e-05
1.3852981788522605e-06,2.717185404449889e-06,1.2415393565595205e-06,2.3108380643020294e-05
1.3902302726811315e-06,2.741421879166869e-06,1.2406876437266505e-06,2.368686834515213e-05
1.394425409384207e-06,2.7690471274023233e-06,1.2386428501615856e-06,2.425000911988025e-05
1.3978031681451328e-06,2.8001565786198343e-06,1.2354131516908301e-06,2.479671940424449e-05
1.4002896706972976e-06,2.8347827826851827e-06,1.2310146067678002e-06,2.532594678256305e-05
1.401823728021149e-06,2.8728778919100992e-06,1.225470985332991e-06,2.583686743465256e-05
1.4023581786807166e-06,2.9143252276785576e-06,1.2188098846153984e-06,2.632901389779028e-05
1.401856150437962e-06,2.9589631411183534e-06,1.2110619511426358e-06,2.680230471631485e-05
1.4002873994156495e-06,3.006602188631289e-06,1.20226369061916e-06,2.725703300556779e-05
1.3976263780780936e-06,3.057027572431993e-06,1.1924594072976373e-06,2.769384204861009e-05
1.3938505452706806e-06,3.109991543760238e-06,1.1817004530805451e-06,2.8113688209646132e-05
1.3889394018485365e-06,3.165212335617405e-06,1.1700422224240872e-06,2.8517834899733087e-05
1.3828749896424882e-06,3.222385266998172e-06,1.1575403899115809e-06,2.890790897588261e-05
1.375643156494032e-06,3.2811899934262588e-06,1.1442494758378674e-06,2.9285903791580047e-05
1.3672359488810049e-06,3.341286062110699e-06,1.1302245557768866e-06,2.965399277975599e-05
1.35765636843784e-06,3.402315370779602e-06,1.1155234180485225e-06,3.001425112951601e-05
1.3469231205350175e-06,3.463926760935934e-06,1.1002081483219549e-06,3.036846086548528e-05
1.335070174022747e-06,3.525805289819658e-06,1.0843457075395693e-06,3.071798881445989e-05
1.3221404954534335e-06,3.5876771379783967e-06,1.0680069147207942e-06,3.1063678281140554e-05
1.3081801042266566e-06,3.6492865183870483e-06,1.0512661402866819e-06,3.1405792757626385e-05
1.2932374577412978e-06,3.710367554870465e-06,1.0342015567978994e-06,3.1744061147722234e-05
1.2773670622975216e-06,3.770632598912935e-06,1.0168937756707638e-06,3.207781395432339e-05
1.2606345253218444e-06,3.829776392748993e-06,9.994255425615215e-07,3.2406137415447606e-05
1.2431189975740495e-06,3.8874852659618346e-06,9.818844175528774e-07,3.2727980775107146e-05
1.2249094064353613e-06,3.9434518523835914e-06,9.643646002934424e-07,3.3042231522120756e-05
1.2060979389409826e-06,3.997399779902134e-06,9.469642538294924e-07,3.3347786197538784e-05
1.1867759871716002e-06,4.049108570359942e-06,9.297786603041176e-07,3.3643592116378955e-05
1.1670334270625405e-06,4.098418273807527e-06,9.128924762508672e-07,3.3928646527385005e-05
1.1469606709174822e-06,4.145205006976887e-06,8.963752611370556e-07,3.420198928059613e-05
1.1266510533428264e-06,4.1893465861380605e-06,8.802821738134632e-07,3.446270102522365e-05
1.1062008364710572e-06,4.230705437424826e-06,8.646587781845508e-07,3.470986716989342e-05
1.085709569443263e-06,4.26913387706434e-06,8.495469304811511e-07,3.494251262880693e-05
1.065284901356209e-06,4.3044912027540365e-06,8.349868279687256e-07,3.5159562245228775e-05
1.0450486011496156e-06,4.336662464105977e-06,8.210135610145669e-07,3.535982296791155e-05
1.0251365219340306e-06,4.365568644958865e-06,8.076529896571296e-07,3.5541975288672824e-05
1.0056901628445046e-06,4.3911603674319e-06,7.949203128008613e-07,3.5704626001319374e-05
9.868441037436378e-07,4.413398988036966e-06,7.828212889589058e-07,3.5846426817186346e-05
9.687176690447138e-07,4.4322402047948e-06,7.713583379177423e-07,3.596618752019459e-05
9.514153786569763e-07,4.447628698012715e-06,7.605408228592071e-07,3.606294714661463e-05
9.350292951003572e-07,4.459498241516158e-06,7.503917346386551e-07,3.6136011303999824e-05
9.196361493020004e-07,4.467774270358558e-06,7.409444655495567e-07,3.6184962427856483e-05
9.052936094480192e-07,4.4723801512728635e-06,7.322335486452809e-07,3.620965448389221e-05
8.920405907597235e-07,4.47324200705549e-06,7.242923807695801e-07,3.6210199657887846e-05
8.799016644572479e-07,4.470289754173169e-06,7.17162756531288e-07,3.618693574182039e-05
8.688964156997424e-07,4.463460493897468e-06,7.109037325695513e-07,3.6140379266157294e-05
8.590514286542317e-07,4.452707210443062e-06,7.055897382758359e-07,3.6071187874754654e-05
8.504080199728217e-07,4.438008468291489e-06,7.013000979421475e-07,3.5980106941913296e-05
8.430193069838533e-07,4.4193732105129754e-06,6.981049040072343e-07,3.5867870882686394e-05
8.369369938348102e-07,4.3968390735626405e-06,6.960535509981757e-07,3.5735141836121186e-05
8.321986471240237e-07,4.370473813095922e-06,6.951711111007592e-07,3.5582547129525895e-05
8.288251270430419e-07,4.340391761184067e-06,6.954609350432174e-07,3.5410709385035246e-05
8.268257281804677e-07,4.306772034975563e-06,6.969086453458415e-07,3.52201959923959e-05
8.262044534500756e-07,4.269848483441935e-06,6.994845505037004e-07,3.501147443962732e-05
8.269654292611866e-07,4.229872235186825e-06,7.031448662256072e-07,3.478493234507072e-05
8.291164147429798e-07,4.187081144140848e-06,7.07833415232683e-07,3.4540904571225377e-05
8.326673462794699e-07,4.141697336706643e-06,7.134832582966916e-07,3.4279692576029074e-05
8.376225026211426e-07,4.093942468765194e-06,7.200177713703715e-07,3.4001640659417575e-05
8.439708014910063e-07,4.044051519454579e-06,7.273531442765076e-07,3.3707237850706633e-05
8.516807175845446e-07,3.992275201187036e-06,7.354031335723462e-07,3.339714368296577e-05
8.606996321879538e-07,3.938868761297155e-06,7.440843687876348e-07,3.3072133816944536e-05
8.70954014242606e-07,3.8840746518177394e-06,7.533205079989256e-07,3.273301765119117e-05
8.823502633585761e-07,3.828115800514799e-06,7.630449195516592e-07,3.238055539747333e-05
8.947769936365884e-07,3.7712033536303007e-06,7.732025014207465e-07,3.2015395184457665e-05
9.081084283867348e-07,3.7135441450190964e-06,7.837498981934627e-07,3.163804661225433e-05
9.222087861889984e-07,3.6553444068577796e-06,7.946518469875044e-07,3.12488927279987e-05
9.369384809538988e-07,3.5968149710328414e-06,8.058736447734955e-07,3.0848230852616855e-05
9.521623803934906e-07,3.538168946951056e-06,8.173751707593304e-07,3.0436335215958136e-05
9.677580365788171e-07,3.479615941676599e-06,8.291128500197929e-07,3.001355368280537e-05
9.836223423246367e-07,3.4213713804117384e-06,8.410467610194312e-07,2.9580474004832616e-05
9.99676436239213e-07,3.363672744115205e-06,8.53144209841336e-07,2.913814363433541e-05
1.0158656022400202e-06,3.3067852280493647e-06,8.653786057678772e-07,2.8688191035167744e-05
1.0321497953262978e-06,3.2509937551860836e-06,8.777281741388895e-07,2.8232692233231684e-05
1.0484890680143379e-06,3.196579506076258e-06,8.901753648713702e-07,2.7773857524801473e-05
1.064835449947525e-06,3.1437905996523083e-06,9.02704391143123e-07,2.731378956687624e-05
1.0811352595360929e-06,3.092826185069717e-06,9.152962393241243e-07,2.6854412185823543e-05
1.097335458503736e-06,3.0438361972336184e-06,9.279264513241431e-07,2.639746142430105e-05
1.1133879466131306e-06,2.996929355456506e-06,9.405695346176515e-07,2.5944471277505567e-05
1.12925100317811e-06,2.9521832853817257e-06,9.532040614850883e-07,2.549676718389736e-05
1.1448904876810178e-06,2.909650723185456e-06,9.658126361413156e-07,2.5055472535346525e-05
1.1602814717310698e-06,2.86936692004053e-06,9.783778387237171e-07,2.4621533342594945e-05
1.175406364031253e-06,2.831364370235033e-06,9.90876752198487e-07,2.419576517194089e-05
1.1902472455434064e-06,2.7956866335246004e-06,1.0032770966243909e-06,2.3778912923001662e-05
1.2047782430574767e-06,2.762393612808081e-06,1.0155372719138071e-06,2.3371701524038127e-05
1.218966558036123e-06,2.731559084400708e-06,1.0276095629671525e-06,2.297484769253905e-05
1.2327805235634449e-06,2.7032585902019834e-06,1.039445656307802e-06,2.2589022621355906e-05
1.2461943652052838e-06,2.67754850269199e-06,1.0510030718930334e-06,2.221479626197734e-05
1.2591864257612448e-06,2.6544530310342084e-06,1.0622474059894542e-06,2.185259858475545e-05
1.2717351831491645e-06,2.6339749611415297e-06,1.073148139898091e-06,2.1502697417043524e-05
1.283815128657457e-06,2.616123603785084e-06,1.0836744900889756e-06,2.116518018077669e-05
1.29539398245899e-06,2.600942261304851e-06,1.0937972278197274e-06,2.083996098569439e-05
1.3064341953885424e-06,2.5885212350115784e-06,1.1034928972938606e-06,2.052683856182589e-05
1.31689849291704e-06,2.5789879966465016e-06,1.1127436409029673e-06,2.022557136864585e-05
1.3267546099209706e-06,2.5724767982283447e-06,1.1215320141171481e-06,1.993591748511817e-05
1.3359745443314965e-06,2.5690976406593525e-06,1.1298351566880637e-06,1.965762951272792e-05
1.3445302523834906e-06,2.5689322664174217e-06,1.1376220075356484e-06,1.939042890805026e-05
1.3523921922081872e-06,2.5720576487938325e-06,1.1448551092384486e-06,1.913399303466404e-05
1.3595317758443064e-06,2.5785606494594426e-06,1.151496419450025e-06,1.8887957154736136e-05
1.3659232366298835e-06,2.588519466339098e-06,1.1575132159098812e-06,1.8651918667863604e-05
1.3715436374135036e-06,2.6019731121748743e-06,1.162879282549993e-06,1.842547453661397e-05
1.376372483992406e-06,2.618906500405362e-06,1.1675728891401044e-06,1.8208302836293608e-05
1.3803902586172822e-06,2.639247444370803e-06,1.1715783802568526e-06,1.8000239439309238e-05
1.38357591435063e-06,2.6628685951071603e-06,1.1748937785320509e-06,1.780134089293352e-05
1.385906043756557e-06,2.6896008872696013e-06,1.1775387255487828e-06,1.7611957218169886e-05
1.3873574325963834e-06,2.7192545001815133e-06,1.1795535198700864e-06,1.7432771877776765e-05
1.387910328045454e-06,2.75163149298767e-06,1.180989391663185e-06,1.7264732546691095e-05
1.3875493980227101e-06,2.786520547124173e-06,1.1819048171661191e-06,1.7108863899477453e-05
1.3862671176065751e-06,2.8236807607741083e-06,1.182375364595415e-06,1.6966051772386667e-05
1.3840744711885028e-06,2.8628318061756216e-06,1.1825025355138312e-06,1.6836925105826433e-05
1.3810117480447109e-06,2.9036585485342637e-06,1.18240662815161e-06,1.672187483798685e-05
1.3771482057375234e-06,2.9458222840578098e-06,1.1822083635818634e-06,1.66211089494773e-05
1.3725695096782816e-06,2.9889674728602414e-06,1.1820138385761172e-06,1.653463854218701e-05
1.3673657103089745e-06,3.0327246742193783e-06,1.181910537381256e-06,1.6462232059755925e-05
1.3616337439783556e-06,3.0767209471577107e-06,1.1819719169829498e-06,1.6403428455635268e-05
1.3554893455076383e-06,3.1206065072500007e-06,1.182262148216393e-06,1.6357607827257472e-05
1.3490698968974826e-06,3.1640945473401317e-06,1.182835420374927e-06,1.6324090728442606e-05
1.3425220939215194e-06,3.206994846795508e-06,1.1837332457940866e-06,1.6302281475421615e-05
1.335984491136255e-06,3.2492172405071686e-06,1.1849834551008786e-06,1.6291816518967044e-05
1.329575286337112e-06,3.290737552862128e-06,1.1865983061691878e-06,1.6292617703221834e-05
1.3233886708395654e-06,3.331545974142668e-06,1.188572042967872e-06,1.6304828816412374e-05
1.3174979543764459e-06,3.3716179254479938e-06,1.1908821719693508e-06,1.6328706371273502e-05
1.3119596886026785e-06,3.4109289393472813e-06,1.193493567414513e-06,1.6364538398110686e-05
1.3068134147603506e-06,3.4494912970303634e-06,1.1963627955906112e-06,1.6412620118134964e-05
1.3020797454061888e-06,3.4873769664799597e-06,1.1994440041133327e-06,1.6473261677810293e-05
1.2977631108559042e-06,3.5247087410675866e-06,1.202695415053787e-06,1.6546799790483445e-05
1.2938574384079736e-06,3.5616219978279997e-06,1.2060823588714376e-06,1.6633636551398714e-05
1.290349127649006e-06,3.5982192009800628e-06,1.2095771746757445e-06,1.673432900681234e-05
1.287217355034157e-06,3.6345468860336405e-06,1.2131579144637093e-06,1.6849641376054474e-05
1.2844336777047748e-06,3.670608816838798e-06,1.2168048951620355e-06,1.6980437939743633e-05
1.2819611747973226e-06,3.7064006587286667e-06,1.2204986687285437e-06,1.712745827776543e-05
1.2797557461183923e-06,3.741933844979907e-06,1.2242245402360926e-06,1.72911129078003e-05
1.277773582530896e-06,3.7772279426698937e-06,1.2279761052432636e-06,1.747139198595806e-05
1.2759831889020051e-06,3.8122866360106766e-06,1.2317483434580211e-06,1.766796936016648e-05
1.2743736153599705e-06,3.847086665004493e-06,1.235526986782296e-06,1.7880488898484744e-05
1.2729513133799722e-06,3.881581760918119e-06,1.239284463265844e-06,1.810880828961521e-05
1.271728812722476e-06,3.915706175751955e-06,1.2429814654218838e-06,1.8353007002426693e-05
1.2707192907579328e-06,3.9493745776692655e-06,1.246569658883427e-06,1.8613238055827146e-05
1.2699433159731295e-06,3.982481171313749e-06,1.2499944408332977e-06,1.8889591286769508e-05
1.269434784950077e-06,4.014897017082652e-06,1.2531981185618184e-06,1.918201773920336e-05
1.2692334255603372e-06,4.046465462690078e-06,1.256125059608105e-06,1.9490293163283906e-05
1.269370456723946e-06,4.076998519730559e-06,1.2587296041479868e-06,1.9813995065334213e-05
1.2698605654937384e-06,4.106277339342668e-06,1.2609817090771157e-06,2.0152482416866457e-05
1.2707016287225142e-06,4.1340585077531236e-06,1.262864436499503e-06,2.0504886848647435e-05
1.2718763286444722e-06,4.16008767076902e-06,1.2643683045289794e-06,2.0870117713404872e-05
1.2733546877816973e-06,4.184119243041064e-06,1.2654917935522451e-06,2.1246857634198644e-05
1.2751023989257216e-06,4.2059335037331866e-06,1.266245027495482e-06,2.1633532369477177e-05
1.2770972226076503e-06,4.225342060516173e-06,1.2666470525331724e-06,2.2028277324695905e-05
1.2793449859770438e-06,4.242181539140892e-06,1.2667164868041879e-06,2.2428938708694488e-05
1.281880440910803e-06,4.256302045348415e-06,1.2664630486248487e-06,2.2833128331334e-05
1.2847517428360038e-06,4.267561412161786e-06,1.2658842766885558e-06,2.3238321469211826e-05
1.2880079031227086e-06,4.275836874924202e-06,1.2649665128006291e-06,2.364196440781769e-05
1.2916988199158085e-06,4.2810557867982285e-06,1.2636885654735632e-06,2.4041554943273245e-05
1.2958737445202282e-06,4.283232321168424e-06,1.262026295169114e-06,2.4434688549806398e-05
1.3005720168338421e-06,4.282487668683938e-06,1.2599551928693898e-06,2.481908961454505e-05
1.3058151337908535e-06,4.279037682928896e-06,1.2574512480796495e-06,2.519263148099957e-05
1.3116031652362782e-06,4.273151161961953e-06,1.2544934444036423e-06,2.5553330952599843e-05
1.3179134199042684e-06,4.26509815961532e-06,1.251067658866979e-06,2.589931222702117e-05
1.3247013033149291e-06,4.255117500555469e-06,1.2471691337523519e-06,2.622875083145416e-05
1.3319026540170959e-06,4.243419470895237e-06,1.242801956855477e-06,2.653983157670804e-05
1.3394375888765387e-06,4.23020361379103e-06,1.2379768015690654e-06,2.683077461150329e-05
1.3472175300668413e-06,4.2156605431841795e-06,1.232710589776654e-06,2.7099932271633226e-05
1.355152952817602e-06,4.199953585395408e-06,1.2270273239256706e-06,2.7345878339570252e-05
1.3631561466681265e-06,4.183201121144694e-06,1.2209549772973171e-06,2.7567435400457122e-05
1.3711387151848652e-06,4.16547623834068e-06,1.2145187149495943e-06,2.7763657114326147e-05
1.3790101992194344e-06,4.14682102728598e-06,1.2077368375985537e-06,2.7933784613468653e-05
1.3866828143756306e-06,4.1272655091852745e-06,1.2006232001135012e-06,2.8077182847121137e-05
1.3940777658417441e-06,4.106844476682542e-06,1.193192710072916e-06,2.819328524670423e-05
1.40112443135023e-06,4.085607779608474e-06,1.185464371813056e-06,2.8281587405108257e-05
1.407753551111854e-06,4.063621233352031e-06,1.177461063855467e-06,2.8341686566697112e-05
1.41389247546144e-06,4.040960265791944e-06,1.169207647055454e-06,2.8373323088689318e-05
1.4194652097908527e-06,4.017704813967967e-06,1.1607280042174688e-06,2.8376405810091444e-05
1.4243948163295588e-06,3.993941092853817e-06,1.152044654281105e-06,2.8351039293075453e-05
1.4286062846837151e-06,3.969761588409902e-06,1.1431836353426692e-06,2.8297566633257202e-05
1.4320307201562804e-06,3.9452538101518485e-06,1.1341794927560464e-06,2.8216587628574512e-05
1.4346116094988104e-06,3.920493027105224e-06,1.1250742092904406e-06,2.8108883261823608e-05
1.436309140617086e-06,3.895560567587297e-06,1.1159107642099859e-06,2.797528184825153e-05
1.4370978433957095e-06,3.870578408183603e-06,1.1067276221666492e-06,2.781659688552848e-05
1.436961649391411e-06,3.845734483748809e-06,1.0975586527931829e-06,2.7633670400983568e-05
1.4358938754440138e-06,3.8212872229917085e-06,1.0884367392329571e-06,2.7427428806717897e-05
1.4339001418913539e-06,3.7975490372149176e-06,1.0793974552574971e-06,2.719888534840333e-05
1.430997456921861e-06,3.774849525290002e-06,1.0704795669182902e-06,2.694909746703342e-05
1.4272087483028626e-06,3.753489775827861e-06,1.0617201685184052e-06,2.667913701237848e-05
1.4225575619945938e-06,3.7337204347964127e-06,1.0531477503585562e-06,2.639017177859149e-05
1.417066808815444e-06,3.715763583083036e-06,1.0447798112517251e-06,2.608362751300101e-05
1.4107606705185415e-06,3.6998537674256836e-06,1.0366277343234014e-06,2.5761220099598293e-05
1.4036678361555508e-06,3.6862631532965287e-06,1.0287051902840641e-06,2.5424788048121688e-05
1.3958286199350937e-06,3.6752948031960717e-06,1.0210319819591593e-06,2.507609029552591e-05
1.3873068535094965e-06,3.6672448957577202e-06,1.0136292402432623e-06,2.471672181202462e-05
1.378196018979417e-06,3.662364106027681e-06,1.0065120520740357e-06,2.434821352181216e-05
1.368608935657481e-06,3.6608549259408082e-06,9.99687485173351e-07,2.397228237412884e-05
1.3586624349438083e-06,3.6628926873924418e-06,9.931596271764108e-07,2.3591025711492416e-05
1.348476946158918e-06,3.6686283534992333e-06,9.869381982822245e-07,2.320687247541593e-05
1.338185838072318e-06,3.6781644817753816e-06,9.81041906014272e-07,2.282235802329545e-05
1.32793333464849e-06,3.69153305702622e-06,9.75490868198105e-07,2.2439895840248628e-05
1.3178579532738669e-06,3.7087048380764398e-06,9.702968976190857e-07,2.2061618198324814e-05
1.308077674495713e-06,3.729626814164386e-06,9.654605898785171e-07,2.1689311564320667e-05
1.298688691267369e-06,3.7542502721811166e-06,9.609731086992514e-07,2.132445015870888e-05
1.289775821664184e-06,3.782524165144094e-06,9.568211289174994e-07,2.0968263267169143e-05
1.2814230808279571e-06,3.8143660436339034e-06,9.529937302950285e-07,2.0621772761947586e-05
1.273712290873072e-06,3.849638451202279e-06,9.494849166538563e-07,2.0285795188304075e-05
1.2667118937365152e-06,3.888149848970002e-06,9.462904060139835e-07,1.996094036120528e-05
1.2604681973545995e-06,3.929675706473449e-06,9.434050220358137e-07,1.964762797647101e-05
1.2550025196749008e-06,3.9739793473624235e-06,9.408227116912716e-07,1.9346112082456767e-05
1.2503114415492158e-06,4.020820579478515e-06,9.385349024383137e-07,1.90565105014406e-05
1.2463698123094305e-06,4.069952683310885e-06,9.365279465794907e-07,1.8778847289353105e-05
1.2431360456334015e-06,4.1211105575751865e-06,9.347847944580296e-07,1.851310569763155e-05
1.240558549696953e-06,4.1739949073291464e-06,9.332884283760981e-07,1.8259280194397048e-05
1.2385826849372694e-06,4.228262827548564e-06,9.320205878360085e-07,1.801739792492976e-05
1.2371578749528802e-06,4.283533346606087e-06,9.309569876382105e-07,1.7787495023130266e-05
1.2362426595897943e-06,4.339402295972308e-06,9.300655162262389e-07,1.7569585169103e-05
1.2358031704342826e-06,4.395451457586971e-06,9.293104559617071e-07,1.736364296771483e-05
1.2358050428317296e-06,4.451247801421727e-06,9.286585660328837e-07,1.71695708275293e-05
1.236205550156431e-06,4.5063428981833885e-06,9.28080395000064e-07,1.6987140986162135e-05
1.23695105905892e-06,4.560281621617742e-06,9.275487746315912e-07,1.6815955079968912e-05
1.2379784003893866e-06,4.612619342760333e-06,9.270425323732715e-07,1.665546734552255e-05
1.2392176547071556e-06,4.6629347802695736e-06,9.265530186743108e-07,1.6505098236043356e-05
1.24059634128626e-06,4.7108268644562085e-06,9.26082724213187e-07,1.6364402209220405e-05
1.242042669404844e-06,4.7559058634181745e-06,9.256365926521631e-07,1.623317013336155e-05
1.2434855742081448e-06,4.797793861650492e-06,9.2521761523094e-07,1.6111391066318053e-05
1.2448563059626393e-06,4.836129592066208e-06,9.24829749038673e-07,1.5999144261822113e-05
1.2460972300959522e-06,4.8705686081318196e-06,9.24480413401202e-07,1.5896528907212367e-05
1.2471730941638544e-06,4.900782600159848e-06,9.241792395781656e-07,1.580364821720493e-05
1.2480721542921488e-06,4.9264631654915335e-06,9.23935476027725e-07,1.5720590778197706e-05
1.2487953385583565e-06,4.947329518977588e-06,9.237543870951191e-07,1.56473646109584e-05
1.2493474570102704e-06,4.963144576063134e-06,9.236332711574765e-07,1.558381132256022e-05
1.2497380176735375e-06,4.9737438908887265e-06,9.235602252093471e-07,1.552956307504608e-05
1.2499827440625879e-06,4.979060105662012e-06,9.235180646529274e-07,1.5484068289763373e-05
1.2500988180243565e-06,4.979115798327373e-06,9.234914413947656e-07,1.5446674426849838e-05
1.250099714970079e-06,4.973987124670696e-06,9.23469888281105e-07,1.5416751072559546e-05
1.2499966422879095e-06,4.9637718910452735e-06,9.234432612410299e-07,1.5393812712796688e-05
1.249803148195872e-06,4.948583902772446e-06,9.233960375755148e-07,1.5377557674403562e-05
1.2495360299967598e-06,4.92856516017087e-06,9.233063907611085e-07,1.5367778789875535e-05
1.2492126097796525e-06,4.9039013413315205e-06,9.231485205589573e-07,1.5364216458709603e-05
1.2488461122299157e-06,4.87483155889034e-06,9.228956395631912e-07,1.5366467699276787e-05
1.2484396447456221e-06,4.8416452573098325e-06,9.225231481639124e-07,1.53739789134358e-05
1.2479826049818706e-06,4.8046628144406985e-06,9.220110222806187e-07,1.5386065126698073e-05
1.2474520963335292e-06,4.7642064902059235e-06,9.213435324709187e-07,1.5401923814133756e-05
1.2468169134220013e-06,4.7205841268584395e-06,9.205067647098736e-07,1.5420690018867004e-05
1.2460420743807379e-06,4.674100180359764e-06,9.194859930431772e-07,1.5441604058437334e-05
1.245094372478267e-06,4.6250741634158775e-06,9.182636537793881e-07,1.5464230597009752e-05
1.2439480417804171e-06,4.5738378182152005e-06,9.168199490507505e-07,1.5488530227538272e-05
1.2425886610376312e-06,4.520712629644602e-06,9.151372021949871e-07,1.5514727096456026e-05
1.2410139581212766e-06,4.465990900862339e-06,9.1320360136765e-07,1.5543119625027278e-05
1.2392294731930037e-06,4.409929192618325e-06,9.110121647071449e-07,1.5573946162172812e-05
1.2372406503226677e-06,4.3527460363035965e-06,9.085567972871584e-07,1.560735139548536e-05
1.2350468927238478e-06,4.2946207264251575e-06,9.058296677238449e-07,1.5643515737128313e-05
1.2326400304809978e-06,4.2356951014493415e-06,9.02821047037293e-07,1.5682874179745068e-05
1.2300081631351047e-06,4.176079702926571e-06,8.995200104595846e-07,1.572620025476906e-05
1.2271440383003595e-06,4.115864069356613e-06,8.959152656842552e-07,1.577449361301163e-05
1.2240495220220378e-06,4.0551268548431355e-06,8.919967534730318e-07,1.5828814698649466e-05
1.220730555023145e-06,3.993943653534195e-06,8.877572127147696e-07,1.589016360585664e-05
1.2171902128540189e-06,3.9323928964810295e-06,8.831927891061335e-07,1.595940288611708e-05
1.2134274222294606e-06,3.870556153212513e-06,8.783050700957356e-07,1.6037207789417497e-05
1.2094376580144938e-06,3.8085146739413088e-06,8.731053906606657e-07,1.6124029886376695e-05
1.205211790340942e-06,3.746354351775825e-06,8.676167799254792e-07,1.6220068467659565e-05
1.2007373636477194e-06,3.6841789316490815e-06,8.618701507126806e-07,1.632525457314696e-05
1.1960033399881798e-06,3.622115950838021e-06,8.558982137658012e-07,1.6439242247657738e-05
1.1910017148412771e-06,3.560314539693633e-06,8.497333542059041e-07,1.6561411294260178e-05
1.1857272450170863e-06,3.498947143777835e-06,8.434102010010034e-07,1.6690903546567025e-05
1.1801845366058828e-06,3.438210244802852e-06,8.369687153641052e-07,1.6826675889475597e-05
1.1744006092039608e-06,3.3783113852288484e-06,8.304546740754099e-07,1.6967532694839833e-05
1.1684305234554352e-06,3.3194583282808115e-06,8.23915583966059e-07,1.711215220490724e-05
1.1623495002725007e-06,3.2618762636174244e-06,8.173942034282562e-07,1.725914334877284e-05
1.1562369435685335e-06,3.2058372081247927e-06,8.109264700667041e-07,1.7407119580599344e-05
1.150165105957145e-06,3.1516603183798507e-06,8.045445521748367e-07,1.7554754803352303e-05
1.1441983425106596e-06,3.099674986591832e-06,7.982789281944835e-07,1.7700824245592894e-05
1.138396162909325e-06,3.050181956211938e-06,7.921582579846954e-07,1.7844241846657752e-05
1.1328136200584064e-06,3.003445410259315e-06,7.862094047459792e-07,1.798407998264801e-05
1.127498530313245e-06,2.959707228389548e-06,7.804556169277226e-07,1.8119559801250105e-05
1.1224870160414355e-06,2.919193811453596e-06,7.749124027578869e-07,1.8250015556439803e-05
1.1177998846916648e-06,2.882104708236578e-06,7.695853199765133e-07,1.837483294278644e-05
1.1134416903579394e-06,2.8485930463375364e-06,7.644707129178733e-07,1.849338336672662e-05
1.109403063335033e-06,2.818756598909553e-06,7.595571754870019e-07,1.860500878859356e-05
1.105664303235391e-06,2.792653328346217e-06,7.548278059706465e-07,1.8709053310461195e-05
1.1021969741731838e-06,2.7703283235978667e-06,7.502646774416946e-07,1.8804875348540592e-05
1.0989662183200531e-06,2.7518222765697757e-06,7.458544781616189e-07,1.889182966747905e-05
1.0959390095753278e-06,2.737162334095652e-06,7.415922405274289e-07,1.8969254308690013e-05
1.0930940664262336e-06,2.7263711590037243e-06,7.374809930109691e-07,1.9036470936695265e-05
1.0904232481142747e-06,2.719502484428904e-06,7.335274405562973e-07,1.9092792367471193e-05
1.0879241135275272e-06,2.716659321396844e-06,7.297370375114114e-07,1.913754100290345e-05
1.085595915392854e-06,2.717962542697515e-06,7.261131231652968e-07,1.9170090174227898e-05
1.0834457403860511e-06,2.72350058039404e-06,7.226600299461984e-07,1.918994242332083e-05
1.0814940127474314e-06,2.7333084898925948e-06,7.193849965501579e-07,1.919684363902729e-05
1.0797691131833506e-06,2.7473755348650325e-06,7.162963453125562e-07,1.919086773195708e-05
1.0782970174719504e-06,2.765649391484881e-06,7.134017464243381e-07,1.917238507648768e-05
1.0770947401979997e-06,2.788027480435008e-06,7.10711222631751e-07,1.9141933629710108e-05
1.0761672605007451e-06,2.814353719737806e-06,7.082426089228526e-07,1.9100080366628385e-05
1.0755053567960355e-06,2.8444370638693617e-06,7.060232692795708e-07,1.904732903259836e-05
1.075085199012224e-06,2.878083285867713e-06,7.04087457087898e-07,1.8984115592965812e-05
1.0748704576626527e-06,2.9151150727874364e-06,7.024714688000196e-07,1.891088913343225e-05
1.0748175217644606e-06,2.955366943091058e-06,7.012083206383208e-07,1.8828195100358524e-05
1.0748858362180963e-06,2.998663819713989e-06,7.003255446545744e-07,1.8736698965337406e-05
1.0750508530669849e-06,3.044800069815276e-06,6.998452519614019e-07,1.863716364033447e-05
1.0753101778420586e-06,3.0935274613122817e-06,6.997819654676713e-07,1.8530407720266397e-05
1.0756765281879893e-06,3.144552218278416e-06,7.001390212817829e-07,1.8417292084704066e-05
1.076162833904215e-06,3.1975438360240816e-06,7.009074227752583e-07,1.8298785161345567e-05
1.076771593305759e-06,3.252162433676852e-06,7.020680679142457e-07,1.817601990115572e-05
1.0774951055388724e-06,3.3080961512910315e-06,7.035950375257574e-07,1.8050215272626668e-05
1.078322483953214e-06,3.365078253103965e-06,7.054576802127944e-07,1.7922566453103382e-05
1.0792457655132546e-06,3.4228675231083282e-06,7.076208161733997e-07,1.7794279975897852e-05
1.080262229647843e-06,3.4812143201330863e-06,7.100437081958187e-07,1.766667678772107e-05
1.0813733270940531e-06,3.5398451398694915e-06,7.126806738372126e-07,1.7541188792639613e-05
1.0825803314159649e-06,3.5984696072058425e-06,7.154849302713224e-07,1.7419247291863433e-05
1.0838794133069712e-06,3.656788150979148e-06,7.184130075465921e-07,1.730215327833286e-05
1.0852607101629204e-06,3.714490988261342e-06,7.214280601584024e-07,1.7190981112619193e-05
1.0867107147465113e-06,3.77126291169546e-06,7.245015396497599e-07,1.7086535593494613e-05
1.0882128645350994e-06,3.826802204324372e-06,7.276100374554169e-07,1.6989356352714582e-05
1.0897457989065235e-06,3.8808390790900855e-06,7.307285756081472e-07,1.68997406114664e-05
1.0912831339741857e-06,3.933135216996854e-06,7.338269500209645e-07,1.6817761183461966e-05
1.0927948444552894e-06,3.983464571443111e-06,7.368699529667381e-07,1.6743283306565882e-05
1.094247468228212e-06,4.031595219817633e-06,7.398179073754038e-07,1.667599761705358e-05
1.0956031416233824e-06,4.077290776348081e-06,7.42627293692503e-07,1.6615470430409233e-05
1.0968194815973595e-06,4.1203278987869685e-06,7.452525562178993e-07,1.6561180458049592e-05
1.0978506447196307e-06,4.160509983707328e-06,7.476480755879805e-07,1.651251397880563e-05
1.098648953631897e-06,4.1976646189314515e-06,7.497690048727334e-07,1.6468752394989606e-05
1.0991681080014371e-06,4.231631783527032e-06,7.515718967766327e-07,1.6429107078826235e-05
1.0993670293584342e-06,4.262256407320587e-06,7.53016469666814e-07,1.6392790286647468e-05
1.0992100973820814e-06,4.289388852858927e-06,7.54067811211228e-07,1.6359067266048096e-05
1.0986636505447549e-06,4.312888142332167e-06,7.546979854118727e-07,1.6327265246696838e-05
1.097693228691407e-06,4.332627295124881e-06,7.548865904566867e-07,1.6296754382613426e-05
1.0962635850809915e-06,4.348506375658127e-06,7.54619597856587e-07,1.62669226841564e-05
1.094340889122413e-06,4.360471276303377e-06,7.538868563349512e-07,1.623716337773143e-05
1.0918959732262838e-06,4.368529148577144e-06,7.526796802079809e-07,1.6206875901684645e-05
1.0889062150320459e-06,4.372755560200295e-06,7.509895616561485e-07,1.6175457456366807e-05
1.085354926932594e-06,4.373286481449997e-06,7.488092616944516e-07,1.6142283631053108e-05
1.0812314968524612e-06,4.370290726086641e-06,7.461361196696918e-07,1.610670454621911e-05
1.0765348676419042e-06,4.363942869466733e-06,7.429740983667818e-07,1.6068054003298896e-05
1.071276030574464e-06,4.354419910478086e-06,7.393325250429863e-07,1.6025662559001214e-05
1.0654747335428574e-06,4.341911459949189e-06,7.352240780897864e-07,1.5978911188909378e-05
1.0591539199608068e-06,4.326620947682712e-06,7.306643009350813e-07,1.5927324638664843e-05
1.0523394496247371e-06,4.308753616215958e-06,7.256709519325299e-07,1.5870611804379926e-05
1.0450667122558382e-06,4.288500290512947e-06,7.202616336883979e-07,1.5808609834398242e-05
1.0373882209901487e-06,4.2660308281915064e-06,7.144518009212897e-07,1.5741207067319628e-05
1.0293763379848214e-06,4.24150356568257e-06,7.082548834014264e-07,1.5668308702126903e-05
1.0211192905485694e-06,4.215079571505142e-06,7.016847481832154e-07,1.5589837312286247e-05
1.0127115964731511e-06,4.1869307629646605e-06,6.947608483642382e-07,1.5505738683581562e-05
1.0042460096934627e-06,4.157241788604838e-06,6.875126246830601e-07,1.5415967955734412e-05
9.958147013899008e-07,4.126202289331802e-06,6.799781469468307e-07,1.5320474284707725e-05
9.875156123749048e-07,4.093987565970172e-06,6.721989216325158e-07,1.5219230402538541e-05
9.794534954063508e-07,4.060741649559065e-06,6.642159405495886e-07,1.5112306147707627e-05
9.717331808251363e-07,4.026575195530911e-06,6.560677610609987e-07,1.4999961503750213e-05
9.64452169824872e-07,3.991573548859942e-06,6.477897969172032e-07,1.4882735984215449e-05
9.576984762436841e-07,3.955806502185881e-06,6.394140313702963e-07,1.4761471018336874e-05
9.515504452137506e-07,3.919335502781696e-06,6.309687703855439e-07,1.4637211110469632e-05
9.46073196986128e-07,3.8822185938680485e-06,6.224805065309722e-07,1.4511031586921137e-05
9.413153554052952e-07,3.844517142849501e-06,6.139787691906065e-07,1.4383909141539554e-05
9.37312568901458e-07,3.806302401601927e-06,6.054995235815307e-07,1.4256689684183237e-05
9.340952734376484e-07,3.767653587176258e-06,5.970822449054849e-07,1.4130104649182944e-05
9.316947296412196e-07,3.728648440808474e-06,5.887637386256741e-07,1.4004771156324456e-05
9.30143867676438e-07,3.6893598372639864e-06,5.805753865391236e-07,1.3881177786287314e-05
9.294705609593405e-07,3.649864849746319e-06,5.725435022188444e-07,1.3759738700808317e-05
9.296880352771763e-07,3.610255243025515e-06,5.646894188603018e-07,1.3640947848419922e-05
9.307905326168943e-07,3.5706354502485824e-06,5.570296424189303e-07,1.3525482749262215e-05
9.327547086265595e-07,3.5311084686627954e-06,5.495774390172689e-07,1.3414131750246193e-05
9.35542533135584e-07,3.491768819867475e-06,5.423468972495142e-07,1.3307640944265525e-05
9.391025101344351e-07,3.4527177088174286e-06,5.353575219591094e-07,1.3206606080448587e-05
9.433703345856835e-07,3.4140887007125908e-06,5.286334929068238e-07,1.3111452859122195e-05
9.482736567993744e-07,3.376062581356422e-06,5.221973988379621e-07,1.3022574764323053e-05
9.537402437014124e-07,3.3388611674151814e-06,5.160655568222349e-07,1.2940593306259579e-05
9.59702109991406e-07,3.3027210508190487e-06,5.102478599933172e-07,1.2866503465257754e-05
9.66093305817997e-07,3.267858494952331e-06,5.047494881639379e-07,1.280158186336319e-05
9.728495002332509e-07,3.234441347267667e-06,4.995744920998701e-07,1.2747197000018532e-05
9.79914442001315e-07,3.2025773700617177e-06,4.947315433492234e-07,1.2704648438714493e-05
9.872464608684229e-07,3.1723173541398762e-06,4.902366738767141e-07,1.2675029485591004e-05
9.948194274276441e-07,3.143666682257066e-06,4.861098851747383e-07,1.2659111217652072e-05
1.0026206438387587e-06,3.116600303223822e-06,4.823701605085906e-07,1.2657292470406994e-05
1.0106458524415303e-06,3.0910755944879563e-06,4.790329593779204e-07,1.2669626478941737e-05
1.0188893411624923e-06,3.0670399010636887e-06,4.7610865722523346e-07,1.2695881150241235e-05
1.0273341168067643e-06,3.044434390446031e-06,4.736007112297554e-07,1.2735595213285647e-05
1.0359488533566851e-06,3.023193857420845e-06,4.7150590510690576e-07,1.2788122298317085e-05
1.0446906667858909e-06,3.0032425421120792e-06,4.6981695812417576e-07,1.2852666428889802e-05
1.0535099457783129e-06,2.9844933388609863e-06,4.6852381290964184e-07,1.2928302569912366e-05
1.062356292223865e-06,2.9668564404501e-06,4.6761209447766847e-07,1.301397487282837e-05
1.0711832216589948e-06,2.950253867928884e-06,4.67061502675608e-07,1.3108502948069265e-05
1.0799481646735037e-06,2.9346304766279282e-06,4.668464323351369e-07,1.3210644543029836e-05
1.0886095820655621e-06,2.9199549261941503e-06,4.6693886009321975e-07,1.331919967403456e-05
1.097125397376448e-06,2.906210337734377e-06,4.6731356039684496e-07,1.3433082905857633e-05
1.1054532780413002e-06,2.893379130045194e-06,4.679550088974368e-07,1.355134102045237e-05
1.11355063151157e-06,2.8814355832137493e-06,4.688614991472602e-07,1.3673154956612814e-05
1.1213730459614166e-06,2.870355200280689e-06,4.7004228442805225e-07,1.3797825642708285e-05
1.1288735424699812e-06,2.8601270452234012e-06,4.715101362573057e-07,1.3924712500848913e-05
1.1360049177205764e-06,2.8507513552405516e-06,4.7327455423538104e-07,1.4053148140702265e-05
1.1427224325134023e-06,2.842223289214646e-06,4.7533955081299326e-07,1.4182379322313794e-05
1.1489840600168002e-06,2.834517359640018e-06,4.777060684488055e-07,1.4311560475733737e-05
1.1547504884416122e-06,2.827582930169593e-06,4.803729784270959e-07,1.4439810382243691e-05
1.1599886831026416e-06,2.8213484731574257e-06,4.833335338129221e-07,1.4566285635533673e-05
1.1646776680291487e-06,2.815728110573053e-06,4.865721619430109e-07,1.4690189270457754e-05
1.1688100893481727e-06,2.810625398488709e-06,4.900655130658305e-07,1.4810722114312951e-05
1.1723875433529072e-06,2.805934620236512e-06,4.93786532320979e-07,1.4927047525590186e-05
1.17541485693669e-06,2.801545501977537e-06,4.977084821263071e-07,1.5038293176656626e-05
1.1778978230462398e-06,2.7973499658603574e-06,5.018069256553747e-07,1.5143571130388605e-05
1.1798429609235383e-06,2.7932426363398252e-06,5.060606672299856e-07,1.5241992641026068e-05
1.1812558565837338e-06,2.7891170644737783e-06,5.104543414805997e-07,1.5332678746012287e-05
1.1821393721739354e-06,2.784867449526625e-06,5.14982783048674e-07,1.5414791702389118e-05
1.1824939136262008e-06,2.7803960794916416e-06,5.196526755421637e-07,1.5487591323880614e-05
1.1823171012022287e-06,2.775617524572486e-06,5.244773836291704e-07,1.5550493979149305e-05
1.1816022121999762e-06,2.7704545873634264e-06,5.294677918118635e-07,1.560311471976578e-05
1.1803403288412633e-06,2.7648324299760462e-06,5.346260401381581e-07,1.5645285302154233e-05
1.1785263356973806e-06,2.7586797044388126e-06,5.399448404173722e-07,1.567702298655743e-05
1.1761618128553123e-06,2.751933987287705e-06,5.454092991304653e-07,1.569843504262029e-05
1.1732537962375008e-06,2.744544579561555e-06,5.509982567467754e-07,1.5709638165041063e-05
1.1698141218706422e-06,2.73647117274194e-06,5.566852527775781e-07,1.5710771354715846e-05
1.1658580728512434e-06,2.7276801315855515e-06,5.62439228132664e-07,1.5702047743038902e-05
1.161400229910002e-06,2.7181446154125385e-06,5.682247579742806e-07,1.568376614876113e-05
1.1564511609933091e-06,2.7078518575671564e-06,5.74003831097149e-07,1.565628591456183e-05
1.1510175176218295e-06,2.6968085529313253e-06,5.797401045711322e-07,1.5619991074638007e-05
1.1451053494402357e-06,2.685034179252061e-06,5.854027814929416e-07,1.557528897108278e-05
1.1387264790613936e-06,2.672546769982732e-06,5.909671508479077e-07,1.552271633911944e-05
1.131906119633449e-06,2.6593582470213085e-06,5.964114672361582e-07,1.54630811785588e-05
1.1246859932504623e-06,2.645486106420467e-06,6.017132021967372e-07,1.5397442586239483e-05
1.1171185380057992e-06,2.630964701324612e-06,6.068478531835476e-07,1.532692560318023e-05
1.1092584959522476e-06,2.61583966054308e-06,6.117896070462828e-07,1.5252547386023236e-05
1.1011605595192855e-06,2.6001517102537927e-06,6.165127506793761e-07,1.5175150251521585e-05
1.0928811402234364e-06,2.583925262876752e-06,6.209935311579243e-07,1.5095472384762829e-05
1.0844802332806385e-06,2.567167528626165e-06,6.252103871565242e-07,1.5014336371370813e-05
1.0760229848413634e-06,2.549876483546181e-06,6.291420550563287e-07,1.493279288178814e-05
1.0675781758426662e-06,2.532056375270871e-06,6.327663354597239e-07,1.4852076834655255e-05
1.0592121403402948e-06,2.5137386193199538e-06,6.360611658183365e-07,1.4773438711169095e-05
1.0509819774613205e-06,2.494998628226239e-06,6.390064569700302e-07,1.4697983417515448e-05
1.0429318880985329e-06,2.475955013517769e-06,6.415856566195267e-07,1.4626567136205862e-05
1.035093020590221e-06,2.45674846402372e-06,6.437877296163114e-07,1.4559752978263385e-05
1.0274855338638648e-06,2.4375153885435053e-06,6.456088140257889e-07,1.449781483110376e-05
1.0201211499938716e-06,2.4183778462291803e-06,6.470524993419028e-07,1.4440771626236996e-05
1.0130055172084814e-06,2.3994546613889442e-06,6.481287912715189e-07,1.4388440751527914e-05
1.006142930923794e-06,2.380876285639619e-06,6.488540745904734e-07,1.4340503706776855e-05
9.995421563646049e-07,2.3627889498193956e-06,6.492570264552987e-07,1.4296558330596024e-05
9.932169748398724e-07,2.345349783475117e-06,6.493860043327942e-07,1.4256126932703479e-05
9.871853915697191e-07,2.328716962379296e-06,6.493045192996852e-07,1.421863452099296e-05
9.814745875393991e-07,2.3130351395622052e-06,6.490773505492282e-07,1.4183402151847882e-05
9.761227814374514e-07,2.2984201771334696e-06,6.487636956200571e-07,1.414967354996684e-05
9.711713975924498e-07,2.284951379710808e-06,6.484200146387689e-07,1.4116662760655413e-05
9.666589118640159e-07,2.272672921902591e-06,6.48102275137678e-07,1.408360962979207e-05
9.62621760491003e-07,2.2616011291375656e-06,6.478627573210484e-07,1.4049836925289324e-05
9.590922892855851e-07,2.2517372551663057e-06,6.477447216804759e-07,1.4014800352496695e-05
9.560918851845225e-07,2.243078605239365e-06,6.477795980099784e-07,1.3978110026558987e-05
9.536292045426609e-07,2.235615803967639e-06,6.479882266187964e-07,1.3939502917252905e-05
9.517054688127815e-07,2.2293191997831928e-06,6.483848117767472e-07,1.3898787336369766e-05
9.503179746952064e-07,2.224128803320577e-06,6.489804091520256e-07,1.3855805608814185e-05
9.494572866397093e-07,2.2199545272923503e-06,6.497834013559054e-07,1.3810412027948428e-05
9.491034158042322e-07,2.2166845396571805e-06,6.507985192267749e-07,1.3762450781120208e-05
9.492252751343635e-07,2.214199446677756e-06,6.520275958689949e-07,1.3711788954704125e-05
9.497814229356949e-07,2.212391089869104e-06,6.5347649235856e-07,1.3658416161753294e-05
9.507214600870251e-07,2.211182854249421e-06,6.551676096907711e-07,1.3602490276190685e-05
9.519922889875694e-07,2.21054695354359e-06,6.571437794882436e-07,1.354427127736376e-05
9.535493319083411e-07,2.2105135781028228e-06,6.59455262638824e-07,1.348404405796084e-05
9.55363840798749e-07,2.2111688417289587e-06,6.621425346653508e-07,1.3422107099803699e-05
9.574198416908534e-07,2.212643088930863e-06,6.652284765104251e-07,1.3358783894771607e-05
9.597078729073238e-07,2.2150906147860057e-06,6.687205451410108e-07,1.329439403362149e-05
9.622289945476187e-07,2.218661854314425e-06,6.726170874118313e-07,1.3229196176453352e-05
9.65005826931048e-07,2.223482187307888e-06,6.769123008993619e-07,1.3163353131949107e-05
9.680822575175268e-07,2.2296557249044647e-06,6.815984121095591e-07,1.3096938362794713e-05
9.71510441495527e-07,2.237286080243993e-06,6.866666661208414e-07,1.3029980233404144e-05
9.75339364663937e-07,2.24648770230278e-06,6.921072871714705e-07,1.2962534026266546e-05
9.796094283821603e-07,2.2573828716116632e-06,6.979077322588446e-07,1.2894771312696491e-05
9.84349328914545e-07,2.270100285237386e-06,7.040501899868832e-07,1.28270523193737e-05
9.895731714841922e-07,2.2847777662133995e-06,7.105108148392515e-07,1.2759920270978716e-05
9.952795200661995e-07,2.301555231759177e-06,7.172616951907678e-07,1.2694003888930625e-05
1.0014547518241884e-06,2.3205520301702567e-06,7.242725737812654e-07,1.262987906947818e-05
1.0080777623693734e-06,2.3418399942418467e-06,7.315108392205365e-07,1.2567966785943433e-05
1.0151216481525197e-06,2.36542939749815e-06,7.389425521950533e-07,1.2508517955964448e-05
1.0225528794848324e-06,2.391272729481544e-06,7.465348657718842e-07,1.245165347179086e-05
1.030331058081537e-06,2.4192749358490896e-06,7.542563474464425e-07,1.2397394170924596e-05
1.0384097322478834e-06,2.449299941693324e-06,7.620737066659802e-07,1.2345700826755493e-05
1.0467355058889878e-06,2.481177209888962e-06,7.699483277789494e-07,1.2296610781975312e-05
1.0552462767534564e-06,2.5147177839011275e-06,7.778354703823819e-07,1.2250415696192261e-05
1.0638742725419308e-06,2.5497378552846515e-06,7.856847408225324e-07,1.2207689118518464e-05
1.0725541932091897e-06,2.5860721423961603e-06,7.934424704127763e-07,1.2169137015722474e-05
1.081230073120418e-06,2.6235676126541127e-06,8.010585739101856e-07,1.2135416171943448e-05
1.0898576505277717e-06,2.6620799398852118e-06,8.084939130869202e-07,1.2107030161068087e-05
1.0984040055283977e-06,2.7014922770522384e-06,8.157217578502303e-07,1.2084386194813147e-05
1.1068451172049549e-06,2.7417281099269197e-06,8.227243060833921e-07,1.2068037270415524e-05
1.1151606816398844e-06,2.7827343079449848e-06,8.29488375704664e-07,1.2058930723729722e-05
1.1233300947978896e-06,2.8244728558989507e-06,8.360013105033836e-07,1.20584413167077e-05
1.1313353950038329e-06,2.8669488722850718e-06,8.422480197462435e-07,1.2068205487031081e-05
1.1391684578702299e-06,2.910230458362837e-06,8.482109664730077e-07,1.2089912478299102e-05
1.146833281731931e-06,2.95442001510272e-06,8.53871983678556e-07,1.2125134249353794e-05
1.1543406686044641e-06,2.9996027387411987e-06,8.592122170618849e-07,1.2175207159648805e-05
1.1617020161895608e-06,3.0458205150081765e-06,8.642104550931473e-07,1.224115378984329e-05
1.168927982507195e-06,3.093081910213442e-06,8.688443099575339e-07,1.2323634184693269e-05
1.176029347066227e-06,3.141382820225282e-06,8.73093837375071e-07,1.2422939093402815e-05
1.183014389860116e-06,3.190720095145749e-06,8.769428589061535e-07,1.253902232168276e-05
1.1898830928214584e-06,3.2410993501898965e-06,8.803781655158661e-07,1.2671530337178925e-05
1.1966236816087185e-06,3.29253457171375e-06,8.833886858173807e-07,1.2819806613994224e-05
1.2032136866301077e-06,3.3450326721681937e-06,8.859638800898785e-07,1.2982903879631834e-05
1.2096240048383228e-06,3.398568199677015e-06,8.880924517951379e-07,1.3159636878886142e-05
1.2158254532483223e-06,3.4530685570709053e-06,8.897628373319624e-07,1.334866993732003e-05
1.221793812212283e-06,3.5084325688245795e-06,8.909643282167887e-07,1.354863100167637e-05
1.227507969347171e-06,3.564582581191571e-06,8.916873841768516e-07,1.3758239487612854e-05
1.232946035278546e-06,3.621511946568586e-06,8.919233788336813e-07,1.3976397673806872e-05
1.2380878784643538e-06,3.6792823622569625e-06,8.916663146164534e-07,1.4202211010461315e-05
1.2429199166627188e-06,3.7379706592932365e-06,8.909157519949333e-07,1.4434963994658935e-05
1.247433118084696e-06,3.7976132516886964e-06,8.896758719481176e-07,1.4674074633581339e-05
1.2516178783672329e-06,3.858188984399625e-06,8.87950647385055e-07,1.491902441037589e-05
1.2554653773078041e-06,3.919633791476924e-06,8.85741916942482e-07,1.516928285497378e-05
1.25897364158144e-06,3.981860240552631e-06,8.83055130475848e-07,1.5424251604559327e-05
1.2621483697724159e-06,4.044769880271617e-06,8.799074660173679e-07,1.568321955480542e-05
1.2649962402358922e-06,4.108256878440279e-06,8.763284461749184e-07,1.5945321894614812e-05
1.2675190033472906e-06,4.172203102465813e-06,8.723541218042904e-07,1.6209540342861286e-05
1.2697141319822588e-06,4.236467431599643e-06,8.680233978662146e-07,1.6474755846525148e-05
1.2715771102576081e-06,4.300873715541516e-06,8.633770312038971e-07,1.67397989585715e-05
1.2731012618982534e-06,4.365207687698637e-06,8.584554429605924e-07,1.7003477021362453e-05
1.2742804422580344e-06,4.429234737580195e-06,8.532959985532992e-07,1.7264608679590955e-05
1.275114862660571e-06,4.492727167645735e-06,8.479320621354006e-07,1.752207298576442e-05
1.275610725803721e-06,4.5554711546370366e-06,8.423941563541734e-07,1.7774828161265672e-05
1.2757734387477428e-06,4.617254190068805e-06,8.367110826758699e-07,1.8021857559452743e-05
1.275603273410719e-06,4.677867385883557e-06,8.309097393575163e-07,1.8262087352213207e-05
1.2750961965596184e-06,4.737130690841256e-06,8.250156788818002e-07,1.849435396148544e-05
1.2742460514231564e-06,4.7949076294931715e-06,8.190538491907936e-07,1.8717440315705853e-05
1.2730444263955692e-06,4.85108668639134e-06,8.130474094155806e-07,1.8930166291745748e-05
1.2714809127585259e-06,4.905549270761735e-06,8.070186976643654e-07,1.9131509450622605e-05
1.2695486177800222e-06,4.9581596548503734e-06,8.009945445344942e-07,1.9320692584272733e-05
1.2672498455601757e-06,5.0087838222657636e-06,7.950083274085476e-07,1.9497162624342398e-05
1.264593247109972e-06,5.057315209596368e-06,7.890946023935084e-07,1.966047638088991e-05
1.2615860509288488e-06,5.103686602371549e-06,7.83283274390109e-07,1.9810200593014308e-05
1.2582311552914256e-06,5.147861493122694e-06,7.775981405766282e-07,1.9945891513904285e-05
1.254528814416106e-06,5.189811757210342e-06,7.720565953775077e-07,2.0067120851326182e-05
1.2504776655715326e-06,5.2294967420646285e-06,7.666684643729613e-07,2.017349220757928e-05
1.2460757272633266e-06,5.26685270498414e-06,7.614357475027876e-07,2.0264625780979872e-05
1.241323094808132e-06,5.301789773095978e-06,7.563545718001169e-07,2.034015067124547e-05
1.2362263915396305e-06,5.334193926079905e-06,7.51418976548663e-07,2.0399803198587243e-05
1.2308056201251637e-06,5.363942232299894e-06,7.466255678636835e-07,2.044361182649554e-05
1.2250983950586722e-06,5.3909356240098095e-06,7.419770467822493e-07,2.0471968858939055e-05
1.2191540698252028e-06,5.4151306156311164e-06,7.374807603712193e-07,2.048550466855154e-05
1.2130231941660216e-06,5.436545384652636e-06,7.331422348703015e-07,2.0484898929718483e-05
1.206754852384175e-06,5.4552369234588006e-06,7.289599905423632e-07,2.047076228877166e-05
1.2004020674015067e-06,5.4712673788456485e-06,7.249254190459769e-07,2.0443666735533734e-05
1.1940237043716371e-06,5.484680474209508e-06,7.210251100808053e-07,2.040433821749837e-05
1.1876765428027034e-06,5.4954931483589695e-06,7.172431788873074e-07,2.0353850298569107e-05
1.1814045605183537e-06,5.503693281010572e-06,7.13564152572918e-07,2.0293633940359216e-05
1.1752340697693717e-06,5.509237285388349e-06,7.099757518880844e-07,2.0225337491116414e-05
1.1691745229314149e-06,5.512053542907477e-06,7.064693463950968e-07,2.0150674124496766e-05
1.1632218689641777e-06,5.512062827285493e-06,7.030378679009316e-07,2.007130172445324e-05
1.157362824053765e-06,5.5092118649773595e-06,6.996729691170504e-07,1.9988722552560707e-05
1.1515787946503105e-06,5.503496035367987e-06,6.96363892349717e-07,1.9904209356081748e-05
1.145848240183341e-06,5.494954087182574e-06,6.93098605094359e-07,1.981877541703533e-05
1.1401467991964963e-06,5.48364254227308e-06,6.898647801739385e-07,1.97331794436927e-05
1.1344473270083208e-06,5.469607885478339e-06,6.866502185575675e-07,1.9647943226736103e-05
1.1287210434567838e-06,5.452869525333403e-06,6.83444938470559e-07,1.956337302228185e-05
1.12293760706103e-06,5.433417418475164e-06,6.802444114175196e-07,1.9479574376402537e-05
1.1170649637563677e-06,5.411219301026918e-06,6.770507699627748e-07,1.9396455934314027e-05
1.1110715912790605e-06,5.3862313526552685e-06,6.738700646845414e-07,1.9313739066904064e-05
1.1049306761320172e-06,5.358409015353788e-06,6.707080185808298e-07,1.92309981486304e-05
1.098623419120998e-06,5.3277130576297886e-06,6.675703045813304e-07,1.914773663722584e-05
1.0921375920041442e-06,5.294110751207854e-06,6.644682545590929e-07,1.9063464953623207e-05
1.0854624991122541e-06,5.257577790792208e-06,6.614217994610211e-07,1.8977741403002388e-05
1.0785868896873936e-06,5.218101839328525e-06,6.584543526007988e-07,1.8890184017130164e-05
1.0715002491038706e-06,5.1756895553529685e-06,6.555857380091886e-07,1.8800484066095238e-05
1.064192194886866e-06,5.130377866433623e-06,6.52829677877962e-07,1.870841771785649e-05
1.0566501797139276e-06,5.082240927825897e-06,6.501942300552313e-07,1.861383698582355e-05
1.0488595277742805e-06,5.0313882663673965e-06,6.476820686894393e-07,1.8516649962976747e-05
1.0408053406677618e-06,4.97795425799188e-06,6.452913286044693e-07,1.8416802323828765e-05
1.0324737743796192e-06,4.9220803549580395e-06,6.430199415869456e-07,1.831424787094154e-05
1.0238546668578582e-06,4.863901924196466e-06,6.408724708694021e-07,1.8208922689619106e-05
1.0149479201982692e-06,4.803546177978743e-06,6.388620300700223e-07,1.8100773008249075e-05
1.0057690958507916e-06,4.741131622417722e-06,6.370048872172211e-07,1.7989810205473512e-05
9.963474217380743e-07,4.676766751569302e-06,6.353150135844928e-07,1.7876100266892374e-05
9.867176835067496e-07,4.6105576578547735e-06,6.33802169348634e-07,1.7759696154707194e-05
9.769160871546042e-07,4.542625282888723e-06,6.324707033866365e-07,1.764060096836187e-05
9.669856073139765e-07,4.473121672195054e-06,6.313184419276291e-07,1.751878481741783e-05
9.569828410333486e-07,4.4022355778768525e-06,6.303366219581798e-07,1.7394213437857608e-05
9.469758551102341e-07,4.330182237261139e-06,6.295106952993476e-07,1.7266857540276518e-05
9.370339409587177e-07,4.257182341939654e-06,6.288212787728712e-07,1.7136694954677992e-05
9.272190205509771e-07,4.183450959957363e-06,6.282448272343128e-07,1.7003727441757547e-05
9.175843459411549e-07,4.109210667346247e-06,6.27755084509244e-07,1.6868011807148004e-05
9.081762339547699e-07,4.034715596710301e-06,6.273262051181871e-07,1.6729693660927938e-05
8.990333964983333e-07,3.960262360707495e-06,6.269358182037666e-07,1.6589043066875607e-05
8.901849026783754e-07,3.88617862895826e-06,6.265648053357131e-07,1.6446490301814426e-05
8.816494402341818e-07,3.8128010586603037e-06,6.261942366901707e-07,1.6302616414908426e-05
8.734357569193544e-07,3.7404579195006722e-06,6.258046806964231e-07,1.6158062186093433e-05
8.655430687915797e-07,3.669455301808893e-06,6.253800325829011e-07,1.6013413871569947e-05
8.579610586037136e-07,3.600061890522408e-06,6.249112627993569e-07,1.586915705662256e-05
8.506713556842636e-07,3.532504459634221e-06,6.243950518303859e-07,1.5725704401770368e-05
8.436523993647072e-07,3.466980926004994e-06,6.238286949040603e-07,1.5583430019091434e-05
8.368854636610484e-07,3.4036710828717045e-06,6.232071365672483e-07,1.5442672428977485e-05
8.303586569559488e-07,3.3427335769777767e-06,6.225233510968604e-07,1.5303728076685166e-05
8.240696713724886e-07,3.2843036314769988e-06,6.217683847973293e-07,1.5166892306308639e-05
8.180275686215349e-07,3.228497446257379e-06,6.209301774188254e-07,1.5032561561562326e-05
8.122498672523004e-07,3.1754136148547293e-06,6.199938304842083e-07,1.4901288391891965e-05
8.067548365884284e-07,3.1251350376991307e-06,6.189457109428097e-07,1.4773702974323547e-05
8.015565049972208e-07,3.0777496798145265e-06,6.177799969439082e-07,1.4650374072826765e-05
7.966671965688332e-07,3.033388011561638e-06,6.165032482331244e-07,1.453170851408737e-05
7.921029911724607e-07,2.992243108783677e-06,6.151353549155755e-07,1.4417953762981408e-05
7.878858879442082e-07,2.954548312352927e-06,6.137074643759146e-07,1.4309365836656802e-05
7.840414035302944e-07,2.920527280577436e-06,6.12257924648293e-07,1.4206449919638181e-05
7.805944392853683e-07,2.890355269509093e-06,6.108287489420033e-07,1.4110039891093448e-05
7.775674338071201e-07,2.8641554989079047e-06,6.094624630894805e-07,1.4021165082413526e-05
7.749811133718048e-07,2.8420143336201364e-06,6.081992567275466e-07,1.3940861775114865e-05
7.728535777606585e-07,2.823983158404371e-06,6.070774161745758e-07,1.3870028471018164e-05
7.711956855103144e-07,2.8100630727705025e-06,6.061363016103355e-07,1.3809330837294095e-05
7.700077784079e-07,2.8001934271259558e-06,6.054186497379752e-07,1.3759155250538699e-05
7.692833225268973e-07,2.794254247395269e-06,6.049694744317262e-07,1.3719597075559254e-05
7.690153439375093e-07,2.792073576340601e-06,6.048299790746321e-07,1.3690466770709347e-05
7.691974963695362e-07,2.79343233693634e-06,6.050317090448198e-07,1.3671312426660267e-05
7.698208608862552e-07,2.79807115902763e-06,6.055973459941237e-07,1.3661456474458859e-05
7.708715183625784e-07,2.805703900601777e-06,6.065452625179729e-07,1.3660039568011509e-05
7.723288042188817e-07,2.816034083326925e-06,6.07891893701694e-07,1.3666074721800132e-05
7.74163785645011e-07,2.8287676282540186e-06,6.096516407321088e-07,1.3678516173640853e-05
7.763389229753252e-07,2.8436172011077127e-06,6.118366407566077e-07,1.3696330973813815e-05
7.788093828879881e-07,2.860297396370559e-06,6.144563583209379e-07,1.3718555569037425e-05
7.815264591826495e-07,2.878518793952655e-06,6.175162936237944e-07,1.3744326809836304e-05
7.844414198760926e-07,2.8979928104853037e-06,6.210178488031303e-07,1.3772881457260836e-05
7.875073509212457e-07,2.9184456313893462e-06,6.249592079006211e-07,1.3803534793419638e-05
7.906795341899899e-07,2.9396248532341703e-06,6.293337914070439e-07,1.3835669276861239e-05
7.939152869812329e-07,2.9612904493191005e-06,6.341275281321281e-07,1.3868738422360745e-05
7.971734149878471e-07,2.9832005759293097e-06,6.393179541596522e-07,1.3902243665687533e-05
8.004152338604923e-07,3.0051080111687097e-06,6.448750961976713e-07,1.393566615192648e-05
8.036077448252519e-07,3.0267680500847536e-06,6.507644341359894e-07,1.3968403914371848e-05
8.067251503667061e-07,3.0479446895061038e-06,6.569499384467221e-07,1.3999761687430725e-05
8.097467930894777e-07,3.0684142773423607e-06,6.633933699388208e-07,1.4028996404309134e-05
8.126553216279294e-07,3.087978291149472e-06,6.700516543397106e-07,1.4055408848424192e-05
8.154360847847287e-07,3.106482088520149e-06,6.768765447014475e-07,1.4078442533101233e-05
8.180740757607148e-07,3.12382462625854e-06,6.838169308480473e-07,1.4097735159175112e-05
8.20550029323187e-07,3.139950634894029e-06,6.908219032213209e-07,1.4113120284371961e-05
8.228402139014005e-07,3.154826726857779e-06,6.978426906925832e-07,1.4124607852217505e-05
8.249188637334438e-07,3.1684152784968947e-06,7.048323120104294e-07,1.4132355315269989e-05
8.267597861821042e-07,3.1806623223308623e-06,7.11743452357418e-07,1.4136617413944574e-05
8.283365324032702e-07,3.1915005354194924e-06,7.185272454236637e-07,1.4137656617911526e-05
8.296225573949726e-07,3.2008593328928587e-06,7.251347031536409e-07,1.413565337519339e-05
8.305916417007673e-07,3.208677419633936e-06,7.315194845472358e-07,1.4130689242688793e-05
8.312180130378831e-07,3.21491473860262e-06,7.376411222377309e-07,1.4122807212908173e-05
8.314772430722991e-07,3.2195583177126863e-06,7.434684225603791e-07,1.4112105771366134e-05
8.313485472955988e-07,3.222616853786303e-06,7.489802507568311e-07,1.4098855673648562e-05
8.308177630328425e-07,3.22410880739378e-06,7.541610893080609e-07,1.4083626701861424e-05
8.298809382858352e-07,3.2240589975526797e-06,7.589943054848329e-07,1.4067338751614913e-05
8.285462377276108e-07,3.2225106187592014e-06,7.634587774841944e-07,1.4051154698029102e-05
8.268306662890169e-07,3.2195401874230735e-06,7.675303429144359e-07,1.4036261280121344e-05
8.24754395962778e-07,3.215259252293413e-06,7.71186848692327e-07,1.4023673265680594e-05
8.223395050631285e-07,3.209801995001533e-06,7.744137228270123e-07,1.4014144485002233e-05
8.196135529379432e-07,3.203316927033658e-06,7.772042771026665e-07,1.4008160856433654e-05
8.166116047584265e-07,3.1959863682241013e-06,7.79554449571248e-07,1.4005953592903973e-05
8.133737217364599e-07,3.18806195968507e-06,7.814581519206811e-07,1.4007525841255264e-05
8.099411335803048e-07,3.1798643654735563e-06,7.82906758011222e-07,1.4012757732705813e-05
8.063532222073005e-07,3.171733232403896e-06,7.838928955314887e-07,1.4021614346744168e-05
8.026445187941827e-07,3.163984626931518e-06,7.844166556550319e-07,1.4034307095791162e-05
7.988422431436268e-07,3.156916636938488e-06,7.844891774863454e-07,1.405123831062315e-05
7.949662543929331e-07,3.1508296861333716e-06,7.841322401993595e-07,1.4072794108551135e-05
7.910311136520455e-07,3.146016984771092e-06,7.833789037071872e-07,1.409918950865671e-05
7.870484145835467e-07,3.1427339088944424e-06,7.822758792714283e-07,1.4130494815327286e-05
7.830299739969178e-07,3.141186018429294e-06,7.808811054091323e-07,1.4166859896175266e-05
7.789919637131376e-07,3.1415484256628907e-06,7.792540681492271e-07,1.4208802888046451e-05
7.749553931328095e-07,3.143991101516696e-06,7.774464063531599e-07,1.4257331804177328e-05
7.70942122013272e-07,3.148682231440296e-06,7.755012979648479e-07,1.4313823546045166e-05
7.669747783339312e-07,3.1557646401563644e-06,7.734595191531103e-07,1.4379798733396505e-05
7.63084387848264e-07,3.1653264955151867e-06,7.7136384840455e-07,1.4456718313363035e-05
7.593170345206566e-07,3.1773972293214e-06,7.69258832714518e-07,1.454582860645431e-05
7.557314073225365e-07,3.1919728484552953e-06,7.671878572448466e-07,1.4648063869100808e-05
7.523887718663438e-07,3.209038841447431e-06,7.651894391402356e-07,1.4764011935086276e-05
7.493429912160017e-07,3.228564187594412e-06,7.632948474837515e-07,1.4893932189350006e-05
7.466366951518803e-07,3.2504772654956503e-06,7.615287081103144e-07,1.5037806339160684e-05
7.443017315554164e-07,3.274651425282638e-06,7.599113929195352e-07,1.5195386202527914e-05
7.423587297416104e-07,3.300909017619587e-06,7.584613394412137e-07,1.536620328276213e-05
7.40815992055517e-07,3.3290319073246136e-06,7.571966093541713e-07,1.5549539323966908e-05
7.396706553447055e-07,3.35876898401358e-06,7.561336347458419e-07,1.574439258343839e-05
7.389124165755222e-07,3.389841710797443e-06,7.552838640755081e-07,1.5949483572130082e-05
7.385292945456855e-07,3.4219510811236638e-06,7.546536672233105e-07,1.6163327983892233e-05
7.385131867387456e-07,3.454785543843454e-06,7.542471627130377e-07,1.6384369893797698e-05
7.388596440119451e-07,3.4880281521678e-06,7.540664515796313e-07,1.6611120635915883e-05
