8.069654450452099e-07,2.8312800759351207e-06,4.976176312597167e-07,8.725528241910695e-06
8.134232547975251e-07,2.8250761477413447e-06,4.99692225391998e-07,8.572074113885656e-06
8.199903303995218e-07,2.817734949437926e-06,5.016440917940111e-07,8.421094541683028e-06
8.266114769036623e-07,2.8092957447375283e-06,5.034540119948962e-07,8.272625513604104e-06
8.332385061173835e-07,2.7997923436610933e-06,5.051025206854044e-07,8.126707923850186e-06
8.398366958556112e-07,2.789262986434517e-06,5.065697424143002e-07,7.983392978473454e-06
8.463941553374278e-07,2.777747429116298e-06,5.07835204838129e-07,7.842717553631117e-06
8.52925489431887e-07,2.7652771499445536e-06,5.088788046354612e-07,7.704686583331053e-06
8.594635037483566e-07,2.7518765602154407e-06,5.096832062105182e-07,7.5692755229939775e-06
8.660429711193906e-07,2.737579745622658e-06,5.102350370566979e-07,7.436442188517047e-06
8.72687798292036e-07,2.7224480185978184e-06,5.105233919706954e-07,7.306143850995955e-06
8.79407613798979e-07,2.7065716173009223e-06,5.105382594767503e-07,7.1783642689699435e-06
8.861995005686243e-07,2.6900544682686736e-06,5.102709729746659e-07,7.053127400499478e-06
8.930505678649242e-07,2.672999862552595e-06,5.097152943401342e-07,6.9304701010068405e-06
8.999410514543583e-07,2.655516075837017e-06,5.088677929263419e-07,6.8104239331695925e-06
9.068458292366431e-07,2.6377369946407456e-06,5.077277342393573e-07,6.693072151083798e-06
9.137330071314024e-07,2.6198334985668358e-06,5.062964807371979e-07,6.578639868699809e-06
9.205626377094328e-07,2.60200088355494e-06,5.045765243507077e-07,6.46751311599938e-06
9.272877874608192e-07,2.5844301757169084e-06,5.025706638009412e-07,6.360162404368934e-06
9.338575198580808e-07,2.5672839463907257e-06,5.002822632523125e-07,6.257046936483872e-06
9.402214552445e-07,2.550689631739292e-06,4.977175577583927e-07,6.1585702359434485e-06
9.463356618242593e-07,2.5347444846495685e-06,4.948881736161689e-07,6.065096001457056e-06
9.521680072683558e-07,2.5195199808003e-06,4.918108278441045e-07,5.9769974046463175e-06
9.576990461540165e-07,2.505061081157474e-06,4.885054700992786e-07,5.894688313669404e-06
9.629166923039352e-07,2.4913829693993404e-06,4.849967378521657e-07,5.8185893828816905e-06
9.67809180032775e-07,2.478470465369045e-06,4.813195937434809e-07,5.74906911697844e-06
9.723632718053734e-07,2.46628240445043e-06,4.775226500826419e-07,5.686432631488197e-06
9.765673290618299e-07,2.454759922883342e-06,4.736638750996998e-07,5.630930541032138e-06
9.804128668659369e-07,2.4438375196855983e-06,4.698019835605004e-07,5.582731276877671e-06
9.83894666885313e-07,2.4334557434211847e-06,4.65989956235275e-07,5.541882927275455e-06
9.870129408262613e-07,2.42357443202246e-06,4.622725757629699e-07,5.508317522786366e-06
9.897755062518965e-07,2.414182401573656e-06,4.5868632386927613e-07,5.481926243169917e-06
9.921962283486998e-07,2.405296123222725e-06,4.552604074602169e-07,5.46271242147302e-06
9.94288831753818e-07,2.396945030036146e-06,4.5201776073723537e-07,5.450934081668897e-06
9.96059946555731e-07,2.389151910166163e-06,4.4897553771868495e-07,5.447089826961927e-06
9.975068725132813e-07,2.3819248533720053e-06,4.461464898881336e-07,5.451759069973773e-06
9.986196972898109e-07,2.375268012466646e-06,4.4354058727952937e-07,5.465441522914113e-06
9.9938466466966e-07,2.3691968687396764e-06,4.4116429890606616e-07,5.4884828657356e-06
9.9979064719137e-07,2.3637432340905333e-06,4.3901857900158136e-07,5.5211416711199505e-06
9.998394314298116e-07,2.3589549719388213e-06,4.3709829896780284e-07,5.563813106751614e-06
9.995515840023305e-07,2.354899756080234e-06,4.353928449134936e-07,5.617231639611184e-06
9.98961061009966e-07,2.3516683015826684e-06,4.338869780431264e-07,5.682441875848432e-06
9.981031857636528e-07,2.349368350187761e-06,4.3256260730493576e-07,5.760591561246195e-06
9.970054729087288e-07,2.348111185985573e-06,4.3140152083765345e-07,5.852731414025534e-06
9.956879424860605e-07,2.347996041815329e-06,4.3038823447579384e-07,5.959692499062308e-06
9.941740713940508e-07,2.349094430643804e-06,4.2951189173090803e-07,6.082028048817738e-06
9.92507116387714e-07,2.3514426814151094e-06,4.2876604963217685e-07,6.2199911818677165e-06
9.907633915039215e-07,2.355052685758719e-06,4.2814726657372476e-07,6.373526535960601e-06
9.89054212774653e-07,2.3599344094570546e-06,4.276544688593653e-07,6.542280208234469e-06
9.875129292966155e-07,2.366111967081817e-06,4.2728837049180615e-07,6.7256369478580595e-06
9.862746935514034e-07,2.373624235012798e-06,4.270496077723761e-07,6.922774589438129e-06
9.854615817685295e-07,2.382517132278496e-06,4.2693659449756633e-07,7.132716091057118e-06
9.851786313958945e-07,2.3928379717548592e-06,4.2694393022401226e-07,7.354361674690303e-06
9.85519132233404e-07,2.404632260940952e-06,4.2706157591416185e-07,7.58649899109621e-06
9.865739155289366e-07,2.41793646897013e-06,4.2727582675812657e-07,7.827821792715071e-06
9.884394448747765e-07,2.4327648557402453e-06,4.2757174941081426e-07,8.076993860003905e-06
9.912215800651856e-07,2.4490960857490885e-06,4.279358046202568e-07,8.332748523777819e-06
9.950315650018449e-07,2.4668656290204086e-06,4.2835917199986344e-07,8.593963194925688e-06
9.999740483507687e-07,2.485966293990113e-06,4.288418915002997e-07,8.859666441584875e-06
1.006133123572831e-06,2.506256950428771e-06,4.2939507964267456e-07,9.128998852479787e-06
1.0135624257005823e-06,2.527577142207677e-06,4.30038729429161e-07,9.401157691976246e-06
1.0222839594094507e-06,2.5497660943484183e-06,4.3079629778894606e-07,9.675330750214724e-06
1.0322999459223144e-06,2.572687051425468e-06,4.3168961007272856e-07,9.95063416266762e-06
1.0436127187829395e-06,2.596252453981177e-06,4.3273624837177106e-07,1.0226078753516903e-05
1.0562370120147752e-06,2.620436912212569e-06,4.3394942594345883e-07,1.0500580984310936e-05
1.070195686257027e-06,2.6452678517922704e-06,4.353389154602464e-07,1.077302631975327e-05
1.085506325534519e-06,2.670795046777208e-06,4.369109277371099e-07,1.1042367978191036e-05
1.1021702449663454e-06,2.6970526869934672e-06,4.386677796858537e-07,1.1307704550786956e-05
1.1201668129522895e-06,2.72403816270294e-06,4.406091437046235e-07,1.1568280039099013e-05
1.1394513528198614e-06,2.751720427798561e-06,4.427328766711057e-07,1.1823410661220565e-05
1.1599573892890085e-06,2.780062005445152e-06,4.450349239713064e-07,1.2072404449415045e-05
1.181601782793645e-06,2.809032406997637e-06,4.4751027788336326e-07,1.231452545447462e-05
1.2042877556063022e-06,2.8386099153324006e-06,4.5015383562878245e-07,1.2548995997183106e-05
1.227905347582355e-06,2.8687797680706864e-06,4.529602526984438e-07,1.2775029822378591e-05
1.2523338800105777e-06,2.899528438969085e-06,4.559246208712881e-07,1.2991901804177272e-05
1.2774503438011087e-06,2.9308280075414413e-06,4.5904391472721063e-07,1.3199039613946096e-05
1.3031423447988803e-06,2.962616571244435e-06,4.623166970458128e-07,1.3396112523663584e-05
1.3293163871125497e-06,2.9947895126437236e-06,4.6574018107226457e-07,1.3583059593681174e-05
1.355895392266656e-06,3.0272038680591577e-06,4.693070010012498e-07,1.3760014964787995e-05
1.3828133261400586e-06,3.0596849019335564e-06,4.730043953693156e-07,1.3927188019342997e-05
1.4100128483895183e-06,3.092029764393836e-06,4.768156015293706e-07,1.4084772023345098e-05
1.437439862644379e-06,3.12401238452542e-06,4.80721485835456e-07,1.4232889326590867e-05
1.4650334062320724e-06,3.1553920752974094e-06,4.847015273305373e-07,1.437156188504511e-05
1.4927169405248944e-06,3.185923121565076e-06,4.887341996125922e-07,1.450070972112106e-05
1.5203948137750538e-06,3.215362660025292e-06,4.927968887987519e-07,1.4620175609334768e-05
1.5479549472780085e-06,3.2434756654164256e-06,4.968664081798132e-07,1.4729757541350586e-05
1.5752754402690012e-06,3.2700356009646668e-06,5.009209331342944e-07,1.4829223615461927e-05
1.60223032746217e-06,3.2948250964325062e-06,5.049417060064597e-07,1.4918329268997103e-05
1.6286919647832476e-06,3.3176446843307152e-06,5.089126752964046e-07,1.4996925733692685e-05
1.6545307806897328e-06,3.3383248943004877e-06,5.128186965596393e-07,1.506514315557601e-05
1.6796163352725583e-06,3.3567306184146937e-06,5.166436125330318e-07,1.5123447619176468e-05
1.7038229569402825e-06,3.372758579890201e-06,5.203694178565875e-07,1.5172505342630847e-05
1.727036813561844e-06,3.3863315102469023e-06,5.23977000982111e-07,1.5213072880474506e-05
1.7491601831686455e-06,3.3973884287560762e-06,5.274464136903415e-07,1.5246071765276025e-05
1.7701129853594551e-06,3.405877171185433e-06,5.307557468847819e-07,1.5272711198589592e-05
1.789830041152589e-06,3.4117554999594407e-06,5.338813041992964e-07,1.5294474705185706e-05
1.8082524106958813e-06,3.4149932773687037e-06,5.36799802623662e-07,1.5312993254207508e-05
1.8253185078413242e-06,3.4155666968167005e-06,5.394898003034711e-07,1.532992363814075e-05
1.8409613275904587e-06,3.413451507237747e-06,5.419313282170069e-07,1.534688331607279e-05
1.8551104690600426e-06,3.4086281489880782e-06,5.441058280459961e-07,1.536542093571973e-05
1.8676956719130128e-06,3.4011008467839127e-06,5.459974102358496e-07,1.5386978641175162e-05
1.8786506837638417e-06,3.3909223031850485e-06,5.47593325479022e-07,1.541283303630409e-05
1.8879155439097885e-06,3.378213134303857e-06,5.488826985104634e-07,1.544403944482373e-05
1.895437285127216e-06,3.3631674379733414e-06,5.498562305633639e-07,1.5481400603600168e-05
1.901171317422416e-06,3.3460401878285918e-06,5.505086671047993e-07,1.5525459705270644e-05
1.9050825290716262e-06,3.327119328628205e-06,5.508420934250948e-07,1.5576505913480184e-05
1.9071447668239052e-06,3.306692257882032e-06,5.508663886443665e-07,1.563457425691239e-05
1.9073403997881043e-06,3.28501912242191e-06,5.505953573359906e-07,1.5699435591300222e-05
1.905659921553672e-06,3.262326002177615e-06,5.500418570679129e-07,1.57706107901411e-05
1.9021007466663853e-06,3.238821864930902e-06,5.492162788235268e-07,1.584744746159432e-05
1.8966673092364686e-06,3.214727255359818e-06,5.481285038651239e-07,1.592923515520456e-05
1.889374519602221e-06,3.190298493835024e-06,5.467896442801246e-07,1.6015288659110173e-05
1.8802545856419457e-06,3.1658343652051538e-06,5.45211365089371e-07,1.610497635198488e-05
1.869363078667358e-06,3.141658598676319e-06,5.434042292345717e-07,1.6197731198642888e-05
1.8567763603370841e-06,3.118087175456803e-06,5.413766246029874e-07,1.629307184316545e-05
1.8425797558925598e-06,3.095398142156022e-06,5.391344160256265e-07,1.639063832977529e-05
1.826857347037312e-06,3.073812342243982e-06,5.366808568329195e-07,1.6490233019580688e-05
1.809693278135596e-06,3.0534851506743282e-06,5.340166832775247e-07,1.6591843765333394e-05
1.7911831209623284e-06,3.034509654704702e-06,5.311413586147985e-07,1.6695662893942404e-05
1.771444152015028e-06,3.0169286019785943e-06,5.280557499836181e-07,1.6802135581060904e-05
1.7506147942466985e-06,3.0007471305349564e-06,5.247648566001288e-07,1.6911979077517622e-05
1.7288449666193947e-06,2.9859424097266514e-06,5.212796061548728e-07,1.7026055539388155e-05
1.7062849135031328e-06,2.9724740010402433e-06,5.17617461331086e-07,1.7145130219948417e-05
1.6830759439266785e-06,2.960296615124244e-06,5.138006288726126e-07,1.7269708671252815e-05
1.6593439779977854e-06,2.9493709707298125e-06,5.098522854160436e-07,1.7400040444254824e-05
1.6351977318029942e-06,2.9396687096914392e-06,5.057937660723283e-07,1.753617488130385e-05
1.6107328562988595e-06,2.931170797379548e-06,5.01643949742854e-07,1.767796660256449e-05
1.5860384381685958e-06,2.9238609032494226e-06,4.974198961464055e-07,1.7825084195043613e-05
1.5611990243664697e-06,2.917714711526394e-06,4.931375819087872e-07,1.7977110768383185e-05
1.5362923516803488e-06,2.912686515874235e-06,4.888120509612718e-07,1.8133690459325345e-05
1.5113874771425241e-06,2.908698403684421e-06,4.844573234671469e-07,1.8294600727844352e-05
1.4865435967562599e-06,2.9056383364573515e-06,4.800872815254211e-07,1.8459719135031296e-05
1.461810792244353e-06,2.9033697427435778e-06,4.757171686610978e-07,1.862893807552393e-05
1.4372377196315074e-06,2.901752845326176e-06,4.7136312768115814e-07,1.880208170478632e-05
1.4128854099529847e-06,2.9006736849000147e-06,4.6704051704874564e-07,1.8978858520890945e-05
1.3888357448626184e-06,2.900069078729645e-06,4.627654949435009e-07,1.9158920404627515e-05
1.3651856249139835e-06,2.8999348965727513e-06,4.5855989782919723e-07,1.934210772695084e-05
1.3420330396200077e-06,2.9003136741104788e-06,4.544530591896822e-07,1.9528745143840792e-05
1.3194661740746786e-06,2.9012662111785994e-06,4.504767846433402e-07,1.971970743538206e-05
1.2975600064715173e-06,2.90283944103731e-06,4.4665848766701115e-07,1.991620564566688e-05
1.2763798444195914e-06,2.905050828116149e-06,4.4301876802671784e-07,2.0119460769401683e-05
1.2559870049868635e-06,2.907898617753785e-06,4.3957267999121324e-07,2.0330415401926958e-05
1.2364417170669704e-06,2.9113797176730136e-06,4.363316005643138e-07,2.0549593064035835e-05
1.2178048762789145e-06,2.9154926133018818e-06,4.3330486469980974e-07,2.077717447969993e-05
1.2001413304401896e-06,2.920223991409087e-06,4.305000446334628e-07,2.101327222055227e-05
1.1835212483856204e-06,2.925532711475705e-06,4.279215526304464e-07,2.1258264190942813e-05
1.1680165275061865e-06,2.931343055068578e-06,4.255696628033861e-07,2.151297414726781e-05
1.1536937373010096e-06,2.937549007938403e-06,4.2344088929992117e-07,2.177861168478987e-05
1.140604862624828e-06,2.9440265257603773e-06,4.215288899908637e-07,2.2056589258237823e-05
1.128778712471943e-06,2.9506488928900767e-06,4.198260110047915e-07,2.234834460092817e-05
1.1182184517335886e-06,2.957295408354011e-06,4.1832470663297684e-07,2.265515477795733e-05
1.1089083167207536e-06,2.963855164507993e-06,4.170175098770113e-07,2.297790172269812e-05
1.10082734974444e-06,2.970243430435508e-06,4.15897850791785e-07,2.3316882628223e-05
1.0939604777527412e-06,2.9764302105601934e-06,4.1496229761361886e-07,2.367176389466141e-05
1.0882989637148805e-06,2.9824544685248816e-06,4.142106299106329e-07,2.4041621023427496e-05
1.0838370024082486e-06,2.9884055681151773e-06,4.136449980127577e-07,2.442499387900933e-05
1.0805736446841542e-06,2.994382215063761e-06,4.1327160530893324e-07,2.4819966254533512e-05
1.0785162149152471e-06,3.0004582348992964e-06,4.131024510188943e-07,2.522425705015632e-05
1.077677722751171e-06,3.006672735929664e-06,4.131538457855129e-07,2.5635286987840106e-05
1.0780684753132885e-06,3.0130325323563227e-06,4.13442305808022e-07,2.605023344709948e-05
1.0796866099483451e-06,3.0195124066302844e-06,4.1398030029186345e-07,2.6466105769272864e-05
1.082510589386146e-06,3.026056811471825e-06,4.1477491667345784e-07,2.6879835117898386e-05
1.0864953027439207e-06,3.0325864710411215e-06,4.158299873512765e-07,2.7288352432387226e-05
1.0915731886144368e-06,3.0390078014038376e-06,4.171476301773024e-07,2.7688632545703448e-05
1.097659728529905e-06,3.0452248186572087e-06,4.187267338342657e-07,2.8077702845353755e-05
1.1046608811457835e-06,3.0511467159997717e-06,4.205619472249124e-07,2.8452646248029687e-05
1.1124808562695265e-06,3.0566831904016966e-06,4.226464929251618e-07,2.8810616160071008e-05
1.1210302627364443e-06,3.0617351308913124e-06,4.2497638682494286e-07,2.914885813404583e-05
1.1302324482627458e-06,3.0661944335947014e-06,4.275512985578507e-07,2.946476841831508e-05
1.1400228858879974e-06,3.0699544037662486e-06,4.303704747641576e-07,2.9756031001240364e-05
1.1503412139797149e-06,3.07292128549974e-06,4.334278916735734e-07,3.0020786526800263e-05
1.1611224537897714e-06,3.0750195373720845e-06,4.367119816236811e-07,3.0257719247968572e-05
1.1722925755806231e-06,3.076190109738062e-06,4.402084008572365e-07,3.0466006552830516e-05
1.183767490570031e-06,3.076383666368061e-06,4.439009246128332e-07,3.064516595038184e-05
1.1954532964745422e-06,3.0755534337681282e-06,4.4777109385304385e-07,3.079487159277442e-05
1.2072477247104336e-06,3.073652476499103e-06,4.5179910789958446e-07,3.0914824745163185e-05
1.2190434086502124e-06,3.070633608181468e-06,4.5596431834981223e-07,3.100474571029048e-05
1.2307339347650054e-06,3.066449400763476e-06,4.602440042891569e-07,3.1064486126843627e-05
1.2422197223791945e-06,3.0610579406363027e-06,4.646121741994794e-07,3.1094186059550475e-05
1.25340878427805e-06,3.054437644279489e-06,4.69039287981497e-07,3.10943755172927e-05
1.2642161633001893e-06,3.046602628563165e-06,4.7349248510919097e-07,3.106596885130325e-05
1.274566286576954e-06,3.03760920863453e-06,4.779368924170274e-07,3.1010188236076645e-05
1.2843933032912164e-06,3.0275504253290766e-06,4.823385933027344e-07,3.092848167370148e-05
1.2936381364915108e-06,3.016539527110065e-06,4.866678425377426e-07,3.08224649872641e-05
1.302247438447553e-06,3.0046885697735708e-06,4.909000569675415e-07,3.0693871167631766e-05
1.310175672310543e-06,2.992094740945842e-06,4.950144718353257e-07,3.0544458044954936e-05
1.3173864476499251e-06,2.978844117549505e-06,4.98992466608954e-07,3.0375877797236364e-05
1.3238498275658472e-06,2.9650276866591274e-06,5.028162494047722e-07,3.0189592360422278e-05
1.329538074597684e-06,2.9507546642676595e-06,5.064684641579064e-07,2.9986877545815163e-05
1.3344246948886749e-06,2.93615391000936e-06,5.099333133568445e-07,2.9768877667313667e-05
1.338486626637837e-06,2.9213675847196547e-06,5.131971531286056e-07,2.9536674098267372e-05
1.3417051121752629e-06,2.906545620029327e-06,5.162470666662099e-07,2.9291347338964917e-05
1.3440645085203668e-06,2.8918412802366638e-06,5.190688001272375e-07,2.9033985909756373e-05
1.3455525593908405e-06,2.8774028842856136e-06,5.216459318476454e-07,2.876561611535728e-05
1.346162094242873e-06,2.8633601079872544e-06,5.23961210104629e-07,2.848712477759029e-05
1.3458962762047608e-06,2.8498106553940173e-06,5.259987640526668e-07,2.8199263919433788e-05
1.3447839114550807e-06,2.836819142352057e-06,5.277452459025986e-07,2.790272058663402e-05
1.3428978525939343e-06,2.82443127897086e-06,5.291903727868629e-07,2.759818150581388e-05
1.3403597948337641e-06,2.8126891258524154e-06,5.303273912930912e-07,2.728636753608798e-05
1.3373300718412958e-06,2.80163206935426e-06,5.311527703751236e-07,2.696802958345616e-05
1.3339922227902877e-06,2.791284616253164e-06,5.316663068481775e-07,2.6643916531710612e-05
1.3305340913796265e-06,2.7816473914817833e-06,5.31872971652491e-07,2.6314807979213665e-05
1.3271266149017034e-06,2.7727031586300485e-06,5.31783879462226e-07,2.5981616446278725e-05
1.3239105890289244e-06,2.764430416851509e-06,5.314140567711533e-07,2.564539115832837e-05
1.3209975657397775e-06,2.756811767315801e-06,5.30780672324541e-07,2.5307189663521078e-05
1.318478933335514e-06,2.7498356166836017e-06,5.299046198580553e-07,2.4967959921091847e-05
1.3164355163140856e-06,2.7434964346552482e-06,5.288115946071169e-07,2.462850377777367e-05
1.3149438530427693e-06,2.737794666376084e-06,5.275306805920678e-07,2.4289535025159844e-05
1.3140749834555314e-06,2.732732572640464e-06,5.260926543316139e-07,2.3951816637795318e-05
1.3138869644674514e-06,2.7283047648623254e-06,5.245275830788079e-07,2.3616256011217985e-05
1.3144218634582413e-06,2.724490118722325e-06,5.228616187277111e-07,2.328386726145741e-05
1.315710970427653e-06,2.721256875791844e-06,5.211155663677936e-07,2.2955663668694145e-05
1.3177794630839683e-06,2.7185825801516808e-06,5.193061324429205e-07,2.2632558171655644e-05
1.320645992157678e-06,2.7164711113709696e-06,5.174479903009551e-07,2.231528361345354e-05
1.3243214596355606e-06,2.714949060050485e-06,5.15554088722204e-07,2.200434668505577e-05
1.3288109169455544e-06,2.7140439967150797e-06,5.1363431352847e-07,2.1700031267364253e-05
1.3341161680812055e-06,2.7137612960666733e-06,5.116945219563214e-07,2.1402429616759454e-05
1.3402333746571966e-06,2.714073645475577e-06,5.097362195618522e-07,2.111146605901799e-05
1.347147586347614e-06,2.7149265591288675e-06,5.077572412555724e-07,2.0826906530033068e-05
1.3548322190184437e-06,2.71625362152231e-06,5.057543535970122e-07,2.0548370951575935e-05
1.3632553317628165e-06,2.717987641534324e-06,5.037253487057604e-07,2.0275358046714708e-05
1.3723899931175906e-06,2.720058368377549e-06,5.016683649232316e-07,2.0007282281253365e-05
1.382225765185423e-06,2.7223891495203233e-06,4.995809943171315e-07,1.974352784503205e-05
1.392775021067981e-06,2.7249073594409053e-06,4.974609286735383e-07,1.948352620082694e-05
1.4040679010493769e-06,2.7275592636629097e-06,4.953063992586311e-07,1.9226846143672e-05
1.4161368272468078e-06,2.730312994272951e-06,4.931157846290728e-07,1.8973262911749947e-05
1.428999083364478e-06,2.733146245897176e-06,4.908872327833173e-07,1.872278073989015e-05
1.4426461376375068e-06,2.7360277559833567e-06,4.886182729983111e-07,1.847562388398361e-05
1.4570436642458642e-06,2.738907804528865e-06,4.863055391271712e-07,1.823222491767877e-05
1.4721419015171768e-06,2.741720796394218e-06,4.839459497628666e-07,1.7993204286896585e-05
1.4878895039511518e-06,2.7443873319785986e-06,4.815391632334916e-07,1.7759319638551115e-05
1.5042413915088057e-06,2.746811373603796e-06,4.790883528203621e-07,1.7531385724021156e-05
1.5211579619814791e-06,2.748882321821724e-06,4.7659888417223424e-07,1.7310179013392545e-05
1.5385997635079397e-06,2.7504875648094e-06,4.740790686314953e-07,1.7096357038818246e-05
1.556521651879918e-06,2.751527043320025e-06,4.715436321279288e-07,1.6890449616684954e-05
1.5748689930924837e-06,2.751917371363784e-06,4.690144579665472e-07,1.669294590517868e-05
1.5935777098942474e-06,2.751583962770488e-06,4.6651699773835363e-07,1.6504407066569e-05
1.6125768212187915e-06,2.7504506475443745e-06,4.6407697006923783e-07,1.6325518017050818e-05
1.6317909042005175e-06,2.7484390693482758e-06,4.6171903657538957e-07,1.6157075582309954e-05
1.651141038829186e-06,2.7454829902679044e-06,4.594654741879881e-07,1.599995912845303e-05
1.670542097616379e-06,2.7415461245127696e-06,4.57335088767124e-07,1.585510494920214e-05
1.689897641955171e-06,2.736626911155165e-06,4.5534434657965423e-07,1.5723456073070218e-05
1.7091006211612654e-06,2.7307477768387583e-06,4.5351117088351915e-07,1.5605858183269318e-05
1.7280460990842957e-06,2.7239380189380813e-06,4.518575758326483e-07,1.5502938677997227e-05
1.746649403402011e-06,2.7162194307152773e-06,4.50406787433642e-07,1.5415026345035827e-05
1.764855358917624e-06,2.7075999791568126e-06,4.491781287952635e-07,1.5342136659028864e-05
1.7826326021024662e-06,2.698076208353488e-06,4.481855195591315e-07,1.528403571455473e-05
1.7999606815282952e-06,2.6876429369060074e-06,4.474388282477252e-07,1.524037063898421e-05
1.8168206342962483e-06,2.676306009278069e-06,4.469445519635657e-07,1.5210808963285104e-05
1.8331897534553046e-06,2.6640881299950956e-06,4.467056716108139e-07,1.5195109879700034e-05
1.849035707185414e-06,2.651022694447179e-06,4.4672291000487535e-07,1.5193078786188196e-05
1.8643113931759982e-06,2.637145950833715e-06,4.4699704051934346e-07,1.5204430981832593e-05
1.878954362293893e-06,2.6225027379795305e-06,4.4752984630342685e-07,1.52286620322738e-05
1.8928902635625263e-06,2.607162499850606e-06,4.4832482188031176e-07,1.5265003439590084e-05
1.9060370881745842e-06,2.5912226733839938e-06,4.493888781015098e-07,1.5312447990392966e-05
1.9183089082570114e-06,2.5747903800046317e-06,4.507323268159895e-07,1.536979805497103e-05
1.929620951714676e-06,2.557961421399691e-06,4.523655759856512e-07,1.5435759333296338e-05
1.939895319184582e-06,2.5408128190748005e-06,4.5429527107795714e-07,1.5509121564877515e-05
1.9490635225860957e-06,2.5234026361966583e-06,4.5652426301643114e-07,1.5588930130045027e-05
1.957065631072176e-06,2.505767999907488e-06,4.5905689404723605e-07,1.5674493150666126e-05
1.963848286865545e-06,2.4879235201500063e-06,4.619048672882276e-07,1.5765252069109454e-05
1.9693618199530453e-06,2.4698646378019697e-06,4.650873600121972e-07,1.586065319297738e-05
1.973556665285144e-06,2.4515759853626914e-06,4.6862553791330136e-07,1.5960081168281145e-05
1.9763813172111875e-06,2.4330390363655125e-06,4.725370557056204e-07,1.6062897032781862e-05
1.977783811045017e-06,2.414232486730704e-06,4.768336509564846e-07,1.616861029840112e-05
1.9777149092303103e-06,2.395130038256181e-06,4.815194773676864e-07,1.6277068272765158e-05
1.9761290630013096e-06,2.3757080743964748e-06,4.865883711344725e-07,1.6388492598024152e-05
1.9729830422864467e-06,2.355961243892681e-06,4.920226557351917e-07,1.650335679380228e-05
1.9682351161498985e-06,2.335907805103815e-06,4.977950569388921e-07,1.6622212492808733e-05
1.961845858614119e-06,2.3155786084082388e-06,5.038710988560457e-07,1.6745537012377122e-05
1.9537798786752893e-06,2.2950035868447516e-06,5.102100055560335e-07,1.687362987172352e-05
1.944007334174847e-06,2.2742059294594417e-06,5.167657914462154e-07,1.70065593462802e-05
1.932504927813392e-06,2.2532006600292944e-06,5.234893875124782e-07,1.7144140355465664e-05
1.919257350225637e-06,2.2319957228472683e-06,5.303296472666826e-07,1.7285928175211018e-05
1.9042584677799313e-06,2.210598590872986e-06,5.372333429365885e-07,1.7431231559336135e-05
1.8875120514005463e-06,2.1890273661696608e-06,5.441471743475871e-07,1.7579148741051494e-05
1.8690366094727917e-06,2.1673250799815918e-06,5.510217497216655e-07,1.772861070880413e-05
1.8488763414775883e-06,2.1455761222217048e-06,5.578141951070846e-07,1.787842133032814e-05
1.827110919114381e-06,2.123914795903439e-06,5.644874224341776e-07,1.802729786014401e-05
1.803854024625846e-06,2.102513566983752e-06,5.710070395403431e-07,1.8173906402945816e-05
1.7792394514913688e-06,2.08155499960633e-06,5.773384653578209e-07,1.8316890603858296e-05
1.7534076856682273e-06,2.061209871737866e-06,5.834454802881156e-07,1.845491254307429e-05
1.7265045787440411e-06,2.041635893518728e-06,5.892897432200258e-07,1.858671019975348e-05
1.6986854902163371e-06,2.022985518270393e-06,5.948323359909111e-07,1.871115176821767e-05
1.6701137492299272e-06,2.0054085155050565e-06,6.000382953653578e-07,1.8827273179664587e-05
1.6409542779388353e-06,1.9890510209564805e-06,6.048802001641884e-07,1.8934287387259198e-05
1.611367532149471e-06,1.974051855814651e-06,6.093364676504503e-07,1.903156005578148e-05
1.581505023570211e-06,1.9605324773923864e-06,6.133868613951341e-07,1.9118564258333246e-05
1.5515064841476475e-06,1.948591181628643e-06,6.170101813497754e-07,1.9194822527158586e-05
1.5214988945575706e-06,1.938311118710226e-06,6.201849917973182e-07,1.925985306176744e-05
1.4915965902043013e-06,1.9297659784344574e-06,6.228914326899596e-07,1.931316311265721e-05
1.4619012942055401e-06,1.92301021698904e-06,6.25112372936294e-07,1.9354286678693728e-05
1.4325019281808166e-06,1.9180715498114545e-06,6.268336647934911e-07,1.9382795298786772e-05
1.4034747842503948e-06,1.914962479349314e-06,6.280449884978258e-07,1.9398259612176025e-05
1.3748835684398302e-06,1.913698159685254e-06,6.287422963321793e-07,1.940022240130541e-05
1.3467792702982271e-06,1.9142993667819898e-06,6.28929775567893e-07,1.9388229311915578e-05
1.3192013202093107e-06,1.9167801531983293e-06,6.286192743130868e-07,1.936190106632221e-05
1.2921798575507893e-06,1.92114113140112e-06,6.278281285183194e-07,1.932098090845204e-05
1.2657380576283596e-06,1.927379489917064e-06,6.265761174381275e-07,1.926530515348569e-05
1.2398942040953805e-06,1.9354992893260816e-06,6.248821400521614e-07,1.919474169095743e-05
1.214663031706795e-06,1.945505535827652e-06,6.227626263003299e-07,1.910919757948519e-05
1.1900560729339745e-06,1.957387274682494e-06,6.202321440187848e-07,1.9008738179055803e-05
1.1660804484145953e-06,1.9711065532586013e-06,6.173053583449229e-07,1.8893737615971988e-05
1.1427366867649544e-06,1.986604258972088e-06,6.140000921624982e-07,1.876491981055754e-05
1.120018522915934e-06,2.003817956186911e-06,6.103401670458223e-07,1.862326181399939e-05
1.0979156964838905e-06,2.0226981701259712e-06,6.063556731723821e-07,1.8469850743368177e-05
1.0764179641617464e-06,2.0432136674736192e-06,6.020799481465608e-07,1.8305764359541385e-05
1.0555180318915976e-06,2.065343250736089e-06,5.975454216264509e-07,1.813202224703765e-05
1.035211745033368e-06,2.0890591896276642e-06,5.927808652257726e-07,1.7949622387192955e-05
1.0154982478699811e-06,2.1143116856953448e-06,5.878109652841481e-07,1.7759591431054905e-05
9.963824217102282e-07,2.1410196341896128e-06,5.82659254603725e-07,1.75629809769954e-05
9.778752055970637e-07,2.169069492929279e-06,5.773530938783958e-07,1.7360813423584847e-05
9.59991181079565e-07,2.1983217386938738e-06,5.719251832694636e-07,1.7154048732383084e-05
9.427510895002443e-07,2.228619971912137e-06,5.664098688637095e-07,1.6943688472031887e-05
9.261920514671255e-07,2.259801809091291e-06,5.608395835005858e-07,1.6730979483142293e-05
9.103778052120415e-07,2.2917146775064967e-06,5.552449807184346e-07,1.651748252962701e-05
8.954009458177246e-07,2.3242302861648327e-06,5.496565667070091e-07,1.6304911951160114e-05
8.813772594793467e-07,2.3572463725454428e-06,5.441055618155802e-07,1.6094930289531805e-05
8.684362600925243e-07,2.390674750471563e-06,5.386232665844757e-07,1.5889115637465217e-05
8.567102545336561e-07,2.4244247927560533e-06,5.332384128891036e-07,1.5689077115222863e-05
8.463235868582665e-07,2.458389996332101e-06,5.279742918875969e-07,1.5496490015881165e-05
8.373829182115016e-07,2.492439771517904e-06,5.228480767441441e-07,1.5312978733813808e-05
8.299690780490349e-07,2.5264177759981795e-06,5.17871693847558e-07,1.5139983712731842e-05
8.241343228548693e-07,2.5601471967984776e-06,5.13052968372111e-07,1.4978691996195007e-05
8.199071698224341e-07,2.593437817507096e-06,5.083971835256043e-07,1.4830014943124051e-05
8.173003487151944e-07,2.6260891315133356e-06,5.039082829977778e-07,1.4694588182947455e-05
8.163183537625448e-07,2.657891784485112e-06,4.995887399718421e-07,1.4572781627933774e-05
8.169650096366795e-07,2.68863457797988e-06,4.954390044425913e-07,1.4464716493567663e-05
8.192507353138333e-07,2.7181193592657383e-06,4.914574749659249e-07,1.4370288998443267e-05
8.231992335757097e-07,2.746177710452118e-06,4.876404395769482e-07,1.4289208085856693e-05
8.288516452889756e-07,2.7726805297620062e-06,4.839816412421734e-07,1.4221053849444614e-05
8.362615438836315e-07,2.7975359426140337e-06,4.804728262578442e-07,1.4165333980333167e-05
8.454786407857065e-07,2.820677020857983e-06,4.771069043063911e-07,1.4121501042180521e-05
8.565326985852077e-07,2.8420448389058038e-06,4.738824744924922e-07,1.408892652375514e-05
8.694309152429331e-07,2.861576096556481e-06,4.7080565635608395e-07,1.4066857886004276e-05
8.841645371979195e-07,2.8792037978247124e-06,4.6788695724303293e-07,1.4054389925576187e-05
9.00710360959645e-07,2.8948690333474997e-06,4.6513567787003353e-07,1.4050469383128173e-05
9.190249960297177e-07,2.9085329402474724e-06,4.625566756809656e-07,1.4053922908898151e-05
9.390413597014177e-07,2.9201819923766488e-06,4.6015132668168385e-07,1.4063490203671994e-05
9.606723682077542e-07,2.929829311606398e-06,4.5791949751178656e-07,1.4077863544685036e-05
9.838176188866446e-07,2.9375164930935487e-06,4.5585927591913993e-07,1.4095742506676096e-05
1.008367584029831e-06,2.9433145012214587e-06,4.539658210156943e-07,1.4115888540132474e-05
1.0342056125216495e-06,2.947317188885577e-06,4.5223195226929656e-07,1.4137146118629575e-05
1.061210901913172e-06,2.949626975305615e-06,4.506501234207421e-07,1.4158427008689947e-05
1.0892604022487611e-06,2.9503477968511543e-06,4.4921394959930965e-07,1.4178685425254019e-05
1.1182248671209794e-06,2.9495952040815283e-06,4.479182930418236e-07,1.4196906674806408e-05
1.1479621323460228e-06,2.9475082010899936e-06,4.4675821825331146e-07,1.4212129810635018e-05
1.1783156303738536e-06,2.944246798122358e-06,4.457279277262445e-07,1.4223508037365051e-05
1.2091182347576427e-06,2.939978452553713e-06,4.448201223909154e-07,1.4230351909023227e-05
1.2401960968910507e-06,2.9348636041322034e-06,4.4402530076851885e-07,1.423210137980903e-05
1.2713744723685234e-06,2.929045683290982e-06,4.433308197396942e-07,1.4228265350806955e-05
1.3024896090391206e-06,2.922645577901396e-06,4.4272026537879456e-07,1.4218407022842913e-05
1.3333990506635463e-06,2.915760822962981e-06,4.4217434207897997e-07,1.4202170539163965e-05
1.363979871716544e-06,2.9084698209058526e-06,4.416738859484417e-07,1.4179271335575433e-05
1.3941195877792141e-06,2.900836194357844e-06,4.412027936217961e-07,1.4149437735001266e-05
1.423713905693172e-06,2.8929067700408766e-06,4.407480881997856e-07,1.4112375783106106e-05
1.4526732655382134e-06,2.8847045419175513e-06,4.402978372082572e-07,1.4067795497231405e-05
1.4809256618844283e-06,2.8762260570818666e-06,4.3983966753726385e-07,1.401547513262318e-05
1.5084080986852134e-06,2.8674468777764344e-06,4.3936215444361457e-07,1.3955342961624418e-05
1.5350540711285375e-06,2.858330580453359e-06,4.388586740498787e-07,1.3887584012664329e-05
1.5607901444544071e-06,2.848845971844668e-06,4.383288295858637e-07,1.3812741768730982e-05
1.5855466637533345e-06,2.838996919219698e-06,4.3777484468245924e-07,1.373172983664161e-05
1.6092748254933383e-06,2.8288453601668487e-06,4.371969839971941e-07,1.364572710809874e-05
1.6319558681338655e-06,2.818505800038942e-06,4.3659168081520407e-07,1.3556007461627425e-05
1.653593604481442e-06,2.808114496937124e-06,4.359520620090373e-07,1.346376061785634e-05
1.6741959238726245e-06,2.7977927542750357e-06,4.352695748377261e-07,1.336996795650495e-05
1.693760955144873e-06,2.7876234408524054e-06,4.3453607224958325e-07,1.3275371319847314e-05
1.7122771606328398e-06,2.777647362349985e-06,4.337460071466553e-07,1.3180505857680535e-05
1.7297343103148774e-06,2.767874561577351e-06,4.3289812285613356e-07,1.3085780761480405e-05
1.7461382872206775e-06,2.758304830848342e-06,4.3199571703409464e-07,1.2991634273546813e-05
1.7615213547049668e-06,2.7489491101872007e-06,4.310447128293622e-07,1.2898702927313513e-05
1.7759406369132252e-06,2.7398364462790278e-06,4.3005044984230926e-07,1.2807857447949287e-05
1.7894648855647164e-06,2.7309996370313915e-06,4.290159753984704e-07,1.272007489108597e-05
1.8021572109125148e-06,2.722456778391631e-06,4.2794273274029405e-07,1.263626220755112e-05
1.8140648134229389e-06,2.714206002882913e-06,4.268309928290793e-07,1.2557151035210455e-05
1.8252193312427663e-06,2.706226123467537e-06,4.256795912497508e-07,1.2483366339191767e-05
1.8356392194581761e-06,2.6984742037073985e-06,4.2448887139306505e-07,1.2415686113598067e-05
1.845328257499181e-06,2.6908848695202485e-06,4.232658953497212e-07,1.2355302922303489e-05
1.8542756821317088e-06,2.6833755267233318e-06,4.220246424890581e-07,1.2303874266407064e-05
1.8624614621314209e-06,2.67585756041959e-06,4.207806305637359e-07,1.2263382150790892e-05
1.8698610798670319e-06,2.6682505780175967e-06,4.1954736994629283e-07,1.223594861217585e-05
1.8764459999631267e-06,2.660492504017289e-06,4.1833718695500787e-07,1.222367599303445e-05
1.8821822835995487e-06,2.6525420701966463e-06,4.171623753604961e-07,1.2228506592049314e-05
1.88703024851759e-06,2.6443765445637543e-06,4.1603395872636253e-07,1.2252089237614855e-05
1.8909460230902344e-06,2.6359887712724573e-06,4.14959983117804e-07,1.2295663596871015e-05
1.8938853547172908e-06,2.627385757730177e-06,4.13946698274824e-07,1.2359994792690253e-05
1.8958115896540093e-06,2.618587287995274e-06,4.130013839771517e-07,1.2445373526604746e-05
1.89670735750363e-06,2.6096216343130594e-06,4.1213277134733784e-07,1.2551651874154256e-05
1.8965828832684049e-06,2.6005164749227587e-06,4.1134964894492066e-07,1.2678278639977268e-05
1.895473461386044e-06,2.5912860215732826e-06,4.1066036930938505e-07,1.2824340539581109e-05
1.8934263433247051e-06,2.5819210331702707e-06,4.100720243054406e-07,1.2988631465330529e-05
1.8904855270507424e-06,2.572386843850365e-06,4.095884818001553e-07,1.316975204445748e-05
1.886683801105189e-06,2.562627254099501e-06,4.092105351931755e-07,1.3366224312190894e-05
1.8820429960038003e-06,2.5525716370019052e-06,4.0893899063515157e-07,1.3576589069662512e-05
1.8765771461536133e-06,2.542143577302212e-06,4.087765974250091e-07,1.3799451578436184e-05
1.8702961688505818e-06,2.5312702560312567e-06,4.0872702654622454e-07,1.4033475015743915e-05
1.863209896870824e-06,2.5198961015828e-06,4.087940060414901e-07,1.4277357067386527e-05
1.8553303767745918e-06,2.5079975790717633e-06,4.089823386365887e-07,1.4529813588461398e-05
1.8466708669619686e-06,2.4955838980120047e-06,4.092986799264662e-07,1.4789551310052649e-05
1.8372428774004727e-06,2.482680169001548e-06,4.0975017844431366e-07,1.5055210569086289e-05
1.827053694645806e-06,2.4693125296917733e-06,4.1034147845204647e-07,1.5325308729535968e-05
1.8161058276026283e-06,2.4555075854770514e-06,4.1107319089631546e-07,1.559824776851911e-05
1.804398466547436e-06,2.441295342956055e-06,4.119446262699643e-07,1.5872409688660394e-05
1.7919303541748508e-06,2.426705457177477e-06,4.1295699481909093e-07,1.6146276073943797e-05
1.778703887094598e-06,2.411760411025244e-06,4.1411193335033396e-07,1.6418481352297147e-05
1.7647297627256652e-06,2.396474928594504e-06,4.1540905181006714e-07,1.6687778904560033e-05
1.750029034709509e-06,2.3808651507622085e-06,4.1684696644190115e-07,1.695296718585125e-05
1.7346297576221854e-06,2.364958375555656e-06,4.184239352445543e-07,1.7212832705473416e-05
1.7185604501766803e-06,2.3487919888380557e-06,4.2013591211587437e-07,1.7466134027624338e-05
1.7018464116591145e-06,2.332403809255613e-06,4.2197715994307594e-07,1.7711611123408562e-05
1.6845121638897604e-06,2.3158279745618666e-06,4.2394435157228275e-07,1.794802052066543e-05
1.6665862683268012e-06,2.299101390156648e-06,4.260376142293655e-07,1.8174229471735565e-05
1.6481019214597583e-06,2.282269526080737e-06,4.2825631101163713e-07,1.8389346933511805e-05
1.629092579454691e-06,2.2653832475675822e-06,4.305946879364903e-07,1.8592811646519665e-05
1.6095883549013937e-06,2.2484902402464344e-06,4.330405663254696e-07,1.8784402961471288e-05
1.5896161012182097e-06,2.2316331333697504e-06,4.355758290391889e-07,1.896418781069739e-05
1.5692002098477872e-06,2.214863912472596e-06,4.3817766118517713e-07,1.9132416113766053e-05
1.5483624123384927e-06,2.1982631070797853e-06,4.408200769890627e-07,1.9289381074271698e-05
1.5271215313022845e-06,2.181940583670383e-06,4.4347542327685755e-07,1.9435290557011945e-05
1.5054932266127591e-06,2.16601510304477e-06,4.4611608643298605e-07,1.957022822085316e-05
1.4834900256603922e-06,2.1505957230633967e-06,4.487167025783552e-07,1.9694217778912367e-05
1.461124646767448e-06,2.135781045701609e-06,4.512581624839793e-07,1.9807291259153065e-05
1.438419727694091e-06,2.121663474332553e-06,4.5373151100772293e-07,1.9909493915426223e-05
1.4154194376339569e-06,2.1083231944163496e-06,4.5613586225767614e-07,2.000084917413503e-05
1.3921924609200857e-06,2.095816961912093e-06,4.5847168746060543e-07,2.0081330407149438e-05
1.3688229525491784e-06,2.084171575576326e-06,4.607370706648486e-07,2.0150916078519952e-05
1.3453980567553971e-06,2.0733836570246154e-06,4.6292833631454725e-07,2.020972879172932e-05
1.322003445385262e-06,2.0634238949912497e-06,4.650414100320516e-07,2.025809892805542e-05
1.2987287367983626e-06,2.0542428599246757e-06,4.670718642435173e-07,2.0296510529162728e-05
1.2756730807386404e-06,2.045774127845223e-06,4.690144059091554e-07,2.0325562454953197e-05
1.2529411787522495e-06,2.0379351623002807e-06,4.7086379346618996e-07,2.0345955909241505e-05
1.230631507623598e-06,2.030634591759036e-06,4.7261646283962314e-07,2.035844544235505e-05
1.208827119130324e-06,2.0237909990669373e-06,4.742698395708388e-07,2.036377880675289e-05
1.1875936692169123e-06,2.0173535020993456e-06,4.7581951254584763e-07,2.036265735119445e-05
1.166980350115461e-06,2.0113100800600773e-06,4.772577814151532e-07,2.035571079013155e-05
1.1470207545401149e-06,2.00568121172862e-06,4.785751472029289e-07,2.034347908339909e-05
1.1277343348617229e-06,2.000505179721328e-06,4.797630831636856e-07,2.0326400866768523e-05
1.1091281008856877e-06,1.9958202511902926e-06,4.808169437793309e-07,2.030481200543409e-05
1.0911985405609622e-06,1.9916490748604267e-06,4.817389453188576e-07,2.027896358201054e-05
1.07393535994057e-06,1.9879943101976435e-06,4.825384752713005e-07,2.0249053531286014e-05
1.0573263007172109e-06,1.9848484517518194e-06,4.832273820694857e-07,2.0215252685040395e-05
1.0413592841270217e-06,1.98220829172441e-06,4.838141452453402e-07,2.017773154501046e-05
1.026020649509335e-06,1.9800840969461394e-06,4.84302364708499e-07,2.0136698091161576e-05
1.0112937687600573e-06,1.978500443080836e-06,4.846940682373201e-07,2.009240557184931e-05
9.971617619549871e-07,1.9774908477025034e-06,4.849935502263316e-07,2.004508188793219e-05
9.836121873798278e-07,1.977093763067025e-06,4.852069747767811e-07,1.9994822857661287e-05
9.706392702692114e-07,1.977353730640728e-06,4.853385918085724e-07,1.9941536809437604e-05
9.582414505498063e-07,1.9783221216797108e-06,4.853881548611738e-07,1.9884957541306867e-05
9.464165695548828e-07,1.9800532063573816e-06,4.853507143127261e-07,1.9824702130177328e-05
9.351589308150586e-07,1.9825972588519194e-06,4.85217228309962e-07,1.976036840025113e-05
9.244581865841169e-07,1.9859930797428904e-06,4.849758273421905e-07,1.969165395187458e-05
9.14298835532367e-07,1.9902606258065033e-06,4.846142284888847e-07,1.9618459108357e-05
9.04662642450338e-07,1.995395301012876e-06,4.841219359375908e-07,1.954095043989016e-05
8.955328582413181e-07,2.0013699888295692e-06,4.834907213485146e-07,1.945957505009895e-05
8.868949477287159e-07,2.0081470529519773e-06,4.827138508740276e-07,1.9375019081797547e-05
8.787351539184704e-07,2.015690361664317e-06,4.817854622205579e-07,1.9288124101232057e-05
8.710422512565098e-07,2.023969686063145e-06,4.807019356490885e-07,1.919978964212775e-05
8.638114029194966e-07,2.032959727733649e-06,4.794640033224668e-07,1.9110871554237016e-05
8.570456025017179e-07,2.0426347793717634e-06,4.780754767809985e-07,1.9022084409654808e-05
8.50752442482601e-07,2.052962133544276e-06,4.765403704315279e-07,1.893394889220791e-05
8.449372645351024e-07,2.0639023593134535e-06,4.7486393739726993e-07,1.884680249355094e-05
8.395980372313545e-07,2.0754157929278943e-06,4.730560862947839e-07,1.876083700555681e-05
8.347264759657975e-07,2.0874670920531763e-06,4.7113108619118326e-07,1.8676137680353492e-05
8.303127229699554e-07,2.1000232801554737e-06,4.6910342499577645e-07,1.8592704322222446e-05
8.263472786822808e-07,2.113046510520566e-06,4.6698475955756856e-07,1.851044206160589e-05
8.228196694620604e-07,2.12649252081793e-06,4.647834739501853e-07,1.84291838838568e-05
8.197192858265835e-07,2.140324262899658e-06,4.6250492238859683e-07,1.834877230375415e-05
8.170381920874031e-07,2.154528777410207e-06,4.601515170284508e-07,1.8269108859075438e-05
8.147699400103556e-07,2.1691193977552426e-06,4.577231651030913e-07,1.8190117165746483e-05
8.129044378290605e-07,2.1841243395496467e-06,4.552190565821811e-07,1.811167468295514e-05
8.114236493220109e-07,2.199573770242902e-06,4.5264107134507924e-07,1.8033600241842505e-05
8.103000327255088e-07,2.215492037921016e-06,4.4999613339818726e-07,1.7955745800556874e-05
8.094980734316063e-07,2.231893718596551e-06,4.4729450780824394e-07,1.787813610282368e-05
8.089798437810454e-07,2.2487781602945743e-06,4.445463320238867e-07,1.7801027952116307e-05
8.08712427520166e-07,2.2661251567914167e-06,4.4176083972525775e-07,1.7724834041343695e-05
8.086705429934166e-07,2.2839070912715146e-06,4.3894754737831905e-07,1.7649976465725087e-05
8.088315619189352e-07,2.302121671782516e-06,4.361167558938838e-07,1.7576755647914544e-05
8.091692429867234e-07,2.3208244795578566e-06,4.3327994003877676e-07,1.7505282020589816e-05
8.096533820207616e-07,2.340137960667248e-06,4.3045000742250995e-07,1.7435486710956617e-05
8.102558113941714e-07,2.3602289167286166e-06,4.2763986895028206e-07,1.7367180420830536e-05
8.109568135738634e-07,2.3812646561923613e-06,4.2486015956514547e-07,1.7300122174163175e-05
8.117459340029348e-07,2.4033721075436332e-06,4.2211838558674156e-07,1.7234128144149742e-05
8.126207754916873e-07,2.4266214595401387e-06,4.194196541006421e-07,1.7169233370149825e-05
8.135897080520471e-07,2.451037181704637e-06,4.1676751483654935e-07,1.7105781935847143e-05
8.146721578116169e-07,2.476620323499433e-06,4.141648715619956e-07,1.7044353912088385e-05
8.158907150157466e-07,2.5033613960076595e-06,4.1161598435043994e-07,1.6985651008501207e-05
8.172621297300852e-07,2.5312357469416807e-06,4.091288689561328e-07,1.693045541908298e-05
8.187929303227752e-07,2.560189349715121e-06,4.0671569282927646e-07,1.687959614515927e-05
8.204780586855615e-07,2.5901278039057863e-06,4.043903517685394e-07,1.6833913976993172e-05
8.22301638976451e-07,2.620915988457357e-06,4.021660098489533e-07,1.6794323105715118e-05
8.24241009823508e-07,2.6523877654722147e-06,4.0005476422593604e-07,1.6761908315532866e-05
8.262728946994955e-07,2.684359719444781e-06,3.9806716568591865e-07,1.673792063569701e-05
8.283776073819369e-07,2.7166464427177046e-06,3.9621016815702895e-07,1.67237085591159e-05
8.305396412503473e-07,2.749080459490555e-06,3.944866475590843e-07,1.6720673739829246e-05
8.327460471701859e-07,2.78153286354406e-06,3.92898720686974e-07,1.6730243649110318e-05
8.349829284370464e-07,2.81392039391402e-06,3.914521276701836e-07,1.675383946599203e-05
8.372313889870785e-07,2.8461892588675017e-06,3.90157409567993e-07,1.6792847086148575e-05
8.394660209371496e-07,2.8782852579052083e-06,3.890276582416974e-07,1.6848596962048362e-05
8.416565077733759e-07,2.9101353089547023e-06,3.88076221355417e-07,1.6922358135095125e-05
8.437703640048653e-07,2.9416539423359618e-06,3.873158652391414e-07,1.7015353587593106e-05
8.457753587583535e-07,2.972761899344171e-06,3.86758042152429e-07,1.7128793274432307e-05
8.476408802644969e-07,3.003398069553259e-06,3.864118953264997e-07,1.7263945224920213e-05
8.493377578306616e-07,3.0335189916282573e-06,3.862840557186183e-07,1.7422294542877373e-05
8.508376376015362e-07,3.0630923395133e-06,3.863793872377561e-07,1.760572575436972e-05
8.521154911410932e-07,3.0920924608819305e-06,3.867019663551245e-07,1.7816514595426238e-05
8.531557603536069e-07,3.1204946567570888e-06,3.8725508199799744e-07,1.805703404424389e-05
8.53954437085483e-07,3.1482629279770333e-06,3.8804049495249884e-07,1.83293312272333e-05
8.545136411532216e-07,3.175344997779901e-06,3.8905919391755157e-07,1.8634782560137684e-05
8.548375527371989e-07,3.2016884052896382e-06,3.903130088343401e-07,1.8973954995891028e-05
8.549341257448815e-07,3.227260834339604e-06,3.918051966173658e-07,1.934670007157031e-05
8.548153972065327e-07,3.252049143450464e-06,3.9354030057380864e-07,1.9752357800541867e-05
8.54492834470567e-07,3.276039806880523e-06,3.955226931751323e-07,2.0189919784261656e-05
8.539733384122931e-07,3.2992060869281897e-06,3.977542389925182e-07,2.0658143072590885e-05
8.532593866558848e-07,3.321514548390275e-06,4.002336290059743e-07,2.1155667544526847e-05
8.523510729529069e-07,3.342936833967954e-06,4.029583431287976e-07,2.1681106523361497e-05
8.512492026190202e-07,3.3634527536449763e-06,4.0592744652942723e-07,2.2233053748395687e-05
8.499595346946619e-07,3.383048231544474e-06,4.091417073808251e-07,2.281004886876255e-05
8.484962196133838e-07,3.401713268278567e-06,4.126006253914355e-07,2.341059531838356e-05
8.468833151790726e-07,3.4194359798109582e-06,4.1629934213426386e-07,2.403323480914688e-05
8.451529593039273e-07,3.436191688956729e-06,4.202265365092661e-07,2.4676601599656392e-05
8.433387162835364e-07,3.4519382876271788e-06,4.243633597364203e-07,2.533941116926487e-05
8.414684107306394e-07,3.466622761859791e-06,4.286840689178989e-07,2.602041984187575e-05
8.395625766219612e-07,3.480185880740923e-06,4.331576594599226e-07,2.671842883835044e-05
8.376371662339924e-07,3.4925613557340645e-06,4.377500488889965e-07,2.743231793572497e-05
8.357047588955906e-07,3.503682138617408e-06,4.4242889406224383e-07,2.816100737774051e-05
8.337725146642032e-07,3.5134921778063582e-06,4.4717058062982224e-07,2.8903344948601507e-05
8.318397301016897e-07,3.5219468607322298e-06,4.5196401406204176e-07,2.9658002892802144e-05
8.298977157942385e-07,3.529001629001241e-06,4.5680809895022174e-07,3.0423385124745093e-05
8.279314521623744e-07,3.5346094620060866e-06,4.6170499408333123e-07,3.119750789571299e-05
8.259214668648555e-07,3.5387370935747604e-06,4.6665410958009654e-07,3.197790762746116e-05
8.23846974773217e-07,3.541382892557045e-06,4.716523526724762e-07,3.276166704333869e-05
8.216918653067389e-07,3.5425789894046133e-06,4.7669979837682493e-07,3.3545565593515746e-05
8.194510159511653e-07,3.542379861018544e-06,4.81803056076144e-07,3.4326266110587514e-05
8.171328318063796e-07,3.540846505243918e-06,4.869729068356932e-07,3.5100443478639024e-05
8.14758588200755e-07,3.5380310239021166e-06,4.922201929183089e-07,3.5864819658277585e-05
8.12359849706425e-07,3.5339653817846465e-06,4.97553006079205e-07,3.66161223023743e-05
8.099717257156625e-07,3.5286571810333326e-06,5.029757617956329e-07,3.735101025718609e-05
8.076249492317488e-07,3.522090744551786e-06,5.084924067920983e-07,3.806603436444181e-05
8.053438550262818e-07,3.5142318318516862e-06,5.141133984449611e-07,3.8757687689944956e-05
8.031483913873791e-07,3.5050372051968467e-06,5.198611256971858e-07,3.9422537457680794e-05
8.010539954582237e-07,3.494467328262124e-06,5.257717279750506e-07,4.005738982939393e-05
7.99071091618108e-07,3.4824957710959266e-06,5.318953697691755e-07,4.065941284872355e-05
7.972084742448506e-07,3.469108145886418e-06,5.382933762941361e-07,4.122616602079114e-05
7.954774533117023e-07,3.4542931978335608e-06,5.450289647867436e-07,4.1755568904291666e-05
7.938912101767794e-07,3.438039770971776e-06,5.521549806603307e-07,4.224587337586037e-05
7.92460476349103e-07,3.420342316835571e-06,5.597059413114706e-07,4.2695663606457054e-05
7.911915611831693e-07,3.401203720913151e-06,5.676963625474359e-07,4.310386691049661e-05
7.900900963909401e-07,3.3806341409240084e-06,5.761233255848972e-07,4.346974872430047e-05
7.891683242344583e-07,3.3586528006386057e-06,5.849721616374688e-07,4.3792865181868975e-05
7.884505164147103e-07,3.3352900553713745e-06,5.942229888392429e-07,4.407296588943679e-05
7.879717060860743e-07,3.3105832663864742e-06,6.038547369162353e-07,4.4309878018937e-05
7.877701392189791e-07,3.284569339579498e-06,6.138452754496438e-07,4.450341047393772e-05
7.878796431380132e-07,3.2572804281485788e-06,6.241685810655196e-07,4.4653308845779186e-05
7.883266261641194e-07,3.228742366127336e-06,6.347927596411803e-07,4.475927914681869e-05
7.891293765551922e-07,3.1989741094333677e-06,6.456821523996425e-07,4.482105188553065e-05
7.90296338332407e-07,3.167991901942248e-06,6.56801056469122e-07,4.483844692994306e-05
7.918250163623405e-07,3.1358192151302843e-06,6.681149016488154e-07,4.481144288675532e-05
7.937045525156223e-07,3.1024971610415513e-06,6.795886328331417e-07,4.47402357062267e-05
7.959221345668797e-07,3.0680872975825802e-06,6.911843965010122e-07,4.4625231861642625e-05
7.984691492627874e-07,3.0326641130688235e-06,7.028603137216326e-07,4.446697989723878e-05
8.013423903202724e-07,2.9963103123137827e-06,7.145721018779485e-07,4.42661111141265e-05
8.045402765528576e-07,2.9591232909365294e-06,7.262770194415599e-07,4.402333450018932e-05
8.08056947524671e-07,2.921218300211573e-06,7.379364137938966e-07,4.3739465876543387e-05
8.118769988311785e-07,2.8827219194726778e-06,7.495156157779933e-07,4.341545227715118e-05
8.159732491860694e-07,2.8437701457696897e-06,7.609824646766051e-07,4.305238110641818e-05
8.20308650222127e-07,2.8045143962954783e-06,7.723057582704149e-07,4.2651479936504996e-05
8.248415528169853e-07,2.765119559044445e-06,7.834563822512049e-07,4.221410047883399e-05
8.295314679665566e-07,2.7257490980858638e-06,7.94411379988837e-07,4.174167448526259e-05
8.343414178649861e-07,2.6865562158200443e-06,8.051565488935413e-07,4.123565709857705e-05
8.392358457974386e-07,2.6476894343522468e-06,8.15683767855557e-07,4.069748984106658e-05
8.441780095563328e-07,2.6092984843984885e-06,8.259842360860643e-07,4.012859091845761e-05
8.491311720612297e-07,2.5715401427496966e-06,8.360435852463264e-07,3.953037187682295e-05
8.540631256959648e-07,2.534590751891054e-06,8.458433855743346e-07,3.890427096262752e-05
8.589509548617907e-07,2.498654883213209e-06,8.553666726019073e-07,3.825176927308227e-05
8.637835360478153e-07,2.4639607427123743e-06,8.646025254303994e-07,3.757438485425029e-05
8.685591215234856e-07,2.430741153279116e-06,8.735488293763304e-07,3.6873674439548105e-05
8.732785118805052e-07,2.3992053164752842e-06,8.822147214856907e-07,3.6151263046204075e-05
8.779397273280914e-07,2.369520003139442e-06,8.906222614799196e-07,3.540891237595432e-05
8.825377391958113e-07,2.341811023030633e-06,8.988047003403227e-07,3.4648593486515376e-05
8.870678652788012e-07,2.316172198479356e-06,9.067996722640316e-07,3.3872482249176746e-05
8.915316584675214e-07,2.292670108115149e-06,9.146404460537393e-07,3.308286444028392e-05
8.9594365720327e-07,2.2713479127084134e-06,9.223494908476558e-07,3.2282021839132946e-05
9.003355270279508e-07,2.2522312088894176e-06,9.299350069447511e-07,3.14721490730733e-05
9.047542547578691e-07,2.23533266087649e-06,9.373904973843927e-07,3.06553167446986e-05
9.092533788730051e-07,2.220653318487204e-06,9.446974140169531e-07,2.9833493978267352e-05
9.138815100682013e-07,2.208180643584884e-06,9.518286202233521e-07,2.9008594576757567e-05
9.186760896505115e-07,2.197885469790068e-06,9.587516513673841e-07,2.81824814854138e-05
9.23664737020434e-07,2.1897254498090574e-06,9.654341510508406e-07,2.7356953398559008e-05
9.288670848815691e-07,2.183660850725518e-06,9.71851094022892e-07,2.6533776707155513e-05
9.342924265649652e-07,2.179674387931824e-06,9.779897113442112e-07,2.571472871446996e-05
9.399379909974008e-07,2.177776805279425e-06,9.838510438985315e-07,2.490159794216521e-05
9.457922091984794e-07,2.1779901034190292e-06,9.894493452507306e-07,2.4096151527695042e-05
9.518409011175324e-07,2.1803238986812904e-06,9.948093157772923e-07,2.3300086258642482e-05
9.580719481520857e-07,2.1847717474085544e-06,9.999612623600854e-07,2.2515022359095475e-05
9.644758266208538e-07,2.1913340824626484e-06,1.0049347137193359e-06,2.1742632774408988e-05
9.710426739992511e-07,2.200042529799575e-06,1.0097517066933744e-06,2.0984825751351168e-05
9.77758233954615e-07,2.2109548528594337e-06,1.0144226557273145e-06,2.024378324996727e-05
9.846009006904618e-07,2.2241192460543725e-06,1.0189460701423006e-06,1.952185176551152e-05
9.915423592497305e-07,2.23953861062984e-06,1.023310252896507e-06,1.882141828172101e-05
9.985531527674071e-07,2.2571578798480832e-06,1.0274960338727116e-06,1.8144801954887728e-05
1.005609741165175e-06,2.2768687283788425e-06,1.03148128903806e-06,1.7494149936247478e-05
1.012696971646978e-06,2.2985200541261425e-06,1.035246253180561e-06,1.6871417687183074e-05
1.019804512204931e-06,2.3219293901618102e-06,1.0387757474833974e-06,1.627845124176613e-05
1.0269230837636142e-06,2.346897010982013e-06,1.0420568806575115e-06,1.5717010250353042e-05
1.0340456345398777e-06,2.3732283471254973e-06,1.045076849477452e-06,1.5188655705488308e-05
1.0411699866281614e-06,2.4007578293359203e-06,1.0478241087378844e-06,1.4694612940886008e-05
1.0482979377173795e-06,2.4293608963479357e-06,1.0502899425618478e-06,1.4235700463079272e-05
1.0554331992486742e-06,2.458956542083124e-06,1.0524675035114195e-06,1.3812345414526294e-05
1.0625820454391914e-06,2.489507375348445e-06,1.0543492860495917e-06,1.3424663849197866e-05
1.069753568107622e-06,2.521011948943927e-06,1.0559252769964194e-06,1.307253736545731e-05
1.076956380879112e-06,2.5534832257313285e-06,1.0571825884349929e-06,1.2755639661025822e-05
1.0841955209983848e-06,2.5869200700402852e-06,1.0581058977578027e-06,1.2473427001359016e-05
1.0914707689429894e-06,2.621291772324668e-06,1.0586790323548751e-06,1.2225137046477498e-05
1.0987748613059508e-06,2.656550878882128e-06,1.0588876867383922e-06,1.2009823412896989e-05
1.1060958497911008e-06,2.692661219453443e-06,1.0587209552559499e-06,1.1826401484078916e-05
1.113424673647021e-06,2.729612331884429e-06,1.0581718718122502e-06,1.1673661974295e-05
1.1207604495926992e-06,2.767411540641212e-06,1.0572391991453869e-06,1.155025241331379e-05
1.1281086683717477e-06,2.806067603084929e-06,1.0559285944110165e-06,1.1454675114740773e-05
1.135474034385368e-06,2.8455798903001e-06,1.054250312329905e-06,1.1385318478066747e-05
1.1428523424579126e-06,2.8859400731682506e-06,1.0522148783247878e-06,1.1340476282748089e-05
1.1502270418911587e-06,2.927150151041898e-06,1.0498298228695975e-06,1.1318342897843824e-05
1.1575729281483809e-06,2.9692517345491583e-06,1.047098758450486e-06,1.1317021204561648e-05
1.1648629279657223e-06,3.0123472453241838e-06,1.044021747272637e-06,1.1334556816317447e-05
1.1720724186904459e-06,3.0565923940134067e-06,1.0405963625191003e-06,1.1368991411969164e-05
1.1791783467502142e-06,3.1021574268412706e-06,1.0368200895987872e-06,1.1418424592210488e-05
1.1861541786450766e-06,3.1491780885506087e-06,1.0326916133407938e-06,1.1481076219957592e-05
1.1929671055107279e-06,3.1977304167173765e-06,1.028208449726934e-06,1.1555360709064172e-05
1.1995841332438092e-06,3.2478488288573034e-06,1.023364574853983e-06,1.1639981671420203e-05
1.205983476137985e-06,3.299568597307294e-06,1.0181526751427572e-06,1.1734005296762696e-05
1.2121599640928431e-06,3.3529558191261552e-06,1.0125693566008145e-06,1.1836847879282495e-05
1.2181194123648969e-06,3.408108603346525e-06,1.0066182566366873e-06,1.1948189368897431e-05
1.2238682469412074e-06,3.4651389939102783e-06,1.0003085848392595e-06,1.2067880425578e-05
1.2294090345604395e-06,3.524149007735858e-06,9.936506358160841e-07,1.2195865361017288e-05
1.234745558036887e-06,3.5852054295160325e-06,9.86652325596265e-07,1.233210849768467e-05
1.2398888366289257e-06,3.6483179242925314e-06,9.793187245335472e-07,1.2476523027526458e-05
1.2448545103348024e-06,3.7134287108104797e-06,9.71652503091503e-07,1.2628937216765934e-05
1.2496540592885752e-06,3.780416662540542e-06,9.636538243970371e-07,1.2789115830808972e-05
1.2542897177141505e-06,3.84911218786583e-06,9.553204384704658e-07,1.2956777886597736e-05
1.2587570950373836e-06,3.9193146924989645e-06,9.466486187528551e-07,1.3131574371920414e-05
1.2630509506667568e-06,3.990799465246352e-06,9.376345328805076e-07,1.3313051721668096e-05
1.2671684989381144e-06,4.063310171454127e-06,9.282750998516064e-07,1.3500618975761e-05
1.2711087013362421e-06,4.136557255536074e-06,9.185688975393023e-07,1.3693528059470155e-05
1.274869063427957e-06,4.2102413693039726e-06,9.0851871741654e-07,1.3890871957950855e-05
1.2784431657222393e-06,4.28408861550177e-06,8.981362812864729e-07,1.4091592131825635e-05
1.2818238887413497e-06,4.3578719612866026e-06,8.874489429550047e-07,1.4294484330333317e-05
1.285012457177159e-06,4.4314092943237365e-06,8.765047083758488e-07,1.4498203944538474e-05
1.2880254220606347e-06,4.504544466058461e-06,8.65368894154122e-07,1.4701283866535143e-05
1.2908943964803016e-06,4.577126168978812e-06,8.541132777406576e-07,1.4902167170610214e-05
1.2936599544088105e-06,4.648995554331452e-06,8.428069714930255e-07,1.5099254354511588e-05
1.2963623620599395e-06,4.719977435863287e-06,8.315144131160884e-07,1.529100395173417e-05
1.2990327042979566e-06,4.789866079530515e-06,8.202968092157674e-07,1.5476117976139873e-05
1.3016873881865886e-06,4.858413344008875e-06,8.092113307989446e-07,1.565368774202501e-05
1.3043265555424478e-06,4.925332384481034e-06,7.983083146737489e-07,1.582311590499211e-05
1.306936478418296e-06,4.990314601052676e-06,7.876298761666035e-07,1.5983892509046418e-05
1.3094946563334292e-06,5.053049030824216e-06,7.772101004150352e-07,1.613546240546495e-05
1.311973752463869e-06,5.113236018514805e-06,7.670752642992883e-07,1.6277224314618828e-05
1.3143413936205651e-06,5.170590890436701e-06,7.572438094439771e-07,1.640856225139798e-05
1.3165578478899857e-06,5.224840381633007e-06,7.477261069190044e-07,1.6528870582596378e-05
1.3185767387343802e-06,5.275720109139329e-06,7.385245455864331e-07,1.6637584744089412e-05
1.3203492580943665e-06,5.3229790068307055e-06,7.296358057650534e-07,1.673422495945285e-05
1.3218274131259888e-06,5.366389541904553e-06,7.21056107162139e-07,1.6818437081980293e-05
1.3229649411199692e-06,5.405758633412681e-06,7.127870428148063e-07,1.689000625430606e-05
1.323717503767911e-06,5.440934603260872e-06,7.048377704550738e-07,1.6948830379713606e-05
1.324043090585613e-06,5.471806251719757e-06,6.972213554221914e-07,1.6994856425111476e-05
1.323903728845384e-06,5.49829267266326e-06,6.899483851610403e-07,1.7028014099192903e-05
1.3232679426974815e-06,5.520327024978692e-06,6.830240922394764e-07,1.7048194801088543e-05
1.3221118926737384e-06,5.5378448254354105e-06,6.764513805093277e-07,1.7055284752440935e-05
1.3204192094153238e-06,5.550791511406232e-06,6.702353582949819e-07,1.7049217613829353e-05
1.3181797115234856e-06,5.559147362185394e-06,6.64383820347754e-07,1.7029999524813112e-05
1.3153864233220257e-06,5.562947265794217e-06,6.58903262617404e-07,1.6997679058288854e-05
1.3120323100771742e-06,5.562284034859745e-06,6.537943247426469e-07,1.695228980818389e-05
1.308108614322813e-06,5.5573048571546795e-06,6.490497158934866e-07,1.6893820152492404e-05
1.3036049628912969e-06,5.548206058744935e-06,6.446554489127158e-07,1.6822226932770087e-05
1.2985102602546864e-06,5.535221017850487e-06,6.40595628460645e-07,1.67374774405813e-05
1.292813260173358e-06,5.5185988614453724e-06,6.368575171771266e-07,1.663959963977692e-05
1.286502830394876e-06,5.498578324632962e-06,6.334313263068389e-07,1.652872232583389e-05
1.2795685978540787e-06,5.475369199156495e-06,6.303064819796746e-07,1.6405095001084154e-05
1.272001742291098e-06,5.4491538520263115e-06,6.274706369769136e-07,1.6269085472126003e-05
1.263794883859828e-06,5.42010259966134e-06,6.249111076401127e-07,1.6121163812462273e-05
1.254941171191995e-06,5.388385509425758e-06,6.226151350819943e-07,1.5961880062742264e-05
1.2454336816429845e-06,5.354176199837023e-06,6.205700074375738e-07,1.579182491673029e-05
1.235265242302721e-06,5.317652168680871e-06,6.18765481971498e-07,1.5611577306926073e-05
1.2244282416769914e-06,5.2789918619491654e-06,6.171969201201821e-07,1.5421683332994007e-05
1.2129150647065164e-06,5.238370872927346e-06,6.158662616382261e-07,1.522270285728372e-05
1.2007205444140195e-06,5.1959635856665635e-06,6.147800415948179e-07,1.5015292417668475e-05
1.1878453478173577e-06,5.1519473766807634e-06,6.139448800650746e-07,1.4800285154666773e-05
1.1742968453045577e-06,5.1064998007017315e-06,6.133632389016747e-07,1.4578804497791901e-05
1.1600872942392328e-06,5.05979043015779e-06,6.13033148313548e-07,1.4352377647423486e-05
1.1452337717628934e-06,5.0119772064886865e-06,6.129506391264067e-07,1.4122889770819143e-05
1.1297628664267442e-06,4.963208288735489e-06,6.131102156884867e-07,1.3892364846052218e-05
1.1137171172510004e-06,4.9136233412464854e-06,6.135024509187038e-07,1.366275064503242e-05
1.0971575352225493e-06,4.863349676711765e-06,6.141124007767869e-07,1.3435837252215946e-05
1.0801599996980025e-06,4.812494057558208e-06,6.149225483066111e-07,1.3213296109765373e-05
1.0628080813687878e-06,4.761144107484986e-06,6.159187426748038e-07,1.2996758855247375e-05
1.0451857489922372e-06,4.709392043383075e-06,6.170921975675219e-07,1.2787870985596668e-05
1.0273715125764342e-06,4.657367784323223e-06,6.184356299384546e-07,1.2588282177790911e-05
1.0094351075342114e-06,4.605260936050763e-06,6.199412479128994e-07,1.2399552864749752e-05
9.914369640436523e-07,4.553327544166327e-06,6.216045099700279e-07,1.2223025078958424e-05
9.734294444998758e-07,4.501881494191668e-06,6.234276227173684e-07,1.2059769409875775e-05
9.554615142756823e-07,4.451269338802812e-06,6.254185790332717e-07,1.1910659614616633e-05
9.375884465010885e-07,4.401837389944383e-06,6.275874508752271e-07,1.1776531419954485e-05
9.198808756756927e-07,4.353901129183374e-06,6.299415534809628e-07,1.165840032632608e-05
9.02424634691366e-07,4.307720673327678e-06,6.324812031083026e-07,1.155779404502121e-05
8.853119100316084e-07,4.263493243856262e-06,6.351980087831251e-07,1.1477163251573156e-05
8.686365482803907e-07,4.221371199736131e-06,6.380750691671166e-07,1.1420052332899084e-05
8.525033675033263e-07,4.181491018618071e-06,6.410884985068346e-07,1.1390744203399193e-05
8.370422495324476e-07,4.1439929823734964e-06,6.442115380591839e-07,1.1393563559616866e-05
8.224101524833972e-07,4.109025652382978e-06,6.474206764107743e-07,1.1432304781167545e-05
8.087788935637358e-07,4.076736500947604e-06,6.506999127090496e-07,1.1510040272984264e-05
7.963191709560557e-07,4.047250000078231e-06,6.54040261490631e-07,1.1629222148277025e-05
7.851866079379438e-07,4.020640460327484e-06,6.57435900080727e-07,1.1791884100534946e-05
7.755103583861666e-07,3.996917630770673e-06,6.608795246347511e-07,1.1999811338079608e-05
7.67388351265412e-07,3.976033490257102e-06,6.64358917062045e-07,1.2254574499547725e-05
7.608905854436257e-07,3.957895101513684e-06,6.678567304517496e-07,1.25573926102939e-05
7.560637218132757e-07,3.942375294458566e-06,6.713523139998279e-07,1.290896680851998e-05
7.529319852698636e-07,3.9293372649782835e-06,6.748238947405287e-07,1.3309473598904281e-05
7.514982031198142e-07,3.918678213048669e-06,6.782516511664125e-07,1.3758714016880051e-05
7.51750766611357e-07,3.910365067824954e-06,6.816185604466022e-07,1.4256279348542178e-05
7.536732293106452e-07,3.904430957600174e-06,6.849064865608301e-07,1.4801665744342856e-05
7.572460763591907e-07,3.900933962678799e-06,6.880921409629021e-07,1.539436206924836e-05
7.624389277503909e-07,3.8999242869820304e-06,6.911465370893297e-07,1.6033907328770172e-05
7.692055652100562e-07,3.9014629975047725e-06,6.940362983905555e-07,1.6719841915164928e-05
7.774910445747719e-07,3.905671959546535e-06,6.96725010493389e-07,1.745151673865089e-05
7.872438798415409e-07,3.9127595639862394e-06,6.99174980432118e-07,1.822783816615169e-05
7.98422640252625e-07,3.923001461159748e-06,7.013503431067091e-07,1.904706908655737e-05
8.109959985778656e-07,3.9366929848694945e-06,7.032199487086461e-07,1.990675821276728e-05
8.249371178965466e-07,3.954091704355018e-06,7.047577088892661e-07,2.0803780772735768e-05
8.402120203047952e-07,3.975367059074216e-06,7.059414820072679e-07,2.17344239366082e-05
8.567694459792158e-07,4.000579972111554e-06,7.067528205501842e-07,2.269447440896048e-05
8.74538869289583e-07,4.029698876169271e-06,7.071770681792933e-07,2.367929266214327e-05
8.934324105008018e-07,4.062628577588883e-06,7.072020124777275e-07,2.4683866286679324e-05
9.133475937330513e-07,4.099223084410734e-06,7.068161940457699e-07,2.570286947521097e-05
9.34173014528267e-07,4.139277675688628e-06,7.060094479049063e-07,2.6730776126280665e-05
9.557940427776334e-07,4.1825207569574925e-06,7.047752284923429e-07,2.7762017152322998e-05
9.780928470843617e-07,4.2286188478917325e-06,7.031119033252578e-07,2.879111195947182e-05
1.0009439361205058e-06,4.277186696705016e-06,7.010222086039432e-07,2.9812718118329943e-05
1.0242125658833595e-06,4.3278035378975296e-06,6.985131596380705e-07,3.082160482265653e-05
1.0477596881096912e-06,4.3800472071216435e-06,6.955976225761255e-07,3.1812614231127874e-05
1.0714493904055448e-06,4.433535982845619e-06,6.92294642253324e-07,3.2780667534435085e-05
1.0951521672350232e-06,4.48795111650009e-06,6.886261935153893e-07,3.3720834139565866e-05
1.1187423724722515e-06,4.5430282897302804e-06,6.846130847329337e-07,3.462847712396921e-05
1.1420960530103198e-06,4.598531814318367e-06,6.802737243854914e-07,3.549944369887653e-05
1.1650926162374851e-06,4.6542307097379476e-06,6.756263528504338e-07,3.633022264626092e-05
1.1876147715142879e-06,4.7098814381730855e-06,6.706922609125392e-07,3.711803867134395e-05
1.2095448008598476e-06,4.765215083181648e-06,6.65496328035487e-07,3.786089653591867e-05
1.2307622559489902e-06,4.8199301574020936e-06,6.600641024035634e-07,3.8557566093356514e-05
1.2511449954329211e-06,4.873691899834281e-06,6.544183301059631e-07,3.920748639796978e-05
1.2705715052364796e-06,4.926136381477249e-06,6.485777428250494e-07,3.981058646259983e-05
1.288923029809806e-06,4.976878897761644e-06,6.425581939619019e-07,4.0367057407523906e-05
1.3060850842005414e-06,5.025531635264041e-06,6.363742090249515e-07,4.08771378193221e-05
1.3219486500525631e-06,5.0717349881962545e-06,6.300395368170133e-07,4.134097304889453e-05
1.3364126088788295e-06,5.115194659506557e-06,6.23567057234721e-07,4.175860664099191e-05
1.349387914255493e-06,5.1557099082153865e-06,6.169696828535867e-07,4.213013589153901e-05
1.3608001473187385e-06,5.19318268124856e-06,6.102639573350255e-07,4.2455961091914216e-05
1.3705875692134235e-06,5.227602981820222e-06,6.034752149789933e-07,4.2736947672897735e-05
1.3786978238131144e-06,5.25901420878711e-06,5.966406192460949e-07,4.297437266629636e-05
1.3850875746402427e-06,5.287473470153858e-06,5.898082807084753e-07,4.316972018051065e-05
1.3897235839128115e-06,5.3130243640211475e-06,5.830332248153139e-07,4.332448330016914e-05
1.3925823745797843e-06,5.335685879233522e-06,5.763730025272371e-07,4.344006050126136e-05
1.3936491878991379e-06,5.35544953062498e-06,5.69886131361939e-07,4.3517728724171166e-05
1.3929172420372236e-06,5.372288810254159e-06,5.636320041600112e-07,4.355862305585904e-05
1.3903870562331728e-06,5.386187903738395e-06,5.576692937556017e-07,4.3563698753874846e-05
1.3860667517843016e-06,5.397168616620883e-06,5.520537226373339e-07,4.3533739669822446e-05
1.379974090349337e-06,5.405287440666551e-06,5.468363414947473e-07,4.3469447017587266e-05
1.3721373017185915e-06,5.410607328368223e-06,5.420616838187544e-07,4.337150391179196e-05
1.3625922986808875e-06,5.413173480263808e-06,5.37766365819488e-07,4.324054927999314e-05
1.3513794811408816e-06,5.413010999160514e-06,5.339790660991397e-07,4.307717750162104e-05
1.3385438505456466e-06,5.410132485201304e-06,5.307206676267125e-07,4.288205440816147e-05
1.3241387034760063e-06,5.404539775214627e-06,5.280041147804602e-07,4.265610390055641e-05
1.308231312322528e-06,5.396229537113913e-06,5.258362170303518e-07,4.240073466951107e-05
1.2909068099006364e-06,5.3852130666656835e-06,5.242213400987217e-07,4.211806036925857e-05
1.2722655694448452e-06,5.371536673699167e-06,5.231643202594015e-07,4.1810948858452396e-05
1.25241491847803e-06,5.355290419860461e-06,5.226724355469653e-07,4.1482828267068416e-05
1.2314623565333644e-06,5.3366076224854555e-06,5.227561983181306e-07,4.1137388482470384e-05
1.2095153075426412e-06,5.315654747775533e-06,5.234267934670181e-07,4.077831191019664e-05
1.1866858747857078e-06,5.292608773359684e-06,5.246927542334125e-07,4.0409065485881175e-05
1.1630963175738322e-06,5.267636640631131e-06,5.265598854294153e-07,4.003275093158604e-05
1.1388815984376104e-06,5.2409029728656264e-06,5.290313310894707e-07,3.965199590433037e-05
1.114185781829831e-06,5.212604732322949e-06,5.321052013758325e-07,3.926888266918829e-05
1.0891528096347937e-06,5.1829996181197665e-06,5.357745298358973e-07,3.888494357622038e-05
1.0639184241134872e-06,5.152405888004636e-06,5.40032442812851e-07,3.8501240250886496e-05
1.0386082276009572e-06,5.121178050895772e-06,5.448761782571433e-07,3.811850200115819e-05
1.0133400744554441e-06,5.089668507329665e-06,5.503032183068166e-07,3.773727895824268e-05
9.882287479785138e-07,5.0581874155094944e-06,5.563033253287615e-07,3.7358075143539744e-05
9.633909323322822e-07,5.026983364503841e-06,5.628542737913779e-07,3.698144941916255e-05
9.389442645136223e-07,4.996254212139458e-06,5.699223857723184e-07,3.660807708766736e-05
9.14999096313311e-07,4.966168006080378e-06,5.774648240300546e-07,3.6238769195036266e-05
8.916520688159985e-07,4.9368718408544416e-06,5.854321414134042e-07,3.587447786270556e-05
8.689890787108318e-07,4.908483149826032e-06,5.937708458960874e-07,3.551631833841841e-05
8.470946638564708e-07,4.881072063630827e-06,6.024250083243771e-07,3.516558909186874e-05
8.260582266921441e-07,4.854650697814751e-06,6.113375687357027e-07,3.4823745072274977e-05
8.059709802409652e-07,4.829175335922418e-06,6.204536003753342e-07,3.4492315392310136e-05
7.869196746033409e-07,4.804557068779822e-06,6.297235669989288e-07,3.4172799092994666e-05
7.689872886277113e-07,4.780678883854911e-06,6.391034994372875e-07,3.3866570423404885e-05
7.522574855619676e-07,4.757417813447741e-06,6.48552928693778e-07,3.357480336060993e-05
7.368119187369735e-07,4.7346684657861084e-06,6.580321407026625e-07,3.3298409156502975e-05
7.227200833097575e-07,4.712360027855632e-06,6.675011837638249e-07,3.303797282521386e-05
7.100302788468045e-07,4.690454197639566e-06,6.769217030192757e-07,3.279370308542898e-05
6.987670692100071e-07,4.668921891989306e-06,6.862571382669404e-07,3.2565426765477785e-05
6.889342798768842e-07,4.647718001719744e-06,6.954689277006039e-07,3.235262329866548e-05
6.805191795383669e-07,4.6267768374389435e-06,7.045130935663928e-07,3.2154511922641685e-05
6.734950423373059e-07,4.606026841999701e-06,7.133407095725099e-07,3.197023095450694e-05
6.678244074739729e-07,4.585405192118514e-06,7.219012612322619e-07,3.179905255864481e-05
6.634658134788951e-07,4.564863034485305e-06,7.301460296276391e-07,3.164048723076092e-05
6.603805529839548e-07,4.544363876575283e-06,7.380300289739219e-07,3.149422047668306e-05
6.585337567053655e-07,4.523875207373552e-06,7.455147607746013e-07,3.135997427183364e-05
6.578906651307281e-07,4.503353680634797e-06,7.525738826869899e-07,3.123738722293334e-05
6.584130329099844e-07,4.4827307411137115e-06,7.591981102005591e-07,3.1125915217808424e-05
6.60056541696427e-07,4.461906775782945e-06,7.653935628414411e-07,3.1024759115838785e-05
6.627683951788124e-07,4.4407576269346705e-06,7.711740895352263e-07,3.093288594991892e-05
6.664869076637005e-07,4.4191523404909135e-06,7.765529813220541e-07,3.0849137917444984e-05
6.711432600646027e-07,4.3969746168766256e-06,7.815377964548516e-07,3.0772297215640984e-05
6.766626212325881e-07,4.374136334065316e-06,7.861297102074992e-07,3.070104950144286e-05
6.82964076246437e-07,4.350574372628247e-06,7.903260725753477e-07,3.0633959963878425e-05
6.89961396678098e-07,4.326235195911738e-06,7.941241705991897e-07,3.056954193935034e-05
6.975647138533875e-07,4.3010686419201804e-06,7.975262438630189e-07,3.050633275944704e-05
7.056819779716403e-07,4.275044412633575e-06,8.00542554394945e-07,3.0442897999536152e-05
7.142205235923573e-07,4.248175366144751e-06,8.031890710242988e-07,3.0377849651231764e-05
7.230880605789617e-07,4.2205239678048015e-06,8.054845859567061e-07,3.0309987521143323e-05
7.321935287636985e-07,4.1921878616324585e-06,8.074513357139186e-07,3.023848873499081e-05
7.414511287009692e-07,4.163278368777333e-06,8.091143582605955e-07,3.01629287179882e-05
7.507848912731199e-07,4.133903970961819e-06,8.104967026924989e-07,3.0083063929808912e-05
7.601272068703012e-07,4.104157878030668e-06,8.116158554320212e-07,2.9998599927707037e-05
7.69413908471657e-07,4.074107565618126e-06,8.124844429688296e-07,2.990915817838441e-05
7.785834085419359e-07,4.043791441871862e-06,8.131113456361252e-07,2.981441935520245e-05
7.875797652690041e-07,4.013223997164038e-06,8.13502128895628e-07,2.971437285020905e-05
7.963537433382477e-07,3.982404772070796e-06,8.136618165050089e-07,2.960958762905761e-05
8.048605716481724e-07,3.951328532722029e-06,8.135993956864163e-07,2.9501306989120984e-05
8.130594511174864e-07,3.9199926230878515e-06,8.133296156610604e-07,2.939127030840648e-05
8.209170126876484e-07,3.888396436212612e-06,8.128701894941098e-07,2.9281411752270893e-05
8.284114909340673e-07,3.85653526853712e-06,8.122385101982137e-07,2.9173606575981677e-05
8.355345025014519e-07,3.824395669372901e-06,8.114516982287938e-07,2.9069489989415106e-05
8.422889412885889e-07,3.7919563103730994e-06,8.105270793043688e-07,2.8970326690222148e-05
8.486827890643395e-07,3.7591911050851884e-06,8.094798803502712e-07,2.8876940503037408e-05
8.54721430063758e-07,3.7260733387966902e-06,8.08321835455428e-07,2.8789702295447113e-05
8.604033903135307e-07,3.6925881327111364e-06,8.070634979026788e-07,2.870855982849964e-05
8.657230053006712e-07,3.6587508147151534e-06,8.057153107982314e-07,2.8633112899330603e-05
8.706783768188678e-07,3.6246168604741684e-06,8.042846056905159e-07,2.856272537983284e-05
8.752768116620569e-07,3.5902775787475103e-06,8.027724274698422e-07,2.849662794049686e-05
8.795329793971403e-07,3.555846817501466e-06,8.011736401947151e-07,2.8433978036000085e-05
8.834688066371357e-07,3.5214467226043776e-06,7.994815864687078e-07,2.8373899155365057e-05
8.871233001851845e-07,3.487195137205903e-06,7.976957024505524e-07,2.831554729320191e-05
8.905620161990169e-07,3.453194133127784e-06,7.9582648962004e-07,2.825821484515108e-05
8.938734177316988e-07,3.419530744903728e-06,7.938940468091913e-07,2.820141625596601e-05
8.971566006027567e-07,3.3862965504117834e-06,7.919229073669729e-07,2.8144895500694306e-05
9.005126940597824e-07,3.353606581037657e-06,7.899385460756635e-07,2.8088566133654187e-05
9.040431442891535e-07,3.3215997465229342e-06,7.879667508382591e-07,2.8032435292283123e-05
9.078492051785341e-07,3.2904264018903636e-06,7.860324685817053e-07,2.7976533138461158e-05
9.120268136836583e-07,3.2602343981953616e-06,7.841575761797404e-07,2.792082835747661e-05
9.166564764390223e-07,3.2311582644911837e-06,7.82363202220628e-07,2.7865130406353584e-05
9.217946393376137e-07,3.203309856195751e-06,7.80679300948872e-07,2.780905281201782e-05
9.274722242268807e-07,3.176767383382292e-06,7.791555110590917e-07,2.7752103290260755e-05
9.336977462644172e-07,3.1515666571527773e-06,7.77865099431904e-07,2.7693854169217244e-05
9.404600161398266e-07,3.127703030207371e-06,7.768976256164929e-07,2.7634077874978608e-05
9.477296724886958e-07,3.105145418626864e-06,7.763435103918429e-07,2.757276347321735e-05
9.554617441685656e-07,3.0838525242614862e-06,7.762796976761673e-07,2.7510028842349732e-05
9.636021559220014e-07,3.0637781471602945e-06,7.76761990205564e-07,2.7446020821026426e-05
9.720979017517323e-07,3.0448632354429245e-06,7.778234188638798e-07,2.738086448346061e-05
9.809061829500559e-07,3.027028035014568e-06,7.794767815426112e-07,2.7314648639797466e-05
9.8999919155029e-07,3.0101776961206035e-06,7.817190800434959e-07,2.7247395555463887e-05
9.993650969488695e-07,2.994218442893055e-06,7.845356980201872e-07,2.717898214161309e-05
1.0090066469483582e-06,2.979068217245245e-06,7.879045017373096e-07,2.710906482717981e-05
1.0189382985294296e-06,2.96465316824319e-06,7.918002415550879e-07,2.7037095552626387e-05
1.029182314098604e-06,2.9509053201457903e-06,7.961977706541101e-07,2.696244691498963e-05
1.03976246017365e-06,2.937776372011484e-06,8.010726265743648e-07,2.688461270404885e-05
1.0506946199779049e-06,2.925253861975008e-06,8.063993593535751e-07,2.6803439590391863e-05
1.0619793309244036e-06,2.9133572070688128e-06,8.121503857546897e-07,2.671930094579464e-05
1.0736020897728295e-06,2.9021147572137545e-06,8.182970895077433e-07,2.6633125526652428e-05
1.0855403969732737e-06,2.8915497447671914e-06,8.24811182780995e-07,2.6546296918991346e-05
1.0977726670087157e-06,2.8816932084451355e-06,8.31664847886186e-07,2.646049703067022e-05
1.1102847576653432e-06,2.8726060483347315e-06,8.388296984030947e-07,2.6377561748866243e-05
1.1230708582952611e-06,2.864387162979485e-06,8.462737317135889e-07,2.6299405956797072e-05
1.136128091645261e-06,2.857164192887325e-06,8.539578004984909e-07,2.622800569035076e-05
1.149447784919403e-06,2.851071835547203e-06,8.618366831082021e-07,2.6165386847672047e-05
1.1630080947199277e-06,2.8462255278621397e-06,8.69866284758676e-07,2.6113639900957182e-05
1.1767710876366225e-06,2.842705388245705e-06,8.780103084220047e-07,2.607498646136698e-05
1.190684726674878e-06,2.8405645414312274e-06,8.862387852303925e-07,2.605177522049663e-05
1.204688140758768e-06,2.839853663475697e-06,8.945201753367014e-07,2.6046254489206365e-05
1.2187153263334557e-06,2.8406315262391544e-06,9.028154443334849e-07,2.6060226772874843e-05
1.2326941591047212e-06,2.8429457061726917e-06,9.110787677213327e-07,2.6094863286171564e-05
1.2465447712728682e-06,2.8468047901758684e-06,9.192624538901623e-07,2.615080836320802e-05
1.2601815272124217e-06,2.8521738907736824e-06,9.273206943519795e-07,2.622852904568407e-05
1.273516923437258e-06,2.8589990484574884e-06,9.352106286944807e-07,2.6328767806521358e-05
1.2864635208882408e-06,2.8672403190029825e-06,9.42893683198638e-07,2.6452850909813957e-05
1.2989347983505486e-06,2.876890565340857e-06,9.503362675206127e-07,2.660269065219813e-05
1.3108497918337825e-06,2.88796816791428e-06,9.575061070688968e-07,2.6780576707079503e-05
1.3221394059029434e-06,2.9004886544909006e-06,9.643675055066987e-07,2.698892541936626e-05
1.3327471269247798e-06,2.914437440488121e-06,9.708813871770687e-07,2.723005623639011e-05
1.3426241531832328e-06,2.9297647155680693e-06,9.770079894221995e-07,2.750600690054847e-05
1.3517241303932647e-06,2.946399454763646e-06,9.827075934032566e-07,2.781839204828917e-05
1.3600002682022518e-06,2.9642630694755462e-06,9.879406273057242e-07,2.8168322895197334e-05
1.3674049670838914e-06,2.9832705991520594e-06,9.926688643464091e-07,2.8556398336860552e-05
1.3738901678848569e-06,3.0033207124414036e-06,9.96856544824122e-07,2.8982721068923688e-05
1.3794072845935452e-06,3.0242837394197044e-06,1.0004742090519243e-06,2.944687492364713e-05
1.38390888990085e-06,3.045999127042224e-06,1.0035085982768538e-06,2.9947862772363684e-05
1.3873543950222794e-06,3.0682875358694663e-06,1.0059721986594422e-06,3.0484051818920514e-05
1.38971803902505e-06,3.0909758814739283e-06,1.00790274931779e-06,3.1053152175223264e-05
1.390992732371893e-06,3.113929202828311e-06,1.0093528169102637e-06,3.165222858352561e-05
1.3911845919291494e-06,3.137074027361908e-06,1.0103772667585381e-06,3.2277761124322025e-05
1.3903039021717324e-06,3.160398194458868e-06,1.0110248563488631e-06,3.2925771997202697e-05
1.3883621408776638e-06,3.1839278410840166e-06,1.0113352024840522e-06,3.3591971278248745e-05
1.3853743927365116e-06,3.2076953746875715e-06,1.0113398062563202e-06,3.427185487416983e-05
1.3813613478838527e-06,3.231725507618988e-06,1.0110647697770248e-06,3.496077719942586e-05
1.3763491758774072e-06,3.2560612979550938e-06,1.0105318575726095e-06,3.565405183172682e-05
1.370367177102236e-06,3.280808977650929e-06,1.0097572817592534e-06,3.63470554021183e-05
1.3634436227498817e-06,3.306159487627341e-06,1.0087516903006377e-06,3.703528648629717e-05
1.355602231046628e-06,3.3323727381425138e-06,1.0075237819456177e-06,3.771438664641548e-05
1.346861614336645e-06,3.3597320276754385e-06,1.0060855585759086e-06,3.838014823074255e-05
1.337239121137002e-06,3.3884855378637942e-06,1.0044552990873664e-06,3.9028498294967354e-05
1.3267595231246148e-06,3.4188065241833963e-06,1.0026569531602184e-06,3.9655463692162045e-05
1.3154636087775162e-06,3.450786571275598e-06,1.0007179132682412e-06,4.02571847590936e-05
1.3034089461936113e-06,3.484441327041483e-06,9.9866700403077e-07,4.083001287632132e-05
1.2906624744220234e-06,3.5197139542533712e-06,9.965342193564694e-07,4.137063223889119e-05
1.2772912219908905e-06,3.556481887736016e-06,9.943529329287993e-07,4.187613435608746e-05
1.2633565520886136e-06,3.5945729451589545e-06,9.921604557467508e-07,4.234402884084981e-05
1.2489138395748585e-06,3.6337923167346655e-06,9.89993210241103e-07,4.277222854229379e-05
1.2340168460430548e-06,3.673952048259361e-06,9.87880062162113e-07,4.315905769457418e-05
1.2187246050849924e-06,3.714890795959414e-06,9.858381804226321e-07,4.350328118873048e-05
1.2031071600571708e-06,3.7564847480024086e-06,9.838723967819535e-07,4.380411620872511e-05
1.1872468670900878e-06,3.7986568933196367e-06,9.819777093531295e-07,4.4061202206802365e-05
1.171235028630597e-06,3.841383747010066e-06,9.801422468363191e-07,4.42745420996808e-05
1.1551658290720723e-06,3.884688549366302e-06,9.783491511912858e-07,4.4444456329163675e-05
1.1391291491944538e-06,3.9286104488003205e-06,9.765807711498407e-07,4.457154668749026e-05
1.1232047701661938e-06,3.973164223556191e-06,9.748269922157304e-07,4.465660128044258e-05
1.1074613931395788e-06,4.018327337768693e-06,9.730925197452765e-07,4.470043436587456e-05
1.091958792526827e-06,4.064061888805388e-06,9.713970426575466e-07,4.4703760663237377e-05
1.0767480403687435e-06,4.110336807195713e-06,9.6976837873474e-07,4.466716982124732e-05
1.0618699637526512e-06,4.157128205818369e-06,9.682335625784194e-07,4.4591158355775955e-05
1.0473554602990765e-06,4.2044106266027e-06,9.668134847847822e-07,4.4476160123255664e-05
1.033227369342294e-06,4.252158758503732e-06,9.65523572674032e-07,4.4322565984054986e-05
1.019501244724665e-06,4.300364185531069e-06,9.643779380469358e-07,4.413075761616524e-05
1.006184554782053e-06,4.34905118924089e-06,9.633920905003428e-07,4.390121299296388e-05
9.93275947592026e-07,4.398269707719267e-06,9.625819560330295e-07,4.363467030409662e-05
9.807661673462416e-07,4.448062013705093e-06,9.619607006656131e-07,4.333219634794575e-05
9.68640335016123e-07,4.49842550837897e-06,9.615349315487782e-07,4.299507548524439e-05
9.568820528136277e-07,4.549301579014588e-06,9.613016407006729e-07,4.262462955533597e-05
9.454805249332542e-07,4.600592067807212e-06,9.612484820296302e-07,4.222213525714502e-05
9.344368642363243e-07,4.652176505387053e-06,9.613565281007388e-07,4.1788954314755515e-05
9.237632150936594e-07,4.703921261031983e-06,9.616014996787797e-07,4.132684696156603e-05
9.134760660212824e-07,4.755693400673036e-06,9.619546144042568e-07,4.083823508211963e-05
9.03594195572175e-07,4.807375885197167e-06,9.623862040000195e-07,4.0326201228401136e-05
8.941470481504825e-07,4.858869069701911e-06,9.62869266186689e-07,3.9794283849578294e-05
8.851853610707115e-07,4.910079477832765e-06,9.63379290807243e-07,3.9246255627712794e-05
8.767825342199836e-07,4.960910144842989e-06,9.63891351656093e-07,3.868594706874473e-05
8.690239675517732e-07,5.011263617743716e-06,9.64378595468864e-07,3.811709508259839e-05
8.61990347351514e-07,5.061056172090863e-06,9.648146781521982e-07,3.7543229374171366e-05
8.557444807021713e-07,5.110222441593288e-06,9.651762094187941e-07,3.696761477430821e-05
8.503271065196488e-07,5.1586948262133624e-06,9.654409634280472e-07,3.6393234488950015e-05
8.457600323241494e-07,5.206389334485129e-06,9.655844591305356e-07,3.582279135538109e-05
8.420524439760493e-07,5.25323865614518e-06,9.655785241815794e-07,3.5258696764498576e-05
8.392069840960835e-07,5.299255356515184e-06,9.653924070156822e-07,3.470301610191105e-05
8.372233019003967e-07,5.3445772839488195e-06,9.64997685909303e-07,3.415739482335358e-05
8.360968404273885e-07,5.389465810944607e-06,9.64376832866271e-07,3.362303948666008e-05
8.358140581893205e-07,5.4342516330096934e-06,9.635281047550505e-07,3.3100788505932265e-05
8.363504402559227e-07,5.479250721265796e-06,9.624603690686484e-07,3.259123854289171e-05
8.37672996966917e-07,5.524693960464138e-06,9.611844315916756e-07,3.2094882521600416e-05
8.397432293985351e-07,5.5707023853738096e-06,9.59710369152213e-07,3.161222098690038e-05
8.425198460655129e-07,5.617304197090932e-06,9.580493314811813e-07,3.1143817493969894e-05
8.459601533280899e-07,5.6644659183583025e-06,9.56215028676906e-07,3.069031018410515e-05
8.500167957448727e-07,5.712114808168158e-06,9.542250305660292e-07,3.0252396971351147e-05
8.546329667071084e-07,5.760145241339295e-06,9.521007044755085e-07,2.9830782939499902e-05
8.597421299770145e-07,5.808414629634345e-06,9.498626379076048e-07,2.9426106305795776e-05
8.652715468458599e-07,5.856741977388957e-06,9.475246095778578e-07,2.9038893207746582e-05
8.711455946972738e-07,5.904917029390849e-06,9.450927512087156e-07,2.8669535358655928e-05
8.772877756935646e-07,5.952716533722729e-06,9.42569544689395e-07,2.831823746598021e-05
8.836212651132754e-07,5.999924138449425e-06,9.39956330152942e-07,2.7984949828432586e-05
8.900678297666821e-07,6e-07,9.372514514992399e-07,2.766934755741872e-05
8.965476387559095e-07,6e-07,9.344477031043188e-07,2.737085528979485e-05
9.029836712895956e-07,6e-07,9.315330259132786e-07,2.708868158586923e-05
9.093109874633431e-07,6e-07,9.284933130228196e-07,2.6821856308459758e-05
9.15485153774424e-07,6e-07,9.253149719716495e-07,2.656928303986653e-05
9.214821850738328e-07,6e-07,9.219878964981159e-07,2.6329803199549373e-05
9.272892903340427e-07,6e-07,9.185104626347081e-07,2.610223853255975e-05
9.328935539295921e-07,6e-07,9.148948844623827e-07,2.5885397087783984e-05
9.382750311798008e-07,6e-07,9.111679401865192e-07,2.5678059180286265e-05
9.434058021084058e-07,6e-07,9.073661987588994e-07,2.5478952281283927e-05
9.482532406569418e-07,6e-07,9.035299423931463e-07,2.5286755146845545e-05
9.527835168661665e-07,6e-07,8.996973626907583e-07,2.51001758013344e-05
9.569625074632666e-07,6e-07,8.958994993793806e-07,2.491803703514524e-05
9.607553509759459e-07,6e-07,8.92158406206838e-07,2.47392691875875e-05
9.64126541663933e-07,6e-07,8.884885990977997e-07,2.4562836592359962e-05
9.670413514218442e-07,6e-07,8.848997880218376e-07,2.4387703439307348e-05
9.694692883226153e-07,6e-07,8.813989884905528e-07,2.4212875126032426e-05
9.71388505798998e-07,6e-07,8.779898447117754e-07,2.4037458073022426e-05
9.72789334067069e-07,6e-07,8.746713221341601e-07,2.386068302284352e-05
9.73676734835625e-07,6e-07,8.714415768846722e-07,2.3681890206276684e-05
9.740703129115587e-07,6e-07,8.683060105173712e-07,2.350051409114902e-05
9.73999421998033e-07,6e-07,8.652804642982227e-07,2.3316148108883466e-05
9.734957323755946e-07,6e-07,8.62385297248135e-07,2.312871504745705e-05
9.725901068488995e-07,6e-07,8.596382781238669e-07,2.2938595662021145e-05
9.7131577400083e-07,6e-07,8.570547186840723e-07,2.2746580887154708e-05
9.697110914828476e-07,6e-07,8.546518252210834e-07,2.255370606495321e-05
9.678162260625789e-07,6e-07,8.524513369505974e-07,2.236107592192249e-05
9.65666531561131e-07,6e-07,8.504809807675084e-07,2.2169780628074826e-05
9.63288283216162e-07,6e-07,8.487749827267886e-07,2.198098752545718e-05
9.606989560441776e-07,6e-07,8.473702716366508e-07,2.179610288722069e-05
9.579104598057787e-07,6e-07,8.462984957157836e-07,2.161680925644079e-05
9.549330263312245e-07,6e-07,8.455792545054156e-07,2.144496346429567e-05
9.517793654196178e-07,6e-07,8.452207077986027e-07,2.1282445389826485e-05
9.484691855842613e-07,6e-07,8.452283896576044e-07,2.1131008871608392e-05
9.450327113453543e-07,6e-07,8.456132578564399e-07,2.099216223681945e-05
9.41510359172402e-07,6e-07,8.463902784711402e-07,2.086708893152796e-05
