1.005609741165175e-06,2.2768687283788425e-06,1.03148128903806e-06,1.7494149936247478e-05
1.012696971646978e-06,2.2985200541261425e-06,1.035246253180561e-06,1.6871417687183074e-05
1.019804512204931e-06,2.3219293901618102e-06,1.0387757474833974e-06,1.627845124176613e-05
1.0269230837636142e-06,2.346897010982013e-06,1.0420568806575115e-06,1.5717010250353042e-05
1.0340456345398777e-06,2.3732283471254973e-06,1.045076849477452e-06,1.5188655705488308e-05
1.0411699866281614e-06,2.4007578293359203e-06,1.0478241087378844e-06,1.4694612940886008e-05
1.0482979377173795e-06,2.4293608963479357e-06,1.0502899425618478e-06,1.4235700463079272e-05
1.0554331992486742e-06,2.458956542083124e-06,1.0524675035114195e-06,1.3812345414526294e-05
1.0625820454391914e-06,2.489507375348445e-06,1.0543492860495917e-06,1.3424663849197866e-05
1.069753568107622e-06,2.521011948943927e-06,1.0559252769964194e-06,1.307253736545731e-05
1.076956380879112e-06,2.5534832257313285e-06,1.0571825884349929e-06,1.2755639661025822e-05
1.0841955209983848e-06,2.5869200700402852e-06,1.0581058977578027e-06,1.2473427001359016e-05
1.0914707689429894e-06,2.621291772324668e-06,1.0586790323548751e-06,1.2225137046477498e-05
1.0987748613059508e-06,2.656550878882128e-06,1.0588876867383922e-06,1.2009823412896989e-05
1.1060958497911008e-06,2.692661219453443e-06,1.0587209552559499e-06,1.1826401484078916e-05
1.113424673647021e-06,2.729612331884429e-06,1.0581718718122502e-06,1.1673661974295e-05
1.1207604495926992e-06,2.767411540641212e-06,1.0572391991453869e-06,1.155025241331379e-05
1.1281086683717477e-06,2.806067603084929e-06,1.0559285944110165e-06,1.1454675114740773e-05
1.135474034385368e-06,2.8455798903001e-06,1.054250312329905e-06,1.1385318478066747e-05
1.1428523424579126e-06,2.8859400731682506e-06,1.0522148783247878e-06,1.1340476282748089e-05
1.1502270418911587e-06,2.927150151041898e-06,1.0498298228695975e-06,1.1318342897843824e-05
1.1575729281483809e-06,2.9692517345491583e-06,1.047098758450486e-06,1.1317021204561648e-05
1.1648629279657223e-06,3.0123472453241838e-06,1.044021747272637e-06,1.1334556816317447e-05
1.1720724186904459e-06,3.0565923940134067e-06,1.0405963625191003e-06,1.1368991411969164e-05
1.1791783467502142e-06,3.1021574268412706e-06,1.0368200895987872e-06,1.1418424592210488e-05
1.1861541786450766e-06,3.1491780885506087e-06,1.0326916133407938e-06,1.1481076219957592e-05
1.1929671055107279e-06,3.1977304167173765e-06,1.028208449726934e-06,1.1555360709064172e-05
1.1995841332438092e-06,3.2478488288573034e-06,1.023364574853983e-06,1.1639981671420203e-05
1.205983476137985e-06,3.299568597307294e-06,1.0181526751427572e-06,1.1734005296762696e-05
1.2121599640928431e-06,3.3529558191261552e-06,1.0125693566008145e-06,1.1836847879282495e-05
1.2181194123648969e-06,3.408108603346525e-06,1.0066182566366873e-06,1.1948189368897431e-05
1.2238682469412074e-06,3.4651389939102783e-06,1.0003085848392595e-06,1.2067880425578e-05
1.2294090345604395e-06,3.524149007735858e-06,9.936506358160841e-07,1.2195865361017288e-05
1.234745558036887e-06,3.5852054295160325e-06,9.86652325596265e-07,1.233210849768467e-05
1.2398888366289257e-06,3.6483179242925314e-06,9.793187245335472e-07,1.2476523027526458e-05
1.2448545103348024e-06,3.7134287108104797e-06,9.71652503091503e-07,1.2628937216765934e-05
1.2496540592885752e-06,3.780416662540542e-06,9.636538243970371e-07,1.2789115830808972e-05
1.2542897177141505e-06,3.84911218786583e-06,9.553204384704658e-07,1.2956777886597736e-05
1.2587570950373836e-06,3.9193146924989645e-06,9.466486187528551e-07,1.3131574371920414e-05
1.2630509506667568e-06,3.990799465246352e-06,9.376345328805076e-07,1.3313051721668096e-05
1.2671684989381144e-06,4.063310171454127e-06,9.282750998516064e-07,1.3500618975761e-05
1.2711087013362421e-06,4.136557255536074e-06,9.185688975393023e-07,1.3693528059470155e-05
1.274869063427957e-06,4.2102413693039726e-06,9.0851871741654e-07,1.3890871957950855e-05
1.2784431657222393e-06,4.28408861550177e-06,8.981362812864729e-07,1.4091592131825635e-05
1.2818238887413497e-06,4.3578719612866026e-06,8.874489429550047e-07,1.4294484330333317e-05
1.285012457177159e-06,4.4314092943237365e-06,8.765047083758488e-07,1.4498203944538474e-05
1.2880254220606347e-06,4.504544466058461e-06,8.65368894154122e-07,1.4701283866535143e-05
1.2908943964803016e-06,4.577126168978812e-06,8.541132777406576e-07,1.4902167170610214e-05
1.2936599544088105e-06,4.648995554331452e-06,8.428069714930255e-07,1.5099254354511588e-05
1.2963623620599395e-06,4.719977435863287e-06,8.315144131160884e-07,1.529100395173417e-05
1.2990327042979566e-06,4.789866079530515e-06,8.202968092157674e-07,1.5476117976139873e-05
1.3016873881865886e-06,4.858413344008875e-06,8.092113307989446e-07,1.565368774202501e-05
1.3043265555424478e-06,4.925332384481034e-06,7.983083146737489e-07,1.582311590499211e-05
1.306936478418296e-06,4.990314601052676e-06,7.876298761666035e-07,1.5983892509046418e-05
1.3094946563334292e-06,5.053049030824216e-06,7.772101004150352e-07,1.613546240546495e-05
1.311973752463869e-06,5.113236018514805e-06,7.670752642992883e-07,1.6277224314618828e-05
1.3143413936205651e-06,5.170590890436701e-06,7.572438094439771e-07,1.640856225139798e-05
1.3165578478899857e-06,5.224840381633007e-06,7.477261069190044e-07,1.6528870582596378e-05
1.3185767387343802e-06,5.275720109139329e-06,7.385245455864331e-07,1.6637584744089412e-05
1.3203492580943665e-06,5.3229790068307055e-06,7.296358057650534e-07,1.673422495945285e-05
1.3218274131259888e-06,5.366389541904553e-06,7.21056107162139e-07,1.6818437081980293e-05
1.3229649411199692e-06,5.405758633412681e-06,7.127870428148063e-07,1.689000625430606e-05
1.323717503767911e-06,5.440934603260872e-06,7.048377704550738e-07,1.6948830379713606e-05
1.324043090585613e-06,5.471806251719757e-06,6.972213554221914e-07,1.6994856425111476e-05
1.323903728845384e-06,5.49829267266326e-06,6.899483851610403e-07,1.7028014099192903e-05
1.3232679426974815e-06,5.520327024978692e-06,6.830240922394764e-07,1.7048194801088543e-05
1.3221118926737384e-06,5.5378448254354105e-06,6.764513805093277e-07,1.7055284752440935e-05
1.3204192094153238e-06,5.550791511406232e-06,6.702353582949819e-07,1.7049217613829353e-05
1.3181797115234856e-06,5.559147362185394e-06,6.64383820347754e-07,1.7029999524813112e-05
1.3153864233220257e-06,5.562947265794217e-06,6.58903262617404e-07,1.6997679058288854e-05
1.3120323100771742e-06,5.562284034859745e-06,6.537943247426469e-07,1.695228980818389e-05
1.308108614322813e-06,5.5573048571546795e-06,6.490497158934866e-07,1.6893820152492404e-05
1.3036049628912969e-06,5.548206058744935e-06,6.446554489127158e-07,1.6822226932770087e-05
1.2985102602546864e-06,5.535221017850487e-06,6.40595628460645e-07,1.67374774405813e-05
1.292813260173358e-06,5.5185988614453724e-06,6.368575171771266e-07,1.663959963977692e-05
1.286502830394876e-06,5.498578324632962e-06,6.334313263068389e-07,1.652872232583389e-05
1.2795685978540787e-06,5.475369199156495e-06,6.303064819796746e-07,1.6405095001084154e-05
1.272001742291098e-06,5.4491538520263115e-06,6.274706369769136e-07,1.6269085472126003e-05
1.263794883859828e-06,5.42010259966134e-06,6.249111076401127e-07,1.6121163812462273e-05
1.254941171191995e-06,5.388385509425758e-06,6.226151350819943e-07,1.5961880062742264e-05
1.2454336816429845e-06,5.354176199837023e-06,6.205700074375738e-07,1.579182491673029e-05
1.235265242302721e-06,5.317652168680871e-06,6.18765481971498e-07,1.5611577306926073e-05
1.2244282416769914e-06,5.2789918619491654e-06,6.171969201201821e-07,1.5421683332994007e-05
1.2129150647065164e-06,5.238370872927346e-06,6.158662616382261e-07,1.522270285728372e-05
1.2007205444140195e-06,5.1959635856665635e-06,6.147800415948179e-07,1.5015292417668475e-05
1.1878453478173577e-06,5.1519473766807634e-06,6.139448800650746e-07,1.4800285154666773e-05
1.1742968453045577e-06,5.1064998007017315e-06,6.133632389016747e-07,1.4578804497791901e-05
1.1600872942392328e-06,5.05979043015779e-06,6.13033148313548e-07,1.4352377647423486e-05
1.1452337717628934e-06,5.0119772064886865e-06,6.129506391264067e-07,1.4122889770819143e-05
1.1297628664267442e-06,4.963208288735489e-06,6.131102156884867e-07,1.3892364846052218e-05
1.1137171172510004e-06,4.9136233412464854e-06,6.135024509187038e-07,1.366275064503242e-05
1.0971575352225493e-06,4.863349676711765e-06,6.141124007767869e-07,1.3435837252215946e-05
1.0801599996980025e-06,4.812494057558208e-06,6.149225483066111e-07,1.3213296109765373e-05
1.0628080813687878e-06,4.761144107484986e-06,6.159187426748038e-07,1.2996758855247375e-05
1.0451857489922372e-06,4.709392043383075e-06,6.170921975675219e-07,1.2787870985596668e-05
1.0273715125764342e-06,4.657367784323223e-06,6.184356299384546e-07,1.2588282177790911e-05
1.0094351075342114e-06,4.605260936050763e-06,6.199412479128994e-07,1.2399552864749752e-05
9.914369640436523e-07,4.553327544166327e-06,6.216045099700279e-07,1.2223025078958424e-05
9.734294444998758e-07,4.501881494191668e-06,6.234276227173684e-07,1.2059769409875775e-05
9.554615142756823e-07,4.451269338802812e-06,6.254185790332717e-07,1.1910659614616633e-05
9.375884465010885e-07,4.401837389944383e-06,6.275874508752271e-07,1.1776531419954485e-05
9.198808756756927e-07,4.353901129183374e-06,6.299415534809628e-07,1.165840032632608e-05
9.02424634691366e-07,4.307720673327678e-06,6.324812031083026e-07,1.155779404502121e-05
8.853119100316084e-07,4.263493243856262e-06,6.351980087831251e-07,1.1477163251573156e-05
8.686365482803907e-07,4.221371199736131e-06,6.380750691671166e-07,1.1420052332899084e-05
8.525033675033263e-07,4.181491018618071e-06,6.410884985068346e-07,1.1390744203399193e-05
8.370422495324476e-07,4.1439929823734964e-06,6.442115380591839e-07,1.1393563559616866e-05
8.224101524833972e-07,4.109025652382978e-06,6.474206764107743e-07,1.1432304781167545e-05
8.087788935637358e-07,4.076736500947604e-06,6.506999127090496e-07,1.1510040272984264e-05
7.963191709560557e-07,4.047250000078231e-06,6.54040261490631e-07,1.1629222148277025e-05
7.851866079379438e-07,4.020640460327484e-06,6.57435900080727e-07,1.1791884100534946e-05
7.755103583861666e-07,3.996917630770673e-06,6.608795246347511e-07,1.1999811338079608e-05
7.67388351265412e-07,3.976033490257102e-06,6.64358917062045e-07,1.2254574499547725e-05
7.608905854436257e-07,3.957895101513684e-06,6.678567304517496e-07,1.25573926102939e-05
7.560637218132757e-07,3.942375294458566e-06,6.713523139998279e-07,1.290896680851998e-05
7.529319852698636e-07,3.9293372649782835e-06,6.748238947405287e-07,1.3309473598904281e-05
7.514982031198142e-07,3.918678213048669e-06,6.782516511664125e-07,1.3758714016880051e-05
7.51750766611357e-07,3.910365067824954e-06,6.816185604466022e-07,1.4256279348542178e-05
7.536732293106452e-07,3.904430957600174e-06,6.849064865608301e-07,1.4801665744342856e-05
7.572460763591907e-07,3.900933962678799e-06,6.880921409629021e-07,1.539436206924836e-05
7.624389277503909e-07,3.8999242869820304e-06,6.911465370893297e-07,1.6033907328770172e-05
7.692055652100562e-07,3.9014629975047725e-06,6.940362983905555e-07,1.6719841915164928e-05
7.774910445747719e-07,3.905671959546535e-06,6.96725010493389e-07,1.745151673865089e-05
7.872438798415409e-07,3.9127595639862394e-06,6.99174980432118e-07,1.822783816615169e-05
7.98422640252625e-07,3.923001461159748e-06,7.013503431067091e-07,1.904706908655737e-05
8.109959985778656e-07,3.9366929848694945e-06,7.032199487086461e-07,1.990675821276728e-05
8.249371178965466e-07,3.954091704355018e-06,7.047577088892661e-07,2.0803780772735768e-05
8.402120203047952e-07,3.975367059074216e-06,7.059414820072679e-07,2.17344239366082e-05
8.567694459792158e-07,4.000579972111554e-06,7.067528205501842e-07,2.269447440896048e-05
8.74538869289583e-07,4.029698876169271e-06,7.071770681792933e-07,2.367929266214327e-05
8.934324105008018e-07,4.062628577588883e-06,7.072020124777275e-07,2.4683866286679324e-05
9.133475937330513e-07,4.099223084410734e-06,7.068161940457699e-07,2.570286947521097e-05
9.34173014528267e-07,4.139277675688628e-06,7.060094479049063e-07,2.6730776126280665e-05
9.557940427776334e-07,4.1825207569574925e-06,7.047752284923429e-07,2.7762017152322998e-05
9.780928470843617e-07,4.2286188478917325e-06,7.031119033252578e-07,2.879111195947182e-05
1.0009439361205058e-06,4.277186696705016e-06,7.010222086039432e-07,2.9812718118329943e-05
1.0242125658833595e-06,4.3278035378975296e-06,6.985131596380705e-07,3.082160482265653e-05
1.0477596881096912e-06,4.3800472071216435e-06,6.955976225761255e-07,3.1812614231127874e-05
1.0714493904055448e-06,4.433535982845619e-06,6.92294642253324e-07,3.2780667534435085e-05
1.0951521672350232e-06,4.48795111650009e-06,6.886261935153893e-07,3.3720834139565866e-05
1.1187423724722515e-06,4.5430282897302804e-06,6.846130847329337e-07,3.462847712396921e-05
1.1420960530103198e-06,4.598531814318367e-06,6.802737243854914e-07,3.549944369887653e-05
1.1650926162374851e-06,4.6542307097379476e-06,6.756263528504338e-07,3.633022264626092e-05
1.1876147715142879e-06,4.7098814381730855e-06,6.706922609125392e-07,3.711803867134395e-05
1.2095448008598476e-06,4.765215083181648e-06,6.65496328035487e-07,3.786089653591867e-05
1.2307622559489902e-06,4.8199301574020936e-06,6.600641024035634e-07,3.8557566093356514e-05
1.2511449954329211e-06,4.873691899834281e-06,6.544183301059631e-07,3.920748639796978e-05
1.2705715052364796e-06,4.926136381477249e-06,6.485777428250494e-07,3.981058646259983e-05
1.288923029809806e-06,4.976878897761644e-06,6.425581939619019e-07,4.0367057407523906e-05
1.3060850842005414e-06,5.025531635264041e-06,6.363742090249515e-07,4.08771378193221e-05
1.3219486500525631e-06,5.0717349881962545e-06,6.300395368170133e-07,4.134097304889453e-05
1.3364126088788295e-06,5.115194659506557e-06,6.23567057234721e-07,4.175860664099191e-05
1.349387914255493e-06,5.1557099082153865e-06,6.169696828535867e-07,4.213013589153901e-05
1.3608001473187385e-06,5.19318268124856e-06,6.102639573350255e-07,4.2455961091914216e-05
1.3705875692134235e-06,5.227602981820222e-06,6.034752149789933e-07,4.2736947672897735e-05
1.3786978238131144e-06,5.25901420878711e-06,5.966406192460949e-07,4.297437266629636e-05
1.3850875746402427e-06,5.287473470153858e-06,5.898082807084753e-07,4.316972018051065e-05
1.3897235839128115e-06,5.3130243640211475e-06,5.830332248153139e-07,4.332448330016914e-05
1.3925823745797843e-06,5.335685879233522e-06,5.763730025272371e-07,4.344006050126136e-05
1.3936491878991379e-06,5.35544953062498e-06,5.69886131361939e-07,4.3517728724171166e-05
1.3929172420372236e-06,5.372288810254159e-06,5.636320041600112e-07,4.355862305585904e-05
1.3903870562331728e-06,5.386187903738395e-06,5.576692937556017e-07,4.3563698753874846e-05
1.3860667517843016e-06,5.397168616620883e-06,5.520537226373339e-07,4.3533739669822446e-05
1.379974090349337e-06,5.405287440666551e-06,5.468363414947473e-07,4.3469447017587266e-05
1.3721373017185915e-06,5.410607328368223e-06,5.420616838187544e-07,4.337150391179196e-05
1.3625922986808875e-06,5.413173480263808e-06,5.37766365819488e-07,4.324054927999314e-05
1.3513794811408816e-06,5.413010999160514e-06,5.339790660991397e-07,4.307717750162104e-05
1.3385438505456466e-06,5.410132485201304e-06,5.307206676267125e-07,4.288205440816147e-05
1.3241387034760063e-06,5.404539775214627e-06,5.280041147804602e-07,4.265610390055641e-05
1.308231312322528e-06,5.396229537113913e-06,5.258362170303518e-07,4.240073466951107e-05
1.2909068099006364e-06,5.3852130666656835e-06,5.242213400987217e-07,4.211806036925857e-05
1.2722655694448452e-06,5.371536673699167e-06,5.231643202594015e-07,4.1810948858452396e-05
1.25241491847803e-06,5.355290419860461e-06,5.226724355469653e-07,4.1482828267068416e-05
1.2314623565333644e-06,5.3366076224854555e-06,5.227561983181306e-07,4.1137388482470384e-05
1.2095153075426412e-06,5.315654747775533e-06,5.234267934670181e-07,4.077831191019664e-05
1.1866858747857078e-06,5.292608773359684e-06,5.246927542334125e-07,4.0409065485881175e-05
1.1630963175738322e-06,5.267636640631131e-06,5.265598854294153e-07,4.003275093158604e-05
1.1388815984376104e-06,5.2409029728656264e-06,5.290313310894707e-07,3.965199590433037e-05
1.114185781829831e-06,5.212604732322949e-06,5.321052013758325e-07,3.926888266918829e-05
1.0891528096347937e-06,5.1829996181197665e-06,5.357745298358973e-07,3.888494357622038e-05
1.0639184241134872e-06,5.152405888004636e-06,5.40032442812851e-07,3.8501240250886496e-05
1.0386082276009572e-06,5.121178050895772e-06,5.448761782571433e-07,3.811850200115819e-05
1.0133400744554441e-06,5.089668507329665e-06,5.503032183068166e-07,3.773727895824268e-05
9.882287479785138e-07,5.0581874155094944e-06,5.563033253287615e-07,3.7358075143539744e-05
9.633909323322822e-07,5.026983364503841e-06,5.628542737913779e-07,3.698144941916255e-05
9.389442645136223e-07,4.996254212139458e-06,5.699223857723184e-07,3.660807708766736e-05
9.14999096313311e-07,4.966168006080378e-06,5.774648240300546e-07,3.6238769195036266e-05
8.916520688159985e-07,4.9368718408544416e-06,5.854321414134042e-07,3.587447786270556e-05
8.689890787108318e-07,4.908483149826032e-06,5.937708458960874e-07,3.551631833841841e-05
8.470946638564708e-07,4.881072063630827e-06,6.024250083243771e-07,3.516558909186874e-05
8.260582266921441e-07,4.854650697814751e-06,6.113375687357027e-07,3.4823745072274977e-05
8.059709802409652e-07,4.829175335922418e-06,6.204536003753342e-07,3.4492315392310136e-05
7.869196746033409e-07,4.804557068779822e-06,6.297235669989288e-07,3.4172799092994666e-05
7.689872886277113e-07,4.780678883854911e-06,6.391034994372875e-07,3.3866570423404885e-05
7.522574855619676e-07,4.757417813447741e-06,6.48552928693778e-07,3.357480336060993e-05
7.368119187369735e-07,4.7346684657861084e-06,6.580321407026625e-07,3.3298409156502975e-05
7.227200833097575e-07,4.712360027855632e-06,6.675011837638249e-07,3.303797282521386e-05
7.100302788468045e-07,4.690454197639566e-06,6.769217030192757e-07,3.279370308542898e-05
6.987670692100071e-07,4.668921891989306e-06,6.862571382669404e-07,3.2565426765477785e-05
6.889342798768842e-07,4.647718001719744e-06,6.954689277006039e-07,3.235262329866548e-05
6.805191795383669e-07,4.6267768374389435e-06,7.045130935663928e-07,3.2154511922641685e-05
6.734950423373059e-07,4.606026841999701e-06,7.133407095725099e-07,3.197023095450694e-05
6.678244074739729e-07,4.585405192118514e-06,7.219012612322619e-07,3.179905255864481e-05
6.634658134788951e-07,4.564863034485305e-06,7.301460296276391e-07,3.164048723076092e-05
6.603805529839548e-07,4.544363876575283e-06,7.380300289739219e-07,3.149422047668306e-05
6.585337567053655e-07,4.523875207373552e-06,7.455147607746013e-07,3.135997427183364e-05
6.578906651307281e-07,4.503353680634797e-06,7.525738826869899e-07,3.123738722293334e-05
6.584130329099844e-07,4.4827307411137115e-06,7.591981102005591e-07,3.1125915217808424e-05
6.60056541696427e-07,4.461906775782945e-06,7.653935628414411e-07,3.1024759115838785e-05
6.627683951788124e-07,4.4407576269346705e-06,7.711740895352263e-07,3.093288594991892e-05
6.664869076637005e-07,4.4191523404909135e-06,7.765529813220541e-07,3.0849137917444984e-05
6.711432600646027e-07,4.3969746168766256e-06,7.815377964548516e-07,3.0772297215640984e-05
6.766626212325881e-07,4.374136334065316e-06,7.861297102074992e-07,3.070104950144286e-05
6.82964076246437e-07,4.350574372628247e-06,7.903260725753477e-07,3.0633959963878425e-05
6.89961396678098e-07,4.326235195911738e-06,7.941241705991897e-07,3.056954193935034e-05
6.975647138533875e-07,4.3010686419201804e-06,7.975262438630189e-07,3.050633275944704e-05
7.056819779716403e-07,4.275044412633575e-06,8.00542554394945e-07,3.0442897999536152e-05
7.142205235923573e-07,4.248175366144751e-06,8.031890710242988e-07,3.0377849651231764e-05
7.230880605789617e-07,4.2205239678048015e-06,8.054845859567061e-07,3.0309987521143323e-05
7.321935287636985e-07,4.1921878616324585e-06,8.074513357139186e-07,3.023848873499081e-05
7.414511287009692e-07,4.163278368777333e-06,8.091143582605955e-07,3.01629287179882e-05
7.507848912731199e-07,4.133903970961819e-06,8.104967026924989e-07,3.0083063929808912e-05
7.601272068703012e-07,4.104157878030668e-06,8.116158554320212e-07,2.9998599927707037e-05
7.69413908471657e-07,4.074107565618126e-06,8.124844429688296e-07,2.990915817838441e-05
7.785834085419359e-07,4.043791441871862e-06,8.131113456361252e-07,2.981441935520245e-05
7.875797652690041e-07,4.013223997164038e-06,8.13502128895628e-07,2.971437285020905e-05
7.963537433382477e-07,3.982404772070796e-06,8.136618165050089e-07,2.960958762905761e-05
8.048605716481724e-07,3.951328532722029e-06,8.135993956864163e-07,2.9501306989120984e-05
8.130594511174864e-07,3.9199926230878515e-06,8.133296156610604e-07,2.939127030840648e-05
8.209170126876484e-07,3.888396436212612e-06,8.128701894941098e-07,2.9281411752270893e-05
8.284114909340673e-07,3.85653526853712e-06,8.122385101982137e-07,2.9173606575981677e-05
8.355345025014519e-07,3.824395669372901e-06,8.114516982287938e-07,2.9069489989415106e-05
8.422889412885889e-07,3.7919563103730994e-06,8.105270793043688e-07,2.8970326690222148e-05
8.486827890643395e-07,3.7591911050851884e-06,8.094798803502712e-07,2.8876940503037408e-05
8.54721430063758e-07,3.7260733387966902e-06,8.08321835455428e-07,2.8789702295447113e-05
8.604033903135307e-07,3.6925881327111364e-06,8.070634979026788e-07,2.870855982849964e-05
8.657230053006712e-07,3.6587508147151534e-06,8.057153107982314e-07,2.8633112899330603e-05
8.706783768188678e-07,3.6246168604741684e-06,8.042846056905159e-07,2.856272537983284e-05
8.752768116620569e-07,3.5902775787475103e-06,8.027724274698422e-07,2.849662794049686e-05
8.795329793971403e-07,3.555846817501466e-06,8.011736401947151e-07,2.8433978036000085e-05
8.834688066371357e-07,3.5214467226043776e-06,7.994815864687078e-07,2.8373899155365057e-05
8.871233001851845e-07,3.487195137205903e-06,7.976957024505524e-07,2.831554729320191e-05
8.905620161990169e-07,3.453194133127784e-06,7.9582648962004e-07,2.825821484515108e-05
8.938734177316988e-07,3.419530744903728e-06,7.938940468091913e-07,2.820141625596601e-05
8.971566006027567e-07,3.3862965504117834e-06,7.919229073669729e-07,2.8144895500694306e-05
9.005126940597824e-07,3.353606581037657e-06,7.899385460756635e-07,2.8088566133654187e-05
9.040431442891535e-07,3.3215997465229342e-06,7.879667508382591e-07,2.8032435292283123e-05
9.078492051785341e-07,3.2904264018903636e-06,7.860324685817053e-07,2.7976533138461158e-05
9.120268136836583e-07,3.2602343981953616e-06,7.841575761797404e-07,2.792082835747661e-05
9.166564764390223e-07,3.2311582644911837e-06,7.82363202220628e-07,2.7865130406353584e-05
9.217946393376137e-07,3.203309856195751e-06,7.80679300948872e-07,2.780905281201782e-05
9.274722242268807e-07,3.176767383382292e-06,7.791555110590917e-07,2.7752103290260755e-05
9.336977462644172e-07,3.1515666571527773e-06,7.77865099431904e-07,2.7693854169217244e-05
9.404600161398266e-07,3.127703030207371e-06,7.768976256164929e-07,2.7634077874978608e-05
9.477296724886958e-07,3.105145418626864e-06,7.763435103918429e-07,2.757276347321735e-05
9.554617441685656e-07,3.0838525242614862e-06,7.762796976761673e-07,2.7510028842349732e-05
9.636021559220014e-07,3.0637781471602945e-06,7.76761990205564e-07,2.7446020821026426e-05
9.720979017517323e-07,3.0448632354429245e-06,7.778234188638798e-07,2.738086448346061e-05
9.809061829500559e-07,3.027028035014568e-06,7.794767815426112e-07,2.7314648639797466e-05
9.8999919155029e-07,3.0101776961206035e-06,7.817190800434959e-07,2.7247395555463887e-05
9.993650969488695e-07,2.994218442893055e-06,7.845356980201872e-07,2.717898214161309e-05
1.0090066469483582e-06,2.979068217245245e-06,7.879045017373096e-07,2.710906482717981e-05
1.0189382985294296e-06,2.96465316824319e-06,7.918002415550879e-07,2.7037095552626387e-05
1.029182314098604e-06,2.9509053201457903e-06,7.961977706541101e-07,2.696244691498963e-05
1.03976246017365e-06,2.937776372011484e-06,8.010726265743648e-07,2.688461270404885e-05
1.0506946199779049e-06,2.925253861975008e-06,8.063993593535751e-07,2.6803439590391863e-05
1.0619793309244036e-06,2.9133572070688128e-06,8.121503857546897e-07,2.671930094579464e-05
1.0736020897728295e-06,2.9021147572137545e-06,8.182970895077433e-07,2.6633125526652428e-05
1.0855403969732737e-06,2.8915497447671914e-06,8.24811182780995e-07,2.6546296918991346e-05
1.0977726670087157e-06,2.8816932084451355e-06,8.31664847886186e-07,2.646049703067022e-05
1.1102847576653432e-06,2.8726060483347315e-06,8.388296984030947e-07,2.6377561748866243e-05
1.1230708582952611e-06,2.864387162979485e-06,8.462737317135889e-07,2.6299405956797072e-05
1.136128091645261e-06,2.857164192887325e-06,8.539578004984909e-07,2.622800569035076e-05
1.149447784919403e-06,2.851071835547203e-06,8.618366831082021e-07,2.6165386847672047e-05
1.1630080947199277e-06,2.8462255278621397e-06,8.69866284758676e-07,2.6113639900957182e-05
1.1767710876366225e-06,2.842705388245705e-06,8.780103084220047e-07,2.607498646136698e-05
1.190684726674878e-06,2.8405645414312274e-06,8.862387852303925e-07,2.605177522049663e-05
1.204688140758768e-06,2.839853663475697e-06,8.945201753367014e-07,2.6046254489206365e-05
1.2187153263334557e-06,2.8406315262391544e-06,9.028154443334849e-07,2.6060226772874843e-05
1.2326941591047212e-06,2.8429457061726917e-06,9.110787677213327e-07,2.6094863286171564e-05
1.2465447712728682e-06,2.8468047901758684e-06,9.192624538901623e-07,2.615080836320802e-05
1.2601815272124217e-06,2.8521738907736824e-06,9.273206943519795e-07,2.622852904568407e-05
1.273516923437258e-06,2.8589990484574884e-06,9.352106286944807e-07,2.6328767806521358e-05
1.2864635208882408e-06,2.8672403190029825e-06,9.42893683198638e-07,2.6452850909813957e-05
1.2989347983505486e-06,2.876890565340857e-06,9.503362675206127e-07,2.660269065219813e-05
1.3108497918337825e-06,2.88796816791428e-06,9.575061070688968e-07,2.6780576707079503e-05
1.3221394059029434e-06,2.9004886544909006e-06,9.643675055066987e-07,2.698892541936626e-05
1.3327471269247798e-06,2.914437440488121e-06,9.708813871770687e-07,2.723005623639011e-05
1.3426241531832328e-06,2.9297647155680693e-06,9.770079894221995e-07,2.750600690054847e-05
1.3517241303932647e-06,2.946399454763646e-06,9.827075934032566e-07,2.781839204828917e-05
1.3600002682022518e-06,2.9642630694755462e-06,9.879406273057242e-07,2.8168322895197334e-05
1.3674049670838914e-06,2.9832705991520594e-06,9.926688643464091e-07,2.8556398336860552e-05
1.3738901678848569e-06,3.0033207124414036e-06,9.96856544824122e-07,2.8982721068923688e-05
1.3794072845935452e-06,3.0242837394197044e-06,1.0004742090519243e-06,2.944687492364713e-05
1.38390888990085e-06,3.045999127042224e-06,1.0035085982768538e-06,2.9947862772363684e-05
1.3873543950222794e-06,3.0682875358694663e-06,1.0059721986594422e-06,3.0484051818920514e-05
1.38971803902505e-06,3.0909758814739283e-06,1.00790274931779e-06,3.1053152175223264e-05
1.390992732371893e-06,3.113929202828311e-06,1.0093528169102637e-06,3.165222858352561e-05
1.3911845919291494e-06,3.137074027361908e-06,1.0103772667585381e-06,3.2277761124322025e-05
1.3903039021717324e-06,3.160398194458868e-06,1.0110248563488631e-06,3.2925771997202697e-05
1.3883621408776638e-06,3.1839278410840166e-06,1.0113352024840522e-06,3.3591971278248745e-05
1.3853743927365116e-06,3.2076953746875715e-06,1.0113398062563202e-06,3.427185487416983e-05
1.3813613478838527e-06,3.231725507618988e-06,1.0110647697770248e-06,3.496077719942586e-05
1.3763491758774072e-06,3.2560612979550938e-06,1.0105318575726095e-06,3.565405183172682e-05
1.370367177102236e-06,3.280808977650929e-06,1.0097572817592534e-06,3.63470554021183e-05
1.3634436227498817e-06,3.306159487627341e-06,1.0087516903006377e-06,3.703528648629717e-05
1.355602231046628e-06,3.3323727381425138e-06,1.0075237819456177e-06,3.771438664641548e-05
1.346861614336645e-06,3.3597320276754385e-06,1.0060855585759086e-06,3.838014823074255e-05
1.337239121137002e-06,3.3884855378637942e-06,1.0044552990873664e-06,3.9028498294967354e-05
1.3267595231246148e-06,3.4188065241833963e-06,1.0026569531602184e-06,3.9655463692162045e-05
1.3154636087775162e-06,3.450786571275598e-06,1.0007179132682412e-06,4.02571847590936e-05
1.3034089461936113e-06,3.484441327041483e-06,9.9866700403077e-07,4.083001287632132e-05
1.2906624744220234e-06,3.5197139542533712e-06,9.965342193564694e-07,4.137063223889119e-05
1.2772912219908905e-06,3.556481887736016e-06,9.943529329287993e-07,4.187613435608746e-05
1.2633565520886136e-06,3.5945729451589545e-06,9.921604557467508e-07,4.234402884084981e-05
1.2489138395748585e-06,3.6337923167346655e-06,9.89993210241103e-07,4.277222854229379e-05
1.2340168460430548e-06,3.673952048259361e-06,9.87880062162113e-07,4.315905769457418e-05
1.2187246050849924e-06,3.714890795959414e-06,9.858381804226321e-07,4.350328118873048e-05
1.2031071600571708e-06,3.7564847480024086e-06,9.838723967819535e-07,4.380411620872511e-05
1.1872468670900878e-06,3.7986568933196367e-06,9.819777093531295e-07,4.4061202206802365e-05
1.171235028630597e-06,3.841383747010066e-06,9.801422468363191e-07,4.42745420996808e-05
1.1551658290720723e-06,3.884688549366302e-06,9.783491511912858e-07,4.4444456329163675e-05
1.1391291491944538e-06,3.9286104488003205e-06,9.765807711498407e-07,4.457154668749026e-05
1.1232047701661938e-06,3.973164223556191e-06,9.748269922157304e-07,4.465660128044258e-05
1.1074613931395788e-06,4.018327337768693e-06,9.730925197452765e-07,4.470043436587456e-05
1.091958792526827e-06,4.064061888805388e-06,9.713970426575466e-07,4.4703760663237377e-05
1.0767480403687435e-06,4.110336807195713e-06,9.6976837873474e-07,4.466716982124732e-05
1.0618699637526512e-06,4.157128205818369e-06,9.682335625784194e-07,4.4591158355775955e-05
1.0473554602990765e-06,4.2044106266027e-06,9.668134847847822e-07,4.4476160123255664e-05
1.033227369342294e-06,4.252158758503732e-06,9.65523572674032e-07,4.4322565984054986e-05
1.019501244724665e-06,4.300364185531069e-06,9.643779380469358e-07,4.413075761616524e-05
1.006184554782053e-06,4.34905118924089e-06,9.633920905003428e-07,4.390121299296388e-05
9.93275947592026e-07,4.398269707719267e-06,9.625819560330295e-07,4.363467030409662e-05
9.807661673462416e-07,4.448062013705093e-06,9.619607006656131e-07,4.333219634794575e-05
9.68640335016123e-07,4.49842550837897e-06,9.615349315487782e-07,4.299507548524439e-05
9.568820528136277e-07,4.549301579014588e-06,9.613016407006729e-07,4.262462955533597e-05
9.454805249332542e-07,4.600592067807212e-06,9.612484820296302e-07,4.222213525714502e-05
9.344368642363243e-07,4.652176505387053e-06,9.613565281007388e-07,4.1788954314755515e-05
9.237632150936594e-07,4.703921261031983e-06,9.616014996787797e-07,4.132684696156603e-05
9.134760660212824e-07,4.755693400673036e-06,9.619546144042568e-07,4.083823508211963e-05
9.03594195572175e-07,4.807375885197167e-06,9.623862040000195e-07,4.0326201228401136e-05
8.941470481504825e-07,4.858869069701911e-06,9.62869266186689e-07,3.9794283849578294e-05
8.851853610707115e-07,4.910079477832765e-06,9.63379290807243e-07,3.9246255627712794e-05
8.767825342199836e-07,4.960910144842989e-06,9.63891351656093e-07,3.868594706874473e-05
8.690239675517732e-07,5.011263617743716e-06,9.64378595468864e-07,3.811709508259839e-05
8.61990347351514e-07,5.061056172090863e-06,9.648146781521982e-07,3.7543229374171366e-05
8.557444807021713e-07,5.110222441593288e-06,9.651762094187941e-07,3.696761477430821e-05
8.503271065196488e-07,5.1586948262133624e-06,9.654409634280472e-07,3.6393234488950015e-05
8.457600323241494e-07,5.206389334485129e-06,9.655844591305356e-07,3.582279135538109e-05
8.420524439760493e-07,5.25323865614518e-06,9.655785241815794e-07,3.5258696764498576e-05
8.392069840960835e-07,5.299255356515184e-06,9.653924070156822e-07,3.470301610191105e-05
8.372233019003967e-07,5.3445772839488195e-06,9.64997685909303e-07,3.415739482335358e-05
8.360968404273885e-07,5.389465810944607e-06,9.64376832866271e-07,3.362303948666008e-05
8.358140581893205e-07,5.4342516330096934e-06,9.635281047550505e-07,3.3100788505932265e-05
8.363504402559227e-07,5.479250721265796e-06,9.624603690686484e-07,3.259123854289171e-05
8.37672996966917e-07,5.524693960464138e-06,9.611844315916756e-07,3.2094882521600416e-05
8.397432293985351e-07,5.5707023853738096e-06,9.59710369152213e-07,3.161222098690038e-05
8.425198460655129e-07,5.617304197090932e-06,9.580493314811813e-07,3.1143817493969894e-05
8.459601533280899e-07,5.6644659183583025e-06,9.56215028676906e-07,3.069031018410515e-05
8.500167957448727e-07,5.712114808168158e-06,9.542250305660292e-07,3.0252396971351147e-05
8.546329667071084e-07,5.760145241339295e-06,9.521007044755085e-07,2.9830782939499902e-05
8.597421299770145e-07,5.808414629634345e-06,9.498626379076048e-07,2.9426106305795776e-05
8.652715468458599e-07,5.856741977388957e-06,9.475246095778578e-07,2.9038893207746582e-05
8.711455946972738e-07,5.904917029390849e-06,9.450927512087156e-07,2.8669535358655928e-05
8.772877756935646e-07,5.952716533722729e-06,9.42569544689395e-07,2.831823746598021e-05
8.836212651132754e-07,5.999924138449425e-06,9.39956330152942e-07,2.7984949828432586e-05
8.900678297666821e-07,6e-07,9.372514514992399e-07,2.766934755741872e-05
8.965476387559095e-07,6e-07,9.344477031043188e-07,2.737085528979485e-05
9.029836712895956e-07,6e-07,9.315330259132786e-07,2.708868158586923e-05
9.093109874633431e-07,6e-07,9.284933130228196e-07,2.6821856308459758e-05
9.15485153774424e-07,6e-07,9.253149719716495e-07,2.656928303986653e-05
9.214821850738328e-07,6e-07,9.219878964981159e-07,2.6329803199549373e-05
9.272892903340427e-07,6e-07,9.185104626347081e-07,2.610223853255975e-05
9.328935539295921e-07,6e-07,9.148948844623827e-07,2.5885397087783984e-05
9.382750311798008e-07,6e-07,9.111679401865192e-07,2.5678059180286265e-05
9.434058021084058e-07,6e-07,9.073661987588994e-07,2.5478952281283927e-05
9.482532406569418e-07,6e-07,9.035299423931463e-07,2.5286755146845545e-05
9.527835168661665e-07,6e-07,8.996973626907583e-07,2.51001758013344e-05
9.569625074632666e-07,6e-07,8.958994993793806e-07,2.491803703514524e-05
9.607553509759459e-07,6e-07,8.92158406206838e-07,2.47392691875875e-05
9.64126541663933e-07,6e-07,8.884885990977997e-07,2.4562836592359962e-05
9.670413514218442e-07,6e-07,8.848997880218376e-07,2.4387703439307348e-05
9.694692883226153e-07,6e-07,8.813989884905528e-07,2.4212875126032426e-05
9.71388505798998e-07,6e-07,8.779898447117754e-07,2.4037458073022426e-05
9.72789334067069e-07,6e-07,8.746713221341601e-07,2.386068302284352e-05
9.73676734835625e-07,6e-07,8.714415768846722e-07,2.3681890206276684e-05
9.740703129115587e-07,6e-07,8.683060105173712e-07,2.350051409114902e-05
9.73999421998033e-07,6e-07,8.652804642982227e-07,2.3316148108883466e-05
9.734957323755946e-07,6e-07,8.62385297248135e-07,2.312871504745705e-05
9.725901068488995e-07,6e-07,8.596382781238669e-07,2.2938595662021145e-05
9.7131577400083e-07,6e-07,8.570547186840723e-07,2.2746580887154708e-05
9.697110914828476e-07,6e-07,8.546518252210834e-07,2.255370606495321e-05
9.678162260625789e-07,6e-07,8.524513369505974e-07,2.236107592192249e-05
9.65666531561131e-07,6e-07,8.504809807675084e-07,2.2169780628074826e-05
9.63288283216162e-07,6e-07,8.487749827267886e-07,2.198098752545718e-05
9.606989560441776e-07,6e-07,8.473702716366508e-07,2.179610288722069e-05
9.579104598057787e-07,6e-07,8.462984957157836e-07,2.161680925644079e-05
9.549330263312245e-07,6e-07,8.455792545054156e-07,2.144496346429567e-05
9.517793654196178e-07,6e-07,8.452207077986027e-07,2.1282445389826485e-05
9.484691855842613e-07,6e-07,8.452283896576044e-07,2.1131008871608392e-05
9.450327113453543e-07,6e-07,8.456132578564399e-07,2.099216223681945e-05
9.41510359172402e-07,6e-07,8.463902784711402e-07,2.086708893152796e-05
9.379471686089407e-07,6e-07,8.475717587742156e-07,2.07566036053867e-05
9.343857118770712e-07,6e-07,8.49162721513243e-07,2.066113350308069e-05
9.308612853597065e-07,6e-07,8.511581740330794e-07,2.0580718603744333e-05
9.273988401775377e-07,5.9995075021109006e-06,8.535428724816956e-07,2.0515033834240628e-05
9.240116824802793e-07,5.9245938313214365e-06,8.562969170681134e-07,2.0463431680998043e-05
9.207034334942657e-07,5.845589784470745e-06,8.594042120435787e-07,2.0424994380623866e-05
9.174729293370384e-07,5.7627399011078e-06,8.628568667428324e-07,2.039858228869689e-05
9.14318857419701e-07,5.676398223282007e-06,8.666544384564489e-07,2.038287933646351e-05
9.112416827212972e-07,5.587001195081679e-06,8.708007801452075e-07,2.0376461416212824e-05
9.082453920172018e-07,5.49501737300262e-06,8.752993848969572e-07,2.037789993584529e-05
9.053394926720079e-07,5.4009117423429914e-06,8.80148132523443e-07,2.0385879255679213e-05
9.025364433692721e-07,5.305145762098638e-06,8.853362732615757e-07,2.039930455328075e-05
8.998461149357491e-07,5.208188558793937e-06,8.908482626572659e-07,2.041737750771992e-05
8.972759132086893e-07,5.110510300744889e-06,8.966768326018841e-07,2.043960623996274e-05
8.948370329434297e-07,5.012566344101516e-06,9.028380302007202e-07,2.0465733082583686e-05
8.92546870063483e-07,4.91479095091798e-06,9.093768545063955e-07,2.0495611261729746e-05
8.90423241601741e-07,4.8175945656994806e-06,9.163626334251929e-07,2.0529081370852567e-05
8.884777101195891e-07,4.721352439866086e-06,9.238809569086548e-07,2.0565877063201885e-05
8.867136972566994e-07,4.626394093146583e-06,9.320238223399084e-07,2.060559134286612e-05
8.85127046307108e-07,4.533004984908242e-06,9.408768623815695e-07,2.0647726275366586e-05
8.837067987321398e-07,4.441433613122443e-06,9.505086892388642e-07,2.0691763768296647e-05
8.82437316112882e-07,4.351895577990251e-06,9.609691207573343e-07,2.0737170970509453e-05
8.813021300776899e-07,4.264571623089305e-06,9.72293874816021e-07,2.0783353194018687e-05
8.802885378530294e-07,4.179602312346914e-06,9.845077485400447e-07,2.082961072725945e-05
8.793915980164831e-07,4.097088695978909e-06,9.976241848494828e-07,2.0875121689675256e-05
8.786141782960533e-07,4.017101238846618e-06,1.0116431718009838e-06,2.0918971629690288e-05
8.779605384251246e-07,3.939688808578634e-06,1.0265471577526156e-06,2.096022850847663e-05
8.774280870271101e-07,3.8648808772505185e-06,1.0422963762187002e-06,2.099800600144317e-05
8.770048931127949e-07,3.7926874553162737e-06,1.058828491030505e-06,2.1031479018805523e-05
8.766728481107797e-07,3.723107277140298e-06,1.0760635298312213e-06,2.1059879130711533e-05
8.76410040984531e-07,3.6561402043272865e-06,1.093911044941426e-06,2.1082508566987092e-05
8.761899580611435e-07,3.5917874062703347e-06,1.1122782050585418e-06,2.109879506812382e-05
8.759804022366366e-07,3.5300376661490013e-06,1.131076750947978e-06,2.110836838734528e-05
8.757439021740997e-07,3.4708577097850144e-06,1.1502249752854836e-06,2.1111079643568072e-05
8.754392874971987e-07,3.4141988476913e-06,1.169644755878131e-06,2.1106915072240208e-05
8.750243215989481e-07,3.360012816270748e-06,1.189257461608704e-06,2.109587215215594e-05
8.744603647302471e-07,3.3082652482695643e-06,1.2089808689989272e-06,2.1077918112455085e-05
8.737195055562466e-07,3.258945687229245e-06,1.228728212423479e-06,2.1053048097458084e-05
8.72790392146171e-07,3.212079887577524e-06,1.2484128742337446e-06,2.102134112407505e-05
8.71676590586381e-07,3.167744095641841e-06,1.2679584581002528e-06,2.098295018936969e-05
8.703884121551191e-07,3.1260676227984337e-06,1.2873058321075295e-06,2.0938050242854705e-05
8.689388140329315e-07,3.0872087203647274e-06,1.306410444958e-06,2.0886809030489706e-05
8.673481079518906e-07,3.0513137433398287e-06,1.3252335928913877e-06,2.082942415257425e-05
8.656477616001313e-07,3.0184963243084616e-06,1.3437371859134779e-06,2.076614972479804e-05
8.638756472080146e-07,2.988854973192053e-06,1.361886127139809e-06,2.069724705721469e-05
8.62068485619339e-07,2.9625051147907206e-06,1.3796513036406135e-06,2.062295242048493e-05
8.602607159076721e-07,2.939601378693513e-06,1.397005250317837e-06,2.05435273286593e-05
8.584906688217806e-07,2.920351980785912e-06,1.4139146571496303e-06,2.045935787769964e-05
8.568049773292874e-07,2.9050265503729538e-06,1.4303383758657791e-06,2.037111515678223e-05
8.552532222884333e-07,2.893944136046057e-06,1.4462310551009794e-06,2.027993314147936e-05
8.538783610657984e-07,2.8874317244349188e-06,1.4615485445141884e-06,2.018742796118841e-05
8.527139850219867e-07,2.8857679849093084e-06,1.4762520347492701e-06,2.0095509521522186e-05
8.517887519436052e-07,2.8891498785847766e-06,1.4903066578892906e-06,2.0006134852766948e-05
8.511315497835399e-07,2.8977047522978067e-06,1.5036747962848086e-06,1.992111596422213e-05
8.507746649162876e-07,2.9115239215201166e-06,1.5163125118582417e-06,1.9841988043901905e-05
8.507556846043006e-07,2.930676151750145e-06,1.5281743454007652e-06,1.976992560321197e-05
8.511186811462431e-07,2.95519026537217e-06,1.5392197774191738e-06,1.9705708647119018e-05
8.519123728964755e-07,2.985029813601177e-06,1.549412358485151e-06,1.964973489860084e-05
8.53182979020792e-07,3.0200837414668586e-06,1.5587130622471244e-06,1.960205288928816e-05
8.549654613370619e-07,3.0601769697656887e-06,1.5670763306093406e-06,1.9562398474195528e-05
8.572798664820009e-07,3.1050898381437537e-06,1.5744528300185974e-06,1.953025572460649e-05
8.601343328728872e-07,3.15457489950998e-06,1.580795623678726e-06,1.9504959892863737e-05
8.635308350837821e-07,3.2083707463755092e-06,1.586063730454738e-06,1.948581103329552e-05
8.674695988109158e-07,3.2662173121550005e-06,1.590220690430669e-06,1.947216218095485e-05
8.719504293789124e-07,3.3278664337983256e-06,1.5932314523241616e-06,1.9463483756801784e-05
8.769720759353106e-07,3.3930765519474363e-06,1.5950623980868568e-06,1.9459419277211262e-05
8.825305170707409e-07,3.461590202653835e-06,1.595687166503099e-06,1.945983228432806e-05
8.886143143125545e-07,3.533110149754465e-06,1.5950961110586108e-06,1.946482695772812e-05
8.951985509760885e-07,3.607306562653598e-06,1.5933009258703898e-06,1.9474736971462243e-05
9.022435426761364e-07,3.683869872078074e-06,1.5903286419633008e-06,1.9490095322144212e-05
9.097014039264536e-07,3.7625760654098183e-06,1.5862121962919447e-06,1.951157441142156e-05
9.175270852550455e-07,3.843321442369538e-06,1.5809873843206655e-06,1.953987710769533e-05
9.256855309514349e-07,3.9261155502617165e-06,1.5746934007083581e-06,1.957560131871048e-05
9.341483700364423e-07,4.011038056562077e-06,1.567369948045373e-06,1.961912141871161e-05
9.428850987213281e-07,4.098168739240832e-06,1.5590529270530576e-06,1.9670531314137773e-05
9.518586505330195e-07,4.1875183758492534e-06,1.5497736144733353e-06,1.9729694729934907e-05
9.610248206491114e-07,4.279001013441683e-06,1.5395614741768938e-06,1.9796363593424325e-05
9.703307620447365e-07,4.372456844884582e-06,1.5284485536001128e-06,1.9870244766228025e-05
9.797148085496423e-07,4.46769013743336e-06,1.516472446176775e-06,1.995098794534204e-05
9.89109051260091e-07,4.56448995974999e-06,1.5036753714260447e-06,2.0038176627053366e-05
9.984416406855486e-07,4.662635163976911e-06,1.4901005327024418e-06,2.0131368575589304e-05
1.0076391229327691e-06,4.7618948302184246e-06,1.4757887091051675e-06,2.0230149802829142e-05
1.016629700307341e-06,4.862026334592217e-06,1.4607770056063714e-06,2.0334137143025088e-05
1.0253446375877189e-06,4.9627724355088375e-06,1.445100286648699e-06,2.0442922061777725e-05
1.033717658068688e-06,5.063862042384618e-06,1.4287931213976209e-06,2.0556008982760896e-05
1.0416848418955714e-06,5.165015038815675e-06,1.411888922066002e-06,2.067276459996287e-05
1.0491859651963798e-06,5.265945321078488e-06,1.3944177947201401e-06,2.079237143332765e-05
1.0561688315808792e-06,5.366360084849193e-06,1.376406754744396e-06,2.091384212979386e-05
1.0625962850083523e-06,5.465959581343596e-06,1.3578812325191715e-06,2.1036140410361747e-05
1.0684491370902184e-06,5.564433615019693e-06,1.338866626092054e-06,2.115832254161533e-05
1.0737203135457265e-06,5.66144958458967e-06,1.3193914288465436e-06,2.1279568100690894e-05
1.078407290873528e-06,5.756649747852277e-06,1.2994899674671653e-06,2.1399096346772045e-05
1.0825103109163858e-06,5.8496783008852914e-06,1.2792013338250641e-06,2.151607187852605e-05
1.086033450324528e-06,5.940227404867604e-06,1.2585660927793249e-06,2.1629564951562744e-05
1.0889856849397577e-06,6e-07,1.2376239317433027e-06,2.1738548797074e-05
1.091384145900288e-06,6e-07,1.2164131328701776e-06,2.1841906433832493e-05
1.0932592659492126e-06,6e-07,1.1949719872866198e-06,2.1938480462166823e-05
1.0946565650187194e-06,6e-07,1.1733407853918034e-06,2.2027241400462368e-05
1.0956308370508807e-06,6e-07,1.1515610087462321e-06,2.2107567553936604e-05
1.0962357917098197e-06,6e-07,1.1296714046266727e-06,2.217944731792893e-05
1.0965162697361591e-06,6e-07,1.1077048773626972e-06,2.2243418329843697e-05
1.0965064055035802e-06,6e-07,1.0856882225354928e-06,2.2300319850460824e-05
1.09623166061801e-06,6e-07,1.0636442518219995e-06,2.2351044626849623e-05
1.0957119003794296e-06,6e-07,1.0415973846098749e-06,2.2396372183860534e-05
1.0949648629034391e-06,6e-07,1.0195814739017612e-06,2.243695464286318e-05
1.0940093922304156e-06,6e-07,9.976433227552601e-07,2.2473474936330342e-05
1.092867573580072e-06,6e-07,9.758397838898236e-07,2.2506805112136808e-05
1.0915665123543428e-06,6e-07,9.54233487610636e-07,2.2538008598125165e-05
1.0901397935682282e-06,6e-07,9.328884108603756e-07,2.2568239578034228e-05
1.0886263922176373e-06,6e-07,9.11864105888768e-07,2.2598632467717968e-05
1.0870662200923952e-06,6e-07,8.9121183147059e-07,2.2630201519407784e-05
1.0854940836782528e-06,6e-07,8.709740748440521e-07,2.2663771822637875e-05
1.083934365637919e-06,6e-07,8.51185008229537e-07,2.26999667204834e-05
1.0823982317655425e-06,6e-07,8.318726506208287e-07,2.2739238090464262e-05
1.080883969454403e-06,6e-07,8.130647038038792e-07,2.2781902538452646e-05
1.0793807852632492e-06,6e-07,7.947932361857909e-07,2.2828161283763308e-05
1.0778755229791148e-06,6e-07,7.770936726251588e-07,2.287809660304581e-05
1.0763578426399208e-06,6e-07,7.600020530137507e-07,2.2931641195789333e-05
1.0748188330830212e-06,6e-07,7.435538508484438e-07,2.298853208213469e-05
1.0732451327808451e-06,6e-07,7.277850193313437e-07,2.304827110737308e-05
1.071615421644201e-06,6e-07,7.127378575187625e-07,2.311011709799577e-05
1.0699013844298182e-06,6e-07,6.984675466518525e-07,2.3173127174329363e-05
1.0680696036239428e-06,6e-07,6.850402650634151e-07,2.323623126947836e-05
1.066082665181849e-06,6e-07,6.725237284589375e-07,2.32983101805651e-05
1.0639017912289544e-06,6e-07,6.609778434200444e-07,2.335826847418285e-05
1.061490861714481e-06,6e-07,6.504482167317323e-07,2.3415095426363106e-05
1.058817702301707e-06,6e-07,6.409623286204236e-07,2.3467891730533247e-05
1.0558521888071476e-06,6e-07,6.325292875298839e-07,2.351586081190833e-05
1.0525659774812829e-06,6e-07,6.251428529175364e-07,2.355830322099958e-05
1.0489360809734628e-06,6e-07,6.187859534268248e-07,2.359463121068005e-05
1.0449472773943142e-06,6e-07,6.13435056318677e-07,2.3624358921974986e-05
1.0405889495128938e-06,6e-07,6.090623465446023e-07,2.3647046518404613e-05
1.0358519536138924e-06,6e-07,6.056343730855851e-07,2.366225666729787e-05
1.0307322069460031e-06,6e-07,6.031096935243693e-07,2.3669553718333998e-05
1.0252369738017208e-06,6e-07,6.014390995917799e-07,2.366851279294613e-05
1.0193859928903506e-06,6e-07,6.005689661619289e-07,2.3658742536287258e-05
1.0132063646226938e-06,6e-07,6.00446665660756e-07,2.3639933174990492e-05
1.0067275668337691e-06,6e-07,6.01024600538389e-07,2.361187721214862e-05
9.999822043928613e-07,6e-07,6.022590968042949e-07,2.3574431528642482e-05
9.93008824404496e-07,6e-07,6.041067917560897e-07,2.3527483423181765e-05
9.85850107318765e-07,6e-07,6.06523889866686e-07,2.3470963987636112e-05
9.78548339409835e-07,6e-07,6.094684216476821e-07,2.340487918514024e-05
9.711441985242833e-07,6e-07,6.129018263343265e-07,2.332934521503252e-05
9.636775623792117e-07,5.9590435393380954e-06,6.167882357814497e-07,2.324460889275507e-05
9.56186456423131e-07,5.871914452779264e-06,6.210942678403111e-07,2.315100125392779e-05
9.487082627285387e-07,5.78330905711307e-06,6.257919103467961e-07,2.3048832684324802e-05
9.412859750091392e-07,5.693495155750172e-06,6.308613609768421e-07,2.2938327620013905e-05
9.339712623321694e-07,5.602774595578702e-06,6.362906824193949e-07,2.2819685290051776e-05
9.268185023625502e-07,5.511455427176642e-06,6.420747320524377e-07,2.269323714346669e-05
9.198769388680172e-07,5.4198175112736965e-06,6.482150030768472e-07,2.255958357138712e-05
9.131899709617129e-07,5.328098683384107e-06,6.547177249757412e-07,2.241961910505789e-05
9.067999302766744e-07,5.236511227198543e-06,6.615885812287241e-07,2.227444094666889e-05
9.007503798842878e-07,5.145277809706452e-06,6.688269903888829e-07,2.2125188173660897e-05
8.950819375871117e-07,5.0546634513037364e-06,6.764234047139706e-07,2.1972900770887166e-05
8.89825345930578e-07,4.964980249894078e-06,6.843596634130039e-07,2.1818480659495096e-05
8.849991305377759e-07,4.876559303345886e-06,6.926114930939567e-07,2.1662702243349758e-05
8.806128708263409e-07,4.789714632679004e-06,7.011512792225909e-07,2.1506189393784625e-05
8.766696487028312e-07,4.704734757322691e-06,7.09948457989607e-07,2.134938417435635e-05
8.731652672204638e-07,4.621906259982725e-06,7.189688631660689e-07,2.119253617873144e-05
8.700895694695376e-07,4.541538193138275e-06,7.28176457821605e-07,2.103571043528908e-05
8.674308073632227e-07,4.4639602515787885e-06,7.375368934891242e-07,2.0878813282942675e-05
8.651769520339351e-07,4.389494588202909e-06,7.47019974086556e-07,2.072162935239204e-05
8.633146636192404e-07,4.3184213623403965e-06,7.566006034962969e-07,2.056386646047476e-05
8.61831763158016e-07,4.250959942852894e-06,7.662599388746019e-07,2.040521105506337e-05
8.607214239037995e-07,4.187271349872012e-06,7.759860758085438e-07,2.0245406805002472e-05
8.59982220840456e-07,4.127474453296616e-06,7.857707628102388e-07,2.008434682457912e-05
8.596128157754167e-07,4.071668178850985e-06,7.95602866427157e-07,1.992214254417972e-05
8.596050283492359e-07,4.019950510292524e-06,8.054662279586803e-07,1.9759139352759985e-05
8.599408623452278e-07,3.97242509965817e-06,8.153470675987682e-07,1.959585331190109e-05
8.605962812821989e-07,3.929196187022211e-06,8.252425241152968e-07,1.94328364551099e-05
8.615471919452206e-07,3.890356171355371e-06,8.351572196878769e-07,1.927053646989101e-05
8.627704479288206e-07,3.855965688295643e-06,8.450915824015119e-07,1.9109225454919056e-05
8.64240174734774e-07,3.8260379893897045e-06,8.550370259251649e-07,1.8949021386730397e-05
8.659251830677826e-07,3.8005511054966727e-06,8.649823058571474e-07,1.8789948983615105e-05
8.677895898424976e-07,3.779491000449082e-06,8.749248856997126e-07,1.8631973591743404e-05
8.697943646936249e-07,3.7629013649933883e-06,8.848807552510956e-07,1.847500767566191e-05
8.718976096480638e-07,3.7509061625600227e-06,8.948862653365005e-07,1.8318913082366054e-05
8.740537596677587e-07,3.743678880391491e-06,9.049886457554024e-07,1.816350544208778e-05
8.762136412458056e-07,3.7413706931616988e-06,9.152308330063636e-07,1.8008570981353203e-05
8.783274467222334e-07,3.7440503956210962e-06,9.25641182952392e-07,1.7853894150977147e-05
8.803502018521751e-07,3.7516877677414285e-06,9.362343530374695e-07,1.769928149584398e-05
8.822457961440948e-07,3.7641666797133193e-06,9.470190390969948e-07,1.7544584280178242e-05
8.839870492116146e-07,3.781313199921573e-06,9.580020939880462e-07,1.7389715271646307e-05
8.855537826806687e-07,3.8029276244931535e-06,9.691864740338009e-07,1.7234632235194456e-05
8.869303807984421e-07,3.828799595370694e-06,9.805687081443242e-07,1.7079291671667508e-05
8.881025052639605e-07,3.8586990450136735e-06,9.92139299629823e-07,1.6923607980398208e-05
8.890552749011818e-07,3.892360511983803e-06,1.003885762909245e-06,1.6767443090307708e-05
8.897741254563013e-07,3.929486730128245e-06,1.0157953263279649e-06,1.661065077030063e-05
8.902454364747204e-07,3.969775884074086e-06,1.0278535617960872e-06,1.645316478213457e-05
8.904565965380266e-07,4.012945888125006e-06,1.0400400401468605e-06,1.6295061997089858e-05
8.903970762547676e-07,4.058734325208201e-06,1.052325605693579e-06,1.6136578121246533e-05
8.900594426886214e-07,4.106881633891297e-06,1.0646734298121657e-06,1.5978134970650242e-05
8.894390638244339e-07,4.157113123130519e-06,1.0770421444602845e-06,1.582042007655013e-05
8.885322116320887e-07,4.2091268295027326e-06,1.089387010369651e-06,1.5664499955120263e-05
8.873339285471722e-07,4.262590487517437e-06,1.1016569720252466e-06,1.5511908982555913e-05
8.858374928477451e-07,4.317147681536368e-06,1.1137924242608507e-06,1.536464387957383e-05
8.840348464146792e-07,4.372427683135446e-06,1.1257318875014598e-06,1.5225046246855967e-05
8.819195409587133e-07,4.428052976983132e-06,1.1374260214595854e-06,1.5095617993432655e-05
8.794950426098833e-07,4.4836434119342805e-06,1.1488444979858022e-06,1.4978808972944556e-05
8.767834741763382e-07,4.538819953901805e-06,1.1599672972109304e-06,1.4876804108784454e-05
8.738265731045283e-07,4.593206305368624e-06,1.1707712149842909e-06,1.4791366329443613e-05
8.706783293809853e-07,4.646426806551731e-06,1.181225642828816e-06,1.4723795641593811e-05
8.67395548342033e-07,4.698118364401122e-06,1.1912971676446562e-06,1.4674983234402585e-05
8.64031015874664e-07,4.747971256837297e-06,1.2009544675514878e-06,1.464546769326836e-05
8.606290993607418e-07,4.795771958398459e-06,1.2101695100227534e-06,1.4635462698045307e-05
8.572242480029948e-07,4.84140845171458e-06,1.2189153947125697e-06,1.4644900672657135e-05
8.538448339639458e-07,4.8848347698699296e-06,1.2271627646257804e-06,1.467349530477848e-05
8.505196024853401e-07,4.926022718177703e-06,1.2348787618471091e-06,1.4720786322663105e-05
8.472817261032895e-07,4.9649341135627815e-06,1.2420298580146291e-06,1.4786185594640836e-05
8.44170558882003e-07,5.0015261854563906e-06,1.248583872397462e-06,1.4869095095576803e-05
8.412313703806699e-07,5.035765172973702e-06,1.2545091310508643e-06,1.4969116220578995e-05
8.385121490965879e-07,5.0676190686415145e-06,1.2597758860797551e-06,1.5086245544174021e-05
8.360597173131122e-07,5.097036555193644e-06,1.264360083781554e-06,1.5220912914397406e-05
8.339178913721425e-07,5.123935666182463e-06,1.2682423891231354e-06,1.537384614772831e-05
8.321282201936851e-07,5.148208793696744e-06,1.2714026506102331e-06,1.554585950943092e-05
8.307316656073397e-07,5.169735191126539e-06,1.2738165669761379e-06,1.573763831786039e-05
8.297680316384066e-07,5.188391574152135e-06,1.2754560637747252e-06,1.5949571706890226e-05
8.292719101752166e-07,5.204060600755422e-06,1.2762912815574629e-06,1.6181730404538507e-05
8.292696642241262e-07,5.216645706351994e-06,1.2762937330745336e-06,1.6433984657938166e-05
8.297828102297744e-07,5.226095828491265e-06,1.2754387798514844e-06,1.6706084099847714e-05
8.308341887312824e-07,5.232427504861405e-06,1.2737059260586436e-06,1.699762224551622e-05
8.324492007457831e-07,5.235723263762091e-06,1.2710796595493322e-06,1.7307972147254273e-05
8.346526089008789e-07,5.236099002802377e-06,1.2675506998406814e-06,1.7636230887701348e-05
8.374654014514747e-07,5.233664660233137e-06,1.2631140610611756e-06,1.798116303730837e-05
8.409010806391812e-07,5.2285167167515165e-06,1.257765906329285e-06,1.834117812079493e-05
8.449604047425902e-07,5.2207708266969335e-06,1.2515029960772594e-06,1.871438157427124e-05
8.496277862156819e-07,5.2106037709623874e-06,1.2443237710034608e-06,1.909867744514209e-05
8.548720318239453e-07,5.19827459726092e-06,1.2362311374964008e-06,1.9491863040034187e-05
8.606513599748466e-07,5.1841219998570905e-06,1.2272380565115237e-06,1.9891675767965264e-05
8.669213673479225e-07,5.168548505986078e-06,1.2173702575028186e-06,2.0295786298302773e-05
8.736423770440596e-07,5.151996751599298e-06,1.206662158565597e-06,2.070176488101932e-05
8.807803892112673e-07,5.134920023700251e-06,1.195152402031696e-06,2.110707014790404e-05
8.883010880684385e-07,5.117754082273844e-06,1.1828826046462115e-06,2.150908010993093e-05
8.961645915203435e-07,5.100893575504619e-06,1.1698957125957383e-06,2.19051339483162e-05
9.043268702707554e-07,5.084669033194878e-06,1.1562337116057351e-06,2.2292564051348773e-05
9.127464786621531e-07,5.069332480585956e-06,1.1419364615450295e-06,2.266872522989313e-05
9.213907950578827e-07,5.0550675969620125e-06,1.127040990902158e-06,2.3031023594088533e-05
9.302354461193113e-07,5.042016937872224e-06,1.111581480346933e-06,2.337695897982059e-05
9.392569215161072e-07,5.030303434397069e-06,1.0955915090875702e-06,2.370420153448717e-05
9.484255915262982e-07,5.020039676098943e-06,1.0791086401758957e-06,2.4010693743486403e-05
9.577054088004278e-07,5.011331401904237e-06,1.0621779656792971e-06,2.429473181838347e-05
9.670592609305034e-07,5.004279749319846e-06,1.0448508338225092e-06,2.4554980904294932e-05
9.764529079825e-07,4.9989850995862935e-06,1.027180072339483e-06,2.479043651644452e-05
9.858531247751274e-07,4.995551497459311e-06,1.0092157511994956e-06,2.5000391166297847e-05
9.95222978476532e-07,4.9940852347965885e-06,9.910031292901458e-07,2.518443408365076e-05
1.0045183965139174e-06,4.9946825247829764e-06,9.725822627644322e-07,2.534245333447865e-05
1.0136869162443547e-06,4.997406785181816e-06,9.53988516505325e-07,2.547460338022925e-05
1.0226686207584677e-06,5.002262095893705e-06,9.352534980961115e-07,2.55812315484994e-05
1.0313990718074495e-06,5.009174140186956e-06,9.16407189195804e-07,2.566278738620073e-05
1.0398131362320557e-06,5.017986847868495e-06,8.97482244022221e-07,2.571974976790621e-05
1.047849368625382e-06,5.02847391022601e-06,8.785176559922718e-07,2.5752575761181987e-05
1.0554547845237228e-06,5.04036172591329e-06,8.595578909580433e-07,2.5761668089475e-05
1.0625888923386691e-06,5.053362274586709e-06,8.406484779214119e-07,2.574739840563565e-05
1.0692259254061813e-06,5.067208143158443e-06,8.218320426454938e-07,2.5710211964365106e-05
1.075353579100233e-06,5.081672596314048e-06,8.031470787810332e-07,2.5650772388659494e-05
1.0809682313317101e-06,5.096563121517498e-06,7.846296766566169e-07,2.557009157060344e-05
1.0860720364633421e-06,5.111695353519989e-06,7.663172842603519e-07,2.546964834870143e-05
1.09067482459971e-06,5.126866261138878e-06,7.482507256744226e-07,2.535149883885293e-05
1.094793968894273e-06,5.141843250480388e-06,7.304710131369696e-07,2.52182951418803e-05
1.0984479373422393e-06,5.156370717209228e-06,7.130145265636543e-07,2.50731414372707e-05
1.1016521684707277e-06,5.170181059485265e-06,6.959117991591335e-07,2.491934011590842e-05
1.1044243555842864e-06,5.183001605394957e-06,6.791888483748332e-07,2.476014256620372e-05
1.1067914957768619e-06,5.194560478303119e-06,6.628673893045852e-07,2.459857977353425e-05
1.1087894329087472e-06,5.2045937258146315e-06,6.46963760301389e-07,2.443736762369078e-05
1.1104585939614851e-06,5.2128498201218814e-06,6.314891295052406e-07,2.4278842666811414e-05
1.1118434174395808e-06,5.219090397346577e-06,6.164514993670871e-07,2.4124936107162802e-05
1.1129931332914765e-06,5.223089254643988e-06,6.018575791642434e-07,2.39772583889874e-05
1.1139575189316428e-06,5.224627075893132e-06,5.877137419673208e-07,2.383729501164021e-05
1.1147790775206207e-06,5.2234838692017445e-06,5.74027293451546e-07,2.370655087917431e-05
1.115488426997645e-06,5.2194375548610115e-06,5.608075857681803e-07,2.358650754521218e-05
1.11610542814588e-06,5.212270329567828e-06,5.480641596730854e-07,2.347845995056005e-05
1.1166426206135789e-06,5.201779343623571e-06,5.358028033381318e-07,2.338337061528326e-05
1.1171064566085872e-06,5.18778663246189e-06,5.240237258268189e-07,2.3301846431616958e-05
1.1174952038916074e-06,5.170142179528254e-06,5.127229762257638e-07,2.32343037934964e-05
1.1177971575937698e-06,5.148722152538395e-06,5.018953195892434e-07,2.318121375278777e-05
1.1179920440592754e-06,5.123429885457908e-06,4.915369132000313e-07,2.3143196097346452e-05
1.1180532667019337e-06,5.094200755498823e-06,4.816467183990675e-07,2.3120913363912452e-05
1.1179495294146158e-06,5.0610088306265464e-06,4.7222622986409e-07,2.3114906224338845e-05
1.1176469853160314e-06,5.0238785695681685e-06,4.6327819077678597e-07,2.312546838232485e-05
1.1171107725752323e-06,4.9829021198803086e-06,4.548049154203473e-07,2.3152575037262932e-05
1.116305114842395e-06,4.938247325235386e-06,4.468067862920018e-07,2.319585392491849e-05
1.115193325088807e-06,4.890141320275129e-06,4.392827994594761e-07,2.3254576072213323e-05
1.1137397417257375e-06,4.838838308194253e-06,4.322328939958169e-07,2.332765825098702e-05
1.11191522490538e-06,4.784591550553112e-06,4.256586806804217e-07,2.3413695684540524e-05
1.1097031765813344e-06,4.727638492339768e-06,4.1956252469860745e-07,2.351102647080267e-05
1.1071013347440595e-06,4.668197176309857e-06,4.13947263800811e-07,2.361779283324368e-05
1.1041200362261377e-06,4.6064694458022485e-06,4.088149344879164e-07,2.373197796082799e-05
1.1007801602679143e-06,4.542654491838173e-06,4.041640251694436e-07,2.385143042940765e-05
1.0971107570277494e-06,4.476974471926416e-06,3.9998964346262547e-07,2.397388981413588e-05
1.0931446246487132e-06,4.4096887493456005e-06,3.962867546626776e-07,2.409701818851065e-05
1.0889128821000047e-06,4.341075079559462e-06,3.930507262393151e-07,2.421843889947953e-05
1.08444092288974e-06,4.271398634885537e-06,3.9027436958487184e-07,2.433578491083487e-05
1.0797464202305912e-06,4.200906536744918e-06,3.879468195606109e-07,2.444675448717247e-05
1.0748404873458392e-06,4.1298518524581105e-06,3.860551698297505e-07,2.4549166256981508e-05
1.0697327183505035e-06,4.05852157099356e-06,3.845848316073322e-07,2.4641025704666446e-05
1.064437182895503e-06,3.987252168531424e-06,3.8351792873407775e-07,2.472062080315271e-05
1.0589747579950115e-06,3.91643227429372e-06,3.828325381543905e-07,2.478662077527196e-05
1.0533709642388805e-06,3.846491405398578e-06,3.8250481313701137e-07,2.483812907694127e-05
1.0476535087526259e-06,3.777873079172492e-06,3.825130259083947e-07,2.48746772313076e-05
1.0418512642269785e-06,3.710997965524449e-06,3.8283976686904157e-07,2.4896197806951866e-05
1.0359922403315763e-06,3.6462296569211127e-06,3.8347059199635676e-07,2.490302982783865e-05
1.0301020086606257e-06,3.5838561529702973e-06,3.843916150381636e-07,2.489595358727499e-05
1.0242059108404057e-06,3.5240954756817917e-06,3.8558798763848243e-07,2.487619464390265e-05
1.018331860757898e-06,3.4671264659258582e-06,3.870435026788678e-07,2.484536870327192e-05
1.0125085216650294e-06,3.4131340096195563e-06,3.887421140595482e-07,2.4805396807685042e-05
1.0067611721489158e-06,3.3623450232304014e-06,3.906708146980493e-07,2.4758416536999438e-05
1.0011109308564031e-06,3.3150298824288043e-06,3.9282144411889906e-07,2.470665576642633e-05
9.955770767605686e-07,3.2714671499725087e-06,3.9518966090334647e-07,2.4652227119468493e-05
9.901787735258758e-07,3.2319049549914105e-06,3.977716259302694e-07,2.4596927975757376e-05
9.849347734277736e-07,3.196553172598788e-06,4.005613157819834e-07,2.454218801700045e-05
9.798614597580945e-07,3.1655985589062163e-06,4.03550278477051e-07,2.44891673285629e-05
9.74970538775504e-07,3.1392086766529447e-06,4.067281016013719e-07,2.443890996304233e-05
9.702679927164658e-07,3.117511272612248e-06,4.1008223584740425e-07,2.4392484416950908e-05
9.65754116711885e-07,3.100567605574058e-06,4.135982353028315e-07,2.435107460535689e-05
9.614237656253036e-07,3.0883606891936296e-06,4.1726029498722884e-07,2.431601195885835e-05
9.572677284787618e-07,3.080799281314089e-06,4.210517475949296e-07,2.428876152894545e-05
9.532766015258622e-07,3.07772829725838e-06,4.249560742330175e-07,2.427085613145718e-05
9.494453829140644e-07,3.0789408730685104e-06,4.2895651256734187e-07,2.426378137922358e-05
9.457742083810772e-07,3.0841927984801635e-06,4.330341731991449e-07,2.4268884353917816e-05
9.422639245311552e-07,3.093222343598353e-06,4.3716827077531177e-07,2.4287368808067663e-05
9.38911742208398e-07,3.105771942881116e-06,4.4133771678785656e-07,2.4320345017049938e-05
9.357135277749712e-07,3.121600927732735e-06,4.45521477464318e-07,2.4368900316776847e-05
9.326712552638136e-07,3.140485366887673e-06,4.496993893540036e-07,2.4434212087342504e-05
9.297976109022348e-07,3.1622074084219014e-06,4.538533123641017e-07,2.4517616076382325e-05
9.271173027154859e-07,3.186536298137554e-06,4.579657047558671e-07,2.4620434815377092e-05
9.246695512726813e-07,3.213211332106914e-06,4.6201737327311037e-07,2.474361851268984e-05
9.225070381872543e-07,3.2419373849466007e-06,4.6598808625536005e-07,2.488748881205404e-05
9.206860086151043e-07,3.272389571900711e-06,4.6985858205343427e-07,2.505169996879577e-05
9.192541000035693e-07,3.3042223377878614e-06,4.736119151811819e-07,2.5235330567142817e-05
9.182448885681616e-07,3.3370809050120138e-06,4.772347347923979e-07,2.54370131261146e-05
9.176787097323387e-07,3.370606653676904e-06,4.807165460832218e-07,2.565503010702281e-05
9.17564249930386e-07,3.4044348212975487e-06,4.840464271283898e-07,2.588735483528067e-05
9.179005888295837e-07,3.438193140100174e-06,4.872114139748851e-07,2.613168759448177e-05
9.1868140203603e-07,3.4715039580741568e-06,4.901980589613247e-07,2.63855290268065e-05
9.198977518097201e-07,3.5039877362297003e-06,4.929961498573658e-07,2.664626065929215e-05
9.215371381285664e-07,3.5352701076000398e-06,4.956035076366424e-07,2.691119089442525e-05
9.235826021904841e-07,3.5649952752238815e-06,4.980284038106304e-07,2.7177575243725352e-05
9.260154063027887e-07,3.59284220281855e-06,5.002887723778552e-07,2.7442632161494995e-05
9.288195960248022e-07,3.618536415967368e-06,5.024121701209539e-07,2.770356378913761e-05
9.31982122444709e-07,3.6418551263173514e-06,5.044380433065705e-07,2.795759033465143e-05
9.354859142514013e-07,3.6626235922222457e-06,5.064185372230999e-07,2.8201984962533186e-05
9.393028456807936e-07,3.6807008142983423e-06,5.08414801166667e-07,2.84340809405524e-05
9.43394134920232e-07,3.695968433787478e-06,5.104921262397878e-07,2.865126876865689e-05
9.477177352449684e-07,3.7083338974869836e-06,5.127159830038449e-07,2.885103891814519e-05
9.522351251117151e-07,3.7177316568717003e-06,5.151457526343976e-07,2.9031082927058324e-05
9.56910684033462e-07,3.724110531356903e-06,5.178282802486047e-07,2.9189406581419988e-05
9.61707395906851e-07,3.727420281283684e-06,5.20797131262636e-07,2.9324408172500267e-05
9.665858227250378e-07,3.727609052740098e-06,5.240770963722508e-07,2.943491692139776e-05
9.715051865417611e-07,3.724629711268162e-06,5.276889911402172e-07,2.9520209797801912e-05
9.764264872323798e-07,3.7184461324723313e-06,5.316507988981115e-07,2.958000569504949e-05
9.813209763199064e-07,3.7090316682654924e-06,5.359756446465334e-07,2.9614428264496062e-05
9.86177047184584e-07,3.6963642340728723e-06,5.406723595648856e-07,2.962395124855224e-05
9.909950432999306e-07,3.6804314833411102e-06,5.457496405186407e-07,2.9609351181656933e-05
9.957741802599743e-07,3.6612520050676287e-06,5.51217628690465e-07,2.957169082864297e-05
1.0005043679412417e-06,3.638901276791861e-06,5.57089630347566e-07,2.9512344762623457e-05
1.0051667688187063e-06,3.6135219096367913e-06,5.633896739894045e-07,2.94330518086414e-05
1.0097384188267229e-06,3.58530816533401e-06,5.701574924626492e-07,2.933594484064145e-05
1.0141983271575824e-06,3.5544761600230032e-06,5.774437406608688e-07,2.9223473443727546e-05
1.0185347806410549e-06,3.521246498134938e-06,5.853039829170666e-07,2.909819918342104e-05
1.0227510140097186e-06,3.4858542310915766e-06,5.937994708479498e-07,2.8962585303033726e-05
1.0268647589827805e-06,3.448570190365416e-06,6.029963747403622e-07,2.8818896244013673e-05
1.030899635108798e-06,3.409710146023612e-06,6.129539201306868e-07,2.866921700339176e-05
1.0348735930402477e-06,3.369626633137511e-06,6.237111550626565e-07,2.8515551972792516e-05
1.0387935632499632e-06,3.328695080166644e-06,6.35286272643559e-07,2.8359875759766728e-05
1.0426587862537264e-06,3.287307181664878e-06,6.476858039357925e-07,2.8204027431414284e-05
1.04646873648648e-06,3.2458691155481413e-06,6.609125001670641e-07,2.8049588908939703e-05
1.0502295836269458e-06,3.2047891764813294e-06,6.749654569211635e-07,2.789793000096142e-05
1.0539525054212898e-06,3.164449093859128e-06,6.898341127482249e-07,2.7750347200342933e-05
1.0576451937529087e-06,3.1251761715051084e-06,7.054934272488367e-07,2.7608147316358643e-05
1.0613059914696926e-06,3.087237592162268e-06,7.219039939116612e-07,2.747266534980947e-05
1.0649233525107426e-06,3.050855612285628e-06,7.390149095289167e-07,2.7345282926320616e-05
1.0684766238709714e-06,3.016226270893761e-06,7.567697085081113e-07,2.7227473089490802e-05
1.0719374383666756e-06,2.9835336673137488e-06,7.751141487389585e-07,2.712083500763013e-05
1.0752721014076723e-06,2.9529645016488084e-06,7.939974287297356e-07,2.7027103409387706e-05
1.0784438667394598e-06,2.9247233520557607e-06,8.133658979471874e-07,2.694817213212766e-05
1.0814144109230854e-06,2.899035933538736e-06,8.3315914189584e-07,2.6886130640251685e-05
1.0841436543777484e-06,2.8761290601041303e-06,8.533112099725586e-07,2.684324667385741e-05
1.0865889155168388e-06,2.856198010537167e-06,8.737506101601122e-07,2.682189086353981e-05
1.0887062978293337e-06,2.8393891881184237e-06,8.943973977352995e-07,2.6824506779471706e-05
1.0904530610178005e-06,2.8258130389668155e-06,9.151637827169201e-07,2.685365385204108e-05
1.0917880258640506e-06,2.815567140893758e-06,9.359621744678919e-07,2.691192298845375e-05
1.0926738913011609e-06,2.808736849568433e-06,9.567139980387484e-07,2.700156564091429e-05
1.0930872773977593e-06,2.8053704629373543e-06,9.773512256386408e-07,2.712405955156505e-05
1.093033199770401e-06,2.8054545667655478e-06,9.978129979962878e-07,2.72799254052307e-05
1.0925532073692305e-06,2.808907415931187e-06,1.0180449332816e-06,2.746877633432908e-05
1.0917190940021983e-06,2.815587792843936e-06,1.038002769058276e-06,2.7689436610024965e-05
1.090617546175352e-06,2.8253132636943182e-06,1.057653426447824e-06,2.7940086727031396e-05
1.0893438298090731e-06,2.8378808585123836e-06,1.0769676587639905e-06,2.8218430362151453e-05
1.0880092311519631e-06,2.8530786976046006e-06,1.0959106746859691e-06,2.85218496442711e-05
1.0867441764980874e-06,2.8706867386138307e-06,1.1144411468960504e-06,2.8847539278697802e-05
1.0856881831272905e-06,2.8904762628414503e-06,1.1325173547312798e-06,2.919263575692666e-05
1.084976763631574e-06,2.91221197037573e-06,1.150101434477092e-06,2.95543365084268e-05
1.0847308788462947e-06,2.935651661841037e-06,1.16715847205268e-06,2.9929972599802936e-05
1.0850483108589036e-06,2.9605464039661518e-06,1.1836531730099531e-06,3.0317014352234277e-05
1.0860018433306828e-06,2.9866577127670786e-06,1.1995458376008706e-06,3.0713037986149595e-05
1.0876464677861885e-06,3.0137971264755533e-06,1.2147896727279215e-06,3.1115701485249516e-05
1.0900261642781194e-06,3.04186805159581e-06,1.2293326906778784e-06,3.1522743039524075e-05
1.093171599907175e-06,3.070887920866658e-06,1.2431216526467268e-06,3.193197182316428e-05
1.0970927179858197e-06,3.1009824188189195e-06,1.2561024735851893e-06,3.234123824090922e-05
1.1017755127342131e-06,3.1323485426520144e-06,1.2682182321487308e-06,3.2748407969204215e-05
1.1071862197911811e-06,3.165192458880316e-06,1.2794088272703188e-06,3.315134677371778e-05
1.1132777537874737e-06,3.199669594400192e-06,1.2896129064173648e-06,3.354790193711142e-05
1.1199923020407735e-06,3.235860452994874e-06,1.298770759555437e-06,3.3935883772590266e-05
1.1272622090701485e-06,3.273787429530348e-06,1.3068266371923486e-06,3.431306493345161e-05
1.1350140085190731e-06,3.3134441039962064e-06,1.3137318124480048e-06,3.467720744005891e-05
1.1431723409082442e-06,3.3548071897987684e-06,1.3194509483443235e-06,3.5026104187462504e-05
1.15165883137136e-06,3.397827266371741e-06,1.3239682200220178e-06,3.535760997553264e-05
1.1603893330190626e-06,3.442413198788411e-06,1.327286743642243e-06,3.566966698193929e-05
1.1692761528305165e-06,3.488423365365039e-06,1.3294221653492065e-06,3.5960346617927524e-05
1.1782353287160595e-06,3.5356709387207832e-06,1.3303982419425123e-06,3.622789339588866e-05
1.1871913506915855e-06,3.5839385063049973e-06,1.3302479334638877e-06,3.6470742712794317e-05
1.1960755155901692e-06,3.6329887342974083e-06,1.3290144591818787e-06,3.6687518941893576e-05
1.2048261314704748e-06,3.682580649940564e-06,1.326748209313725e-06,3.687703111478581e-05
1.2133953391629306e-06,3.732509405448443e-06,1.3235025433673109e-06,3.703825114375483e-05
1.2217531243137364e-06,3.7826570577214686e-06,1.3193305461246588e-06,3.717026012651176e-05
1.2298831198881468e-06,3.833027152709244e-06,1.314281582406375e-06,3.727220635622567e-05
1.2377757984452316e-06,3.883741127362364e-06,1.3083982243565665e-06,3.7343311717131265e-05
1.2454224724644302e-06,3.934990681783682e-06,1.3017148416845213e-06,3.738288764004286e-05
1.2528103735740058e-06,3.986970604687921e-06,1.2942576532456017e-06,3.7390323294872026e-05
1.2599207288097807e-06,4.039825670153979e-06,1.286045658901568e-06,3.736509834141216e-05
1.2667333740927722e-06,4.09362391288201e-06,1.2770917931972272e-06,3.730690359989277e-05
1.2732376079874834e-06,4.1483495157059265e-06,1.2674042114647505e-06,3.721581878745896e-05
1.2794400114498092e-06,4.203906875156211e-06,1.2569885825419608e-06,3.7092403784269946e-05
1.2853612522203923e-06,4.260136064551437e-06,1.2458509184176512e-06,3.693767026199886e-05
1.2910256024029653e-06,4.316845183227954e-06,1.2340006299948995e-06,3.675298912916802e-05
1.2964536814063245e-06,4.373853240038284e-06,1.2214583825989729e-06,3.653997769714156e-05
1.3016627249969578e-06,4.431022168648452e-06,1.2082699505161723e-06,3.630040239186475e-05
1.3066676481324654e-06,4.48826609882758e-06,1.1945145048855688e-06,3.603610748118626e-05
1.3114776560159711e-06,4.545545265585321e-06,1.180297854848994e-06,3.5748948961678244e-05
1.3160918530642762e-06,4.6028520252753335e-06,1.165736407731869e-06,3.544071824276356e-05
1.3204980809072211e-06,4.6601904669372485e-06,1.1509428702299198e-06,3.511307783671858e-05
1.324674307002325e-06,4.7175571996355625e-06,1.1360207379031594e-06,3.4767545963162715e-05
1.3285905354617085e-06,4.774931650302621e-06,1.1210673615715459e-06,3.440550460278192e-05
1.3322120238816065e-06,4.8322707625591696e-06,1.1061777847387976e-06,3.402817843471305e-05
1.335503229803677e-06,4.889501148213003e-06,1.0914434455040513e-06,3.363663478046567e-05
1.3384286853147318e-06,4.946515919044611e-06,1.07694846168318e-06,3.323186648437575e-05
1.3409504846141638e-06,5.0031838995298665e-06,1.0627698129969747e-06,3.281489171132552e-05
1.343026718219659e-06,5.059361349631186e-06,1.0489829459500731e-06,3.238684441620426e-05
1.3446131348887226e-06,5.114890080186288e-06,1.035666421380003e-06,3.194907831615858e-05
1.3456663275267709e-06,5.169588217921338e-06,1.022898403855057e-06,3.1503196989171496e-05
1.3461460267129572e-06,5.22326515114602e-06,1.0107475116177663e-06,3.105098213187385e-05
1.3460153154657365e-06,5.275775552975057e-06,9.992667654460994e-07,3.059431104930101e-05
1.345240995900887e-06,5.327084945760579e-06,9.884930093442978e-07,3.013509584995267e-05
1.343796684363355e-06,5.3773067268831735e-06,9.78448888341758e-07,2.9675217624388995e-05
1.3416650165518491e-06,5.4266853948140785e-06,9.691457223967973e-07,2.9216452132848328e-05
1.338835881335239e-06,5.475524462697576e-06,9.605861113583882e-07,2.876041339164136e-05
1.335306019354698e-06,5.5240990461595e-06,9.527670899634813e-07,2.8308518650325e-05
1.331083540586347e-06,5.5726151989514265e-06,9.45686147981212e-07,2.786194429390653e-05
1.3261913344226455e-06,5.62123031922039e-06,9.393483489914119e-07,2.742158420999325e-05
1.3206634003196898e-06,5.670087789327952e-06,9.337686655191324e-07,2.698807013096234e-05
1.3145359281391637e-06,5.719325345368206e-06,9.289656485351052e-07,2.656185205623907e-05
1.3078391359378334e-06,5.769056512050051e-06,9.249503580537014e-07,2.6143262087515366e-05
1.3005941043280204e-06,5.819341657013989e-06,9.217193313022239e-07,2.5732536886140035e-05
1.2928146721540336e-06,5.870165643395125e-06,9.192549104521595e-07,2.5329849688323733e-05
1.284511806273047e-06,5.9214313637065976e-06,9.175280353378756e-07,2.493535586759873e-05
1.275696636297863e-06,5.9729637212388195e-06,9.164987507740317e-07,2.4549186071759924e-05
1.2663794213275176e-06,6e-07,9.161160747196312e-07,2.417137638225476e-05
1.2565673500664882e-06,6e-07,9.163212985004749e-07,2.3801808652710526e-05
1.2462661302538964e-06,6e-07,9.170554979304681e-07,2.3440210361117068e-05
1.2354835255851034e-06,6e-07,9.182688795617051e-07,2.308620470548469e-05
1.224230042586715e-06,6e-07,9.199278021763763e-07,2.2739386313815312e-05
1.2125180016358166e-06,6e-07,9.220146606366964e-07,2.2399396828157824e-05
1.2003632178909023e-06,6e-07,9.245193291290657e-07,2.2065980785612312e-05
1.187789423464275e-06,6e-07,9.27427735394743e-07,2.173902231629076e-05
1.1748305401114443e-06,6e-07,9.307155445759087e-07,2.1418571268439102e-05
1.1615267369566657e-06,6e-07,9.343485230872768e-07,2.110484891682027e-05
1.147918151364398e-06,6e-07,9.382849050853642e-07,2.079822060567253e-05
1.1340422802902302e-06,6e-07,9.424768764056528e-07,2.0499161292860004e-05
1.1199338472845884e-06,6e-07,9.46872354645138e-07,2.0208246852535185e-05
1.105625036705561e-06,6e-07,9.51418032310008e-07,1.9926130771075648e-05
1.0911471248520646e-06,6e-07,9.56061911972391e-07,1.9653442534808148e-05
1.0765322289420065e-06,6e-07,9.607535235018637e-07,1.9390671035216955e-05
1.0618139957832694e-06,6e-07,9.654426859478176e-07,1.9138155724909546e-05
1.0470277110431628e-06,6e-07,9.700786411921924e-07,1.8896161738096484e-05
1.0322086097334111e-06,6e-07,9.74610032667152e-07,1.8664914878744305e-05
1.0173884107324257e-06,6e-07,9.789851285654672e-07,1.844456628844925e-05
1.0025933691257964e-06,6e-07,9.83152194334251e-07,1.8235170598406547e-05
9.87847582017647e-07,6e-07,9.870595240044302e-07,1.803673250948904e-05
9.731814876003824e-07,6e-07,9.906546964076086e-07,1.7849298250555812e-05
9.586383611043305e-07,6e-07,9.938852493549363e-07,1.7673062974667095e-05
9.442713825311572e-07,6e-07,9.967018247525428e-07,1.75084639205197e-05
9.301345927621391e-07,6e-07,9.990620356934878e-07,1.7356226621657774e-05
9.162772904033018e-07,6e-07,1.000933218200934e-06,1.7217347959341446e-05
9.027437762805227e-07,6e-07,1.0022921061432905e-06,1.7092996251724263e-05
8.895738482853569e-07,6e-07,1.0031233785305635e-06,1.6984339208758357e-05
8.768028672791879e-07,6e-07,1.0034204670876641e-06,1.689236541289723e-05
8.644618726281067e-07,6e-07,1.0031857860202084e-06,1.6817778048863562e-05
8.525778082085009e-07,6e-07,1.0024298346070411e-06,1.6760987112430053e-05
8.411762504350528e-07,6e-07,1.0011740580772517e-06,1.6722137421162964e-05
8.302865684352802e-07,6e-07,9.994548293759705e-07,1.6701120889818204e-05
8.199448110189199e-07,6e-07,9.973218888684582e-07,1.6697633282486936e-05
8.101913021947149e-07,6e-07,9.948335622149e-07,1.6711354990578738e-05
8.010657774076397e-07,6e-07,9.920536114250756e-07,1.6742171154561413e-05
7.926062049713816e-07,6e-07,9.890472892435176e-07,1.6790227933021938e-05
7.848510130454633e-07,6e-07,9.858741803468705e-07,1.6855781967155874e-05
7.778371423365269e-07,6e-07,9.825823288304116e-07,1.693898468804622e-05
7.715931929149694e-07,6e-07,9.792071200589942e-07,1.7039733280890307e-05
7.661364414057808e-07,6e-07,9.757728006565956e-07,1.715770488272561e-05
7.614796288860069e-07,6e-07,9.722950257588738e-07,1.7292633206986112e-05
7.576424681528751e-07,6e-07,9.687841293256656e-07,1.7444642949954847e-05
7.546552493117263e-07,6e-07,9.652485289614376e-07,1.7614365861464708e-05
7.525501264478252e-07,6e-07,9.61698739620548e-07,1.7802817834001645e-05
7.513508011212232e-07,6e-07,9.581506185117131e-07,1.8011203581515274e-05
7.510690078450984e-07,6e-07,9.546238576473646e-07,1.82407562690272e-05
7.517051039937362e-07,6e-07,9.511360062482477e-07,1.849263577075875e-05
7.53250711565507e-07,6e-07,9.476976606170021e-07,1.8767867540627205e-05
7.5569380177564e-07,6e-07,9.443114553265208e-07,1.90672904761182e-05
7.59022563343023e-07,6e-07,9.409736203385704e-07,1.939150632054278e-05
7.632238236274444e-07,6e-07,9.376776355973879e-07,1.974084526175731e-05
7.682775680004941e-07,6e-07,9.344183388349872e-07,2.0115345227917108e-05
7.741545020924644e-07,6e-07,9.311941538000448e-07,2.0514711652219488e-05
7.808212525753795e-07,6e-07,9.280066662099795e-07,2.0938238676770552e-05
7.882468771517477e-07,6e-07,9.248568897069401e-07,2.1384722896900947e-05
7.964008596542922e-07,6e-07,9.217401195157742e-07,2.185242739527136e-05
8.052455887868531e-07,6e-07,9.186443719309128e-07,2.233913563675691e-05
8.14733806526398e-07,6e-07,9.155547928270905e-07,2.284228809624935e-05
8.248125201595655e-07,6e-07,9.124612222029585e-07,2.3359147184785306e-05
8.354272070232162e-07,6e-07,9.093627911081543e-07,2.3886931237176487e-05
8.46523871390315e-07,6e-07,9.062652241931602e-07,2.4422897994811592e-05
8.580517435965334e-07,6e-07,9.031739283682222e-07,2.4964379357348567e-05
8.699655069078104e-07,6e-07,9.000897451968106e-07,2.550877296393841e-05
8.822222854678684e-07,6e-07,8.970091938053386e-07,2.605351845679277e-05
8.9477511997374e-07,6e-07,8.939260887539231e-07,2.6596081371044503e-05
9.075689628859959e-07,6e-07,8.908323760286469e-07,2.713393249676036e-05
9.205411016837179e-07,6e-07,8.877184673459861e-07,2.7664503509069282e-05
9.336241322480837e-07,6e-07,8.845738197328287e-07,2.8185137410905376e-05
9.467487897020271e-07,6e-07,8.813888113433709e-07,2.869308646112569e-05
9.598440265192438e-07,6e-07,8.781580434840023e-07,2.9185564535612206e-05
9.728346369682994e-07,6e-07,8.748812569222599e-07,2.9659801524551122e-05
9.85640932433944e-07,6e-07,8.715598239721713e-07,3.011306899122184e-05
9.98183069268041e-07,6e-07,8.681928934108587e-07,3.054269231579128e-05
1.0103873365890162e-06,6e-07,8.647754069371006e-07,3.094609594944325e-05
1.022189990979639e-06,6e-07,8.61296798694129e-07,3.132091241805621e-05
1.0335362912578764e-06,6e-07,8.577411379144398e-07,3.1665102274832554e-05
1.044378940270196e-06,6e-07,8.54089710181636e-07,3.1977015309662665e-05
1.0546808481316565e-06,6e-07,8.503243917705174e-07,3.225539778088959e-05
1.064417676348497e-06,6e-07,8.464293980810159e-07,3.249938102396348e-05
1.0735749325977241e-06,6e-07,8.423925511293272e-07,3.2708480523117315e-05
1.0821417703342181e-06,6e-07,8.382096386999238e-07,3.288260886720382e-05
1.090104924127088e-06,6e-07,8.338900143149716e-07,3.3022039503992766e-05
1.0974454275768822e-06,6e-07,8.29456919235897e-07,3.312727378143633e-05
1.1041403404714858e-06,6e-07,8.249409803828991e-07,3.319889373431692e-05
1.1101685830549623e-06,6e-07,8.203733761907976e-07,3.323752523311072e-05
1.115517074216667e-06,6e-07,8.157866797853146e-07,3.3243902567646625e-05
1.1201834973975308e-06,6e-07,8.112243042833211e-07,3.3218925216160995e-05
1.1241736672624778e-06,6e-07,8.06751158366647e-07,3.316364836201541e-05
1.1274953383721041e-06,6e-07,8.024571640846327e-07,3.3079225140953996e-05
1.130154965590057e-06,6e-07,7.98450750455926e-07,3.296688204625944e-05
1.1321603726991706e-06,6e-07,7.948453056781078e-07,3.282798787484819e-05
1.1335246650496766e-06,5.9953346551476785e-06,7.917461141362631e-07,3.266411073523917e-05
1.134267282845627e-06,5.920873620888422e-06,7.892450202128424e-07,3.247693733722024e-05
1.1344116896062836e-06,5.845657091583778e-06,7.874204227864481e-07,3.226811291831317e-05
1.133980938493478e-06,5.7698114971564105e-06,7.863346855498788e-07,3.2039136437371434e-05
1.132994480332533e-06,5.693511734993558e-06,7.86030096153457e-07,3.1791423772866314e-05
1.13146733499373e-06,5.616986876616089e-06,7.865295848415599e-07,3.152656647494017e-05
1.1294098471016376e-06,5.540501525254168e-06,7.878404833795688e-07,3.124658920476657e-05
1.1268294450948441e-06,5.464320860698392e-06,7.899563244479769e-07,3.0953961492008475e-05
1.123736517468892e-06,5.3886833600153935e-06,7.928579534882781e-07,3.065137927361553e-05
1.1201520604147044e-06,5.313794270123544e-06,7.965170871333921e-07,3.0341494066390166e-05
1.1161129787732715e-06,5.239826217232961e-06,8.009014818473498e-07,3.002670245679645e-05
1.1116724388839209e-06,5.166922220804349e-06,8.059801348857289e-07,2.970902573532698e-05
1.106894575816055e-06,5.095204694213581e-06,8.117284882726536e-07,2.9390071823027362e-05
1.1018464233717578e-06,5.024776858178479e-06,8.18132436923362e-07,2.907105613452055e-05
1.096595582329966e-06,4.9557135479499804e-06,8.251869761908102e-07,2.875284750495888e-05
1.091216835668803e-06,4.8880635702537605e-06,8.32888095478035e-07,2.843600396132014e-05
1.0857967863189732e-06,4.821871305788151e-06,8.412262568575896e-07,2.8120800893875946e-05
1.0804284835292742e-06,4.7571960700542375e-06,8.501893971137216e-07,2.78072814269047e-05
1.0752007420204826e-06,4.6941166789083135e-06,8.597689077118273e-07,2.7495326801195666e-05
1.0701886700890877e-06,4.632729462407288e-06,8.699585400870207e-07,2.7184722171401333e-05
1.0654490454921538e-06,4.573139263879509e-06,8.807486521117252e-07,2.6875217405160426e-05
1.0610207222999408e-06,4.5154390258601725e-06,8.92123431260816e-07,2.6566595425686772e-05
1.056926589384444e-06,4.459695502595233e-06,9.040629890129837e-07,2.6258738653755577e-05
1.0531755549538728e-06,4.405964198973713e-06,9.165471844221672e-07,2.5951649013668687e-05
1.04976511145392e-06,4.354324682661807e-06,9.295558545402821e-07,2.5645383696393108e-05
1.0466824723615323e-06,4.304899902802768e-06,9.430632101900699e-07,2.533994582060531e-05
1.0439037994060358e-06,4.257839403021984e-06,9.570313705696682e-07,2.5035225550779168e-05
1.0413960375708344e-06,4.2132807490596586e-06,9.714096075909935e-07,2.473105029924896e-05
1.039123846952873e-06,4.171317075427317e-06,9.86139991092834e-07,2.442732413557747e-05
1.037056019672248e-06,4.131987435833458e-06,1.0011637755614755e-06,2.4124193444051066e-05
1.0351644462490968e-06,4.095282639984811e-06,1.0164235146927572e-06,2.382219151083318e-05
1.033418859691637e-06,4.061151008821572e-06,1.0318622353244438e-06,2.352234501569613e-05
1.0317864509655286e-06,4.029506548940696e-06,1.0474230380732936e-06,2.3226222483656065e-05
1.0302375218503871e-06,4.0002449492271435e-06,1.063048978550852e-06,2.2935891361771896e-05
1.0287495483093321e-06,3.973253221119746e-06,1.0786815971683037e-06,2.2653776155905912e-05
1.027305632951621e-06,3.9484074550556134e-06,1.0942597241213837e-06,2.238245680256403e-05
1.025893172765452e-06,3.925580163150415e-06,1.1097202381606149e-06,2.2124453604831573e-05
1.0245068158402674e-06,3.904667895614963e-06,1.1249977218839427e-06,2.1882024559345644e-05
1.0231507252491805e-06,3.885620118805948e-06,1.1400217655864898e-06,2.1657007516274227e-05
1.0218355522735585e-06,3.868448336174917e-06,1.1547150763075898e-06,2.145076638311833e-05
1.0205719041482701e-06,3.853207959955003e-06,1.1689936607936722e-06,2.126427473937843e-05
1.0193667879372962e-06,3.839958554307936e-06,1.1827684453970574e-06,2.109829061078508e-05
1.0182273946738265e-06,3.8287246109642915e-06,1.1959479897956854e-06,2.0953547778603446e-05
1.0171678793462538e-06,3.819477659625922e-06,1.2084414186355223e-06,2.0830927212963027e-05
1.0162128928624425e-06,3.812136856864386e-06,1.220160158731778e-06,2.0731614417102447e-05
1.01539552366958e-06,3.8065775449056573e-06,1.2310182139777158e-06,2.065723167080299e-05
1.01475009760667e-06,3.8026481658318528e-06,1.2409329005835328e-06,2.060986037406992e-05
1.014307023491154e-06,3.8001939473191284e-06,1.2498278977271451e-06,2.0591886633163237e-05
1.0140950405357182e-06,3.7990721320854837e-06,1.257638697166191e-06,2.060571000125583e-05
1.0141429530187728e-06,3.799145897481144e-06,1.2643184233502364e-06,2.065340984568035e-05
1.014474680763524e-06,3.80027223610966e-06,1.2698412907777395e-06,2.0736474449296395e-05
