2.3367881770082798e-07,2.3482725464237002e-07,3.7687870788591096e-07,1.6869331173360613e-05
2.341356077863512e-07,2.350195536057745e-07,3.7146983087916286e-07,1.6755573447141875e-05
2.3453299769540853e-07,2.3528016245679225e-07,3.664820274885255e-07,1.6634997289210012e-05
2.348695713090275e-07,2.3561154254812146e-07,3.6191212359588775e-07,1.650752596312601e-05
2.351428975380908e-07,2.360155592129141e-07,3.5775290189616305e-07,1.637319966216237e-05
2.353494920710845e-07,2.3649160599158745e-07,3.5399306611469404e-07,1.6232208190861177e-05
2.3548588805905968e-07,2.370369652899185e-07,3.506172234528056e-07,1.6084841927032032e-05
2.3555010336072769e-07,2.3764800275285767e-07,3.4760655267472237e-07,1.593143376879081e-05
2.3554189855530186e-07,2.3831997169386894e-07,3.449418419048122e-07,1.5772337328830082e-05
2.354619611964089e-07,2.390460600033884e-07,3.4260767916913085e-07,1.5607922672279957e-05
2.3531182848262462e-07,2.398173823028828e-07,3.405945933493428e-07,1.5438561832165772e-05
2.3509424437152285e-07,2.4062439018115397e-07,3.3889819040076014e-07,1.526459891853553e-05
2.3481246437987799e-07,2.414583720536625e-07,3.375169477344909e-07,1.5086327594639733e-05
2.344693402494748e-07,2.42311966509527e-07,3.364530030350538e-07,1.4904001297421577e-05
2.34068151149369e-07,2.4317934783381616e-07,3.357177583074487e-07,1.4717881299273147e-05
2.3361466572265354e-07,2.440557020885375e-07,3.353367632335726e-07,1.4528313299481348e-05
2.3311723549772486e-07,2.4493535204680825e-07,3.353482646227651e-07,1.4335812207361138e-05
2.325844157845962e-07,2.458109341176839e-07,3.357957242270552e-07,1.414110718236252e-05
2.3202359857374522e-07,2.4667562391469287e-07,3.367188314874328e-07,1.3945095025755222e-05
2.3144209067531448e-07,2.475255527324133e-07,3.381482341740568e-07,1.3748719465234391e-05
2.308486571839373e-07,2.483592231119655e-07,3.401048816250824e-07,1.3552860927117474e-05
2.3025389413684464e-07,2.491756524827417e-07,3.426009867762272e-07,1.3358286297463789e-05
2.296691864264e-07,2.4997325048434894e-07,3.456412674166248e-07,1.316563508538917e-05
2.291047913171267e-07,2.507490340139514e-07,3.492243703125561e-07,1.2975414053851852e-05
2.2856821415524988e-07,2.514984683405313e-07,3.533431116677092e-07,1.2788010437569732e-05
2.2806391611520237e-07,2.522160603995699e-07,3.579833793197476e-07,1.2603778100109653e-05
2.2759449803554735e-07,2.528963099189795e-07,3.63123448109852e-07,1.2423228972813925e-05
2.2716264119874826e-07,2.535350285017981e-07,3.687352336432523e-07,1.2247193633403372e-05
2.2677237961323728e-07,2.541303904804939e-07,3.747884237232865e-07,1.2076767356224753e-05
2.2642857693813692e-07,2.5468300766294924e-07,3.812562540301226e-07,1.1913099032201713e-05
2.261353626468359e-07,2.551950709809131e-07,3.881199517654385e-07,1.1757211301166235e-05
2.2589521334744053e-07,2.5566900905254645e-07,3.953699458374095e-07,1.1609936729746308e-05
2.2570903486390033e-07,2.5610631391743303e-07,4.0300227385907064e-07,1.1472017465839355e-05
2.255762989771952e-07,2.5650679454193986e-07,4.110118997278992e-07,1.1344352936411274e-05
2.254945592259968e-07,2.5686857172892606e-07,4.1938931294963727e-07,1.1228188432311284e-05
2.2545913319864078e-07,2.57189788096406e-07,4.2812140291417963e-07,1.1125068234461277e-05
2.254644933833636e-07,2.574715289527242e-07,4.37190951644792e-07,1.1036642985174941e-05
2.2550698164225603e-07,2.5771897357883075e-07,4.465740346242379e-07,1.0964497829684732e-05
2.255861806169789e-07,2.579396122551291e-07,4.5623926308388653e-07,1.0910045926679593e-05
2.2570388880644012e-07,2.5814181808948864e-07,4.661488218606903e-07,1.0874471338459873e-05
2.2586243063877773e-07,2.583355567023629e-07,4.762591289950242e-07,1.0858705962683013e-05
2.2606364719331512e-07,2.585323628291916e-07,4.865217492820922e-07,1.0863421618377608e-05
2.263088052959198e-07,2.587433702584813e-07,4.968854307311104e-07,1.0889026494109527e-05
2.2659919773801608e-07,2.589776455192359e-07,5.072977832515542e-07,1.0935655175760134e-05
2.2693665183437943e-07,2.5924187941734496e-07,5.177055957716303e-07,1.1003135810323594e-05
2.2732313620502143e-07,2.595406084455863e-07,5.280544568658739e-07,1.1090956588728328e-05
2.2775966402668773e-07,2.5987678881566765e-07,5.382885151058467e-07,1.1198280321902347e-05
2.282457991117191e-07,2.60252857999099e-07,5.483509873167706e-07,1.1324006278578716e-05
2.287798641046765e-07,2.606717973561753e-07,5.581847416312809e-07,1.1466847744149353e-05
2.2935914635077647e-07,2.611379136007928e-07,5.677321877384543e-07,1.1625420506716155e-05
2.299802073001025e-07,2.6165659865985865e-07,5.769357558216998e-07,1.179833309990723e-05
2.3063869538271226e-07,2.6223293957560665e-07,5.857397668051246e-07,1.1984244603358287e-05
2.3132850266628696e-07,2.628712687721977e-07,5.940921014450668e-07,1.2181879935327565e-05
2.3204157571653318e-07,2.635764380684339e-07,6.01944515743987e-07,1.2390028523045493e-05
2.3276850198923202e-07,2.6435451487664646e-07,6.092528663011752e-07,1.260754053977598e-05
2.334991489846823e-07,2.6521151063817093e-07,6.159779631285023e-07,1.2833315562331356e-05
2.3422381085818683e-07,2.6615161195748986e-07,6.220855306303212e-07,1.3066282778475845e-05
2.3493456838657798e-07,2.671762767114161e-07,6.275452580179729e-07,1.330536681863649e-05
2.356253162163624e-07,2.682840908054247e-07,6.32331541472707e-07,1.3549438289762489e-05
2.362910275692492e-07,2.69471287514109e-07,6.364260947524143e-07,1.3797282391830167e-05
2.3692760907474433e-07,2.7073237126248287e-07,6.39819012955676e-07,1.4047616247838626e-05
2.3753146425165142e-07,2.720603179659585e-07,6.425079892479164e-07,1.4299121617169387e-05
2.3809840929567765e-07,2.734472456644727e-07,6.444988966117485e-07,1.4550447949295756e-05
2.38623595951453e-07,2.748856816414444e-07,6.458062640092425e-07,1.4800215989583216e-05
2.3910306434619456e-07,2.763690655606981e-07,6.464501348862918e-07,1.5047066714644698e-05
2.395350329609351e-07,2.7789067854818605e-07,6.464527799044411e-07,1.5289722701876054e-05
2.399192638479225e-07,2.794418550091088e-07,6.458396936419137e-07,1.5526991962866486e-05
2.40255421745997e-07,2.8101125729306414e-07,6.446417154393374e-07,1.5757709044911223e-05
2.4054202100471435e-07,2.82585559308234e-07,6.428939042587782e-07,1.5980682257674102e-05
2.4077659831697816e-07,2.841504609825037e-07,6.406318144119151e-07,1.6194701189076794e-05
2.409567240949497e-07,2.8569110794058647e-07,6.378880551237315e-07,1.6398591188624508e-05
2.4108068489731047e-07,2.871917226615736e-07,6.346913926508822e-07,1.6591274569972096e-05
2.41147896150288e-07,2.8863563310219787e-07,6.310682261965889e-07,1.677183759825468e-05
2.4115977094455856e-07,2.900069516258222e-07,6.270440201141507e-07,1.6939595285725005e-05
2.411199674226201e-07,2.9129277959032694e-07,6.226440969672468e-07,1.709408239264841e-05
2.410333978839129e-07,2.9248373649092567e-07,6.178958910957603e-07,1.7234956092345778e-05
2.409052500849273e-07,2.935729242426665e-07,6.128326247685586e-07,1.7361912770998e-05
2.4074015377051437e-07,2.945550963969441e-07,6.074948180242086e-07,1.747468324917574e-05
2.405411819570545e-07,2.954265313443335e-07,6.019279997867553e-07,1.7573056104570872e-05
2.403099538427411e-07,2.961852087026512e-07,5.96179127911938e-07,1.7656871457364223e-05
2.4004837539952264e-07,2.9683123795119876e-07,5.902936081869128e-07,1.7725989097532597e-05
2.397603352699347e-07,2.973675958171237e-07,5.843127995854941e-07,1.778029744213919e-05
2.3945171324127486e-07,2.978010332625624e-07,5.782724840488487e-07,1.7819846399604806e-05
2.3912949836544657e-07,2.981418636676569e-07,5.722032194387403e-07,1.7845031209557338e-05
2.388012948839393e-07,2.984015880153311e-07,5.661321124430753e-07,1.7856622244413737e-05
2.384748539729105e-07,2.9859054248851845e-07,5.600845155220892e-07,1.7855604755291815e-05
2.381585606327973e-07,2.987178655758105e-07,5.540860658861646e-07,1.7842975055266267e-05
2.37864313086752e-07,2.9879220266131503e-07,5.481650493094249e-07,1.7819617123321622e-05
2.376101094580369e-07,2.9882128596543923e-07,5.423518701185065e-07,1.7786346263758835e-05
2.3741837014994784e-07,2.988114173686797e-07,5.366752035083309e-07,1.7744117280811234e-05
2.3731081237632422e-07,2.9876770280001e-07,5.311590502773436e-07,1.769420121481154e-05
2.373041362571126e-07,2.986938912170987e-07,5.258243364087921e-07,1.7638151473425823e-05
2.374087788926373e-07,2.9859161342980326e-07,5.206951213538654e-07,1.757763592912511e-05
2.3762989280795325e-07,2.9846034184316016e-07,5.158061955038292e-07,1.7514293580882293e-05
2.3796885505167513e-07,2.9829790689175125e-07,5.112075269701757e-07,1.7449650685052916e-05
2.384242303544413e-07,2.9810080820334876e-07,5.069623764141868e-07,1.7385071525711468e-05
2.389926314422857e-07,2.9786487873054644e-07,5.031402810992943e-07,1.7321725842535184e-05
2.3967072024529327e-07,2.975867531524829e-07,4.998083981151044e-07,1.7260558577763786e-05
2.404571061990862e-07,2.972656291541118e-07,4.970232015340378e-07,1.7202271958030015e-05
2.413514219373332e-07,2.969042190411696e-07,4.948256587530298e-07,1.714734166651148e-05
2.4235166638755284e-07,2.9650813546924345e-07,4.932438191058453e-07,1.7096045204995207e-05
2.434527193307104e-07,2.9608413249770777e-07,4.923001308990848e-07,1.7048461540972023e-05
2.4464640988031145e-07,2.95639070997462e-07,4.920149622595261e-07,1.7004457069428213e-05
2.459231987991684e-07,2.9518055390648033e-07,4.924036253967569e-07,1.6963707079418335e-05
2.472755255304759e-07,2.947166957889437e-07,4.934719931260529e-07,1.6925765149102387e-05
2.4870030406005065e-07,2.94253904472712e-07,4.952146980989716e-07,1.689015082619185e-05
2.5019778444025047e-07,2.9379561746161573e-07,4.976165598028494e-07,1.6856422452140973e-05
2.517680302579392e-07,2.9334320064364876e-07,5.006562085470951e-07,1.6824216348073158e-05
2.534088127718386e-07,2.928969161336509e-07,5.043094624061697e-07,1.6793250065360807e-05
2.551160394631652e-07,2.9245570038297036e-07,5.085506603727786e-07,1.6763308172589483e-05
2.5688482414770045e-07,2.92016941170099e-07,5.133522782366997e-07,1.6734233010248726e-05
2.58709832772443e-07,2.9157703301047346e-07,5.186841723539293e-07,1.6705921836054695e-05
2.605854076192461e-07,2.911319768297576e-07,5.245132971227559e-07,1.667831257761213e-05
2.625061171895097e-07,2.906780346007144e-07,5.308039529755637e-07,1.665134347517298e-05
2.644668489334283e-07,2.9021241752993307e-07,5.375177569279251e-07,1.662489800047447e-05
2.6646215424285567e-07,2.8973363527324165e-07,5.446131040111568e-07,1.659877650528537e-05
2.6848632712275525e-07,2.892421691852997e-07,5.520463203538503e-07,1.6572724962212915e-05
2.705345545048416e-07,2.887416014018178e-07,5.597756706006501e-07,1.6546487111695503e-05
2.726038729007254e-07,2.882388489628777e-07,5.67765550301739e-07,1.651981851134616e-05
2.7469308442591966e-07,2.877424143462269e-07,5.759885269935238e-07,1.6492457229954304e-05
2.768017848768438e-07,2.872596913002249e-07,5.844242433048242e-07,1.6464100336148004e-05
2.789293310605917e-07,2.8679525528947806e-07,5.930544044658613e-07,1.6434414718672658e-05
2.8107394747617306e-07,2.863507344466701e-07,6.018579122218897e-07,1.6403045650524663e-05
2.832318331160544e-07,2.8592594201090737e-07,6.108107284340287e-07,1.636959007647527e-05
2.8539772681827804e-07,2.8551997494842876e-07,6.198869000222053e-07,1.6333570609013894e-05
2.875670997576667e-07,2.8513085729535753e-07,6.290577075751861e-07,1.6294446300957972e-05
2.897371780280856e-07,2.8475477593683254e-07,6.382921986318461e-07,1.625164752500636e-05
2.9190622851010484e-07,2.843865170209744e-07,6.475600490476628e-07,1.6204622322727418e-05
2.940732578283351e-07,2.840206699794734e-07,6.568339833775246e-07,1.6152907107668382e-05
2.962387673729731e-07,2.8365299595141026e-07,6.660893642702121e-07,1.609620729941625e-05
2.9840518100635404e-07,2.8328135969920567e-07,6.753007666506163e-07,1.6034416309619e-05
3.005757467253982e-07,2.829051181192738e-07,6.844381987195816e-07,1.5967544290631048e-05
3.027532144806297e-07,2.8252365191634716e-07,6.934656396688859e-07,1.589563662634464e-05
3.0493957246500374e-07,2.8213602069861824e-07,7.023421985576464e-07,1.5818754473061192e-05
3.071355340342517e-07,2.817419877343654e-07,7.11023970084922e-07,1.5736988628205664e-05
3.093396496510464e-07,2.8134254138148306e-07,7.194649779338335e-07,1.5650454116990035e-05
3.115484066198999e-07,2.809387303486622e-07,7.276182772618702e-07,1.5559260618966927e-05
3.137568953319284e-07,2.80530281939385e-07,7.354378974006669e-07,1.546350127552178e-05
3.159591003070612e-07,2.801156253064555e-07,7.428801510901578e-07,1.5363343488329073e-05
3.181478623213394e-07,2.796923598827605e-07,7.499034779235881e-07,1.525920305672997e-05
3.203151179898211e-07,2.792569679299061e-07,7.56467468369598e-07,1.5151809584301553e-05
3.224530593517785e-07,2.7880476166036557e-07,7.625320806028112e-07,1.5042074797077204e-05
3.2455518013708183e-07,2.7833087413466365e-07,7.680577393511099e-07,1.4930906831532433e-05
3.266154828704504e-07,2.778321364736492e-07,7.730063887250041e-07,1.4819110320632282e-05
3.286267619413929e-07,2.773092188317121e-07,7.773424947142082e-07,1.4707418010406022e-05
3.305802085503307e-07,2.767664790045984e-07,7.810331423019919e-07,1.4596661027927085e-05
3.324666262815377e-07,2.762087952871073e-07,7.840480032068737e-07,1.4487960591127453e-05
3.342775162085572e-07,2.756390764678947e-07,7.863596022047814e-07,1.43827572189863e-05
3.360048886830708e-07,2.750582920696965e-07,7.879435548390091e-07,1.428267565928171e-05
3.376412289372368e-07,2.744659297997836e-07,7.887789804374542e-07,1.4189362984048391e-05
3.3918035767036037e-07,2.738599866636805e-07,7.888486905541006e-07,1.410436470779035e-05
3.4061718880213105e-07,2.732374869757009e-07,7.881386313264728e-07,1.4029031043144989e-05
3.419464062856286e-07,2.725952227532431e-07,7.8663735127184e-07,1.3964452763838239e-05
3.431622853982906e-07,2.7193014847415987e-07,7.84336436553507e-07,1.3911437345836192e-05
3.4425937202522674e-07,2.712398760259305e-07,7.812317963193482e-07,1.3870517588339246e-05
3.452328541351113e-07,2.7052287023755044e-07,7.773248763180148e-07,1.3841970713728373e-05
3.460788537437797e-07,2.697779940276181e-07,7.726230379316605e-07,1.3825830070916046e-05
3.467947005584164e-07,2.690041615713592e-07,7.671391579813826e-07,1.3821891478940478e-05
3.473791176171762e-07,2.682007366941361e-07,7.608916237322024e-07,1.3829748901134014e-05
3.478324911699455e-07,2.673685184962645e-07,7.539053032527875e-07,1.3848867836574313e-05
3.481573245773271e-07,2.665099328887089e-07,7.462114281331266e-07,1.3878656722380288e-05
3.4835843367930397e-07,2.656280281592578e-07,7.378454428478572e-07,1.3918528518734018e-05
3.48441877805248e-07,2.647257933998075e-07,7.288453694865095e-07,1.3967967957770334e-05
3.484130516823677e-07,2.638057593350359e-07,7.192513076680034e-07,1.4026581570075546e-05
3.4827569618224914e-07,2.628693040508409e-07,7.091045564495582e-07,1.4094109457673017e-05
3.480319881336349e-07,2.6191689039272397e-07,6.984478745593938e-07,1.4170416105908146e-05
3.4768268822556483e-07,2.609489528282703e-07,6.873279609903857e-07,1.4255467021440756e-05
3.472271868406983e-07,2.59965859102864e-07,6.757972942556876e-07,1.4349269081699662e-05
3.466634904564569e-07,2.5896778253935087e-07,6.63913241859384e-07,1.4451777490763629e-05
3.459886121598092e-07,2.579555633023774e-07,6.517352470614975e-07,1.4562813298857941e-05
3.452003152436929e-07,2.569313126253274e-07,6.393224651311834e-07,1.4682021305960166e-05
3.44299026212512e-07,2.5589799312221514e-07,6.267340967546208e-07,1.4808868996453854e-05
3.432876850587213e-07,2.5485918231034016e-07,6.140309055868291e-07,1.494269249533314e-05
3.421699002347662e-07,2.538193658614277e-07,6.012740792579233e-07,1.508277028036553e-05
3.4094855626715106e-07,2.527834798066157e-07,5.885220627006479e-07,1.5228376794447818e-05
3.396258513369383e-07,2.5175571267369235e-07,5.758294071252169e-07,1.537881320732161e-05
3.382036216736769e-07,2.507387583805688e-07,5.632482237496857e-07,1.5533435093292543e-05
3.3668340057086746e-07,2.4973390381668987e-07,5.508299634579599e-07,1.5691656522598136e-05
3.350675604599851e-07,2.4874224670089164e-07,5.386258249570981e-07,1.585290428080011e-05
3.333607133973001e-07,2.477665613474052e-07,5.266848209189326e-07,1.6016554111880258e-05
3.315689863904444e-07,2.468124304978674e-07,5.150510543760987e-07,1.618189679792715e-05
3.2969813851882093e-07,2.458889407271586e-07,5.037644996434011e-07,1.6348118136245256e-05
3.277526775802957e-07,2.4500879968187235e-07,4.928664926168956e-07,1.6514269928216645e-05
3.257356686752069e-07,2.441859806419756e-07,4.824050154382166e-07,1.667925383445507e-05
3.2364845812114893e-07,2.434320240501461e-07,4.724345345546994e-07,1.684183294311607e-05
3.2149055120753746e-07,2.427546339555285e-07,4.630103906563547e-07,1.700066070186254e-05
3.192598509826085e-07,2.421592651119401e-07,4.5418215379862966e-07,1.715431724683062e-05
3.169539325989944e-07,2.416507960635125e-07,4.4599068347954995e-07,1.7301361687142827e-05
3.1457313552866247e-07,2.4123325217774805e-07,4.384693729983222e-07,1.7440409747446492e-05
3.1212312240554647e-07,2.409091923995348e-07,4.3164588246539486e-07,1.7570207446950307e-05
3.096136414629352e-07,2.4068003135375173e-07,4.2554160957900705e-07,1.7689653411866947e-05
3.070556043647385e-07,2.405460451849273e-07,4.2016960649770606e-07,1.7797764868519038e-05
3.044602363533023e-07,2.405061792927829e-07,4.155330499507499e-07,1.7893629065945198e-05
3.018393327190681e-07,2.4055915439502147e-07,4.116253101663056e-07,1.797640594269325e-05
2.992047427950808e-07,2.40704996980864e-07,4.084311500870602e-07,1.804541468051674e-05
2.965679309901375e-07,2.4094507406288025e-07,4.0592785702159467e-07,1.810021540530054e-05
2.939414992040958e-07,2.4128176562650336e-07,4.0408622360750645e-07,1.814057829920068e-05
2.913428180801468e-07,2.417195459663244e-07,4.028729436226954e-07,1.8166375344230318e-05
2.887957266707733e-07,2.422652606502257e-07,4.022542855029176e-07,1.8177491808501268e-05
2.863270433179677e-07,2.4292594744056696e-07,4.021985316842761e-07,1.8173803209614827e-05
2.8396144652566337e-07,2.437074812898583e-07,4.026762779181489e-07,1.815520716631259e-05
2.817188575017778e-07,2.446153159728117e-07,4.036596578659092e-07,1.8121658076499687e-05
2.796137422283989e-07,2.4565409607426305e-07,4.0512115729621243e-07,1.8073164596440445e-05
2.7765532682132137e-07,2.468258265186887e-07,4.0703240063045476e-07,1.8009758270581243e-05
2.7584911915895765e-07,2.481290694362297e-07,4.0936318384953594e-07,1.7931469503695882e-05
2.741995662290234e-07,2.495591887436438e-07,4.1208134599105245e-07,1.7838336339085534e-05
2.7271158206178214e-07,2.5110854623981e-07,4.1515450800240844e-07,1.773043380364548e-05
2.713891574390155e-07,2.5276699261654877e-07,4.1855170554889174e-07,1.7607892022232778e-05
2.702333122709173e-07,2.5452314202630296e-07,4.222425378356355e-07,1.7470894389341197e-05
2.692418219489883e-07,2.563653520173242e-07,4.261969590205218e-07,1.7319675624767576e-05
2.684104749269477e-07,2.5828172599379127e-07,4.303879875545868e-07,1.715453405635297e-05
2.677352944178855e-07,2.602606864565686e-07,4.3479404460519726e-07,1.697584676732342e-05
2.672154092355907e-07,2.622921985809402e-07,4.393983221417011e-07,1.678406481089598e-05
2.668561709027412e-07,2.6436720570365484e-07,4.441858478406906e-07,1.6579691880011235e-05
2.666704695333564e-07,2.6647534212826014e-07,4.491406914775013e-07,1.6363270406576493e-05
2.666760504108398e-07,2.6860369879490604e-07,4.542461119337779e-07,1.6135368086240813e-05
2.668919318159102e-07,2.7073763507246827e-07,4.5948674329729616e-07,1.5896550827537413e-05
2.673371362074257e-07,2.7286210904895093e-07,4.648483218297307e-07,1.564736362075493e-05
2.6802908231564694e-07,2.7496196949317484e-07,4.7031472112378863e-07,1.5388336948731502e-05
2.689810433014389e-07,2.770214105059816e-07,4.7586636028591297e-07,1.512000993544779e-05
2.702016510592282e-07,2.790237731740623e-07,4.81480430743176e-07,1.4842957319606113e-05
2.716956739150294e-07,2.809518611647522e-07,4.871315725045753e-07,1.455781135645141e-05
2.7346365521068567e-07,2.827882425723296e-07,4.927935570201766e-07,1.4265270442258545e-05
2.755011628491982e-07,2.8451584236712516e-07,4.984408618624546e-07,1.3966085553216992e-05
2.7779920235643896e-07,2.8611892710969145e-07,5.040477906201168e-07,1.3661029330519476e-05
2.8034572362529745e-07,2.8758356368147876e-07,5.095860884530724e-07,1.3350870443784548e-05
2.8312739797015967e-07,2.888974255253226e-07,5.150243402465135e-07,1.3036373825318531e-05
2.861310781540881e-07,2.9004984320184244e-07,5.203298501866509e-07,1.27183373299634e-05
2.893444362808736e-07,2.9103255074717175e-07,5.25470158390525e-07,1.2397634444903387e-05
2.927552151784573e-07,2.9184055193050125e-07,5.304127557632914e-07,1.2075198447474455e-05
2.963497863526565e-07,2.92472117867268e-07,5.351248699196512e-07,1.1751954104604974e-05
3.0011201350741763e-07,2.9292758688416035e-07,5.395740724511827e-07,1.1428764731676516e-05
3.0402277835587873e-07,2.932077465678781e-07,5.437290277251851e-07,1.1106419929399696e-05
3.0806078749616666e-07,2.933131226443965e-07,5.475606230720286e-07,1.078566652142093e-05
3.122036581219845e-07,2.9324428795701926e-07,5.510434976873886e-07,1.0467265217971772e-05
3.164277370159117e-07,2.9300206785838554e-07,5.541584230220668e-07,1.0152014866164744e-05
3.207077153487036e-07,2.925874450843909e-07,5.568955425739353e-07,9.840745524079463e-06
3.250170846979948e-07,2.9200185647590147e-07,5.592555318100251e-07,9.534330431248807e-06
3.293284793982582e-07,2.9124753065831226e-07,5.612464806675636e-07,9.233712589412764e-06
3.336134686887723e-07,2.903274012518681e-07,5.62878496023903e-07,8.939918161260116e-06
3.3784251190548464e-07,2.8924546214408817e-07,5.641605259206443e-07,8.654036587478961e-06
3.419854220777772e-07,2.8800814234382034e-07,5.651019024268843e-07,8.377160901857887e-06
3.4601232986574093e-07,2.8662585031567743e-07,5.657155239558401e-07,8.110320365976772e-06
3.498947554512372e-07,2.851127201969483e-07,5.660189985031008e-07,7.854434608659396e-06
3.536066382383915e-07,2.834843111337677e-07,5.660339070358176e-07,7.610278874917586e-06
3.57126796925286e-07,2.817561814940063e-07,5.657835459942229e-07,7.378451714274286e-06
3.604427393772316e-07,2.7994439465596927e-07,5.652898295427273e-07,7.159360894070354e-06
3.635517776711297e-07,2.7806553929831105e-07,5.645713644245413e-07,6.953231626586867e-06
3.6645754323747897e-07,2.7613547118236277e-07,5.636432143457984e-07,6.760125446106258e-06
3.6916587027956313e-07,2.741685642607121e-07,5.625176375039207e-07,6.579982365600378e-06
3.716829439944107e-07,2.721778368874003e-07,5.612050353140586e-07,6.412720590319465e-06
3.7401409243774643e-07,2.7017513062093176e-07,5.597147810197299e-07,6.258364863744691e-06
3.7616267353117405e-07,2.681715244899815e-07,5.580561393185008e-07,6.11712278983869e-06
3.781302223178794e-07,2.6617787744058127e-07,5.562387321450403e-07,5.989403943346258e-06
3.799168428969483e-07,2.6420539306213577e-07,5.542718146375917e-07,5.87579883240401e-06
3.815211546092961e-07,2.6226604908942555e-07,5.521629875031317e-07,5.776990118980439e-06
3.82942227714609e-07,2.6037157627975825e-07,5.499175647443364e-07,5.693626272541395e-06
3.841840040927568e-07,2.5853139144824485e-07,5.475388481462389e-07,5.6262302475324455e-06
3.852580945235201e-07,2.567516365237433e-07,5.450282741518522e-07,5.575162076136319e-06
3.861819257202557e-07,2.550358233846087e-07,5.423847734142933e-07,5.540613031794023e-06
3.869742344600641e-07,2.5338634988806964e-07,5.396042032158893e-07,5.522606662428485e-06
3.876516407088865e-07,2.518058772048592e-07,5.366798375108868e-07,5.520991891970709e-06
3.8822714192874646e-07,2.502976730268313e-07,5.33604198432305e-07,5.535433473977268e-06
3.8870973336004255e-07,2.488653111818518e-07,5.303712819845478e-07,5.565411253972885e-06
3.891059337086336e-07,2.4751248302046144e-07,5.269774991296201e-07,5.6102322534542766e-06
3.894236268458065e-07,2.462435018500465e-07,5.234213465344133e-07,5.6690629957983525e-06
3.8967607618538977e-07,2.450650024063177e-07,5.197032642476185e-07,5.7409808560908025e-06
3.898833579861853e-07,2.439872668098667e-07,5.158266722114086e-07,5.825023358011482e-06
3.900701948712204e-07,2.4302276259958966e-07,5.117997321555735e-07,5.920210901112007e-06
3.902620355687139e-07,2.4218282460314605e-07,5.076356941073079e-07,6.025545230777766e-06
3.90482054381011e-07,2.414755806317766e-07,5.033503265183718e-07,6.140013446386572e-06
3.907493666547498e-07,2.4090607416668693e-07,4.989583647947197e-07,6.262604671981099e-06
3.910784704537606e-07,2.4047705450454465e-07,4.944719729324285e-07,6.3923212350454355e-06
3.914812823241901e-07,2.401892350433609e-07,4.899014941279657e-07,6.5281810131181095e-06
3.919713074731174e-07,2.400416321350371e-07,4.852574372189525e-07,6.66922022327285e-06
3.9256619461895496e-07,2.400323784046169e-07,4.805532319721732e-07,6.814507486517642e-06
3.9328521397900316e-07,2.401590850315455e-07,4.7580780469497306e-07,6.963174296632657e-06
3.941441783681187e-07,2.40418750711711e-07,4.71046258976966e-07,7.114442189583142e-06
3.9515295602900687e-07,2.408081854337428e-07,4.6629777230475674e-07,7.267615374332432e-06
3.9631515136551365e-07,2.413249168948173e-07,4.61591559995764e-07,7.422035629455256e-06
3.9762802681989886e-07,2.419672791836005e-07,4.5695305710703447e-07,7.577029601766368e-06
3.990843570915886e-07,2.4273303185448825e-07,4.5240229692712544e-07,7.731877967394889e-06
4.006765426258314e-07,2.4361827806835853e-07,4.4795450684804533e-07,7.885813686041045e-06
4.0239988323424003e-07,2.44617897117596e-07,4.436216696703434e-07,8.038049473112176e-06
4.0425283904346154e-07,2.4572594672986677e-07,4.3941508647692615e-07,8.187818662106772e-06
4.062349159735789e-07,2.469354593796575e-07,4.353490144574933e-07,8.334395881540072e-06
4.08343501960761e-07,2.482388506683999e-07,4.3144175778359613e-07,8.477106542401922e-06
4.105712619984921e-07,2.496283908610621e-07,4.277118629594336e-07,8.615340417287153e-06
4.1290587356342844e-07,2.5109539541293136e-07,4.2417410947518966e-07,8.748537661714799e-06
4.1533176744250976e-07,2.5262904894903487e-07,4.208398425488869e-07,8.876169391203788e-06
4.1783195639743673e-07,2.5421622846539176e-07,4.1772170590829117e-07,8.997775091573186e-06
4.2038845848835937e-07,2.558421941052093e-07,4.148416781997992e-07,9.11302341005693e-06
4.2298160891154155e-07,2.574918646978705e-07,4.1223768451933814e-07,9.2217176377437e-06
4.255903472414032e-07,2.591511964111843e-07,4.099624277210876e-07,9.323744663902817e-06
4.281936788024248e-07,2.608076988128095e-07,4.080748788411944e-07,9.41902144997362e-06
4.3077137909336644e-07,2.6245000128977773e-07,4.0662996620516453e-07,9.507469700127383e-06
4.333035579437521e-07,2.6406683345824663e-07,4.056716606066345e-07,9.589015339544138e-06
4.357702740628807e-07,2.6564593580669647e-07,4.052316814976642e-07,9.663613313717596e-06
4.3815286336214666e-07,2.671740812711349e-07,4.053314421934151e-07,9.731292003008608e-06
4.4043757532896307e-07,2.68638477084358e-07,4.0598427213451717e-07,9.7921672566489e-06
4.4261813306379464e-07,2.7002826446874797e-07,4.0719698464196136e-07,9.846396184848339e-06
4.4469373864338076e-07,2.713350954532423e-07,4.089703076312113e-07,9.894117999577473e-06
4.466652750412503e-07,2.7255307286477687e-07,4.1129860524468993e-07,9.935420916071741e-06
4.485338178775321e-07,2.736790901098896e-07,4.141699027454648e-07,9.97032690947776e-06
4.503007492293603e-07,2.747133254608672e-07,4.1756648911779525e-07,9.998794498128442e-06
4.519671072175523e-07,2.7565856387236786e-07,4.214657055133389e-07,1.002074946578411e-05
4.535324973993041e-07,2.765192085713165e-07,4.2584099980049037e-07,1.0036165843028977e-05
4.549959593847449e-07,2.773010701909629e-07,4.3066383649771784e-07,1.0045207507036278e-05
4.5635812110541326e-07,2.780109800302701e-07,4.359048884984393e-07,1.0048330324324776e-05
4.576212435268402e-07,2.786563848297836e-07,4.4153239114468175e-07,1.0046224510901593e-05
4.5878853868415405e-07,2.792454280347693e-07,4.4750954287135925e-07,1.003965182685231e-05
4.598666101900272e-07,2.797866201838352e-07,4.537941691573803e-07,1.002931887515441e-05
4.608684864155422e-07,2.802878310472232e-07,4.603405253080922e-07,1.0015848024454976e-05
4.618124080701401e-07,2.807552623360093e-07,4.671008213653261e-07,9.999868271470177e-06
4.6271767151493904e-07,2.811929798219547e-07,4.740257906003587e-07,9.98219675287855e-06
4.636018246629568e-07,2.8160310230644695e-07,4.810655354567139e-07,9.963950137337883e-06
4.644799489676493e-07,2.8198641634721534e-07,4.881702839277798e-07,9.946465148208033e-06
4.653635107212292e-07,2.823429247073123e-07,4.952908796410244e-07,9.931116710164841e-06
4.662581989844004e-07,2.8267211302690983e-07,5.023808310625825e-07,9.919168509734093e-06
4.6716333182067976e-07,2.8297324775346214e-07,5.093990478078581e-07,9.911683753646888e-06
4.6807406167662717e-07,2.832450458402213e-07,5.163098069238727e-07,9.909476950240917e-06
4.689842660518568e-07,2.83484489208704e-07,5.230801372770549e-07,9.913099711566933e-06
4.698870064359853e-07,2.836869603252031e-07,5.296780919931435e-07,9.92285313018332e-06
4.7077276792147857e-07,2.838491386316417e-07,5.360727922367998e-07,9.938810249930572e-06
4.7162899817678564e-07,2.83972557748933e-07,5.422357374196227e-07,9.960842617256813e-06
4.7244141272635955e-07,2.840650627193429e-07,5.481438728322044e-07,9.988648232531897e-06
4.7319487479165924e-07,2.8414011382580904e-07,5.537815162077985e-07,1.0021772998174596e-05
4.7387466374543846e-07,2.842151355232684e-07,5.591376113256274e-07,1.0059638151184714e-05
4.7446894828891657e-07,2.843095304972718e-07,5.642010157785044e-07,1.0101587169005797e-05
4.749695785863166e-07,2.8444250026309424e-07,5.68958224654199e-07,1.014694573696992e-05
4.753700831052056e-07,2.84630667750442e-07,5.733937562664621e-07,1.0195091584233766e-05
4.75663814750972e-07,2.848860975419817e-07,5.774913924516323e-07,1.0245509224016072e-05
4.758435969239976e-07,2.852155783802481e-07,5.812347220655879e-07,1.0297786339466246e-05
4.7590138156574156e-07,2.856211401321793e-07,5.846069543871399e-07,1.0351570672856833e-05
4.758280292528904e-07,2.8610130733008925e-07,5.875922766514578e-07,1.0406540131754176e-05
4.756150418545454e-07,2.8665297586714096e-07,5.901785897625279e-07,1.0462378657060301e-05
4.752572883896026e-07,2.8727304947479765e-07,5.923579416991115e-07,1.051872904981886e-05
4.747544155937232e-07,2.8795848987725875e-07,5.941244018154686e-07,1.0575146734808877e-05
4.7411153497154463e-07,2.887049468923131e-07,5.954725409995095e-07,1.0631097821144724e-05
4.733393816405453e-07,2.895054162563102e-07,5.963972634240877e-07,1.0686014481322494e-05
4.7245266584249365e-07,2.903507375706304e-07,5.96893650180697e-07,1.0739388207965106e-05
4.7146763039129847e-07,2.912327208734893e-07,5.969566081290267e-07,1.0790841224468848e-05
4.7040021283420956e-07,2.92147770018078e-07,5.965810131077509e-07,1.0840112384943424e-05
4.6926481007044613e-07,2.9309746819518506e-07,5.957629805329292e-07,1.0886974173949047e-05
4.68073779682909e-07,2.9408629312795656e-07,5.945019971433753e-07,1.093116061331926e-05
4.668374371124155e-07,2.951199015259449e-07,5.928015939207075e-07,1.0972352509233354e-05
4.6556477058559685e-07,2.962042106810841e-07,5.906674386562753e-07,1.1010199199153227e-05
4.64265154419719e-07,2.973435812271906e-07,5.881053955793535e-07,1.1044338950210426e-05
4.6294848634267037e-07,2.985393554830351e-07,5.851213524430015e-07,1.1074416060988113e-05
4.6162250959320705e-07,2.997903183748327e-07,5.817215249996309e-07,1.1100101549785127e-05
4.60290982451104e-07,3.0109435778946005e-07,5.779121467456696e-07,1.1121110464346845e-05
4.589553578268311e-07,3.024501377003805e-07,5.736992223131633e-07,1.1137225153878382e-05
4.5761807866924286e-07,3.038583323499509e-07,5.690887481286385e-07,1.114834135551885e-05
4.562840603064697e-07,3.053216876781913e-07,5.640871930834053e-07,1.1154543414877941e-05
4.5495906272616884e-07,3.068429883446116e-07,5.58702725015234e-07,1.115617346839721e-05
4.536468518423579e-07,3.084222983054985e-07,5.529465749490725e-07,1.11538076757655e-05
4.523474068834485e-07,3.100559200229945e-07,5.468332453097927e-07,1.1148120148200742e-05
4.5105639074538576e-07,3.117367240126826e-07,5.403803861590022e-07,1.1139734086107691e-05
4.4976560091017895e-07,3.134545342365562e-07,5.33609036352018e-07,1.1129145869598853e-05
4.4846528609081447e-07,3.151968177568164e-07,5.265433976345174e-07,1.1116718715434426e-05
4.471477819244798e-07,3.169494742616345e-07,5.192101265983005e-07,1.1102706948514543e-05
4.458085749667711e-07,3.1869732893201985e-07,5.116377385135019e-07,1.1087279140259282e-05
4.444441848876522e-07,3.204247234346301e-07,5.038558850758731e-07,1.107055823167344e-05
4.4305145299209545e-07,3.2211574904752396e-07,4.95894943628235e-07,1.1052746127645233e-05
4.41628714303511e-07,3.237537805579413e-07,4.877875267178443e-07,1.1034277185150388e-05
4.40176587051593e-07,3.253216179748423e-07,4.795711372987287e-07,1.1015818853594843e-05
4.3869961460173274e-07,3.2680377374312267e-07,4.7128924018648995e-07,1.099810541512661e-05
4.3720870190814344e-07,3.281900350741776e-07,4.629907550164381e-07,1.0981770849881534e-05
4.357216347787665e-07,3.294765021745188e-07,4.5472940280113297e-07,1.0967309021943753e-05
4.342602540548453e-07,3.306626437596568e-07,4.4656244669330857e-07,1.095522905571351e-05
4.3284552690538456e-07,3.317478628709673e-07,4.385481411594075e-07,1.0946350304021776e-05
4.3149424025690386e-07,3.3272996892310855e-07,4.307429157627573e-07,1.0941986781133797e-05
4.302193740699401e-07,3.3360474438423355e-07,4.2320071570487967e-07,1.0943851555933659e-05
4.290316695904892e-07,3.3436641294194405e-07,4.159741897703415e-07,1.09538051996374e-05
4.279399673396386e-07,3.350095531228438e-07,4.091133550480442e-07,1.0973636832336647e-05
4.269509398635544e-07,3.355323206458536e-07,4.026615216777834e-07,1.1004928682320262e-05
4.2606889165928116e-07,3.3593922304124194e-07,3.9665405473450275e-07,1.10489812974525e-05
4.252957440636129e-07,3.362409086027122e-07,3.911218079999744e-07,1.1106774442353354e-05
4.246315208709789e-07,3.364515614168705e-07,3.8609432434021724e-07,1.1178947782197934e-05
4.240742593861496e-07,3.365862266899045e-07,3.815986483123226e-07,1.12658038262468e-05
4.236190526888197e-07,3.3665844689046374e-07,3.776570087020007e-07,1.1367340004196765e-05
4.232585000182021e-07,3.366787228234069e-07,3.7428962960317844e-07,1.1483278915726175e-05
4.2298486580903024e-07,3.36654789173351e-07,3.7152192324726344e-07,1.1613070676673873e-05
4.227912913682106e-07,3.365924613931817e-07,3.6938865097349923e-07,1.1755907660612132e-05
4.226712094587691e-07,3.3649542753858363e-07,3.67930588237079e-07,1.1910779586271165e-05
4.2261753321849867e-07,3.363648998842385e-07,3.6718678816269506e-07,1.20765479823628e-05
4.2262200055523244e-07,3.362001048460216e-07,3.6718805393050315e-07,1.225203781522228e-05
4.2267425454502466e-07,3.359988715342991e-07,3.6795419859243003e-07,1.2436129654609959e-05
4.227617764866396e-07,3.357585826528897e-07,3.694954164469861e-07,1.2627803434541901e-05
4.228710752886085e-07,3.354780412034955e-07,3.7181577010756727e-07,1.282614549127838e-05
4.2298830024104745e-07,3.351587523770155e-07,3.749144370053157e-07,1.3030355319687095e-05
4.2309884417624533e-07,3.3480475015838296e-07,3.787839229715077e-07,1.3239725898697808e-05
4.2318827811152726e-07,3.3442209241172426e-07,3.834085416220451e-07,1.3453579334575666e-05
4.232451785110114e-07,3.3401837537118376e-07,3.8876413874405563e-07,1.3671199102616645e-05
4.232630148280272e-07,3.3360147529976287e-07,3.948174954121375e-07,1.389179779829453e-05
4.2323881466556366e-07,3.331775552480514e-07,4.015257734749688e-07,1.4114507555800586e-05
4.231699717973231e-07,3.327496153604861e-07,4.088377756664997e-07,1.4338365399221689e-05
4.2305260199948647e-07,3.323177249347465e-07,4.16696535504471e-07,1.4562311161348675e-05
4.228823539279019e-07,3.318811203429542e-07,4.2504189150454976e-07,1.4785209256876694e-05
4.2265608830702964e-07,3.314414104110041e-07,4.3381240152497643e-07,1.5005861685788055e-05
4.223726931641264e-07,3.310042737957161e-07,4.4294527332426775e-07,1.5223010272388906e-05
4.2203208138297023e-07,3.3057777748666947e-07,4.5237490425978487e-07,1.543535646771855e-05
4.216334972340251e-07,3.30170046543568e-07,4.620327004603248e-07,1.5641594711866065e-05
4.211744244277044e-07,3.2978935771771414e-07,4.7184923916295635e-07,1.5840432284241627e-05
4.2065003477809613e-07,3.294449096167996e-07,4.817577137873636e-07,1.6030596661621576e-05
4.2005312839060244e-07,3.291456057072176e-07,4.916960004234329e-07,1.621085132875941e-05
4.193749557333908e-07,3.288978107498373e-07,5.016062648202284e-07,1.6380021900636214e-05
4.1860726323172046e-07,3.287044473165965e-07,5.114334906086307e-07,1.6537034212705488e-05
4.177440435604746e-07,3.2856643189197843e-07,5.211238644724327e-07,1.6680974007934514e-05
4.167811545789197e-07,3.2848479371398203e-07,5.306250844247724e-07,1.681116721957616e-05
4.1571528352570037e-07,3.2846045269254644e-07,5.398900018761418e-07,1.6927236889468147e-05
4.145447864125142e-07,3.284923143084087e-07,5.488806635491371e-07,1.7029052312186107e-05
4.1327205734411396e-07,3.285767030625996e-07,5.575693697628704e-07,1.7116586589425898e-05
4.119052790676517e-07,3.2870806654408665e-07,5.65935864818641e-07,1.7189832786601677e-05
4.104582935131206e-07,3.288794711428379e-07,5.739624767475635e-07,1.724884454927596e-05
4.089479593371405e-07,3.290829638091288e-07,5.816318532982864e-07,1.7293799765830447e-05
4.0739013405935796e-07,3.2931055979479107e-07,5.889296810898232e-07,1.7324994157732373e-05
4.057975752734811e-07,3.2955569603509305e-07,5.95848867969519e-07,1.7342774144242855e-05
4.0418020193638756e-07,3.2981396221209264e-07,6.023900176183906e-07,1.7347481791578186e-05
4.025452736054733e-07,3.3008333581987207e-07,6.08557095234297e-07,1.73395066919985e-05
4.008973932389412e-07,3.3036474551075923e-07,6.143524655617265e-07,1.731942388617259e-05
3.9923985048546683e-07,3.306612972104346e-07,6.197748450547775e-07,1.7288041755581327e-05
3.975763497117672e-07,3.30975353149718e-07,6.248192757342275e-07,1.7246280395735284e-05
3.959111002503523e-07,3.313061788186836e-07,6.294778560768746e-07,1.7194998769624102e-05
3.942478987892682e-07,3.316502365799069e-07,6.337410558948858e-07,1.7134910950151448e-05
3.925893889169687e-07,3.320035840726963e-07,6.37599092275914e-07,1.706667390087978e-05
3.909363328110847e-07,3.3236414900011065e-07,6.410425387072557e-07,1.6991134117936667e-05
3.892874755372904e-07,3.3273131463882324e-07,6.440616489142748e-07,1.6909547409923824e-05
3.876405011304808e-07,3.331036559793625e-07,6.466453555053192e-07,1.682357893089892e-05
3.859940370306139e-07,3.334781609447185e-07,6.487811406971277e-07,1.6735128619881233e-05
3.843503328205674e-07,3.338512281478857e-07,6.504557810470524e-07,1.6646144535754418e-05
3.8271592258057926e-07,3.3421945645377087e-07,6.516572195598542e-07,1.6558480434625093e-05
3.8109896119002404e-07,3.345794556708412e-07,6.523772227258822e-07,1.647378705512695e-05
3.795069679688188e-07,3.349269251986688e-07,6.526123581627691e-07,1.6393440734569046e-05
3.779473666568864e-07,3.3525589924331286e-07,6.523621682266088e-07,1.631850312587174e-05
3.764281766516144e-07,3.3555867209987447e-07,6.516269641615993e-07,1.6249697031035487e-05
3.749575033977044e-07,3.358258368835878e-07,6.504077343467182e-07,1.6187406289373475e-05
3.735439524030341e-07,3.360461769071566e-07,6.487079423936286e-07,1.6131712129847328e-05
3.72198066906788e-07,3.3620682396530964e-07,6.465349318609815e-07,1.6082453740025515e-05
3.7093197024987567e-07,3.362944685175849e-07,6.43899643747262e-07,1.6039290173235595e-05
3.697569435675971e-07,3.362973769168548e-07,6.408174583901508e-07,1.6001756542778807e-05
3.686820395366907e-07,3.362062882618349e-07,6.373139966350801e-07,1.5969329741257362e-05
3.6771424286049477e-07,3.3601361801854875e-07,6.334336938561421e-07,1.5941515158773183e-05
3.6685863398145094e-07,3.3571241516832853e-07,6.292435068075729e-07,1.5917933001078797e-05
3.661203622194041e-07,3.352962454856377e-07,6.248272416147926e-07,1.5898365767778535e-05
3.655094273302141e-07,3.347602354917656e-07,6.20273672942235e-07,1.5882753081925228e-05
3.650443935874092e-07,3.341020866715877e-07,6.156654729968841e-07,1.587115473576102e-05
3.647518183912304e-07,3.33321595749719e-07,6.110742890803378e-07,1.5863705775204007e-05
3.646632852363992e-07,3.324192394938209e-07,6.065622495422814e-07,1.5860565084707143e-05
3.648141405251982e-07,3.313953732430181e-07,6.021849697119784e-07,1.5861848319554546e-05
3.6524411340283203e-07,3.302503764295241e-07,5.979915370583905e-07,1.5867548774692872e-05
3.65997008684094e-07,3.289850768050879e-07,5.940229911375996e-07,1.5877480977180397e-05
3.671186516181972e-07,3.276010327395996e-07,5.90312958902057e-07,1.589130361040128e-05
3.686528215419096e-07,3.2610040067891365e-07,5.868899248917888e-07,1.5908626030260862e-05
3.706358492356591e-07,3.2448510312766765e-07,5.837786951499741e-07,1.5929108967535417e-05
3.730937412034492e-07,3.227558071608401e-07,5.810000877041279e-07,1.595247388667883e-05
3.7604397488680637e-07,3.2091156616859285e-07,5.785691412044712e-07,1.597844308246768e-05
3.794993147385145e-07,3.1895036307364695e-07,5.764942566494484e-07,1.6006702376377446e-05
3.834702191944644e-07,3.16870385498969e-07,5.74779959284036e-07,1.6036928658963212e-05
3.8796481831833245e-07,3.146710265050377e-07,5.734318833280185e-07,1.6068818343386493e-05
3.9298728514584226e-07,3.123525722051093e-07,5.724599419253053e-07,1.610204110956865e-05
3.9853660487939134e-07,3.0991574537025534e-07,5.718781548981001e-07,1.6136152399208764e-05
4.046083796130135e-07,3.0736230270686467e-07,5.717021299382915e-07,1.6170561601517338e-05
4.1119910019761813e-07,3.04695645563936e-07,5.719445902007601e-07,1.620459218917436e-05
4.183083337762032e-07,3.0192072133368393e-07,5.726099588805634e-07,1.6237590410255415e-05
4.2593641326520975e-07,2.990433547120508e-07,5.736912171237462e-07,1.6269030910271138e-05
4.34079134258494e-07,2.96069103311236e-07,5.751707899698167e-07,1.629858815122884e-05
4.4272268520900213e-07,2.930030926382803e-07,5.770238384556475e-07,1.632613652183567e-05
4.5184300466725787e-07,2.8985193365826164e-07,5.792229032353389e-07,1.6351663145469025e-05
4.6140947461396887e-07,2.8662506763440536e-07,5.817447281733188e-07,1.6375145614410735e-05
4.7138737989041576e-07,2.8333319792075423e-07,5.845779527214503e-07,1.639648256396547e-05
4.81737162158511e-07,2.79986345041808e-07,5.877272762111257e-07,1.641550427374708e-05
4.924140965763982e-07,2.7659382971713254e-07,5.912104836983451e-07,1.643200296451354e-05
5.03369904263061e-07,2.7316480132207363e-07,5.950493206013602e-07,1.6445730408422332e-05
5.145536633505362e-07,2.697080128792057e-07,5.992609598676757e-07,1.6456394773995587e-05
5.259113445462578e-07,2.662315033481612e-07,6.038571463512949e-07,1.6463750787742487e-05
5.373867909035318e-07,2.627437614816832e-07,6.088501001543597e-07,1.6467779444653372e-05
5.489239604481382e-07,2.5925644527730517e-07,6.142574313060915e-07,1.646877117777202e-05
5.6046757255782e-07,2.557857018433989e-07,6.201012435571141e-07,1.646720969293113e-05
5.719622191923464e-07,2.523502535715704e-07,6.2640386163591e-07,1.646358826687877e-05
5.833513296308956e-07,2.489683320708899e-07,6.33183725761231e-07,1.645829448230019e-05
5.945764166876873e-07,2.4565603296237157e-07,6.404512967047966e-07,1.6451621651969846e-05
6.055772733003562e-07,2.424275459873851e-07,6.482052779383188e-07,1.6443941465901178e-05
6.162933889022065e-07,2.392956928101029e-07,6.564315928663742e-07,1.6435914967450368e-05
6.266655706265214e-07,2.3627205666405515e-07,6.651056745861222e-07,1.6428527675299186e-05
6.366367237679461e-07,2.333678610597599e-07,6.741955090196188e-07,1.642294439546358e-05
6.461515257658639e-07,2.305949100881389e-07,6.836627320635485e-07,1.6420337602955034e-05
6.551558825206347e-07,2.279650232237362e-07,6.934630349076904e-07,1.642175841462739e-05
6.635978855675754e-07,2.254885797562341e-07,7.035474070537768e-07,1.642804243929351e-05
6.714302304532936e-07,2.2317324688879027e-07,7.138619880902084e-07,1.643975769713259e-05
6.786117009626887e-07,2.2102328792588059e-07,7.243476019743734e-07,1.6457206426062772e-05
6.851064712398756e-07,2.190395260098628e-07,7.349434967878831e-07,1.6480465120688002e-05
6.908826083196441e-07,2.172200795751164e-07,7.455951714074619e-07,1.650943715245651e-05
6.9591129145807e-07,2.1556241021237306e-07,7.562626465697058e-07,1.6543892472695902e-05
7.001671147050743e-07,2.140657409657218e-07,7.669264407693644e-07,1.658346604393785e-05
7.036289126540881e-07,2.127310450022598e-07,7.775905453202501e-07,1.6627623635918343e-05
7.062801215018694e-07,2.115585741094248e-07,7.882813579440498e-07,1.6675640934853048e-05
7.081092880571014e-07,2.1054633026065053e-07,7.990388091680916e-07,1.6726623397751222e-05
7.091119656517642e-07,2.0969064357661926e-07,8.099009254893386e-07,1.6779562750959435e-05
7.092917660865791e-07,2.08988098171686e-07,8.20892158475796e-07,1.6833415915907434e-05
7.086579770788373e-07,2.0843882200321165e-07,8.320219191663147e-07,1.688718021386769e-05
7.072225048395146e-07,2.0804820843269905e-07,8.432893878251153e-07,1.6939932266402688e-05
7.049993624461574e-07,2.0782395674094e-07,8.546897100553782e-07,1.6990833421011225e-05
7.0200517721421e-07,2.077719859582124e-07,8.662193126201962e-07,1.7039132480518696e-05
6.982589678009928e-07,2.0789533546618573e-07,8.778781537746046e-07,1.7084166538313424e-05
6.937828380959249e-07,2.0819472114231428e-07,8.89669005136715e-07,1.7125342675125048e-05
6.886047260956262e-07,2.0866897180256237e-07,9.015953193236216e-07,1.7162112840627615e-05
6.827599196751893e-07,2.0931501860976176e-07,9.136583917203345e-07,1.719395627360408e-05
6.762885851798952e-07,2.101273521397764e-07,9.258551525571422e-07,1.7220360470525517e-05
6.692321837197158e-07,2.110981022145207e-07,9.381776357005148e-07,1.724081523251453e-05
6.616318679049463e-07,2.122178884150352e-07,9.506138427575148e-07,1.725483013281177e-05
6.535279901372548e-07,2.1347599543123287e-07,9.63149156657087e-07,1.7261929695950192e-05
6.449596742388347e-07,2.1486001935225572e-07,9.757666512912822e-07,1.726161119828792e-05
6.35965363390964e-07,2.1635641551098446e-07,9.884449150705165e-07,1.7253317539636254e-05
6.265854846308321e-07,2.1795209564963498e-07,1.001154913125849e-06,1.7236453396266253e-05
6.168661887165945e-07,2.196352090583964e-07,1.0138587321513866e-06,1.7210425277923835e-05
6.068606328016753e-07,2.213945196698605e-07,1.026510174312562e-06,1.7174691156449874e-05
5.966260111076846e-07,2.232193635327612e-07,1.0390557455231542e-06,1.7128814572666242e-05
5.86219245791415e-07,2.2509996879937463e-07,1.0514363378240544e-06,1.7072508634332012e-05
5.756957080935771e-07,2.270267931140711e-07,1.0635908726502242e-06,1.7005660584959052e-05
5.651112981551363e-07,2.289909017687355e-07,1.0754610972294821e-06,1.6928341617240905e-05
5.545244420364904e-07,2.309864792194377e-07,1.0869938897449283e-06,1.6840821676724627e-05
5.439960015282884e-07,2.3301271740033022e-07,1.0981394056211314e-06,1.674359687677992e-05
5.335871355805999e-07,2.3507354318872203e-07,1.108848339024461e-06,1.6637384662587868e-05
5.233562959013471e-07,2.3717587379321218e-07,1.119071345866893e-06,1.6523036981449662e-05
5.133571823090322e-07,2.3932673067336786e-07,1.1287590022787336e-06,1.6401405863779394e-05
5.036371854966403e-07,2.4153061073627646e-07,1.137860629930279e-06,1.627326560673107e-05
4.942356349858901e-07,2.437888427473957e-07,1.1463236187019934e-06,1.6139334697718446e-05
4.85183798995756e-07,2.461000570187437e-07,1.1540946072083522e-06,1.600033588925016e-05
4.7650668406137417e-07,2.4846046269694837e-07,1.1611221368629828e-06,1.5857033041454302e-05
4.6822391222994e-07,2.50864282537938e-07,1.1673584475903243e-06,1.5710226427466753e-05
4.603500820992773e-07,2.5330447376484624e-07,1.172758174512228e-06,1.5560742030318938e-05
4.5289644582423993e-07,2.5577309824512375e-07,1.1772760421565245e-06,1.5409488384476582e-05
4.4587181873892114e-07,2.5826134354031076e-07,1.1808668055909528e-06,1.5257521328263854e-05
4.3928119923710634e-07,2.607605303812121e-07,1.1834871772611747e-06,1.5105966912964136e-05
4.33125056096081e-07,2.632647003415746e-07,1.1850977191466741e-06,1.4955844621572748e-05
4.2740165900565745e-07,2.657728362133172e-07,1.1856642976793726e-06,1.4807958443227004e-05
4.2211014589595726e-07,2.682895456320625e-07,1.1851606010527308e-06,1.4662934433662713e-05
4.1725148779233077e-07,2.708244624234171e-07,1.183571172654858e-06,1.4521412075755426e-05
4.1282942795279566e-07,2.733901472821055e-07,1.1808915049845664e-06,1.4384291503211875e-05
4.088525989128343e-07,2.760004194954131e-07,1.177124139670815e-06,1.4252836742281455e-05
4.05333543812814e-07,2.7867016930043605e-07,1.1722742331133377e-06,1.4128572220435858e-05
4.0228372029900525e-07,2.814137005418399e-07,1.1663480158404335e-06,1.4013106028362359e-05
3.997090767893202e-07,2.842417610131597e-07,1.159353918500188e-06,1.3907993085253748e-05
3.9760891932707655e-07,2.871602431073279e-07,1.1513045842694073e-06,1.3814639921395447e-05
3.959779478487053e-07,2.901700432217998e-07,1.1422185387364386e-06,1.3734220879286904e-05
3.948096928722578e-07,2.932673533644055e-07,1.1321212497270417e-06,1.3667602692142087e-05
3.940976788859378e-07,2.9644617074740675e-07,1.1210467347641487e-06,1.3615299887796085e-05
3.9383260542394364e-07,2.997019523714273e-07,1.109038774096476e-06,1.3577480112016154e-05
3.93998999958127e-07,3.0303215842115476e-07,1.0961483849385427e-06,1.3554010796262206e-05
3.9457536085130023e-07,3.064340475362098e-07,1.0824287632298289e-06,1.3544509799494169e-05
3.9553666572793994e-07,3.0990341853391245e-07,1.0679328069093106e-06,1.3548373929107496e-05
3.9685581522342896e-07,3.134342560532566e-07,1.0527139644199705e-06,1.356480197159164e-05
3.985034394984704e-07,3.1701820044803786e-07,1.0368270437785204e-06,1.3592835015344436e-05
4.0044724836792886e-07,3.206444467879685e-07,1.0203276093659838e-06,1.3631419046401825e-05
4.0265218208827756e-07,3.243005225873745e-07,1.0032705116442385e-06,1.3679487789188628e-05
4.050826539696161e-07,3.279737139670977e-07,9.857083837366116e-07,1.3736038116645564e-05
4.077057554019014e-07,3.3165220849294024e-07,9.676913672219514e-07,1.3800163286415893e-05
4.104930062117071e-07,3.353260128718353e-07,9.492683429791278e-07,1.3871055062194287e-05
4.134213197676782e-07,3.389880953845393e-07,9.304896473788164e-07,1.3948001431921756e-05
4.164746451456106e-07,3.426345711809806e-07,9.114106965051754e-07,1.4030371617533256e-05
4.1964428643288974e-07,3.462635326586206e-07,8.920929308267302e-07,1.4117567592331146e-05
4.229251765854428e-07,3.4987339575681036e-07,8.726000584610556e-07,1.4208944360452127e-05
4.2631021542892853e-07,3.5346085663143466e-07,8.529935109628473e-07,1.43037368542382e-05
4.297875094232147e-07,3.570193496695873e-07,8.333307473804915e-07,1.4401055908967419e-05
4.33340575588436e-07,3.6053964568291286e-07,8.136652409561874e-07,1.4499978211940674e-05
4.36948407268863e-07,3.6401138638806427e-07,7.940462717554474e-07,1.4599652823946014e-05
4.4058551305656405e-07,3.6742341044855093e-07,7.745186501909705e-07,1.4699320995503006e-05
4.4422325845192326e-07,3.7076373327007927e-07,7.551231317769256e-07,1.4798266354089364e-05
4.478315024844759e-07,3.740198292737397e-07,7.358971957128e-07,1.4895779271402985e-05
4.5137945828382025e-07,3.771779662540449e-07,7.168748344508113e-07,1.4991152439921247e-05
4.548372425362393e-07,3.802226616896378e-07,6.980855819613246e-07,1.5083678302372885e-05
4.5818020788284063e-07,3.8313855656053626e-07,6.795544814648637e-07,1.5172634312774472e-05
4.6139384758166283e-07,3.8591297017104186e-07,6.613030187973564e-07,1.5257275000767373e-05
4.644742587523086e-07,3.8853561811907186e-07,6.433500611767409e-07,1.5336853852218697e-05
4.6742475061093465e-07,3.909960481298393e-07,6.257127226141935e-07,1.541067481673081e-05
4.7025314563081703e-07,3.9328186640643095e-07,6.084068133422114e-07,1.5478169307354676e-05
4.729698033653949e-07,3.953788419810869e-07,5.914463297602646e-07,1.5538991787634132e-05
4.7558427148327217e-07,3.9727243552703655e-07,5.748425591269315e-07,1.5593116964658964e-05
4.781018782796376e-07,3.98949962471123e-07,5.586035278957149e-07,1.5640885931075282e-05
4.805222218951454e-07,4.0040141453769933e-07,5.427339006635433e-07,1.568292386950574e-05
4.828397628610876e-07,4.016183040346161e-07,5.272355637645603e-07,1.5719943629414055e-05
4.85046134887979e-07,4.025929459242737e-07,5.121092196217404e-07,1.575256031904176e-05
4.871321869241831e-07,4.0331910556502955e-07,4.973571091412801e-07,1.5781207535275213e-05
4.890879098520425e-07,4.037922291937639e-07,4.829857997733801e-07,1.5806137083328352e-05
4.909013559270841e-07,4.040088291342427e-07,4.690064404318535e-07,1.582744305807596e-05
4.925582789620756e-07,4.0396680758863405e-07,4.554321810743871e-07,1.5845086253249797e-05
4.940430877271968e-07,4.0366742051207316e-07,4.4227606843738356e-07,1.5858967652959452e-05
4.953407686507677e-07,4.031167260309105e-07,4.29551284007311e-07,1.5869090484838365e-05
4.964394632852954e-07,4.0232462663316e-07,4.172719554317153e-07,1.587568500547714e-05
4.973329533803268e-07,4.013025976069919e-07,4.0545248955456025e-07,1.5879146059488094e-05
4.980202735463654e-07,4.0006261389606477e-07,3.941060506340584e-07,1.5879862454933234e-05
4.985023627238452e-07,3.9861903665068e-07,3.832437550711537e-07,1.5878102462094628e-05
4.987800332754702e-07,3.969920058424175e-07,3.7287416272715697e-07,1.5874018723151543e-05
4.988548622503581e-07,3.9520809649225005e-07,3.630027941932229e-07,1.5867803486601803e-05
4.987305608209049e-07,3.9329724772255285e-07,3.536332205073353e-07,1.5859932813241033e-05
4.984122226593407e-07,3.9128899003241187e-07,3.4476928902571677e-07,1.5851291194734667e-05
4.979036978103238e-07,3.8921007547773525e-07,3.3641525674971647e-07,1.584308211347094e-05
4.9720616165309e-07,3.870837218005557e-07,3.285732026461037e-07,1.5836657969890942e-05
4.963189766838889e-07,3.849294887691749e-07,3.212409839918682e-07,1.5833393450590314e-05
4.952419806177399e-07,3.827627296317274e-07,3.144128463491921e-07,1.5834601786177884e-05
4.939785939391539e-07,3.8059438174791496e-07,3.0808167959316986e-07,1.5841462159683946e-05
4.925374810250849e-07,3.7843217516800156e-07,3.022404070358982e-07,1.5854957405192954e-05
4.909312514484403e-07,3.7628211479033253e-07,2.968810394140226e-07,1.5875841252167658e-05
4.891740670581986e-07,3.741487123016018e-07,2.919932326804208e-07,1.5904633778838362e-05
4.872801540426112e-07,3.7203510165171287e-07,2.875644593358121e-07,1.594161509387779e-05
4.852635198161429e-07,3.6994425542541215e-07,2.835807153643473e-07,1.598680202420687e-05
4.831382952093225e-07,3.6787970255710825e-07,2.800260542004603e-07,1.6039934914931337e-05
4.809192564930208e-07,3.658446966617743e-07,2.768822305263711e-07,1.6100507470130552e-05
4.786233376351554e-07,3.638410501864714e-07,2.7413059550496877e-07,1.6167832860876443e-05
4.7627146186366864e-07,3.6186853759816756e-07,2.717543210754262e-07,1.6241123635047268e-05
4.738874129072107e-07,3.599246570783164e-07,2.697383026768665e-07,1.6319576830577045e-05
4.7149405146943034e-07,3.580047495515688e-07,2.680683667183364e-07,1.6402439541330497e-05
4.691103859855487e-07,3.5610312718725684e-07,2.667316314598205e-07,1.6489027310782597e-05
4.6675045984751633e-07,3.5421451235312656e-07,2.657171506721629e-07,1.6578721140308672e-05
4.644233706364444e-07,3.523339977580669e-07,2.6501495548983623e-07,1.667097901454494e-05
4.621337690371357e-07,3.504562926220592e-07,2.6461374966523673e-07,1.676534269762048e-05
4.5988279522093106e-07,3.4857642059204077e-07,2.64500213866676e-07,1.6861408298522135e-05
4.576693519985088e-07,3.466908958313233e-07,2.646595942285582e-07,1.6958768117237532e-05
4.554906210049674e-07,3.4479709280214767e-07,2.650750786792637e-07,1.7056946094045003e-05
4.533419544037664e-07,3.4289183474135236e-07,2.6572710885692807e-07,1.7155351661894477e-05
4.512169390543441e-07,3.4097126003216383e-07,2.6659398023060604e-07,1.725329986173701e-05
4.4910782393831093e-07,3.390313294396869e-07,2.6765317573158434e-07,1.7350094507258317e-05
4.4700674042000744e-07,3.3706764420814386e-07,2.6888289246801336e-07,1.744508521070645e-05
4.449072744261448e-07,3.3507506202220374e-07,2.7026274153050396e-07,1.7537666811742915e-05
4.428058825652277e-07,3.3304840862543825e-07,2.717739429413161e-07,1.7627273928342787e-05
4.407038570324478e-07,3.3098431232603223e-07,2.7340105604177235e-07,1.7713398174099555e-05
4.3860840058296614e-07,3.2888251298278107e-07,2.7513460132463164e-07,1.7795616777784544e-05
4.365311345940992e-07,3.267450968362368e-07,2.7697134044629845e-07,1.7873589732418084e-05
4.344878350960228e-07,3.245744158406356e-07,2.789113331194206e-07,1.7946993598367825e-05
4.325014841719141e-07,3.223721641512536e-07,2.8095408849509604e-07,1.801546226082908e-05
4.306030820410443e-07,3.201404886512142e-07,2.830960906746491e-07,1.8078633308405327e-05
4.288268387609826e-07,3.178837535716538e-07,2.853305421967009e-07,1.8136256272757187e-05
4.2720390306901776e-07,3.156095376584964e-07,2.876490217737442e-07,1.818823536303458e-05
4.257594413829188e-07,3.133278419546313e-07,2.900436176271721e-07,1.8234588042087004e-05
4.245125651321676e-07,3.1104878073997327e-07,2.9250791853945997e-07,1.8275383951888197e-05
4.2347698315613363e-07,3.087810523160893e-07,2.9503644990348093e-07,1.831068942373869e-05
4.2266356679291317e-07,3.0653244377439844e-07,2.9762337059965463e-07,1.834051792450842e-05
4.2208500235699614e-07,3.0431165474042577e-07,3.0026104769492357e-07,1.8364807315945065e-05
4.2176011994176955e-07,3.0213028444300606e-07,3.0293876809691763e-07,1.838343483221709e-05
4.2171586678039616e-07,3.0000315222146437e-07,3.056426786767788e-07,1.839623209275285e-05
4.219846700861098e-07,2.979461964758601e-07,3.083576527418249e-07,1.8402963980035987e-05
4.2259772489504033e-07,2.959745556824047e-07,3.110696405901257e-07,1.840330380321444e-05
4.235787187336071e-07,2.941030141969687e-07,3.137669238902476e-07,1.8396895703886703e-05
4.2494103392116366e-07,2.923469147113656e-07,3.164403658263865e-07,1.8383555629798302e-05
4.2668800561433064e-07,2.90721723231912e-07,3.1908249056387576e-07,1.8363477012847086e-05
4.288140037301667e-07,2.8924214655870586e-07,3.2168572680628126e-07,1.833722183616217e-05
4.3130515948936977e-07,2.879213502421588e-07,3.242417510674789e-07,1.8305535636237647e-05
4.34141300841555e-07,2.8676981883966677e-07,3.267421263393585e-07,1.826923818602782e-05
4.3730046741634923e-07,2.857942653422645e-07,3.291790244901969e-07,1.822923383450801e-05
4.4076356107411976e-07,2.8499733223893257e-07,3.315458790765289e-07,1.8186492094113777e-05
4.445152398786292e-07,2.843775736194632e-07,3.338376479148802e-07,1.81419764518776e-05
4.4854183096951363e-07,2.839294460873992e-07,3.3605031211959577e-07,1.8096582695311213e-05
4.52830033009746e-07,2.8364428576442124e-07,3.381811548307581e-07,1.805108880816263e-05
4.5736721310339596e-07,2.835119808607189e-07,3.4023015008915417e-07,1.8006111406852497e-05
4.621417493113251e-07,2.835217549208354e-07,3.421997624526374e-07,1.7962080910889762e-05
4.671418663514351e-07,2.8366195999923227e-07,3.440931637448329e-07,1.7919237147367982e-05
4.7235247318243844e-07,2.83919823133584e-07,3.459129297705525e-07,1.7877643090947863e-05
4.77752009663786e-07,2.8428124596066704e-07,3.47660057678937e-07,1.783721376308617e-05
4.833117299742125e-07,2.847309421414638e-07,3.493335446053822e-07,1.7797746018967212e-05
4.889977215399132e-07,2.852535534327393e-07,3.509309333117614e-07,1.7758946196086328e-05
4.94775585380727e-07,2.8583454892527205e-07,3.524489706638683e-07,1.7720467486415257e-05
5.006165430362222e-07,2.8645965045983967e-07,3.538841101923993e-07,1.7681933877566518e-05
5.065010796724789e-07,2.8711403635843894e-07,3.5523290002487405e-07,1.7642921167697024e-05
5.124191438928199e-07,2.877829545285878e-07,3.5649292444826853e-07,1.7602941818755087e-05
5.183699352845499e-07,2.8845364024504805e-07,3.5766447752737936e-07,1.7561487470183292e-05
5.243617695271986e-07,2.891165109138841e-07,3.587505403573749e-07,1.7518083735108715e-05
5.304093110596442e-07,2.897644741825132e-07,3.5975426973976846e-07,1.7472299840571756e-05
5.365269676218433e-07,2.9039227534334914e-07,3.606767647213581e-07,1.7423738938342592e-05
5.4272244350953e-07,2.909971909384464e-07,3.615165125697245e-07,1.7372047328449633e-05
5.489957777580315e-07,2.915805602310937e-07,3.6226975952112003e-07,1.7316937506342863e-05
5.553423270283867e-07,2.921495452514509e-07,3.629315755556066e-07,1.725821268157732e-05
5.617554181073857e-07,2.927180929961216e-07,3.6349725712086366e-07,1.7195775016533027e-05
5.682276132199386e-07,2.9330685374942753e-07,3.639628549303185e-07,1.7129596385477944e-05
5.74749448380999e-07,2.939413834933162e-07,3.64324724423104e-07,1.7059669117551253e-05
5.813063048039003e-07,2.9464762659686666e-07,3.6457918685161207e-07,1.6985960739722672e-05
5.878767789255946e-07,2.954475501879528e-07,3.647223625038634e-07,1.6908385582343375e-05
5.944332553626811e-07,2.963580049827002e-07,3.6474974138693147e-07,1.6826842789909734e-05
6.009430626070858e-07,2.9739113436125524e-07,3.6465587632027714e-07,1.6741325977936834e-05
6.073692350682352e-07,2.9855395713846367e-07,3.644347438131444e-07,1.6651991517337656e-05
6.13671439799642e-07,2.9984750666691603e-07,3.6408082315331406e-07,1.6559102665583675e-05
6.198081445815711e-07,3.012667863041524e-07,3.635901855097167e-07,1.6462909614484784e-05
6.257397797863452e-07,3.028020329254004e-07,3.6296090114164207e-07,1.636356923003415e-05
6.314318242500285e-07,3.0444165910051266e-07,3.621932520285553e-07,1.6261140124143838e-05
6.368558790375144e-07,3.0617629956516423e-07,3.6129011446026454e-07,1.6155613278861607e-05
6.419873874545233e-07,3.080014260939403e-07,3.602566304216733e-07,1.604693063989145e-05
6.468034216270249e-07,3.099176060990397e-07,3.5909947470185704e-07,1.5934986845318882e-05
6.51283553301087e-07,3.119306124778815e-07,3.578271910006514e-07,1.5819626238430387e-05
6.554100525267309e-07,3.1405233199206237e-07,3.56450444149323e-07,1.5700640591215895e-05
6.591657641179922e-07,3.163010828746044e-07,3.549803046697935e-07,1.5577768335351912e-05
6.625346531352278e-07,3.187009206893304e-07,3.53426316533052e-07,1.5450698781463075e-05
6.655063211078208e-07,3.2127992283930733e-07,3.5179644638433245e-07,1.5319087523820816e-05
6.680793722176741e-07,3.2406598484005234e-07,3.500978658039321e-07,1.5182576327916793e-05
6.70260909355143e-07,3.270809344005848e-07,3.483374337114557e-07,1.5040816412437048e-05
6.720644312775621e-07,3.303373533050753e-07,3.4652201492063345e-07,1.489351062791972e-05
6.735076478974992e-07,3.3383968870596407e-07,3.446582816388626e-07,1.4740461698135388e-05
6.746097112200371e-07,3.375868054958785e-07,3.427521886370424e-07,1.4581585881399286e-05
6.753880868705949e-07,3.4157375010822053e-07,3.40809304682577e-07,1.4416884568421868e-05
6.758564186211478e-07,3.4579246337333413e-07,3.388350949919668e-07,1.4246413232877628e-05
6.760246185650236e-07,3.502324495326197e-07,3.3683380709584466e-07,1.4070296020713254e-05
6.758999131131867e-07,3.5488194097324854e-07,3.348079167916192e-07,1.3888777509228748e-05
6.75486499468132e-07,3.597276931835268e-07,3.327592206675779e-07,1.3702239437386866e-05
6.747843252727525e-07,3.6475374273891565e-07,3.306895011191176e-07,1.3511168743411923e-05
6.737887517538751e-07,3.699422044681392e-07,3.285998662397623e-07,1.3316122156100767e-05
6.72491556594916e-07,3.7527582933317937e-07,3.264900731254628e-07,1.311768691333291e-05
6.708831373653284e-07,3.8073984159549927e-07,3.2435877934200336e-07,1.2916438001648905e-05
6.689555050316161e-07,3.86321669337626e-07,3.222041777520475e-07,1.2712917001881905e-05
6.667055677045962e-07,3.9200905006265007e-07,3.200246149198271e-07,1.2507636000707112e-05
6.641378839102093e-07,3.9778837696530093e-07,3.178193743748029e-07,1.2301093858953046e-05
6.612653822779888e-07,4.0364344915707347e-07,3.155891236684781e-07,1.2093788473889613e-05
6.581077897705897e-07,4.095546325373983e-07,3.1333571871383967e-07,1.1886221680160644e-05
6.54688762578951e-07,4.15500444810625e-07,3.110615417140926e-07,1.1678900041673915e-05
6.510319867056215e-07,4.2146113920796937e-07,3.087688880714888e-07,1.1472328010240945e-05
6.471573671667153e-07,4.274211005018656e-07,3.064604231348487e-07,1.1266999364200176e-05
6.430797059825232e-07,4.3336983354948457e-07,3.041397126255624e-07,1.1063387483924518e-05
6.38810188622972e-07,4.393033988796628e-07,3.018100234390777e-07,1.0861917267136929e-05
6.343584650669968e-07,4.45224368474733e-07,2.994728607774029e-07,1.0662926653317697e-05
6.297337132244396e-07,4.5113721624586954e-07,2.9712836789650694e-07,1.0466652316570314e-05
6.249447271304223e-07,4.570417339086255e-07,2.947768291175507e-07,1.0273245430456994e-05
6.199992781323245e-07,4.6292950898533537e-07,2.9241970183398874e-07,1.00827967362204e-05
6.14903335424335e-07,4.6878434110584404e-07,2.9006035679391716e-07,9.895357896895869e-06
6.096612624970604e-07,4.7458478469694956e-07,2.877050566931172e-07,9.710948490883874e-06
6.042773856504223e-07,4.803075178713272e-07,2.853636190938324e-07,9.529546927834308e-06
5.987579176939613e-07,4.859305800989721e-07,2.8304914454700684e-07,9.351084413773517e-06
5.931112577871809e-07,4.914355739217916e-07,2.807764144562916e-07,9.175450848242087e-06
5.873461554545589e-07,4.968082615947064e-07,2.785594762578185e-07,9.002502245721283e-06
5.814697802913565e-07,5.020380365184676e-07,2.764096767842465e-07,8.832069617784886e-06
5.754872507996237e-07,5.071171284762615e-07,2.743347767426364e-07,8.663982840621666e-06
5.694022265047331e-07,5.120390310275794e-07,2.723395561866058e-07,8.498105031983196e-06
5.63218177921135e-07,5.167965021501941e-07,2.704278181684497e-07,8.334348098105994e-06
5.569397781212159e-07,5.213809783467863e-07,2.686044686541923e-07,8.172669989076092e-06
5.505733650766523e-07,5.257829338692171e-07,2.6687620244865165e-07,8.013091279931473e-06
5.441268520774044e-07,5.299917470901145e-07,2.6525135989838816e-07,7.855729481812724e-06
5.37609843551958e-07,5.339951780127543e-07,2.637407892720263e-07,7.70081230656087e-06
5.310334525923078e-07,5.377786350344947e-07,2.6235903984211744e-07,7.548654776799112e-06
5.244093663811573e-07,5.413246233697761e-07,2.611234006334959e-07,7.399610357290494e-06
5.177482764960056e-07,5.446131715985462e-07,2.600508986949614e-07,7.254016376690071e-06
5.110585641630002e-07,5.476231851371572e-07,2.591562430423539e-07,7.112153494012082e-06
5.043473410151722e-07,5.503339748353191e-07,2.584521100279429e-07,6.9742425129065964e-06
4.976244620439271e-07,5.527262108925212e-07,2.5794986153797003e-07,6.840508625406794e-06
4.909058289989765e-07,5.547819255669586e-07,2.57658917350454e-07,6.71129115618211e-06
4.842119943870494e-07,5.564840484960117e-07,2.57585321540964e-07,6.587104588108923e-06
4.775647934131977e-07,5.578168368649722e-07,2.577310040388203e-07,6.468593066305398e-06
4.7098799582775076e-07,5.587675096732431e-07,2.580946776175824e-07,6.356421860903141e-06
4.6451096749337216e-07,5.593274650760649e-07,2.586737795486933e-07,6.251175288467777e-06
4.5816934638872824e-07,5.594927153750346e-07,2.594657315031173e-07,6.1533154308417935e-06
4.5200192634459637e-07,5.592640888975659e-07,2.604681972759237e-07,6.0632406664103525e-06
4.460472717362747e-07,5.586459018252733e-07,2.6167856366331724e-07,5.9813973904071705e-06
4.4034079486493034e-07,5.576433055102648e-07,2.6309206693833626e-07,5.908327298499072e-06
4.3491186814324256e-07,5.562607645777739e-07,2.647000038712811e-07,5.844610541422833e-06
4.2978231520913355e-07,5.545023187665946e-07,2.6649100022137124e-07,5.790775745851549e-06
4.249662326383811e-07,5.523724674933078e-07,2.684558773510022e-07,5.747245681565163e-06
4.204702726984642e-07,5.498764133689668e-07,2.70591681113562e-07,5.71432346031605e-06
4.1629533810640223e-07,5.470202428236457e-07,2.7289952585254786e-07,5.692189312688764e-06
4.124391584398524e-07,5.438128949738063e-07,2.7537882975159987e-07,5.680888889454687e-06
4.0889697615225465e-07,5.40268070088018e-07,2.780248048120976e-07,5.680345608841297e-06
4.056608347351276e-07,5.364028330068118e-07,2.8082931823333764e-07,5.690466672235704e-06
4.027202427991682e-07,5.322351128021604e-07,2.837811168705345e-07,5.7113034293386864e-06
4.000635730257039e-07,5.277834305132185e-07,2.8686510735883737e-07,5.7431027574322475e-06
3.9767832816415284e-07,5.230673222662659e-07,2.900625074618093e-07,5.786203767097282e-06
3.955509171072208e-07,5.181070694457532e-07,2.9335169785902485e-07,5.8408873891729245e-06
3.936675753900929e-07,5.129243020442934e-07,2.967087227512301e-07,5.907272121784422e-06
3.9201667593605716e-07,5.075428623449714e-07,3.0010809125906176e-07,5.985338511155021e-06
3.9059098883938005e-07,5.019874585915103e-07,3.0352462400631627e-07,6.07512249919168e-06
3.893883720880947e-07,4.962810392864965e-07,3.069350861696445e-07,6.176927848503867e-06
3.8840985771887033e-07,4.904438203127193e-07,3.103195312515772e-07,6.291353967634423e-06
3.8765616603015134e-07,4.844941591428799e-07,3.1366324566547735e-07,6.419153208606788e-06
3.8712598349569203e-07,4.78449535125991e-07,3.169569499059513e-07,6.561061008608958e-06
3.86816474735857e-07,4.723266862671073e-07,3.201944803346812e-07,6.717661036092141e-06
3.8672412910087427e-07,4.661410888378364e-07,3.233718991173565e-07,6.8892831140555296e-06
3.8684671493064494e-07,4.599067372838397e-07,3.2648927909623426e-07,7.0759400220902615e-06
3.871856403414109e-07,4.536368337304597e-07,3.2955165286558646e-07,7.277322231647443e-06
3.8774447753367866e-07,4.473451920289275e-07,3.325673299871315e-07,7.492842360800017e-06
3.8852431075857317e-07,4.410475952564247e-07,3.355456436027436e-07,7.721689340473205e-06
3.8952074576632364e-07,4.3476194467433566e-07,3.384951253216964e-07,7.962878624652578e-06
3.907238471119268e-07,4.285071194603075e-07,3.414214938563634e-07,8.215299933484364e-06
3.921197251163218e-07,4.223023104036992e-07,3.4432645347940557e-07,8.477740436321982e-06
3.936921501715242e-07,4.161686578882047e-07,3.472075635037478e-07,8.748877973745345e-06
3.9542318279060846e-07,4.101317151486617e-07,3.5005821413497066e-07,9.027277936154343e-06
3.972945195652537e-07,4.0422103912598706e-07,3.528683428123597e-07,9.311427393975237e-06
3.992903016037107e-07,3.9846716031834607e-07,3.5562650198231896e-07,9.599795837524623e-06
4.0139774153004155e-07,3.928989178794343e-07,3.583218826927464e-07,9.89087180849724e-06
4.036045055103913e-07,3.8754266358943203e-07,3.6094445006105757e-07,1.0183154525542378e-05
4.0589717152617026e-07,3.8242371849168896e-07,3.6348325066053377e-07,1.0475129697987836e-05
4.082614381074034e-07,3.775672313118644e-07,3.659248340401165e-07,1.0765254368424013e-05
4.106819340505517e-07,3.7299580746948966e-07,3.682530864959705e-07,1.1051957701534018e-05
4.131437290200981e-07,3.687270081499103e-07,3.704505025697871e-07,1.1333659859500302e-05
4.156355641986542e-07,3.647732375004984e-07,3.725008947002253e-07,1.160880165007772e-05
4.1815017305702047e-07,3.6114200999298593e-07,3.743923656234985e-07,1.1875880376722475e-05
4.2068273149569526e-07,3.578354394134565e-07,3.7611811039131496e-07,1.213350774691974e-05
4.232322346082129e-07,3.5485035827644366e-07,3.7767498644304344e-07,1.238048908937805e-05
4.2580296223648e-07,3.5217942636017954e-07,3.790622209899162e-07,1.2615865232528062e-05
4.284011992363703e-07,3.498117012894279e-07,3.802811010358101e-07,1.2838873140943785e-05
4.310301286869053e-07,3.477326935170778e-07,3.8133552147475144e-07,1.3048862204315132e-05
4.3368777595131566e-07,3.4592563063245537e-07,3.822330263973142e-07,1.324522152393253e-05
4.3636889521286536e-07,3.443728889028123e-07,3.829837151952146e-07,1.3427348528323296e-05
4.3906841838143996e-07,3.430555500535871e-07,3.8359691848936356e-07,1.3594685416023887e-05
4.417823914963781e-07,3.419526866387588e-07,3.840795707075624e-07,1.3746828667211314e-05
4.44506181723998e-07,3.4104288674757977e-07,3.844365627523539e-07,1.3883639394172754e-05
4.47234382395814e-07,3.403084712720688e-07,3.8467079194599866e-07,1.4005259605987866e-05
4.499626789144855e-07,3.3974011385230677e-07,3.84783094692484e-07,1.4112044579515357e-05
4.52687602716716e-07,3.393378770231321e-07,3.847722952403992e-07,1.4204474528678672e-05
4.554041514034985e-07,3.391078195697109e-07,3.8463540571916315e-07,1.4283060654800191e-05
4.5810425573790253e-07,3.3905686929115237e-07,3.843689612555293e-07,1.4348258053739692e-05
4.6077723191119785e-07,3.3918887387379844e-07,3.8397038085996726e-07,1.4400423088590051e-05
4.6341166812966566e-07,3.395033995496728e-07,3.834381705449694e-07,1.4439831553025089e-05
4.659966637833935e-07,3.399960678676045e-07,3.8277266098785656e-07,1.4466740169281585e-05
4.685213863158464e-07,3.4065895597930667e-07,3.81976542502991e-07,1.4481461920008188e-05
4.709743982089058e-07,3.4148202622557827e-07,3.8105316670514025e-07,1.4484420452915301e-05
4.7334314493996363e-07,3.4245527592200825e-07,3.8000535125358424e-07,1.4476152499326486e-05
4.7561323501714743e-07,3.435692358305736e-07,3.788367242790738e-07,1.4457251498108332e-05
4.777681231931042e-07,3.448134822809325e-07,3.7755300382405896e-07,1.4428303117481435e-05
4.797896579935103e-07,3.4617510224115066e-07,3.7616189783687273e-07,1.4389902382478259e-05
4.816586740000742e-07,3.4763872086852924e-07,3.746728064964934e-07,1.4342728262910064e-05
4.833548046152414e-07,3.4918752121254447e-07,3.730962960277401e-07,1.4287534869715995e-05
4.848569283306101e-07,3.508040515506741e-07,3.714432559454432e-07,1.4225042107344025e-05
4.861454007181522e-07,3.5247214210482395e-07,3.697253356292129e-07,1.415584466684442e-05
4.872043582115709e-07,3.541803759488037e-07,3.679572281614517e-07,1.4080391882364023e-05
4.880220000993468e-07,3.5592364955071385e-07,3.6615823231452423e-07,1.3999004497916877e-05
4.885889514729553e-07,3.5770102760332616e-07,3.643500517090266e-07,1.3911898201169531e-05
4.888966947134269e-07,3.5951199312272856e-07,3.625523975017778e-07,1.3819202697368314e-05
4.889373093393463e-07,3.613537294121565e-07,3.607805757471514e-07,1.3720971047018415e-05
4.887033815449985e-07,3.6322096212369046e-07,3.5904530123485225e-07,1.361718670212622e-05
4.881882626838274e-07,3.651071880321489e-07,3.573533546339101e-07,1.3507781451825854e-05
4.873898847421921e-07,3.6700529614086776e-07,3.5570937288611896e-07,1.3392664988766714e-05
4.86317582297441e-07,3.689077597183589e-07,3.5411722468294047e-07,1.3271753509893033e-05
4.849953577042074e-07,3.7080641533357866e-07,3.525791704550342e-07,1.3144982049658577e-05
4.834573575409293e-07,3.726914092392642e-07,3.5109448345569844e-07,1.3012301232383056e-05
4.817393646108819e-07,3.745504599069917e-07,3.496594142225771e-07,1.2873687790245956e-05
4.798736746444529e-07,3.7636988660606815e-07,3.4826848705922645e-07,1.2729183392110398e-05
4.778907089319575e-07,3.7813705205813936e-07,3.46916346595009e-07,1.2578918937059322e-05
4.758243845189045e-07,3.7984149912192995e-07,3.4559866333811696e-07,1.242309164956635e-05
4.737156901197478e-07,3.814735941267653e-07,3.443114006068796e-07,1.2261930546107961e-05
4.716121320000393e-07,3.8302339003978563e-07,3.430501867417417e-07,1.2095686887908784e-05
4.6956448963252324e-07,3.8448083608561494e-07,3.41811846880779e-07,1.1924639833976186e-05
4.6762269849149896e-07,3.8583589194574854e-07,3.4059649775018465e-07,1.174909592616281e-05
4.65832982200618e-07,3.870788209928066e-07,3.394069199122777e-07,1.1569377783882824e-05
4.642381557097044e-07,3.8820057348712257e-07,3.382462182984004e-07,1.1385810385434358e-05
4.6288009125359175e-07,3.8919209363515785e-07,3.3711647114879865e-07,1.1198705618433207e-05
4.618014054453925e-07,3.900435766741251e-07,3.3601802931937124e-07,1.100834639852968e-05
4.610453705517585e-07,3.907450769047036e-07,3.349490679354544e-07,1.081498574162565e-05
4.60655489228321e-07,3.9128818888608063e-07,3.33905914942387e-07,1.061885855145071e-05
4.606751362248452e-07,3.916678282398665e-07,3.3288351817302665e-07,1.0420188347451334e-05
4.611453326533862e-07,3.918829020310898e-07,3.3187560793065016e-07,1.0219188361301325e-05
4.62099704811035e-07,3.919351867335629e-07,3.3087512567542445e-07,1.0016067555059557e-05
4.635595543035264e-07,3.9182735291883345e-07,3.298749959009157e-07,9.811053265223773e-06
4.6553341918146074e-07,3.915620660058978e-07,3.2886895784073905e-07,9.6044240860077e-06
4.6802238831594886e-07,3.911420361038136e-07,3.278527843745475e-07,9.396521929124948e-06
4.710275191114837e-07,3.905696253131751e-07,3.2682583183593193e-07,9.187741517988519e-06
4.7455324317916566e-07,3.898471032160554e-07,3.257910538762756e-07,8.97852415503284e-06
4.786055539300913e-07,3.8897835235146397e-07,3.247524138206881e-07,8.769354099721636e-06
4.831912090299771e-07,3.8797006434693365e-07,3.237123039938859e-07,8.56074908163239e-06
4.883212515733938e-07,3.868312439283224e-07,3.226711024596828e-07,8.353265957981149e-06
4.940133880088621e-07,3.855722527442914e-07,3.216277704668512e-07,8.147519979080635e-06
5.002891805741321e-07,3.8420495739484345e-07,3.205805619172859e-07,7.94416358893447e-06
5.071689909795604e-07,3.827434089641086e-07,3.195273844415209e-07,7.743819961489791e-06
5.146672229062863e-07,3.8120360918505114e-07,3.1846556795713895e-07,7.547062531339778e-06
5.227874034022541e-07,3.796028832950021e-07,3.173923246654975e-07,7.35450045592658e-06
5.315180761259129e-07,3.7795952762982004e-07,3.1630561603415304e-07,7.166901645320007e-06
5.408316063220463e-07,3.762924381960486e-07,3.1520365163235607e-07,6.985221489846809e-06
5.506864045568655e-07,3.746208908339949e-07,3.140836335309782e-07,6.8104940191039435e-06
5.610330006243968e-07,3.729643504989506e-07,3.1294108420202737e-07,6.643684207211977e-06
5.718224443370007e-07,3.713419894102845e-07,3.1176981831583605e-07,6.485618836258223e-06
5.830111033804811e-07,3.697724317256909e-07,3.105623104155907e-07,6.337003634432445e-06
5.945587862755607e-07,3.68274563394765e-07,3.093105474134608e-07,6.198449118142618e-06
6.064235665872718e-07,3.668687690534051e-07,3.0800787069720337e-07,6.070461835394198e-06
6.185580395822299e-07,3.6557656846834867e-07,3.066512437995605e-07,5.9534211800991924e-06
6.30909521399968e-07,3.6441885524251094e-07,3.052422553137154e-07,5.847575551271505e-06
6.434233744458386e-07,3.6341463133624356e-07,3.0378625432029626e-07,5.753118296749695e-06
6.56047299437133e-07,3.6257993861913645e-07,3.022903326377414e-07,5.6703699186036985e-06
6.687333971405743e-07,3.619261897267956e-07,3.00762247657448e-07,5.5999200685007065e-06
6.814354417392718e-07,3.614591308963231e-07,2.9921218995479866e-07,5.5425647925431085e-06
6.941055148819595e-07,3.611789699820938e-07,2.976552320033005e-07,5.499108451190357e-06
7.066955697769277e-07,3.610811377217623e-07,2.961115312936451e-07,5.470224727703655e-06
7.191608803006941e-07,3.6115854891235217e-07,2.946052581974722e-07,5.456502140236184e-06
7.314586791341472e-07,3.6140436298983655e-07,2.931630732210184e-07,5.458620573285158e-06
7.43543382282229e-07,3.6181229484360426e-07,2.9181135212247895e-07,5.477432275705249e-06
7.55366209349975e-07,3.623754171051107e-07,2.9057327653340223e-07,5.513847836420436e-06
7.668815623824176e-07,3.6308547570277207e-07,2.8946727308374765e-07,5.5686597401225375e-06
7.780550963176043e-07,3.6393222574390666e-07,2.88506351152434e-07,5.642420813826549e-06
7.88867727746396e-07,3.6490325962095425e-07,2.8769821031871106e-07,5.735399849697973e-06
7.993128622520145e-07,3.659846634006826e-07,2.87047010853486e-07,5.847596947694858e-06
8.093882782932201e-07,3.6716096464657563e-07,2.8655550229826204e-07,5.978775261568278e-06
8.190888831498062e-07,3.684145802759691e-07,2.862250275087417e-07,6.128482297296405e-06
8.284069455321099e-07,3.6972748877865463e-07,2.860549922159823e-07,6.296067548966516e-06
8.373381860641794e-07,3.710859429992606e-07,2.86044121571388e-07,6.480705294743464e-06
8.458860486234262e-07,3.7248455424384603e-07,2.8619089313338324e-07,6.681413715946477e-06
8.540619316513488e-07,3.7392568251476566e-07,2.8649176038440573e-07,6.897052631837613e-06
8.618855422329985e-07,3.7541475501744463e-07,2.8694093768235514e-07,7.126306311131685e-06
8.693871150333882e-07,3.7695584397954137e-07,2.8753339707093093e-07,7.367688523706102e-06
8.766071590073354e-07,3.785504312408404e-07,2.882682946650601e-07,7.619596397431987e-06
8.835896974719251e-07,3.801982948517799e-07,2.891501383059623e-07,7.880404008932761e-06
8.90372043240572e-07,3.818985459517304e-07,2.9018702828350484e-07,8.148550479449373e-06
8.969776704449684e-07,3.8365111258672536e-07,2.913874051133684e-07,8.42257702525316e-06
9.034149053414348e-07,3.854588741675661e-07,2.927571789753389e-07,8.701123176863639e-06
9.096789735143379e-07,3.8732875798570966e-07,2.942976686744015e-07,8.982914504697882e-06
9.157540649976528e-07,3.8927183591125385e-07,2.96004591984893e-07,9.266740586053363e-06
9.216148362385791e-07,3.9130416769130027e-07,2.9786848230818336e-07,9.551416894369196e-06
9.27228277695134e-07,3.9344707934639286e-07,2.998756877424115e-07,9.835747470499026e-06
9.325561763724413e-07,3.95724048305818e-07,3.020090731905092e-07,1.0118511194999954e-05
9.375578484360079e-07,3.981552493955203e-07,3.0424862764872124e-07,1.0398467211423955e-05
9.421936825524559e-07,4.0075404660111705e-07,3.065726215363057e-07,1.0674359874120507e-05
9.464299580833749e-07,4.035271848702026e-07,3.089594092496077e-07,1.0944945741090507e-05
9.502427167310013e-07,4.0647690290564033e-07,3.113884113312788e-07,1.1209059851419403e-05
9.53617576980128e-07,4.0960438794996147e-07,3.138392653845564e-07,1.1465664564778156e-05
9.565455195675143e-07,4.1291409709119257e-07,3.1629077790146947e-07,1.1713843119084925e-05
9.590178270810685e-07,4.164157405731186e-07,3.187213975576068e-07,1.1952768277883369e-05
9.610228756804146e-07,4.2012258579509467e-07,3.2111037737578695e-07,1.218166414539163e-05
9.625448543023492e-07,4.240479413571584e-07,3.234383059921209e-07,1.2399778550310395e-05
9.63563866968454e-07,4.282015949224538e-07,3.2568764596886374e-07,1.2606394623950848e-05
9.640580702894754e-07,4.325882989908801e-07,3.27843576933017e-07,1.280084659122823e-05
9.64007676254876e-07,4.37208531002633e-07,3.298940873054153e-07,1.2982500163249041e-05
9.633983245113043e-07,4.420582517812711e-07,3.318304513748762e-07,1.3150734253275227e-05
9.622222189681455e-07,4.471270238740427e-07,3.3364963632117894e-07,1.330495734616315e-05
9.604784638258085e-07,4.523973217630013e-07,3.353557456912426e-07,1.3444662726198759e-05
9.58173090103392e-07,4.578454899110176e-07,3.3695742807524946e-07,1.3569525074481055e-05
9.553166587627742e-07,4.634429785380936e-07,3.3846398588244054e-07,1.3679474274877035e-05
9.519205139196976e-07,4.6915860195501044e-07,3.3988435531128944e-07,1.377465944069049e-05
9.479969357941456e-07,4.7496243269395895e-07,3.412278345083387e-07,1.3855337853078186e-05
9.435642694494313e-07,4.808279905671326e-07,3.4250344810063584e-07,1.3921797572777868e-05
9.386513811851377e-07,4.867309451212014e-07,3.437185930724021e-07,1.3974345996621198e-05
9.332982811544588e-07,4.926481548008722e-07,3.448786505344261e-07,1.4013317285300592e-05
9.27556278561196e-07,4.98558778495426e-07,3.4598734434292197e-07,1.4039061048540156e-05
9.214883063524807e-07,5.044451266679256e-07,3.470476212590173e-07,1.4051929346517441e-05
9.151643806189415e-07,5.10292939015728e-07,3.480625522301943e-07,1.4052337858329767e-05
9.086517063649773e-07,5.160916470882246e-07,3.4903476292307513e-07,1.4040933022710654e-05
9.020065077095644e-07,5.21832929886009e-07,3.49964875091114e-07,1.4018721312188293e-05
8.95272841696997e-07,5.275070769514911e-07,3.508511828930154e-07,1.3987007308707391e-05
8.884867271337074e-07,5.331004633150975e-07,3.516914156725362e-07,1.3947203363445785e-05
8.8168183260895e-07,5.385962804075055e-07,3.524860305891293e-07,1.3900651169858664e-05
8.748939620162626e-07,5.439762271067201e-07,3.5324088438675327e-07,1.3848533723592456e-05
8.681620363870419e-07,5.492221754268077e-07,3.539672196455007e-07,1.3791963580446976e-05
8.615266814581532e-07,5.543186031181436e-07,3.546798307980929e-07,1.3732233702634278e-05
8.550298419526042e-07,5.592535960191226e-07,3.5539450220424657e-07,1.3671003327703908e-05
8.48715020557102e-07,5.640171849827879e-07,3.561246863157809e-07,1.3610246477662226e-05
8.426258399724264e-07,5.685989237453132e-07,3.568789597102144e-07,1.3552053369159225e-05
8.368037301532224e-07,5.729860427276859e-07,3.5766073615571797e-07,1.3498433614794834e-05
8.312859801292366e-07,5.771627904729282e-07,3.584689441146714e-07,1.3451164766158408e-05
8.261033193810506e-07,5.811113627864352e-07,3.5929818032159963e-07,1.3411690831526413e-05
8.212774388320094e-07,5.848132014421992e-07,3.6013920546601537e-07,1.3381082570383236e-05
8.168200615334239e-07,5.882488747506032e-07,3.609807442798111e-07,1.3360059647372705e-05
8.127328763555945e-07,5.913977432970807e-07,3.6181122977363155e-07,1.3349048172596534e-05
8.09007375169739e-07,5.942400262438643e-07,3.626190402783984e-07,1.3348230515975975e-05
8.056259065387015e-07,5.967599636588787e-07,3.6339245737789104e-07,1.3357560927023665e-05
8.025645922581338e-07,5.989472952766375e-07,3.6412133489192255e-07,1.337676070617117e-05
7.997961325197171e-07,6.007981525826049e-07,3.647994597425207e-07,1.3405330332163656e-05
7.972910407671124e-07,6.023159340534489e-07,3.65424361297464e-07,1.3442602529757503e-05
7.950190078879102e-07,6.035097764186942e-07,3.6599470355917994e-07,1.3487829072163166e-05
7.929523013453289e-07,6.04391250540157e-07,3.665096693389154e-07,1.354027051179331e-05
7.910700056414255e-07,6.049715578874199e-07,3.669713815328561e-07,1.3599256852193765e-05
7.893606191657858e-07,6.052597342845857e-07,3.6738555369239366e-07,1.3664204762201484e-05
7.878211265124745e-07,6.052622324068712e-07,3.67758969958759e-07,1.3734604377472227e-05
7.864519857667301e-07,6.049834709391345e-07,3.680979553119243e-07,1.3810005017161594e-05
7.852517458173515e-07,6.044264337209496e-07,3.6840868720326393e-07,1.3890005146918784e-05
7.842169802267083e-07,6.0359288510207e-07,3.686966109106103e-07,1.3974226859534073e-05
7.833462786119648e-07,6.024830059102575e-07,3.68964774629553e-07,1.4062274039352485e-05
7.826408532972877e-07,6.010953206199951e-07,3.692134249443649e-07,1.4153684594164188e-05
7.82100657700828e-07,5.994281320682368e-07,3.6944165282990093e-07,1.4247891627319006e-05
7.817238325113271e-07,5.974814810265141e-07,3.696488814925086e-07,1.4344242608465847e-05
7.815124365700794e-07,5.952572889104659e-07,3.698347273746625e-07,1.4442082595184778e-05
7.814773919685471e-07,5.927584066661425e-07,3.6999932012640757e-07,1.4540808884843188e-05
7.816385171899222e-07,5.89988467149818e-07,3.701454403176589e-07,1.4639846957537e-05
7.820231683759171e-07,5.869516422215066e-07,3.702796474167968e-07,1.4738611613560375e-05
7.826647820985692e-07,5.836522543444215e-07,3.704103523189069e-07,1.4836515256325226e-05
7.835983271080776e-07,5.800950739450181e-07,3.705449758528783e-07,1.4933006816663505e-05
7.848525647664158e-07,5.762852167881064e-07,3.7068827771745897e-07,1.5027575494679266e-05
7.864434489167144e-07,5.722278753827028e-07,3.7084163715799215e-07,1.51196902875707e-05
7.883716199401528e-07,5.679289054167977e-07,3.710029002543145e-07,1.5208733398710535e-05
7.906230284332084e-07,5.633951305014591e-07,3.71167011671377e-07,1.529399460300515e-05
7.931709602329991e-07,5.586338242423824e-07,3.7132755059169686e-07,1.5374725002705622e-05
7.959785840387776e-07,5.536520932346822e-07,3.7147864900850173e-07,1.5450222341269832e-05
7.990030927245149e-07,5.484559698946108e-07,3.71616793375145e-07,1.5519937373112397e-05
8.022038907557903e-07,5.430495847536667e-07,3.717418391340464e-07,1.5583560834501042e-05
8.055523173805119e-07,5.37436103462186e-07,3.7185574912265845e-07,1.5641014707204382e-05
8.090364636312098e-07,5.316202491931113e-07,3.719600971080265e-07,1.5692336984223727e-05
8.126609829012172e-07,5.256093137821976e-07,3.720556320121909e-07,1.57375457204116e-05
8.164460572598246e-07,5.19411552159055e-07,3.7214345793346963e-07,1.5776566204744846e-05
8.20424637888724e-07,5.130352617489048e-07,3.722248302504224e-07,1.5809235235518077e-05
8.246348613167188e-07,5.064904453600707e-07,3.7229971673756325e-07,1.5835342853190517e-05
8.291089998464255e-07,4.997902099863333e-07,3.723662413639218e-07,1.5854657846986592e-05
8.338646404626342e-07,4.929494694383533e-07,3.724208351557764e-07,1.586695229325304e-05
8.389022752398812e-07,4.859831057644302e-07,3.724578393766328e-07,1.587212027268201e-05
8.442070918416542e-07,4.789058562022665e-07,3.7246899945079726e-07,1.587035702899823e-05
8.49751249820804e-07,4.7173256715582065e-07,3.7244358730856035e-07,1.58622013255574e-05
8.554976962189446e-07,4.644787778841671e-07,3.7236922965847897e-07,1.5848393682451132e-05
8.614060317082935e-07,4.571635510494837e-07,3.722334487995079e-07,1.582970006766452e-05
8.674360339602188e-07,4.4981199806438496e-07,3.720252091053394e-07,1.580681067504465e-05
8.735491262434963e-07,4.42453281562724e-07,3.717352176347582e-07,1.5780378662931514e-05
8.797146688382623e-07,4.351161555621152e-07,3.713551160651865e-07,1.575121949671168e-05
8.859201549898859e-07,4.278268298374994e-07,3.708766131896467e-07,1.5720508120988243e-05
8.92176227895944e-07,4.2060984614453006e-07,3.702908083160229e-07,1.5689780978966588e-05
8.985119218929964e-07,4.1349051037072295e-07,3.6958808752432156e-07,1.5660770692379218e-05
9.049623458621979e-07,4.064969532288615e-07,3.68758826343401e-07,1.5635215702554473e-05
9.115557716182528e-07,3.996592108246488e-07,3.677945688984111e-07,1.5614720464935598e-05
9.183083827919344e-07,3.930059152206979e-07,3.666892258289869e-07,1.560067007357999e-05
9.252291709704559e-07,3.865618047592179e-07,3.654393681607285e-07,1.5594171206721177e-05
9.323293280301016e-07,3.8034726240464184e-07,3.640435203122272e-07,1.559600064240752e-05
9.396273851900549e-07,3.743791210955678e-07,3.6250099306298116e-07,1.5606570400483315e-05
9.471468308735769e-07,3.68671372882095e-07,3.608106059952152e-07,1.562592995826111e-05
9.549103924835336e-07,3.632351415811745e-07,3.5897060369246077e-07,1.5653811034395415e-05
9.629350064341527e-07,3.580783042695429e-07,3.569804934748292e-07,1.5689687155994386e-05
9.712276763870796e-07,3.53204877961108e-07,3.5484258776332797e-07,1.5732817865247746e-05
