1.1306602313512843e-06,2.9840816914463403e-06,5.941683536547723e-07,1.8003139043388653e-05
1.1265540187118605e-06,3.0252587921517672e-06,5.937816421681209e-07,1.84187660413942e-05
1.1228739691743651e-06,3.0652513504729697e-06,5.93330738510046e-07,1.883451481670213e-05
1.1196230914022605e-06,3.103813943992648e-06,5.928402212816622e-07,1.9248439223080574e-05
1.1168089529676656e-06,3.1407018811441534e-06,5.923300341239121e-07,1.9658663720947696e-05
1.1144404610659313e-06,3.17568028666744e-06,5.918155888615004e-07,2.0063326217091413e-05
1.1125293967267871e-06,3.208548036405075e-06,5.913069970272532e-07,2.046060666901528e-05
1.1110930851340627e-06,3.239172321912917e-06,5.908088766109071e-07,2.0848771649889874e-05
1.1101518308939109e-06,3.2675186154590333e-06,5.903213316599674e-07,2.122620827930672e-05
1.1097219438218805e-06,3.293659116059502e-06,5.898409675593338e-07,2.1591457124637948e-05
1.109808937275715e-06,3.317749486832647e-06,5.893618213306655e-07,2.1943234546093603e-05
1.1104037208212126e-06,3.3399812683320086e-06,5.888767110498381e-07,2.2280444347745044e-05
1.1114827764509013e-06,3.360536947931357e-06,5.883788728762132e-07,2.2602172475571248e-05
1.1130150585046188e-06,3.3795731949051082e-06,5.878634106575686e-07,2.290763674909306e-05
1.114976943293678e-06,3.3972247614784688e-06,5.87326759508289e-07,2.3196113750832683e-05
1.1173660423379477e-06,3.413601721845383e-06,5.867639147953179e-07,2.3466904173045875e-05
1.120201404206282e-06,3.4287786689129052e-06,5.861670978970649e-07,2.371934054698612e-05
1.123511497224897e-06,3.442790743933367e-06,5.855268670236353e-07,2.395281243219184e-05
1.1273207679247256e-06,3.455635810707848e-06,5.848325152044381e-07,2.416683326106028e-05
1.1316399819620416e-06,3.467281327712197e-06,5.840712136029517e-07,2.4361138145993515e-05
1.136461787161408e-06,3.477681204646592e-06,5.832283853432337e-07,2.45357113242248e-05
1.1417628649443771e-06,3.486798422130594e-06,5.822899285636707e-07,2.4690699986899562e-05
1.1475096052178378e-06,3.494623998560147e-06,5.812444795977145e-07,2.48262789392445e-05
1.153662880062729e-06,3.5011886888282577e-06,5.800843491553293e-07,2.494254485128552e-05
1.160180921521583e-06,3.50656706013236e-06,5.788049948174031e-07,2.50394867477716e-05
1.167020114535669e-06,3.510875160000756e-06,5.774045109420225e-07,2.511701120204476e-05
1.1741331624169712e-06,3.5142654536315138e-06,5.758843784730929e-07,2.517496740109869e-05
1.181465634403336e-06,3.5169190042860787e-06,5.742491062926596e-07,2.521319580539412e-05
1.1889533965002156e-06,3.5190289738366365e-06,5.725035340708213e-07,2.523169130618631e-05
1.1965231209049506e-06,3.520775472958638e-06,5.706517771240176e-07,2.523083239309728e-05
1.2040962439775388e-06,3.522306227460582e-06,5.686997431209255e-07,2.5211460070119957e-05
1.211594876268512e-06,3.523736171188943e-06,5.666567271050212e-07,2.517473857551005e-05
1.2189463939553735e-06,3.5251575529627435e-06,5.645341887656387e-07,2.5121952576911748e-05
1.2260835979189978e-06,3.5266426884121612e-06,5.623462504956809e-07,2.5054370788241715e-05
1.2329412914304791e-06,3.5282358123576836e-06,5.601121538282882e-07,2.4973251097022e-05
1.2394524723841908e-06,3.529943452719351e-06,5.578557123986385e-07,2.48800354107172e-05
1.2455465088775496e-06,3.5317313217067978e-06,5.556023239128332e-07,2.477658111475461e-05
1.2511506262312523e-06,3.533527771714493e-06,5.533782472935505e-07,2.466518232682705e-05
1.2561928286524557e-06,3.5352292172352164e-06,5.512113506845132e-07,2.454838758413783e-05
1.2606030163906687e-06,3.5367054563870795e-06,5.491286934818033e-07,2.4428794652560982e-05
1.264313290054678e-06,3.5378070578133036e-06,5.471522737190777e-07,2.430890761891982e-05
1.2672597501928436e-06,3.5383756300223098e-06,5.452991830630686e-07,2.419104041170585e-05
1.269384061280478e-06,3.5382542257139365e-06,5.435872341830214e-07,2.407723122686239e-05
1.2706330812710908e-06,3.537294429874077e-06,5.42039763576946e-07,2.396916144621627e-05
1.2709584379532135e-06,3.5353572624982576e-06,5.406839838736494e-07,2.3868104194595456e-05
1.2703166109317115e-06,3.532312272950869e-06,5.395456225326732e-07,2.377491066398508e-05
1.2686687324709902e-06,3.528047067346276e-06,5.386465782619786e-07,2.369001789508981e-05
1.2659827401104121e-06,3.52248617855774e-06,5.380054372521923e-07,2.3613479413878563e-05
1.2622385374131042e-06,3.5156007805566588e-06,5.376365112366099e-07,2.354503505894169e-05
1.2574299164530679e-06,3.5074013177714523e-06,5.375497784547646e-07,2.348420820593728e-05
1.251559758701828e-06,3.4979240443785814e-06,5.377565692992707e-07,2.343039006559367e-05
1.244633978312447e-06,3.487221251957072e-06,5.382765072297954e-07,2.338287066070777e-05
1.236660272955646e-06,3.4753533536673263e-06,5.391374186727581e-07,2.334082976086442e-05
1.2276512939199349e-06,3.4623773001915602e-06,5.403694949921139e-07,2.330335105014048e-05
1.217627514619848e-06,3.448332655866492e-06,5.419999358897655e-07,2.326947120616501e-05
1.2066167675981384e-06,3.433233857406032e-06,5.440492908278795e-07,2.3238238718585183e-05
1.1946519415445812e-06,3.4170745482398457e-06,5.465294151147721e-07,2.320878536164408e-05
1.1817707410897094e-06,3.399839666063844e-06,5.494439957899014e-07,2.3180386326309547e-05
1.168020198858256e-06,3.381515000209726e-06,5.527908348276598e-07,2.315245696044652e-05
1.1534637194186607e-06,3.3620923296421886e-06,5.565646583980505e-07,2.3124478252861183e-05
1.1381845630038212e-06,3.3415791539705104e-06,5.607589163629955e-07,2.3095903970704042e-05
1.1222816080275172e-06,3.3200121771613966e-06,5.653649985641685e-07,2.306613048009543e-05
1.105859035414026e-06,3.297459477432503e-06,5.703692782475872e-07,2.303455358708053e-05
1.0890179073801409e-06,3.27400528853619e-06,5.757501356649314e-07,2.300062789501556e-05
1.0718574512699932e-06,3.2497304500535707e-06,5.814771968520097e-07,2.296384092406301e-05
1.0544843522095371e-06,3.2247096069464286e-06,5.875121176141554e-07,2.292363080899133e-05
1.0370218730313328e-06,3.1990310616365687e-06,5.938096089817501e-07,2.2879333808079582e-05
1.0196131626261569e-06,3.172818755176912e-06,6.003201635329746e-07,2.283018862711773e-05
1.0024174071841376e-06,3.146233822321545e-06,6.069933353822114e-07,2.277537014127474e-05
9.85599995109972e-07,3.119455223395426e-06,6.137782866252208e-07,2.271402922823811e-05
9.69319524516615e-07,3.09265922840268e-06,6.206227011393003e-07,2.264532776580165e-05
9.537187803067805e-07,3.066017810878812e-06,6.274722937350685e-07,2.256846540886248e-05
9.389268959694742e-07,3.0397101973714438e-06,6.342707304121519e-07,2.2482711817963065e-05
9.250665645231766e-07,3.0139234391280033e-06,6.409601457443011e-07,2.2387461379115422e-05
9.12253146126004e-07,2.988835645985492e-06,6.474827516489926e-07,2.2282312584588192e-05
9.005866188044304e-07,2.964603210570645e-06,6.537826591255663e-07,2.216714471264925e-05
8.901489673079392e-07,2.9413746450133236e-06,6.598067617280008e-07,2.204212466103783e-05
8.810089458589468e-07,2.919324194000297e-06,6.655050669995095e-07,2.190760444032928e-05
8.73223437516243e-07,2.8986736077644506e-06,6.708331258816592e-07,2.1763972513163e-05
8.668353912005278e-07,2.8796852520736283e-06,6.757576888272109e-07,2.161157471166572e-05
8.618808339336693e-07,2.862637766535728e-06,6.802608861854461e-07,2.145074331528605e-05
8.584057227391026e-07,2.847795540877621e-06,6.843378350137852e-07,2.1281858435681068e-05
8.564798506304759e-07,2.8353791625215283e-06,6.879898072716078e-07,2.1105364906929982e-05
8.561990454567162e-07,2.8255542860286086e-06,6.912190806149374e-07,2.09217497851524e-05
8.576750179726057e-07,2.818441065680913e-06,6.940273830080226e-07,2.073155286818818e-05
8.610164482388902e-07,2.8141195676907924e-06,6.964160155063365e-07,2.053545622225144e-05
8.663090926491255e-07,2.812620746374533e-06,6.98386983071522e-07,2.0334354708590546e-05
8.736045825274191e-07,2.8139184414175688e-06,6.999443175666088e-07,2.012928864559964e-05
8.829219725072937e-07,2.817932008772441e-06,7.010933046324831e-07,1.9921290144958065e-05
8.942560449087238e-07,2.82453346640146e-06,7.018378612703668e-07,1.971127011694497e-05
9.075831169156876e-07,2.833556077889354e-06,7.021789865897195e-07,1.950004075442636e-05
9.228616151219169e-07,2.8448082346522898e-06,7.021149378867298e-07,1.928851093136241e-05
9.400314780175644e-07,2.8580915763285456e-06,7.0164196346483e-07,1.907791638088464e-05
9.590160061443538e-07,2.8732195258088464e-06,7.007561255394733e-07,1.8869867946838155e-05
9.797245273382737e-07,2.8900315457843413e-06,6.994554842446047e-07,1.8666205931970827e-05
1.0020526331766192e-06,2.908395690738811e-06,6.977406573937744e-07,1.8468804553753006e-05
1.0258809919951339e-06,2.9282012253199488e-06,6.956152842771184e-07,1.8279405438400062e-05
1.0510764323196785e-06,2.949350223074478e-06,6.930870570903846e-07,1.8099495536792603e-05
1.077496422812319e-06,2.971745714948586e-06,6.901662183847619e-07,1.7930236601772e-05
1.1049947918678935e-06,2.995273066307316e-06,6.868618911855421e-07,1.7772431109633813e-05
1.1334252020911257e-06,3.019788581378172e-06,6.831800793417707e-07,1.7626510718004258e-05
1.162639694641492e-06,3.0451255439928457e-06,6.791241355528875e-07,1.7492564412592582e-05
1.1924835390903853e-06,3.0711086621520145e-06,6.746963863804123e-07,1.7370428652351568e-05
1.2227914874586416e-06,3.097567868885398e-06,6.699006706760634e-07,1.7259817344435262e-05
1.253388800083375e-06,3.1243471530373365e-06,6.647452605140174e-07,1.7160426485183474e-05
1.2840950992108058e-06,3.151301058831305e-06,6.592448171941541e-07,1.707196866889764e-05
1.314727784168188e-06,3.1782800489927317e-06,6.534202741141707e-07,1.699414930772468e-05
1.3451045695641438e-06,3.205122650890678e-06,6.472959501830387e-07,1.6926626092743846e-05
1.37504650820489e-06,3.231666733241976e-06,6.408953325167673e-07,1.686898355097354e-05
1.4043829095405815e-06,3.2577667182627104e-06,6.342388192021077e-07,1.6820728722493245e-05
1.4329561994666314e-06,3.283296953080595e-06,6.273447276593237e-07,1.678130000725882e-05
1.4606211503307682e-06,3.3081406921812675e-06,6.202317703547102e-07,1.675008041718619e-05
1.4872397081246985e-06,3.332184218377708e-06,6.129202144271815e-07,1.672640072305057e-05
1.5126798400584517e-06,3.355333671996562e-06,6.054307266486148e-07,1.6709518040215795e-05
1.53681920203518e-06,3.3775449233715284e-06,5.977829913939284e-07,1.669858308085088e-05
1.5595472010347382e-06,3.398838373984054e-06,5.899958747428023e-07,1.669264474753862e-05
1.5807634521526603e-06,3.4192828505579544e-06,5.820878868779556e-07,1.66907304638299e-05
1.6003749783350852e-06,3.438958319352526e-06,5.740776583286264e-07,1.6691999253507846e-05
1.6182944507025247e-06,3.4579256654397064e-06,5.659860386989677e-07,1.6695953334550894e-05
1.6344401321133369e-06,3.4762224810688163e-06,5.578386753981482e-07,1.6702659715231967e-05
1.6487363097742414e-06,3.4938712892916144e-06,5.49666139331922e-07,1.6712858123619792e-05
1.6611134427287869e-06,3.5108775031136286e-06,5.415019620578882e-07,1.672786875925027e-05
1.6715086100300317e-06,3.5272202580283814e-06,5.333816872612685e-07,1.6749357405308936e-05
1.6798663519771825e-06,3.5428535301858862e-06,5.253428941163503e-07,1.6779067701264154e-05
1.6861392119661525e-06,3.5577151870343306e-06,5.174240138727658e-07,1.68185784345477e-05
1.6902877894951994e-06,3.5717289305073263e-06,5.096631732312481e-07,1.6869124220823647e-05
1.692280568740067e-06,3.584805022381144e-06,5.0209789148042e-07,1.6931546010058775e-05
1.6920946468738218e-06,3.596856346550064e-06,4.947644661385453e-07,1.7006416454261466e-05
1.689719102715413e-06,3.6078246554050683e-06,4.87698347129935e-07,1.709426762474935e-05
1.6851588411116915e-06,3.617698079040477e-06,4.809350827509065e-07,1.719575588425544e-05
1.6784334828289581e-06,3.626509783468029e-06,4.7450823575757466e-07,1.7311683070008468e-05
1.6695721662967145e-06,3.6343200534072237e-06,4.684448995404753e-07,1.7442935980534106e-05
1.6586109028585052e-06,3.6411909131048486e-06,4.627634522195978e-07,1.7590405589836645e-05
1.6455938510404397e-06,3.647163681467103e-06,4.5747539848637116e-07,1.775488255986563e-05
1.6305746734436018e-06,3.6522497918958e-06,4.525887660858078e-07,1.793692874296903e-05
1.6136158621620497e-06,3.656438528405336e-06,4.481098569331107e-07,1.8136771935144472e-05
1.594787698348324e-06,3.659712197902842e-06,4.4404267208563223e-07,1.8354288885207088e-05
1.5741715115421983e-06,3.6620560627483694e-06,4.4038706010520326e-07,1.858908286761404e-05
1.5518670718335175e-06,3.6634581240096992e-06,4.3713682869410077e-07,1.8840590012883425e-05
1.5279959915608557e-06,3.6639039850352926e-06,4.3427943664347723e-07,1.910816944547673e-05
1.5026980763251425e-06,3.6633758024951035e-06,4.317975369488059e-07,1.93912201325334e-05
1.476125245730251e-06,3.6618556365411364e-06,4.296703512587843e-07,1.9689343812923207e-05
1.4484347235190853e-06,3.6593251086861664e-06,4.278741400037593e-07,2.0002413985417333e-05
1.419781971149202e-06,3.655757788838312e-06,4.263834447491287e-07,2.0330418929284604e-05
1.3903166448561014e-06,3.6511115975059685e-06,4.2517400385496896e-07,2.0673208134150628e-05
1.3601825328169782e-06,3.645329344803537e-06,4.242258345735124e-07,2.1030371605166174e-05
1.3295179926821334e-06,3.6383442266322157e-06,4.235248120571865e-07,2.140125982739959e-05
1.2984541437321636e-06,3.630082533900649e-06,4.230639695222457e-07,2.178501650859701e-05
1.2671128339958162e-06,3.6204646009039457e-06,4.228447511840645e-07,2.218058669229175e-05
1.235606878750428e-06,3.6094107845795402e-06,4.2287476813304406e-07,2.258671344609165e-05
1.2040408756455469e-06,3.5968528540847818e-06,4.231629264210731e-07,2.300191631524523e-05
1.1725110893858698e-06,3.582744324161376e-06,4.237164099277712e-07,2.342445205524669e-05
1.1411071607122477e-06,3.5670676116053e-06,4.2453898102455344e-07,2.3852282099951032e-05
1.1099184384522933e-06,3.5498426328338797e-06,4.256292593983053e-07,2.428309117046012e-05
1.0790439091356342e-06,3.5311359180758345e-06,4.2698025495999405e-07,2.471438779805619e-05
1.0485992072101823e-06,3.5110591082494767e-06,4.2858008588322114e-07,2.514366274112996e-05
1.0187117319273602e-06,3.489750378721988e-06,4.3041345302233343e-07,2.5568547877341896e-05
9.895061550861773e-07,3.4673476440101236e-06,4.324631323738292e-07,2.598693745857116e-05
9.61093793900611e-07,3.4439720217110567e-06,4.3471005013372345e-07,2.6397052667493578e-05
9.335709106794985e-07,3.4197401866041165e-06,4.3713220621511403e-07,2.67974401301834e-05
9.070210314316424e-07,3.394805094537636e-06,4.3970389810927954e-07,2.718690753397161e-05
8.815193992344919e-07,3.3693931390428837e-06,4.423964252562079e-07,2.7564413765863147e-05
8.571372975134353e-07,3.3438037616494948e-06,4.4518009500421637e-07,2.7928969511295367e-05
8.339400356777118e-07,3.3183688223471214e-06,4.480267886430216e-07,2.8279600215223384e-05
8.119803232239263e-07,3.2933978490662535e-06,4.5091241686683206e-07,2.8615345263578693e-05
7.912964630929113e-07,3.269142828602038e-06,4.538176221055378e-07,2.893524302489345e-05
7.719175229204973e-07,3.2457935945698297e-06,4.5672713851941223e-07,2.9238295312268346e-05
7.53869669938633e-07,3.22348419735931e-06,4.5962953744149894e-07,2.9523425592192522e-05
7.371783381844308e-07,3.2022942966694727e-06,4.6251637333257797e-07,2.978945769658856e-05
7.218643079565337e-07,3.1822504457958007e-06,4.6538042140831927e-07,3.0035140220935164e-05
7.079380225926695e-07,3.163331930027991e-06,4.6821460441606847e-07,3.0259196455893104e-05
6.953981118144256e-07,3.145478069820619e-06,4.7101178741813533e-07,3.0460357467479265e-05
6.842334529533715e-07,3.1285968929775973e-06,4.7376504332618244e-07,3.063736543916846e-05
6.744260242686003e-07,3.1125778361697337e-06,4.764682635111434e-07,3.078897508506124e-05
6.659532613690097e-07,3.097304686731868e-06,4.791154904244979e-07,3.091399693069031e-05
6.587877639793886e-07,3.082660665558215e-06,4.81698302921741e-07,3.1011362018080496e-05
6.528957663921341e-07,3.068528001713666e-06,4.842044780288505e-07,3.1080137989410914e-05
6.482390217820659e-07,3.054793513189325e-06,4.866206814482709e-07,3.1119522978938596e-05
6.447793486087722e-07,3.041363045351836e-06,4.889370438167949e-07,3.112888618139454e-05
6.424799514532907e-07,3.0281756427599487e-06,4.911483998505811e-07,3.110780471808172e-05
6.413017254988771e-07,3.0152080151804387e-06,4.932509515628456e-07,3.1056022751281824e-05
6.411999976691103e-07,3.0024673244047196e-06,4.952393398032157e-07,3.0973384250690866e-05
6.421254207673406e-07,2.9899745062164044e-06,4.971068276516082e-07,3.085983817707299e-05
6.440247830076506e-07,2.9777433838654875e-06,4.988463534924842e-07,3.071552245619812e-05
6.46838968214356e-07,2.965769408728831e-06,5.004509522667119e-07,3.0540868313197896e-05
6.505044010500738e-07,2.95403805322046e-06,5.019132610105635e-07,3.033669498587685e-05
6.549639170883104e-07,2.942541695877098e-06,5.032241466362459e-07,3.010428960802113e-05
6.601809486869982e-07,2.931287174141095e-06,5.04371843644534e-07,2.9845458688097304e-05
6.661436915390284e-07,2.920291927476195e-06,5.053421534360036e-07,2.9562509685583143e-05
6.728548916287193e-07,2.909577916309696e-06,5.061188535090235e-07,2.9258117074993732e-05
6.803172077523674e-07,2.8991695351692163e-06,5.066855286786299e-07,2.893509177925907e-05
6.885252154650368e-07,2.889092996852852e-06,5.070308762817542e-07,2.8596134668638866e-05
6.97463355615734e-07,2.8793708294094243e-06,5.071549904102306e-07,2.824366455521242e-05
7.071046005656953e-07,2.8700164225550964e-06,5.070712978944693e-07,2.7879764221418128e-05
7.174118564674589e-07,2.8610401938991287e-06,5.068033153469421e-07,2.750620390039309e-05
7.283421993885057e-07,2.8524620453485313e-06,5.063799590992715e-07,2.712449377960747e-05
7.398474765814643e-07,2.8443124960022214e-06,5.058314595659721e-07,2.6735985619358387e-05
7.518745350658991e-07,2.8366188114132185e-06,5.051856432457793e-07,2.634202186892503e-05
7.643743947818086e-07,2.8293936964560717e-06,5.044658122932434e-07,2.5944008902493547e-05
7.773146747827954e-07,2.822640605723694e-06,5.036913520327821e-07,2.554332466349431e-05
7.906814759633046e-07,2.8163633218829523e-06,5.028789718970243e-07,2.5141189554705928e-05
8.044690058578111e-07,2.81056155183223e-06,5.020430461249975e-07,2.473866167962639e-05
8.186661682757923e-07,2.8052166404466973e-06,5.01196559337348e-07,2.4336753753993068e-05
8.332494888010679e-07,2.800282446334943e-06,5.003521130591608e-07,2.3936629342726325e-05
8.481844604654745e-07,2.79568497372305e-06,4.995216972653772e-07,2.3539795649412694e-05
8.634292985468502e-07,2.7913268532796773e-06,4.98718398358215e-07,2.3148103895305285e-05
8.789371316937111e-07,2.7870975483684898e-06,4.979612959110436e-07,2.276354257279692e-05
8.946579201373959e-07,2.782889663069404e-06,4.972797802537315e-07,2.238804207466286e-05
9.10539190629318e-07,2.7786130166658303e-06,4.967149960820088e-07,2.2023361181230305e-05
9.265239273593336e-07,2.7741964810321143e-06,4.963165588978724e-07,2.1670974006835463e-05
9.425495413086417e-07,2.7695779344439604e-06,4.961336162829314e-07,2.133199423267282e-05
9.585523118226449e-07,2.764695377216572e-06,4.962058417078071e-07,2.1007211607899867e-05
9.744725544976688e-07,2.759493185152928e-06,4.965604788559491e-07,2.069720238669208e-05
9.902532018095327e-07,2.7539396856666813e-06,4.972140387816178e-07,2.040242052542888e-05
1.0058353033502357e-06,2.7480340769269752e-06,4.981738253267619e-07,2.0123219294563594e-05
1.0211585172522623e-06,2.7417914226332344e-06,4.994386444373869e-07,1.985982487922298e-05
1.03616503895151e-06,2.735222641967591e-06,5.010010216249292e-07,1.9612324076893286e-05
1.0508001469982995e-06,2.7283273059971573e-06,5.028497825409052e-07,1.9380712905867292e-05
1.0650105427655417e-06,2.7210977541671228e-06,5.049702837877878e-07,1.916499563162748e-05
1.0787458609314443e-06,2.713533406934029e-06,5.073438703695756e-07,1.896527635957837e-05
1.0919608715248603e-06,2.705662807950844e-06,5.099498832712465e-07,1.878180481535813e-05
1.1046150020486728e-06,2.697552573209644e-06,5.127707047727807e-07,1.86150457239089e-05
1.1166736032711769e-06,2.689289436756385e-06,5.157966579424796e-07,1.846592980775493e-05
1.1281108606029164e-06,2.6809548484976157e-06,5.190250201502122e-07,1.833624837724914e-05
1.1389072495803223e-06,2.6726190864782242e-06,5.224530873213088e-07,1.8228794123796123e-05
1.1490426344333954e-06,2.664352870831701e-06,5.260746384611012e-07,1.8146975869354972e-05
1.1584922776376896e-06,2.6562345261795847e-06,5.298845946531581e-07,1.809417471355703e-05
1.1672264774949908e-06,2.648341449206786e-06,5.338841282073097e-07,1.8073236169979448e-05
1.1752105517617914e-06,2.640733501145548e-06,5.380787742896043e-07,1.8086205726115948e-05
1.1824053077024844e-06,2.633442156224534e-06,5.424725934021091e-07,1.813425883436402e-05
1.1887698574312984e-06,2.6264689349361734e-06,5.470647215163564e-07,1.8217758256794025e-05
1.1942667411437522e-06,2.619788645933765e-06,5.518493808819375e-07,1.833636059645732e-05
1.198867235404308e-06,2.613360696106813e-06,5.568171932275189e-07,1.8489129113408247e-05
1.202555651726918e-06,2.607153110560498e-06,5.619563396066126e-07,1.8674674939473967e-05
1.2053338883588822e-06,2.601172381840939e-06,5.672537495284537e-07,1.889133880304219e-05
1.207223614597929e-06,2.59549038539399e-06,5.726975038197247e-07,1.9137355877446662e-05
1.2082604959135135e-06,2.590263278250821e-06,5.782800798507178e-07,1.941099922616845e-05
1.2084846775357227e-06,2.585730411111041e-06,5.839990590368058e-07,1.971078717623124e-05
1.2079371947808324e-06,2.582181172525819e-06,5.898539904108484e-07,2.0035727683561012e-05
1.206660399855905e-06,2.579908229358876e-06,5.958449797963597e-07,2.0385436726385398e-05
1.204694730681593e-06,2.57919149990948e-06,6.019775818413881e-07,2.076005956878015e-05
1.2020734667807708e-06,2.5803229815690917e-06,6.082694161415149e-07,2.116005186236532e-05
1.1988220321925341e-06,2.5836322975304432e-06,6.147501974850671e-07,2.1585900972556446e-05
1.1949627474829626e-06,2.589477393793169e-06,6.214528763637796e-07,2.203790377258159e-05
1.1905190427060942e-06,2.59820154285222e-06,6.284025792875827e-07,2.251608186841293e-05
1.185514235992493e-06,2.610086032929173e-06,6.356114330739889e-07,2.302018193923753e-05
1.1799676445890249e-06,2.62532555911789e-06,6.430791884831043e-07,2.3549672893384355e-05
1.1738927626407579e-06,2.6440243507234335e-06,6.507941462739061e-07,2.4103720415731962e-05
1.1672980155313907e-06,2.666205467231997e-06,6.587327933416363e-07,2.4681174229793725e-05
1.1601884977016686e-06,2.691836878714192e-06,6.66860547317094e-07,2.528058969626764e-05
1.1525687676107784e-06,2.7208652591557752e-06,6.751345526667737e-07,2.590024050706856e-05
1.1444482930473247e-06,2.7532384387686282e-06,6.835065700872123e-07,2.653807297951388e-05
1.1358463107703242e-06,2.7889079812245282e-06,6.91923811189752e-07,2.719166328957254e-05
1.1267903511570852e-06,2.8278123874545462e-06,7.003299721353612e-07,2.7858261900498328e-05
1.1173129315869609e-06,2.8698517386367688e-06,7.086708661400111e-07,2.8534843385801343e-05
1.1074538656033988e-06,2.914877777361076e-06,7.169028527132485e-07,2.921811437157831e-05
1.097264784414653e-06,2.962710825501324e-06,7.249977733416789e-07,2.9904625649616713e-05
1.086812430733218e-06,3.0131645435975174e-06,7.329415072033862e-07,3.0590970101262725e-05
1.0761830723400735e-06,3.0660555411565653e-06,7.407274353561545e-07,3.127384380482197e-05
1.0654854445909577e-06,3.121192538443417e-06,7.483501096904906e-07,3.19499462355385e-05
1.054847693493408e-06,3.178354528512038e-06,7.558044902199717e-07,3.261591825841075e-05
1.0444097704468905e-06,3.2372747774852573e-06,7.63087658701865e-07,3.326844452455113e-05
1.0343131310223569e-06,3.297639321298474e-06,7.701967660450722e-07,3.3904460749575834e-05
1.0246885880821986e-06,3.3590972957905043e-06,7.771244792319623e-07,3.45213386837015e-05
1.015649119050424e-06,3.4212768532052034e-06,7.838576150886695e-07,3.5116959875905594e-05
1.0072941219136293e-06,3.4837947378591123e-06,7.903797751984727e-07,3.568968028557789e-05
9.997202411334248e-07,3.546254710902225e-06,7.966736843733484e-07,3.623826670397998e-05
9.930281750661364e-07,3.6082462222434332e-06,8.02722967448999e-07,3.676180741856871e-05
9.873197912919625e-07,3.6693502815726717e-06,8.085171488898374e-07,3.7259531732947e-05
9.826885647977275e-07,3.7291474619677636e-06,8.140578821579356e-07,3.7730608128769895e-05
9.792107700484702e-07,3.7872237997205764e-06,8.193594169736584e-07,3.817405385224275e-05
9.76939995755985e-07,3.843175369298036e-06,8.244409801930977e-07,3.8588744958279435e-05
9.759038113742596e-07,3.896614905010325e-06,8.293166786907648e-07,3.897344351313682e-05
9.761041919075972e-07,3.9471833689962995e-06,8.33990546522797e-07,3.9326818665472946e-05
9.775247043950329e-07,3.994564950012262e-06,8.38459157683208e-07,3.964746382855994e-05
9.801441846522896e-07,4.038499372114894e-06,8.427179428760512e-07,3.993390735281457e-05
9.839493999168136e-07,4.0787831284261605e-06,8.467655838261068e-07,4.018463665375624e-05
9.889370241576625e-07,4.1152571087784615e-06,8.506038877848055e-07,4.039816348063183e-05
9.951051114524958e-07,4.147795704614814e-06,8.542342868323582e-07,4.0573104248843125e-05
1.0024425507179944e-06,4.1763129903475715e-06,8.576538685967427e-07,4.0708225951441995e-05
1.0109231933215268e-06,4.200772627185177e-06,8.608536437851021e-07,4.080246484275125e-05
1.020507449671777e-06,4.221179027097533e-06,8.638191915517372e-07,4.0854930688795364e-05
1.0311490004786935e-06,4.237555999436681e-06,8.665321819842306e-07,4.086491130771788e-05
1.0427987859912108e-06,4.249937788656549e-06,8.68974545814002e-07,4.0831955929406124e-05
1.0554022396839978e-06,4.2583816098576576e-06,8.711374151198133e-07,4.0756097510891215e-05
1.0688948255965907e-06,4.262986106602249e-06,8.730290820646474e-07,4.063814808672325e-05
1.0832004393849723e-06,4.2638923317028436e-06,8.746734864743774e-07,4.0479869286664505e-05
1.098231179207365e-06,4.26126320192063e-06,8.761000776267e-07,4.028386403080712e-05
1.1138888413388815e-06,4.255267970217047e-06,8.77334099236759e-07,4.005327332604148e-05
1.1300698628170911e-06,4.246088160535976e-06,8.783932223791325e-07,3.979147049819797e-05
1.1466699184158363e-06,4.233926168011341e-06,8.79288766779566e-07,3.950182548780969e-05
1.1635844384048638e-06,4.219003237497123e-06,8.800271332293524e-07,3.9187508289503636e-05
1.1807067364510144e-06,4.201551396385703e-06,8.806105712368929e-07,3.885133818522933e-05
1.1979269379900542e-06,4.1818044226971484e-06,8.810403210833992e-07,3.84957416122034e-05
1.2151319809728624e-06,4.159998246521183e-06,8.81321911767988e-07,3.812282463379581e-05
1.232205172222649e-06,4.136384555221198e-06,8.814669695776275e-07,3.773449215357693e-05
1.2490260969330593e-06,4.111246075068215e-06,8.814888764681421e-07,3.733256028271502e-05
1.2654727770800487e-06,4.08489863715104e-06,8.813967935674705e-07,3.691884454089915e-05
1.281425251491446e-06,4.057668980267568e-06,8.811931356678213e-07,3.6495221045942986e-05
1.296769021945398e-06,4.029860911022803e-06,8.808746067731304e-07,3.606366284692459e-05
1.3114006006587408e-06,4.0017413237246285e-06,8.804347246583018e-07,3.5626246592536207e-05
1.3252343007615738e-06,3.973555038852837e-06,8.798656924005585e-07,3.5185106884062564e-05
1.3382022425897548e-06,3.945550944557952e-06,8.791577235380991e-07,3.4742331663018345e-05
1.3502478152768499e-06,3.917998927170397e-06,8.782972897584423e-07,3.429985179335488e-05
1.3613230436553458e-06,3.891184271555763e-06,8.772674903730951e-07,3.385939109972859e-05
1.371392001307567e-06,3.865383860633455e-06,8.760496994398206e-07,3.342246760157407e-05
1.380431760331193e-06,3.840844024006364e-06,8.746234780473894e-07,3.29903691128572e-05
1.388427089048647e-06,3.8177692812498814e-06,8.729657344655554e-07,3.25640787620198e-05
1.3953643192715012e-06,3.7963128286377213e-06,8.710525139903191e-07,3.214422194208605e-05
1.4012282628511244e-06,3.7765676922225097e-06,8.688626923042404e-07,3.173108888082605e-05
1.4060014926085808e-06,3.7585712115054497e-06,8.663796996647782e-07,3.132470233377703e-05
1.4096660589754115e-06,3.7423227179539114e-06,8.635915220073064e-07,3.092487732159442e-05
1.4122065121432986e-06,3.727799362616008e-06,8.604908446032238e-07,3.053126694546721e-05
1.4136110925170402e-06,3.714960006853075e-06,8.570733337292193e-07,3.014341334202903e-05
1.41387131186711e-06,3.70374216854661e-06,8.533343584116803e-07,2.976077849146513e-05
1.4129838048283431e-06,3.6940697894723152e-06,8.492674898873857e-07,2.9382728078173164e-05
1.4109556878608525e-06,3.68587332290082e-06,8.448646665250128e-07,2.900851531401375e-05
1.4078076469288598e-06,3.6790951796050797e-06,8.40116343129883e-07,2.863730860356146e-05
1.4035693915924593e-06,3.6736728428820802e-06,8.350113335753194e-07,2.8268234754708546e-05
1.3982713688373189e-06,3.669527295106716e-06,8.295376481461339e-07,2.790040990481744e-05
1.3919395866816222e-06,3.6665660248313537e-06,8.236852418949532e-07,2.753296810565027e-05
1.3845956987740436e-06,3.6646832935092338e-06,8.174478265669158e-07,2.716508798116127e-05
1.3762610578296088e-06,3.663761427347675e-06,8.108219369221015e-07,2.679601763292155e-05
1.3669620071693326e-06,3.6636881234227723e-06,8.038063078869241e-07,2.6425108918240585e-05
1.3567334924832408e-06,3.664375732488637e-06,7.964030619240323e-07,2.6051835938932142e-05
1.3456190023516828e-06,3.665757572626433e-06,7.886190928270501e-07,2.567577754579577e-05
1.3336677597893708e-06,3.6677639972267135e-06,7.804678992294684e-07,2.529660521062416e-05
1.3209326944061658e-06,3.6703022216268257e-06,7.719716913743553e-07,2.4914085445392324e-05
1.307469700351777e-06,3.6732502167229226e-06,7.631607744888994e-07,2.4528053966424624e-05
1.2933357458334556e-06,3.6764584444554533e-06,7.54070290698217e-07,2.413838811605045e-05
1.2785857753463421e-06,3.6797558964319982e-06,7.447373580802193e-07,2.3745027204879426e-05
1.263270870811641e-06,3.682958563237594e-06,7.351992138942136e-07,2.334800261979202e-05
1.2474403666185448e-06,3.68587654036836e-06,7.254916327404942e-07,2.294742347973007e-05
1.2311466940145206e-06,3.6883176461133836e-06,7.156476782124831e-07,2.2543439577184508e-05
1.2144474712534629e-06,3.6900911972386695e-06,7.056985844119006e-07,2.213627635684408e-05
1.1974031230643042e-06,3.6910246511322304e-06,6.956791256698115e-07,2.1726424594523635e-05
1.180073482035359e-06,3.690997344968548e-06,6.856354110191883e-07,2.1314892376433656e-05
1.162516166519555e-06,3.6899670569566375e-06,6.756293967349251e-07,2.090327137798144e-05
1.144787087704459e-06,3.687961470264492e-06,6.657367644298485e-07,2.0493523312883135e-05
1.1269404641811873e-06,3.685040654578987e-06,6.560395831082166e-07,2.0087661398174628e-05
1.1090257164626206e-06,3.681263975266964e-06,6.46620032089551e-07,1.9687533537304865e-05
1.0910844441726612e-06,3.6766822721752405e-06,6.375604545586444e-07,1.9294816618230508e-05
1.0731529629654102e-06,3.671340608866976e-06,6.289452219505536e-07,1.8911224228004253e-05
1.0552693064060103e-06,3.665271809424192e-06,6.208563311703642e-07,1.8538738608749318e-05
1.037477451675617e-06,3.658486760706716e-06,6.133645309472605e-07,1.817962832855416e-05
1.0198255185496928e-06,3.6509731447060217e-06,6.065247822735152e-07,1.7836259305117946e-05
1.0023627326280678e-06,3.6427081481094902e-06,6.003782063892735e-07,1.7510881227279838e-05
9.851385803628129e-07,3.6336877338810416e-06,5.949540711664739e-07,1.7205486575749522e-05
9.682015104503546e-07,3.62395671026643e-06,5.902686981157946e-07,1.6921734928049345e-05
9.515964871471369e-07,3.6136127398726e-06,5.863255375040143e-07,1.666091991541881e-05
9.353648649801478e-07,3.602778528253224e-06,5.831185724874483e-07,1.6423956423095017e-05
9.195466524363622e-07,3.591567448833741e-06,5.806374394324959e-07,1.6211361667355472e-05
9.041807523748064e-07,3.580067802475595e-06,5.78873929389814e-07,1.6023234947873377e-05
8.893019844132251e-07,3.5683411294078966e-06,5.778278080977079e-07,1.58592717289837e-05
8.749399721155012e-07,3.5564221168482384e-06,5.775080305815233e-07,1.571881934254785e-05
8.611238515782446e-07,3.5443205040244034e-06,5.779281955166256e-07,1.5600951698488747e-05
8.478906426392693e-07,3.5320243658055207e-06,5.790990821140672e-07,1.5504547877986e-05
8.352928786582388e-07,3.5195047178806343e-06,5.810250491778456e-07,1.5428366995783788e-05
8.234009807606612e-07,3.5067241025650534e-06,5.837069015838409e-07,1.5371114845538806e-05
8.122972672675182e-07,3.4936423613876664e-06,5.87144294872171e-07,1.5331501301443552e-05
8.020640653772722e-07,3.4802134948048712e-06,5.91332870395136e-07,1.5308281531856923e-05
7.927727820007785e-07,3.466379025782405e-06,5.962600604544996e-07,1.530027712305736e-05
7.844792953733209e-07,3.4520651697789147e-06,6.019045419027272e-07,1.530638942634803e-05
7.772261352506756e-07,3.437186694394948e-06,6.082396094461512e-07,1.532560368108128e-05
7.710473029742499e-07,3.421654972968487e-06,6.152364238863344e-07,1.5356952874504558e-05
7.659697412848643e-07,3.4053835300504995e-06,6.22863883046893e-07,1.5399436250132935e-05
7.620102110720715e-07,3.388288345673793e-06,6.310869202681461e-07,1.545194266222872e-05
7.591754797489319e-07,3.3702909770302466e-06,6.398655114393119e-07,1.5513235036395794e-05
7.574716356864778e-07,3.351334429022428e-06,6.491533093742717e-07,1.5582014543772962e-05
7.569135669615327e-07,3.331409173541848e-06,6.588958784000082e-07,1.5657029252981564e-05
7.575236790005556e-07,3.310576865586092e-06,6.690314965925349e-07,1.5737150706102744e-05
7.593248562951318e-07,3.2889765562938093e-06,6.794955972979707e-07,1.5821377671284813e-05
7.623404727776467e-07,3.2668013478462966e-06,6.902248301031221e-07,1.5908796502945367e-05
7.66602770119287e-07,3.2442575158570167e-06,7.011564170095152e-07,1.599853317497688e-05
7.721571959134661e-07,3.2215435294052767e-06,7.122253135618948e-07,1.608971857387816e-05
7.790541934864536e-07,3.198864808630345e-06,7.233645175322597e-07,1.618147525430914e-05
7.873346387690717e-07,3.1764558948168962e-06,7.345077548929006e-07,1.6272895493638948e-05
7.970190439706627e-07,3.1545814387244165e-06,7.455913897384034e-07,1.6363003051133127e-05
8.08105218549244e-07,3.133517368703729e-06,7.565563045947083e-07,1.6450743959126254e-05
8.205732065392963e-07,3.113524728694994e-06,7.673499326720887e-07,1.6535025036340243e-05
8.343915757399534e-07,3.0948278279772e-06,7.77925241396259e-07,1.6614779074412954e-05
8.495214628780931e-07,3.0776085172314342e-06,7.882369007488287e-07,1.6689055060436234e-05
8.659203839905598e-07,3.062011411456892e-06,7.98239167250068e-07,1.6757124594264057e-05
8.835477666349266e-07,3.048143525527957e-06,8.078861654147057e-07,1.6818529779709065e-05
9.02369979082226e-07,3.036078535914925e-06,8.171334651640218e-07,1.687301270965607e-05
9.223601163065788e-07,3.025886883077448e-06,8.259423373438655e-07,1.6920384793619173e-05
9.434909227685629e-07,3.0176795934199915e-06,8.342842391457227e-07,1.696044386244939e-05
9.65725599385668e-07,3.0116375781593517e-06,8.421407353700631e-07,1.6992956204031014e-05
9.890138004758579e-07,3.0080101652616453e-06,8.494996911351899e-07,1.701764232934604e-05
1.0132952396396612e-06,3.0070763193592857e-06,8.563514685373115e-07,1.703415887123338e-05
1.0385049996846774e-06,3.0090858438013386e-06,8.626869131210306e-07,1.7042138233000198e-05
1.0645727954363505e-06,3.0142255986730856e-06,8.684980648539946e-07,1.704133724910278e-05
1.0914165858465202e-06,3.0226339300303286e-06,8.737813731288971e-07,1.7031845190638878e-05
1.1189381287157105e-06,3.034435983298198e-06,8.785405286479055e-07,1.7014171115332648e-05
1.1470271679965624e-06,3.0497647858429228e-06,8.827868611400274e-07,1.698910793083259e-05
1.1755740604840793e-06,3.068762177713868e-06,8.86537461639126e-07,1.695749874539336e-05
1.2044830522363442e-06,3.091570300466753e-06,8.898116463769621e-07,1.6920075272934987e-05
1.2336804777156212e-06,3.118321905292632e-06,8.926301787234043e-07,1.6877455733291533e-05
1.263118885099912e-06,3.1491316591426084e-06,8.950199228864967e-07,1.6830333088402864e-05
1.2927760695331385e-06,3.1840836077093516e-06,8.970169435237059e-07,1.677973646984369e-05
1.3226451719894286e-06,3.223207735182165e-06,8.98664513793261e-07,1.672714100140869e-05
1.3527179751376002e-06,3.266452980693602e-06,9.000126409984337e-07,1.667436485599848e-05
1.3829696626972695e-06,3.3136762968302415e-06,9.011195666748879e-07,1.6623380013501867e-05
1.4133512064169637e-06,3.36465089155124e-06,9.02047148283133e-07,1.6576135093837692e-05
1.4437893033460785e-06,3.4190774767705366e-06,9.028502225587292e-07,1.6534409509261693e-05
1.474191501836468e-06,3.4765914478634314e-06,9.035692810128895e-07,1.6499700622155207e-05
1.5044538429024747e-06,3.536772706580201e-06,9.04230157532703e-07,1.6473141798397876e-05
1.5344660380990058e-06,3.5991587991433844e-06,9.048462149519379e-07,1.645545510443367e-05
1.56411199563921e-06,3.6632567900740602e-06,9.054205481860363e-07,1.6446949510395322e-05
1.5932701135079497e-06,3.7285577233677595e-06,9.059494346159521e-07,1.644756106104201e-05
1.621816753475863e-06,3.7945561545727938e-06,9.064253727053939e-07,1.6456917951054022e-05
1.6496294226616878e-06,3.860763437859149e-06,9.068374658320772e-07,1.6474416384154246e-05
1.6765860027256159e-06,3.926704692825429e-06,9.071711002677013e-07,1.6499295168065244e-05
1.7025636397348224e-06,3.991907088238962e-06,9.074084628583105e-07,1.6530700274222472e-05
1.7274415271806473e-06,4.055896325394533e-06,9.075295213053863e-07,1.6567746258301274e-05
1.751105737922276e-06,4.1182061814567186e-06,9.075143385040396e-07,1.660958315484465e-05
1.7734530920450161e-06,4.178390049614714e-06,9.073457325520752e-07,1.6655451099885973e-05
1.794392135649079e-06,4.236028189733423e-06,9.07009679995474e-07,1.6704697741489645e-05
1.8138404285889115e-06,4.2907334826896495e-06,9.064946495564844e-07,1.6756762232507818e-05
1.8317223010931197e-06,4.342151425835762e-06,9.057912885053476e-07,1.6811139236445817e-05
1.8479717951776698e-06,4.3899528263852535e-06,9.048906508849188e-07,1.6867322288269375e-05
1.862538107972133e-06,4.4338305667550205e-06,9.037812223286577e-07,1.6924742266698653e-05
1.8753887098381485e-06,4.4735036133901085e-06,9.024470867843677e-07,1.6982733099480245e-05
1.886508636114741e-06,4.508719801079124e-06,9.008677062069059e-07,1.7040527231666026e-05
1.8958951472942963e-06,4.539254443967754e-06,8.990204730062057e-07,1.7097280309742658e-05
1.903549763119296e-06,4.564906371505059e-06,8.968870761604403e-07,1.7152146289845866e-05
1.9094720496494547e-06,4.585494123763761e-06,8.944588501610605e-07,1.7204367767487572e-05
1.913657606461836e-06,4.600857680239434e-06,8.917355479467348e-07,1.7253304741215036e-05
1.9161013237491384e-06,4.610868128149967e-06,8.887201397933113e-07,1.7298404873730305e-05
1.916803013446301e-06,4.615442956088168e-06,8.854160151959097e-07,1.733917042486374e-05
1.9157697168814917e-06,4.6145625105813064e-06,8.818278671726824e-07,1.737513616666709e-05
1.913014754810379e-06,4.608282282817446e-06,8.779625500667522e-07,1.7405845062429332e-05
1.908556627083344e-06,4.5967388510374185e-06,8.738278381337835e-07,1.7430821278235358e-05
1.9024173960145088e-06,4.58014973255528e-06,8.694305933501444e-07,1.7449565100158096e-05
1.8946198920891784e-06,4.5588009708782506e-06,8.647749967140116e-07,1.7461585447427842e-05
1.8851853064666317e-06,4.533016510722733e-06,8.598606399570196e-07,1.7466450506435422e-05
1.874133622901743e-06,4.503127416806203e-06,8.546821215430312e-07,1.7463841846679646e-05
1.861486626736816e-06,4.469470149476882e-06,8.492314142953041e-07,1.7453623674460604e-05
1.847269400729189e-06,4.432409012051125e-06,8.435016460528698e-07,1.7435920178806102e-05
1.831509106908717e-06,4.392350238890956e-06,8.37489549755026e-07,1.741113160038351e-05
1.814234941327441e-06,4.349732279515142e-06,8.311948526344506e-07,1.7379830847233092e-05
1.7954812673302155e-06,4.3049990360738975e-06,8.246176672376687e-07,1.7342602260980773e-05
1.7752904553384902e-06,4.258569878497532e-06,8.177569626846898e-07,1.7299939879941878e-05
1.753711392084294e-06,4.210821153464249e-06,8.106118509309096e-07,1.7252236273386435e-05
1.730795708313512e-06,4.162081495923618e-06,8.031837690853816e-07,1.719980556683973e-05
1.7065965081326476e-06,4.11263163128408e-06,7.954764837299195e-07,1.7142894751743108e-05
1.6811689670168817e-06,4.06270540015775e-06,7.874943241228418e-07,1.7081682525296993e-05
1.6545700842780804e-06,4.012496915984008e-06,7.792420141432889e-07,1.7016310841197858e-05
1.6268584118458427e-06,3.96217889130735e-06,7.707264919930334e-07,1.6947004207570675e-05
1.5980956743885876e-06,3.911929479623195e-06,7.619573355762945e-07,1.6874197536712578e-05
1.5683498348274612e-06,3.86195226006977e-06,7.529458868089946e-07,1.6798515880155984e-05
1.5376962866287536e-06,3.8124712995912613e-06,7.437058745768669e-07,1.6720628600379403e-05
1.506216257650163e-06,3.7637066858774635e-06,7.342534637911913e-07,1.6641115977988784e-05
1.4739959543183928e-06,3.715870396660995e-06,7.246044359453335e-07,1.6560423840484672e-05
1.4411265605648412e-06,3.669209864793106e-06,7.147718262161466e-07,1.6478978375325492e-05
1.4077014506069182e-06,3.624063521841868e-06,7.04766670096905e-07,1.6397440342869446e-05
1.3738115292017034e-06,3.580867508700358e-06,6.946002186163088e-07,1.631687094742718e-05
1.3395427110206075e-06,3.540099085722236e-06,6.842856617900021e-07,1.623867330909335e-05
1.3049761653878738e-06,3.50219762588946e-06,6.738383975564373e-07,1.6164436816925953e-05
1.2701906504893463e-06,3.467514013057528e-06,6.632744489117332e-07,1.6095804696611595e-05
1.2352664412267378e-06,3.436300183039156e-06,6.526089040363635e-07,1.6034358079598114e-05
1.2002870375371142e-06,3.408715136224157e-06,6.418560597009286e-07,1.598150098746831e-05
1.1653362156216676e-06,3.3848338333110576e-06,6.310295951422843e-07,1.5938356693739946e-05
1.1304938669003916e-06,3.3646619476862588e-06,6.201426076628051e-07,1.5905697268193715e-05
1.0958339728071889e-06,3.348152194520334e-06,6.092104907650888e-07,1.5883925933333316e-05
1.0614251662210584e-06,3.3352135251426917e-06,5.982547005859048e-07,1.587310041431878e-05
1.027332530931565e-06,3.3257134450437117e-06,5.873018355603937e-07,1.5872963328836802e-05
9.93618785913259e-07,3.3194793061898856e-06,5.763797058748647e-07,1.5882972486531656e-05
9.603460898400686e-07,3.3163034080068364e-06,5.655153705565357e-07,1.59023527809423e-05
9.275787165271208e-07,3.3159566266759836e-06,5.547343392436351e-07,1.593017678909103e-05
8.953833963139574e-07,3.318212291711508e-06,5.44059433501594e-07,1.5965467345044934e-05
8.638285548018524e-07,3.322871022635957e-06,5.335108698533269e-07,1.6007308133918992e-05
8.329856019425055e-07,3.3297672217011708e-06,5.231072613655768e-07,1.6054925054947118e-05
8.029306309920719e-07,3.338749666041134e-06,5.128655111608679e-07,1.610771275015485e-05
7.737444570493404e-07,3.349659856776218e-06,5.02799745116518e-07,1.6165230944151408e-05
7.455103444006186e-07,3.3623346041295767e-06,4.929212997956378e-07,1.6227199794704675e-05
7.183091109015988e-07,3.3766206960852485e-06,4.832407365177582e-07,1.6293477539269228e-05
6.922139563912686e-07,3.3923716946452616e-06,4.737700013154503e-07,1.636399790651837e-05
6.672878931034058e-07,3.409426607519954e-06,4.6452399943631285e-07,1.6438685145509335e-05
6.435832241078277e-07,3.427594957614536e-06,4.555230248274749e-07,1.6517372696889875e-05
6.211414538781591e-07,3.4466580475011635e-06,4.467937378782321e-07,1.659974310064688e-05
5.999933724365055e-07,3.4663755036042633e-06,4.3836562620740453e-07,1.6685328911814025e-05
5.801604232780985e-07,3.4864935960819352e-06,4.3026593971989345e-07,1.677358315604068e-05
5.616593608619701e-07,3.5067626880584938e-06,4.2251800482567847e-07,1.68639469080116e-05
5.445078329700814e-07,3.5269589387059403e-06,4.151426192705116e-07,1.695587165543035e-05
5.287247403282293e-07,3.546893211674839e-06,4.081590034602654e-07,1.7048835596869313e-05
5.143267583333425e-07,3.566399245544011e-06,4.015841473117918e-07,1.7142379919206527e-05
5.013297103585801e-07,3.585314295967478e-06,3.9543206629581717e-07,1.723614652031909e-05
4.89755100167258e-07,3.603478788615062e-06,3.897145848951047e-07,1.732987497001807e-05
4.796319764682093e-07,3.6207643299812722e-06,3.8444299007347996e-07,1.7423339761714137e-05
4.7099042241088383e-07,3.637108787686242e-06,3.796282930407497e-07,1.7516274167050438e-05
4.638527694010067e-07,3.6525362517106713e-06,3.7527934451146286e-07,1.7608313484070796e-05
4.582288151305764e-07,3.667154473520167e-06,3.714007336303401e-07,1.769894941675305e-05
4.5411727297486774e-07,3.6811254935047705e-06,3.679924358398153e-07,1.778753587452613e-05
4.5151048635657923e-07,3.694618723032063e-06,3.650505453114847e-07,1.7873389836321437e-05
4.503960183533083e-07,3.7077804143362494e-06,3.625690332414093e-07,1.7955909634379945e-05
4.507532774629527e-07,3.7207424365673516e-06,3.605426647839047e-07,1.803458341695585e-05
4.5255129965541717e-07,3.7336500391729934e-06,3.589675854750189e-07,1.8108902853622912e-05
4.557517890772075e-07,3.7466746356074235e-06,3.578381270605735e-07,1.817832261249757e-05
4.603114878988704e-07,3.7600026262895163e-06,3.5714356667376034e-07,1.82423042828534e-05
4.6617921510140363e-07,3.7738113180323892e-06,3.5686739568707545e-07,1.830033767048376e-05
4.732938754030754e-07,3.7882448354501253e-06,3.5698871224999363e-07,1.8351892569355186e-05
4.815881348163707e-07,3.803406219057744e-06,3.5748556111665893e-07,1.839638392511485e-05
4.909921007098989e-07,3.819380166293588e-06,3.5833870284095524e-07,1.843324539436812e-05
5.014328522748437e-07,3.836271193576008e-06,3.5953207222795953e-07,1.8462126968253745e-05
5.128325551524394e-07,3.854217525158223e-06,3.61050638115875e-07,1.848308378540156e-05
5.251067255056929e-07,3.873366183365783e-06,3.6288163278784363e-07,1.849657593457622e-05
5.38162641174219e-07,3.893845254984661e-06,3.6501927804843593e-07,1.8503304172068533e-05
5.518996430152853e-07,3.9157801438328065e-06,3.674665333188332e-07,1.850404234859281e-05
5.662125555482746e-07,3.939345550710281e-06,3.7023236981830394e-07,1.8499528536135448e-05
5.809964829460063e-07,3.964793545713158e-06,3.7332720641926754e-07,1.8490439802197096e-05
5.961490733432669e-07,3.9924218495379185e-06,3.7675789948061316e-07,1.847749520300436e-05
6.115697162355433e-07,4.022505695505944e-06,3.805246576867738e-07,1.8461590023119224e-05
6.271600634980432e-07,4.055238399051907e-06,3.8462073784954407e-07,1.844378541392788e-05
6.428266429868566e-07,4.09070233579316e-06,3.8903295549768406e-07,1.8425161151434835e-05
6.584812272527876e-07,4.128867726075219e-06,3.937419139898082e-07,1.8406670423114603e-05
6.74040201439388e-07,4.169615126751232e-06,3.9872195674533633e-07,1.8389058505043437e-05
6.894284622999918e-07,4.212772465413075e-06,4.0394177349464715e-07,1.837282615274523e-05
7.045849571693288e-07,4.2581399110876505e-06,4.093665677073545e-07,1.8358215780806546e-05
7.194621484088355e-07,4.305485865545443e-06,4.149605552198433e-07,1.83452200913496e-05
7.340213138241734e-07,4.35453603093078e-06,4.206878145947955e-07,1.833361847684905e-05
7.482318827643334e-07,4.4049801794156776e-06,4.265121368693813e-07,1.832303067999613e-05
7.620741398793813e-07,4.456484785925727e-06,4.323980392845916e-07,1.8312953321343104e-05
7.755373302519516e-07,4.508695396965461e-06,4.383125917735448e-07,1.830275944227832e-05
7.886116066063077e-07,4.5612442360779164e-06,4.4422640734321213e-07,1.8291691519362705e-05
8.01280542141359e-07,4.613781615702785e-06,4.501141868236002e-07,1.8278879379255168e-05
8.135195791975566e-07,4.666015238704806e-06,4.5595674568208134e-07,1.8263383501858567e-05
8.252986617468737e-07,4.717725444409243e-06,4.617444676053257e-07,1.8244261415931325e-05
8.365841896307615e-07,4.768747599722781e-06,4.674791829140164e-07,1.8220641779567195e-05
8.473390792565445e-07,4.818940936017718e-06,4.731725748896254e-07,1.8191774074749448e-05
8.575236338845953e-07,4.868167712394933e-06,4.788424965026003e-07,1.8157048219418498e-05
8.670991021490946e-07,4.9162894732653255e-06,4.845095698219946e-07,1.8115996672852588e-05
8.760323315947052e-07,4.963170136332162e-06,4.901945597468657e-07,1.806827480003752e-05
8.84298112825427e-07,5.008675638940486e-06,4.959170666854029e-07,1.8013616405549462e-05
8.918783844581515e-07,5.0526694802574855e-06,5.016978515331971e-07,1.795177725980095e-05
8.987611690549507e-07,5.095007575117694e-06,5.075631817346416e-07,1.788248796463226e-05
9.049431522319269e-07,5.135540682278451e-06,5.135458215605568e-07,1.7805452029608927e-05
9.104369051508871e-07,5.174139310473182e-06,5.196819629457578e-07,1.7720411506637125e-05
9.152772952442086e-07,5.2107403363021575e-06,5.260076564775263e-07,1.7627233296229807e-05
9.19520198305184e-07,5.2453871055027055e-06,5.325553923505921e-07,1.7525932853338354e-05
9.232333905229177e-07,5.278233420879853e-06,5.39349808059515e-07,1.741662092252119e-05
9.264852413411647e-07,5.309502852350338e-06,5.464047900591497e-07,1.7299432993207374e-05
9.293365248946434e-07,5.3394218040581064e-06,5.537236135438718e-07,1.7174492972247227e-05
9.318383490226031e-07,5.368168065351448e-06,5.61300090157486e-07,1.7041922428977573e-05
9.340360137547793e-07,5.395859852034137e-06,5.691211616084877e-07,1.690186152229309e-05
9.359738150506927e-07,5.422565275059304e-06,5.771726065612145e-07,1.6754457077064903e-05
9.376959551507268e-07,5.448306824565723e-06,5.854437234370052e-07,1.6599832958452272e-05
9.392436088024701e-07,5.4730607576797406e-06,5.9392664042504e-07,1.6438091140157816e-05
9.406516305250423e-07,5.496759063526943e-06,6.026128445356101e-07,1.6269352515715833e-05
9.419490639342548e-07,5.519294644071844e-06,6.114929440945206e-07,1.6093815149401653e-05
9.431624412885964e-07,5.540523981173478e-06,6.205612467382779e-07,1.5911815136791806e-05
9.44316216133427e-07,5.560267148548652e-06,6.298192602379667e-07,1.5723863603397787e-05
9.454313404588524e-07,5.57831319842459e-06,6.392725305016732e-07,1.553061138124123e-05
9.465297449951927e-07,5.5944314580610395e-06,6.489232681971696e-07,1.533275544187806e-05
9.476447074697006e-07,5.6083809957344895e-06,6.587649498516331e-07,1.5130986468546286e-05
9.488266517016409e-07,5.619917247459589e-06,6.687806859479792e-07,1.4926016617885135e-05
9.501376962082487e-07,5.628803682190836e-06,6.789441491637316e-07,1.4718612154164216e-05
9.516394704060442e-07,5.634826764643936e-06,6.892223275484231e-07,1.4509581146989324e-05
9.533825437326971e-07,5.637798525929884e-06,6.995780407304e-07,1.429973178831069e-05
9.554023885755163e-07,5.637545243664597e-06,7.099708874996383e-07,1.4089839902179739e-05
9.57723028238536e-07,5.633902532837512e-06,7.203572470569455e-07,1.3880710611474236e-05
9.603651204981717e-07,5.62672877216052e-06,7.306895169452565e-07,1.3673330055140414e-05
9.633521337510648e-07,5.615925098309515e-06,7.409153954572986e-07,1.3468929183439184e-05
9.667104559917234e-07,5.601442154597702e-06,7.50978339889935e-07,1.3268872320725806e-05
9.70462931734332e-07,5.583267168463395e-06,7.608194791014668e-07,1.307448664564233e-05
9.746201858170946e-07,5.561409003205301e-06,7.703818270937679e-07,1.2886952599736944e-05
9.791766515291055e-07,5.5359058422568e-06,7.796155281119914e-07,1.2707310248912773e-05
9.841123182088138e-07,5.506853657047371e-06,7.88479400415256e-07,1.2536594794273755e-05
9.893979564113965e-07,5.474426529586574e-06,7.96938715279536e-07,1.2375982239521236e-05
9.950040482469964e-07,5.43886391462198e-06,8.049639589117682e-07,1.2226767180900846e-05
1.0009117733551798e-06,5.400429520300983e-06,8.125302696857875e-07,1.2090191255608858e-05
1.007120279733812e-06,5.3593791256643486e-06,8.196149598952077e-07,1.1967291910483181e-05
1.0136431300497872e-06,5.3159665136498365e-06,8.261946518558574e-07,1.1858847837562075e-05
1.0204947846794826e-06,5.270469537897961e-06,8.322435665056825e-07,1.1765381723115355e-05
1.0276797077947957e-06,5.223201152714896e-06,8.377326609404573e-07,1.1687168376151445e-05
1.0351912045669045e-06,5.174493391194231e-06,8.426298086488448e-07,1.1624228422477863e-05
1.0430139233594069e-06,5.1246682108563214e-06,8.469010504526285e-07,1.1576320206445598e-05
1.05112576740847e-06,5.074026593402545e-06,8.505126010838792e-07,1.1542952539958342e-05
1.0595017633546192e-06,5.022870511321994e-06,8.534344102483276e-07,1.1523415538146276e-05
1.068119745424693e-06,4.971532068409268e-06,8.556446803401273e-07,1.1516810250780987e-05
1.0769630215543115e-06,4.9203798922010296e-06,8.571313344455237e-07,1.1522080907926178e-05
1.0860179068999253e-06,4.869795324071029e-06,8.578888646039077e-07,1.1538063047479415e-05
1.0952684841555573e-06,4.820133282551468e-06,8.579144959960674e-07,1.1563540942271734e-05
1.1046905890637744e-06,4.7717044132832235e-06,8.572079391775122e-07,1.15973084613739e-05
1.1142470069347706e-06,4.7247945995388574e-06,8.557760001861995e-07,1.163822903376567e-05
1.1238864535721615e-06,4.679689739293147e-06,8.536386564789564e-07,1.1685259765288545e-05
1.1335459159948466e-06,4.636674524996842e-06,8.508295855942716e-07,1.1737426730329856e-05
1.1431535451937694e-06,4.596006671095996e-06,8.473897862321979e-07,1.1793806705590622e-05
1.1526309649177802e-06,4.557886649004931e-06,8.433605415848384e-07,1.1853540532221755e-05
1.161896232934904e-06,4.522447367874517e-06,8.387794692983259e-07,1.1915830174841232e-05
1.1708674488263162e-06,4.4897649786184564e-06,8.336786824340188e-07,1.1979898882199636e-05
1.179465496249743e-06,4.459866514764253e-06,8.280847991314181e-07,1.2044945978712634e-05
1.187616803068028e-06,4.432726304029778e-06,8.220211956266492e-07,1.211013407105687e-05
1.1952579902538989e-06,4.408262596479161e-06,8.155104533986306e-07,1.2174651695073434e-05
1.202340165510845e-06,4.3863397965692415e-06,8.08574656102507e-07,1.223784536746792e-05
1.2088286660104543e-06,4.366780322979194e-06,8.012345807437554e-07,1.2299316478846065e-05
1.2146996596737363e-06,4.349389076511261e-06,7.935102092877328e-07,1.235890437123409e-05
1.2199379771413405e-06,4.333975792434384e-06,7.854224923116649e-07,1.2416603977279649e-05
1.2245356423159446e-06,4.320356917807801e-06,7.769937304064713e-07,1.2472493349655308e-05
1.228490204877622e-06,4.308347475436697e-06,7.682455287277091e-07,1.252667992523963e-05
1.2318070964679687e-06,4.29776608134184e-06,7.591971571334794e-07,1.257926214121226e-05
1.2345077258250209e-06,4.2884496462278665e-06,7.498674303707814e-07,1.263034761940927e-05
1.2366380440045059e-06,4.280259043065859e-06,7.402795539631713e-07,1.2680122399631137e-05
1.2382723789612408e-06,4.273068205592878e-06,7.304649816270391e-07,1.2728881978090688e-05
1.2395101365688562e-06,4.266741319826134e-06,7.204635546567206e-07,1.2777002774701331e-05
1.2404639499482428e-06,4.261114417809314e-06,7.103213878060381e-07,1.2824915972434434e-05
1.241243780869453e-06,4.255999339515112e-06,7.000881478020489e-07,1.2873098300382444e-05
1.2419471499942229e-06,4.2512071335973365e-06,6.898141788313289e-07,1.2922048757326753e-05
1.2426580542880597e-06,4.2465658547305195e-06,6.795492160559653e-07,1.2972234007027182e-05
1.2434470116841464e-06,4.2419158262505985e-06,6.69342183605841e-07,1.302401060985275e-05
1.2443676774972937e-06,4.237097344774575e-06,6.592398428419309e-07,1.3077569387471292e-05
1.2454530866680719e-06,4.231953069402352e-06,6.49286202627702e-07,1.3132943843465316e-05
1.2467154506309692e-06,4.2263412992686785e-06,6.395248900858535e-07,1.3190055589011564e-05
1.2481492693281948e-06,4.2201452481186865e-06,6.300018936690606e-07,1.3248748979389764e-05
1.2497348407470105e-06,4.213274326123396e-06,6.207654201475685e-07,1.3308807137553495e-05
1.2514418235755631e-06,4.205658395180551e-06,6.118627523130509e-07,1.3369960609120415e-05
1.2532359091734216e-06,4.19723708813803e-06,6.033358269727132e-07,1.3431902510618648e-05
1.2550882915052785e-06,4.187951089524493e-06,5.952173508572035e-07,1.349430650227676e-05
1.2569826717844428e-06,4.1777407219592805e-06,5.875289660407222e-07,1.3556832630512062e-05
1.258916970843288e-06,4.166546066971471e-06,5.802819130457694e-07,1.3619126561874792e-05
1.2609004348480163e-06,4.154301213393004e-06,5.734787528093961e-07,1.3680820943993657e-05
1.2629467515587149e-06,4.140928225061595e-06,5.671149842340771e-07,1.3741540327135146e-05
1.265066442709713e-06,4.1263397800409656e-06,5.611817129973911e-07,1.3800907206812042e-05
1.26726456552997e-06,4.1104522442602134e-06,5.556688994520831e-07,1.385853861568655e-05
1.2695447125343112e-06,4.093204252083471e-06,5.50566409015505e-07,1.3914032693421866e-05
1.271914560904838e-06,4.074567338663383e-06,5.458633371036556e-07,1.3966962479566351e-05
1.2743896275847195e-06,4.054540317610228e-06,5.415479645146829e-07,1.401687899138662e-05
1.2769922999767642e-06,4.03314199642807e-06,5.376084625934254e-07,1.4063304946497996e-05
1.2797445975808964e-06,4.010422536522957e-06,5.340335596967711e-07,1.4105718862660819e-05
1.2826627253278848e-06,3.9864862477044956e-06,5.308123049757974e-07,1.4143544208228962e-05
1.285760481318703e-06,3.961496235794432e-06,5.279322771258686e-07,1.4176150108085388e-05
1.2890542785493255e-06,3.9356467633328115e-06,5.25377531513259e-07,1.4202862636365631e-05
1.2925618531843609e-06,3.909121531868914e-06,5.23128725120244e-07,1.4222985891555506e-05
1.296296287194304e-06,3.882068887814309e-06,5.211662292582735e-07,1.423583515298132e-05
1.3002600422613577e-06,3.854609075895211e-06,5.194733992902228e-07,1.4240766590144088e-05
1.3044435705644818e-06,3.826856229597012e-06,5.180365172046839e-07,1.423718092889992e-05
1.3088291868715383e-06,3.798926233994484e-06,5.168441015888126e-07,1.4224512898454807e-05
1.3133943197480106e-06,3.7709386502627716e-06,5.15890145361615e-07,1.4202235943062961e-05
1.3181095560953264e-06,3.7430384407793737e-06,5.151780777226859e-07,1.4169889509321897e-05
1.3229350067690585e-06,3.7154193329687608e-06,5.147200450373789e-07,1.4127111132027224e-05
1.3278202968716295e-06,3.688314168809527e-06,5.145319469010085e-07,1.4073651017978244e-05
1.3327073281026778e-06,3.6619647654051382e-06,5.146272382680503e-07,1.4009374268745252e-05
1.3375327977402648e-06,3.6366107818052802e-06,5.150124573355272e-07,1.3934276149896137e-05
1.3422296936840342e-06,3.612493627625045e-06,5.156869022081655e-07,1.3848501840613968e-05
1.346728263177154e-06,3.589839869095023e-06,5.166453185959651e-07,1.3752336021187244e-05
1.3509583826716434e-06,3.568831576209372e-06,5.178796786516357e-07,1.3646162537777333e-05
1.3548535216249972e-06,3.5495933887230904e-06,5.193786283906374e-07,1.3530427329985068e-05
1.3583536308862977e-06,3.5321928575800364e-06,5.211271682803822e-07,1.3405622593536431e-05
1.3614060504595488e-06,3.5166422882437304e-06,5.23108619799348e-07,1.3272275016011404e-05
1.363964958087496e-06,3.502905393796006e-06,5.253067134286999e-07,1.3130914135228956e-05
1.3659887770987807e-06,3.490917818293058e-06,5.277042907669639e-07,1.298203548774587e-05
1.3674362101753673e-06,3.4806212298630334e-06,5.302799576703486e-07,1.2826092374674252e-05
1.3682648172650305e-06,3.4719829019320497e-06,5.330074549061888e-07,1.266350799112318e-05
1.3684344538424935e-06,3.4649794433997423e-06,5.358584082224834e-07,1.2494684395730505e-05
1.3679113857644512e-06,3.459576161281896e-06,5.388051558820008e-07,1.2320029782424435e-05
1.3666691397324035e-06,3.4557381707641884e-06,5.418231770587886e-07,1.2140038814985208e-05
1.364689378456844e-06,3.4534565418878564e-06,5.4489572264673e-07,1.1955406320547486e-05
1.3619653227627951e-06,3.4527515401844687e-06,5.480185372218595e-07,1.1767093848785494e-05
1.3585027007830342e-06,3.453644698588227e-06,5.511978964071744e-07,1.157628962699966e-05
1.3543151617911008e-06,3.456130931675354e-06,5.544423681361776e-07,1.1384285672243116e-05
1.3494189870905797e-06,3.4601814220007162e-06,5.57757196632405e-07,1.1192339751012037e-05
1.3438303160598378e-06,3.465766335304789e-06,5.611450318315293e-07,1.1001603818486253e-05
1.3375633926492752e-06,3.472867497313745e-06,5.646079385881665e-07,1.0813174389936819e-05
1.3306292960722091e-06,3.4814680182658966e-06,5.68147365281276e-07,1.0628207827234643e-05
1.3230352285236755e-06,3.4915277246622063e-06,5.71763055602209e-07,1.0447972285370173e-05
1.3147852633282783e-06,3.5029667148941415e-06,5.754512996295388e-07,1.0273775434675507e-05
1.3058836689940337e-06,3.515666331707131e-06,5.792038051804138e-07,1.0106822231233286e-05
1.2963385735412941e-06,3.5294751184023834e-06,5.830083579196058e-07,9.948105984527253e-06
1.2861631436954453e-06,3.5442147497980494e-06,5.868493422956999e-07,9.798376102903873e-06
1.275374283921075e-06,3.5596892314813155e-06,5.907072378198557e-07,9.658144898426677e-06
1.2639918007247358e-06,3.5756906188430387e-06,5.945583580900258e-07,9.527699241171789e-06
1.2520401238716928e-06,3.5920022416021698e-06,5.983750308725491e-07,9.40714062396638e-06
1.2395489147737095e-06,3.608407051574626e-06,6.021265671772372e-07,9.296512292851407e-06
1.2265499520810032e-06,3.6246911294087282e-06,6.057822719558407e-07,9.195987638735554e-06
1.2130758254033666e-06,3.6406350150034584e-06,6.093144967480165e-07,9.105960324726322e-06
1.1991638313055115e-06,3.656004907299762e-06,6.12698782072146e-07,9.026953973541246e-06
1.1848588766372434e-06,3.6705545991792777e-06,6.159128856519678e-07,8.959459054626743e-06
1.170210860091846e-06,3.6840432267108628e-06,6.189360295994762e-07,8.903818486901953e-06
1.1552705576377042e-06,3.6962691968737413e-06,6.217474923653512e-07,8.860229746941157e-06
1.1400892805292458e-06,3.707102149822505e-06,6.243273298427861e-07,8.82891884153665e-06
1.1247223462805955e-06,3.716488155192074e-06,6.266604940923879e-07,8.81039709107817e-06
1.1092302663124925e-06,3.7244270197409134e-06,6.287389755326846e-07,8.805566421778976e-06
1.0936731530288132e-06,3.730941535247541e-06,6.305591118390618e-07,8.815592281755792e-06
1.0781044568058146e-06,3.7360561824476478e-06,6.321177853802187e-07,8.84168554682893e-06
1.0625731357620544e-06,3.739789359960137e-06,6.334100185704704e-07,8.884918562458884e-06
1.0471315643869742e-06,3.7421515983383027e-06,6.344277900910781e-07,8.946091255037983e-06
1.031837045228822e-06,3.7431488977738883e-06,6.351613371601573e-07,9.025640080617658e-06
1.0167439728370642e-06,3.742800640480191e-06,6.356031108336069e-07,9.123610486968814e-06
1.0018969753900828e-06,3.741167556638994e-06,6.357502572972105e-07,9.239694223491548e-06
9.87330830156984e-07,3.73837260433759e-06,6.356039849671324e-07,9.373279837284126e-06
9.730725967348824e-07,3.7346044723325218e-06,6.351703925473461e-07,9.523487251740822e-06
9.59142486861901e-07,3.7301010003730086e-06,6.344635017988249e-07,9.689211840824464e-06
9.455546306958729e-07,3.7251160117054542e-06,6.335045350319333e-07,9.869183308828606e-06
9.323180027275581e-07,3.7198802604289427e-06,6.323165820578974e-07,1.0062014045993053e-05
9.194371871850054e-07,3.7145711485819077e-06,6.309212743789142e-07,1.0266237007298842e-05
9.06914836739756e-07,3.7093033846288324e-06,6.293401851496865e-07,1.0480362930738317e-05
8.947552023887657e-07,3.7041426503959123e-06,6.275965316196541e-07,1.0702963334758567e-05
8.829645706466289e-07,3.6991334127476327e-06,6.25713878236205e-07,1.0932734770664315e-05
8.715481972715563e-07,3.694323835410818e-06,6.237141782412552e-07,1.1168502953429093e-05
8.605088848364855e-07,3.6897717379984614e-06,6.216174301933479e-07,1.1409177472086565e-05
8.498504272168182e-07,3.68553101998276e-06,6.194411274754855e-07,1.1653690629672003e-05
8.395819760122388e-07,3.6816337245224266e-06,6.171996346505906e-07,1.1900935601349796e-05
8.297184325768712e-07,3.678089322298634e-06,6.149065475757898e-07,1.2149712928854247e-05
8.202784417298177e-07,3.674912490642288e-06,6.125776289823622e-07,1.2398710013762687e-05
8.112832127291838e-07,3.6721639721508485e-06,6.102291693254362e-07,1.264653072633748e-05
8.027551042587349e-07,3.669979634632959e-06,6.078747678930062e-07,1.2891772615098473e-05
7.94714319868822e-07,3.668576735392972e-06,6.055259207521646e-07,1.3133134616005796e-05
7.871747011012675e-07,3.66823034713877e-06,6.031939422108286e-07,1.3369499251304272e-05
7.801411166041975e-07,3.66922137366018e-06,6.00889617319639e-07,1.3599927976019145e-05
7.736102066710494e-07,3.6717898614207625e-06,5.98621754325371e-07,1.3823584070343827e-05
7.675729597942056e-07,3.676123274059118e-06,5.963963336617376e-07,1.4039656452910943e-05
7.620166517618965e-07,3.682363049085162e-06,5.94217821248315e-07,1.4247337836503048e-05
7.569262757780686e-07,3.690606672804628e-06,5.920932230778494e-07,1.4445841669945438e-05
7.522853455600054e-07,3.7009046954592966e-06,5.900344931146019e-07,1.4634402884337507e-05
7.480750462331534e-07,3.713254074029667e-06,5.880559046452929e-07,1.4812264052073324e-05
7.44274809244729e-07,3.7275941556556295e-06,5.861712281311293e-07,1.497869123356802e-05
7.408679470332168e-07,3.7438142154936403e-06,5.843944057355018e-07,1.5133014874488416e-05
7.378485747676935e-07,3.761767708156666e-06,5.827405061329505e-07,1.5274668757187743e-05
7.352243820149223e-07,3.7812849816753264e-06,5.812280761778547e-07,1.540324060535983e-05
7.330169760913076e-07,3.802179111434581e-06,5.798848716899328e-07,1.5518543864414953e-05
7.312643153476902e-07,3.8242418022305585e-06,5.78748565280413e-07,1.5620650603959822e-05
7.300235258814077e-07,3.847238657803924e-06,5.778576277976434e-07,1.570982850418011e-05
7.293662496648466e-07,3.870911245843987e-06,5.772421106692043e-07,1.5786419919224665e-05
7.293650808549185e-07,3.894978673044551e-06,5.769237088946571e-07,1.585073894477105e-05
7.300825479928332e-07,3.9191367969867345e-06,5.769217356207984e-07,1.5903020506763032e-05
7.315710957739951e-07,3.9430615737187335e-06,5.772552620361178e-07,1.594341035594187e-05
7.338775311577028e-07,3.9664172897138855e-06,5.7793879627987e-07,1.597197624948836e-05
7.370440222260973e-07,3.988868960142737e-06,5.789781111640713e-07,1.5988736275243292e-05
7.411078419203106e-07,4.010099263184117e-06,5.803703959805422e-07,1.599372775351591e-05
7.461042409787608e-07,4.029823330422436e-06,5.821054918077553e-07,1.5987143511219562e-05
7.520709433795205e-07,4.047794105620314e-06,5.841655333032642e-07,1.5969445184027662e-05
7.590496215063316e-07,4.063802470382562e-06,5.865246749689729e-07,1.594131253687293e-05
7.670826072458752e-07,4.077675953110553e-06,5.89150660941124e-07,1.5903483355878112e-05
7.762054567290087e-07,4.089270108605474e-06,5.920078206658089e-07,1.5856641501604724e-05
7.864377060009905e-07,4.098455912372085e-06,5.950600670790444e-07,1.580142007971798e-05
7.977781507676435e-07,4.1051156316515305e-06,5.982721569022291e-07,1.573855397820969e-05
8.10207403291967e-07,4.109144761003617e-06,6.01609142113206e-07,1.5669122142851502e-05
8.23693224964934e-07,4.110449422852576e-06,6.050375164911642e-07,1.559467502898419e-05
8.381953135800304e-07,4.108942674161853e-06,6.085285534208882e-07,1.551715259997115e-05
8.536681166237419e-07,4.104553230375872e-06,6.120583517113593e-07,1.5438704270194026e-05
8.700605338720151e-07,4.097246128131434e-06,6.156035720380293e-07,1.5361524522154315e-05
8.873145369075005e-07,4.087034706101348e-06,6.191378427236844e-07,1.528772011635404e-05
9.053643348221477e-07,4.07397198360886e-06,6.226310059749751e-07,1.5219186765575373e-05
9.241348905686192e-07,4.0581311046496915e-06,6.260508135600225e-07,1.5157501160737164e-05
9.435411627505295e-07,4.039588514921072e-06,6.293675076790746e-07,1.5103861658817105e-05
9.63490624839297e-07,4.018423417994775e-06,6.325593885184791e-07,1.5059089348235141e-05
9.838859605606146e-07,3.9947384656366e-06,6.356146250578708e-07,1.5023663829604874e-05
1.0046256862003323e-06,3.968680364353476e-06,6.38527841218796e-07,1.4997757474839761e-05
1.0256076036657864e-06,3.94043426798906e-06,6.412946247751962e-07,1.4981262615505256e-05
1.046736029543998e-06,3.910194848609674e-06,6.439072139077487e-07,1.4973830690404125e-05
1.067925340754905e-06,3.8781394316852265e-06,6.463531949888902e-07,1.4974922665996209e-05
1.0890961533901694e-06,3.844423400071284e-06,6.486187362599347e-07,1.4983865921340191e-05
1.1101703309736594e-06,3.8091983218203116e-06,6.506956030456372e-07,1.4999924226965876e-05
1.1310731108816695e-06,3.7726381416718736e-06,6.525864607308661e-07,1.5022365500582553e-05
1.1517410915109049e-06,3.734956750988012e-06,6.543035184345574e-07,1.5050501376167471e-05
1.1721258335139366e-06,3.69640664467044e-06,6.558629647905522e-07,1.5083700222454553e-05
1.1921879152469365e-06,3.657260890643178e-06,6.572824331243085e-07,1.5121391521358724e-05
1.2118870859097022e-06,3.6178029305765166e-06,6.585842457699338e-07,1.5163066679617484e-05
1.231178173969777e-06,3.5783568592264917e-06,6.597980640352666e-07,1.520826234499613e-05
1.250017638769365e-06,3.5393486364037467e-06,6.609565372741132e-07,1.5256507218250107e-05
1.268374507308857e-06,3.5013361125114914e-06,6.620875116893353e-07,1.5307243851410182e-05
1.2862334226010365e-06,3.464961403543113e-06,6.632099800471176e-07,1.5359790295840474e-05
1.3035857773895685e-06,3.4308526373059365e-06,6.643361064524447e-07,1.541339940100528e-05
1.3204175627814892e-06,3.3995448422751e-06,6.654779793240765e-07,1.546736753316573e-05
1.3367042946005677e-06,3.3714541962261537e-06,6.666548128344966e-07,1.55210828390421e-05
1.3524141817501002e-06,3.3468884534459413e-06,6.678957476662815e-07,1.5573995482100962e-05
1.367512746711509e-06,3.3260684484728063e-06,6.692373235665604e-07,1.5625576861035465e-05
1.381963545292161e-06,3.309143050627705e-06,6.707175419432367e-07,1.5675296260504378e-05
1.3957265463599706e-06,3.296190146818002e-06,6.723693164534733e-07,1.5722602279126782e-05
1.4087584056722288e-06,3.287212399083735e-06,6.742163205136047e-07,1.5766915775316454e-05
1.421016064917521e-06,3.2821404475086396e-06,6.762737834262136e-07,1.580766522129122e-05
1.432462618882939e-06,3.280853686900829e-06,6.785529327551099e-07,1.584438882903221e-05
1.4430717163831303e-06,3.283220975077657e-06,6.810621005228285e-07,1.587688490614707e-05
1.4528254888901556e-06,3.2891475162262768e-06,6.838021701425803e-07,1.5905320316356838e-05
1.4617071018741369e-06,3.2986117779952018e-06,6.867627716802457e-07,1.593019809766217e-05
1.4696944953376855e-06,3.3116855798715002e-06,6.8992296088595e-07,1.5952203349178695e-05
1.4767584704025112e-06,3.3285299798661907e-06,6.932536962023165e-07,1.5972040117473348e-05
1.4828649903209703e-06,3.3493609307651363e-06,6.967199122377088e-07,1.5990329195038187e-05
1.487981782928243e-06,3.374395454673131e-06,7.002835157491508e-07,1.6007555972985048e-05
1.4920847227496031e-06,3.4038011606654125e-06,7.039079330328526e-07,1.6024048316005027e-05
1.495157275145095e-06,3.437663106094477e-06,7.075614220494081e-07,1.6039994433559116e-05
1.4971862524904396e-06,3.475967899475348e-06,7.112165626196955e-07,1.6055482658043356e-05
1.4981628764894738e-06,3.5186042069974722e-06,7.148470910402131e-07,1.6070515098963442e-05
1.4980899714151703e-06,3.565381742638961e-06,7.184253800343165e-07,1.608499686535892e-05
1.4969879594867677e-06,3.6160602677643625e-06,7.219227749451519e-07,1.609878126886363e-05
1.4948928901572952e-06,3.670366977283637e-06,7.253143357246545e-07,1.611183769375591e-05
1.4918491190280544e-06,3.7279939757390375e-06,7.285870281866642e-07,1.612442065784417e-05
1.4879062349722627e-06,3.7886015449368317e-06,7.317439020681259e-07,1.6137040784436038e-05
1.4831232628548897e-06,3.851853486626466e-06,7.347993636425732e-07,1.6150319166160226e-05
1.4775738579220229e-06,3.917472002022608e-06,7.377744245746243e-07,1.616496716727501e-05
1.4713449637301754e-06,3.985277619791266e-06,7.407006480068011e-07,1.6181861626163402e-05
1.4645276426012282e-06,4.055189797093946e-06,7.436249088025883e-07,1.6202031437891778e-05
1.457205988818974e-06,4.127187846317301e-06,7.466042042097708e-07,1.6226552099154758e-05
1.4494498278102938e-06,4.2012559778903966e-06,7.496935909287133e-07,1.6256438588282555e-05
1.4413129907997988e-06,4.27734380793984e-06,7.529377378482463e-07,1.6292572964483387e-05
1.4328377338602372e-06,4.3553581048886345e-06,7.563703963531355e-07,1.6335659422239827e-05
1.4240649186683952e-06,4.435173810478644e-06,7.600161287604764e-07,1.6386176790111263e-05
1.4150445835109075e-06,4.516640241461766e-06,7.638885492282381e-07,1.6444325176147413e-05
1.4058375360620328e-06,4.599572218740389e-06,7.679877191167981e-07,1.6509999249864928e-05
1.396506156725927e-06,4.68373309737145e-06,7.723012734158537e-07,1.6582803955605974e-05
1.387103221629987e-06,4.7688219605912544e-06,7.768104689625176e-07,1.6662102890412225e-05
1.377665982913257e-06,4.8544745602076695e-06,7.815008024384707e-07,1.674709309245359e-05
1.3682155952914808e-06,4.9402819515660935e-06,7.863718662958755e-07,1.683689371086949e-05
1.3587603074721164e-06,5.025818588284038e-06,7.91436865096921e-07,1.6930599698496593e-05
1.349303044222685e-06,5.110661170209405e-06,7.96712521610162e-07,1.7027267055875865e-05
1.3398545948361955e-06,5.194390355479718e-06,8.022148921286908e-07,1.7125884901810244e-05
1.3304479841994614e-06,5.2765879148996765e-06,8.079693659616691e-07,1.7225394139122105e-05
1.3211436655815214e-06,5.356842608701339e-06,8.14022083681673e-07,1.732472142285682e-05
1.31202308584509e-06,5.4347620406758e-06,8.204390161653115e-07,1.7422796655228907e-05
1.303180246978575e-06,5.509981590672535e-06,8.27294011779921e-07,1.751857437018389e-05
1.294716122437873e-06,5.582163978131848e-06,8.346534387758691e-07,1.7611058395743852e-05
1.2867301988473743e-06,5.650985976843848e-06,8.425650751815662e-07,1.7699304437419926e-05
1.2793079751551891e-06,5.716122627320095e-06,8.510564184448307e-07,1.7782399263361725e-05
1.2725140616378378e-06,5.7772436578336284e-06,8.601398304609897e-07,1.7859441384006245e-05
1.266396789269058e-06,5.8340236897697414e-06,8.698193279363884e-07,1.7929537390948327e-05
1.2609989554568718e-06,5.886162662587501e-06,8.800962018554487e-07,1.799179934953186e-05
1.2563685505459506e-06,5.933407953967532e-06,8.909690517258196e-07,1.8045335737881602e-05
1.2525641924485042e-06,5.975561117288442e-06,9.024281642329956e-07,1.808926907810094e-05
1.249648599025595e-06,6e-07,9.144550143526327e-07,1.8122816431393025e-05
1.2476728207756522e-06,6e-07,9.270306761942014e-07,1.814538949666447e-05
1.2466634517975236e-06,6e-07,9.401395398655243e-07,1.815661562898396e-05
1.2466197905824676e-06,6e-07,9.537616933612512e-07,1.8156263195037203e-05
1.2475174592593651e-06,6e-07,9.678668296853671e-07,1.8144154833564333e-05
1.249312511988453e-06,6e-07,9.82420084472283e-07,1.8120130410732603e-05
1.251945591296168e-06,6e-07,9.973922096135737e-07,1.8084057215357684e-05
1.2553470509301064e-06,6e-07,1.012760776726792e-06,1.803586123989557e-05
1.2594392200570637e-06,6e-07,1.028501611611695e-06,1.7975536719870418e-05
1.264135102954515e-06,6e-07,1.044581152582252e-06,1.790312122202961e-05
1.2693408087377258e-06,6e-07,1.0609565038449757e-06,1.781869558234428e-05
1.2749654705363815e-06,6e-07,1.077579027202353e-06,1.772243539175983e-05
1.280931622393864e-06,6e-07,1.0943961808329874e-06,1.7614663870668844e-05
1.2871775093133128e-06,6e-07,1.111353368853957e-06,1.749589047735381e-05
1.2936517783876308e-06,5.984416678762672e-06,1.1283965157722611e-06,1.7366845377257705e-05
1.3003068079747207e-06,5.9494473635839014e-06,1.145470969929036e-06,1.7228467499147503e-05
1.307093405661631e-06,5.911005645115744e-06,1.1625164839407214e-06,1.7081815693465475e-05
1.3139563316932735e-06,5.869296457494803e-06,1.1794645828335306e-06,1.6927939909212505e-05
1.32083181650991e-06,5.824559063749048e-06,1.1962433317273474e-06,1.676778175858702e-05
1.3276494734700243e-06,5.777032054693014e-06,1.2127857628257424e-06,1.6602143021369532e-05
1.3343389546529406e-06,5.726923797943411e-06,1.229032815604637e-06,1.6431688992987455e-05
1.3408369036101636e-06,5.674426883058099e-06,1.2449288247224087e-06,1.6256955988013823e-05
1.34708842434417e-06,5.61977533496723e-06,1.2604157831031682e-06,1.6078407910634585e-05
1.353044193948932e-06,5.563302934550184e-06,1.2754301645513859e-06,1.5896588249554223e-05
1.35866096675952e-06,5.505458493687946e-06,1.28990132278806e-06,1.5712274170828433e-05
1.3639085004439377e-06,5.446765193627951e-06,1.3037512933429951e-06,1.552646586331465e-05
1.3687745054279906e-06,5.387755449017868e-06,1.316897278823979e-06,1.534022452901515e-05
1.373258777780567e-06,5.328937010426157e-06,1.3292556423507783e-06,1.515451770799197e-05
1.3773603749080788e-06,5.270800624667198e-06,1.3407443685672319e-06,1.4970159332864008e-05
1.3810682231164243e-06,5.213823213390619e-06,1.3512836842795058e-06,1.4787881381462674e-05
1.3843595513537906e-06,5.158445329526935e-06,1.3607972631944642e-06,1.46085418604737e-05
1.3872042218846355e-06,5.1050433670101234e-06,1.369214361016843e-06,1.4433323621547973e-05
1.3895702417384649e-06,5.0539121945741215e-06,1.3764709576630545e-06,1.4263748337158344e-05
1.3914259744774277e-06,5.005264699673076e-06,1.3825102638576905e-06,1.410154187092742e-05
1.392739206419469e-06,4.959247460315458e-06,1.3872839560733783e-06,1.3948494346092465e-05
1.3934765026534723e-06,4.915955825553954e-06,1.390753778923373e-06,1.3806355570486166e-05
1.393607490423826e-06,4.875438654458648e-06,1.3928947224724643e-06,1.3676740706542735e-05
1.393116744208836e-06,4.837704492647488e-06,1.3936995137558042e-06,1.3561047953802485e-05
1.392016370848688e-06,4.802735484884107e-06,1.3931799621995891e-06,1.3460412403333227e-05
1.3903494721975295e-06,4.770499090039677e-06,1.391364684159074e-06,1.337569995992419e-05
1.3881826184772405e-06,4.740951874493274e-06,1.3882949845222849e-06,1.3307516924320707e-05
1.3855918787268768e-06,4.714037453841307e-06,1.384018416199306e-06,1.32562072371552e-05
1.3826544108899192e-06,4.689679347141614e-06,1.3785838211183223e-06,1.3221832489838073e-05
1.3794536066154257e-06,4.667770526850312e-06,1.3720415823087736e-06,1.3204159138035277e-05
1.3760867683600058e-06,4.648167929639255e-06,1.364444255240481e-06,1.3202679123793952e-05
1.3726641486592012e-06,4.630703643680249e-06,1.3558433694658591e-06,1.3216676287899608e-05
1.369302904394034e-06,4.615214990154552e-06,1.3462868280905836e-06,1.3245343705012875e-05
1.3661208774602565e-06,4.601579637951071e-06,1.3358206990145709e-06,1.3287923359608285e-05
1.3632306009060855e-06,4.589733913411742e-06,1.3244923142241258e-06,1.3343795159743789e-05
1.360733632858361e-06,4.579660875314792e-06,1.312351157142862e-06,1.3412485847682504e-05
1.3587146066602756e-06,4.571358272583775e-06,1.2994475823629594e-06,1.3493650272462692e-05
1.3572348785003608e-06,4.564808696163092e-06,1.2858316300339194e-06,1.3587062660228975e-05
1.356328959069482e-06,4.559966080742863e-06,1.2715544395282265e-06,1.3692593687457187e-05
1.3560064951696757e-06,4.556764594131134e-06,1.2566729939000531e-06,1.3810138485263724e-05
1.3562575327929615e-06,4.5551405066492575e-06,1.241256084412354e-06,1.3939506269300025e-05
1.3570563461831939e-06,4.555039756244036e-06,1.225386752892919e-06,1.4080323586499185e-05
1.3583630641830532e-06,4.556399367252427e-06,1.209157448580058e-06,1.4231988048695288e-05
1.3601260669362156e-06,4.559126330466983e-06,1.1926601722669606e-06,1.4393683938034424e-05
1.362285282388993e-06,4.563099375944406e-06,1.1759801752922512e-06,1.456444316189476e-05
1.364776117043705e-06,4.568186888549656e-06,1.1591982236551665e-06,1.4743209280638468e-05
1.3675374705149785e-06,4.5742583158913074e-06,1.14239430395691e-06,1.4928892771797767e-05
1.370522152909246e-06,4.5811797678314885e-06,1.1256447712831394e-06,1.5120432173085058e-05
1.3737014849311473e-06,4.588801597783309e-06,1.1090172318706159e-06,1.5316855055635868e-05
1.3770611190855721e-06,4.596949640528696e-06,1.092570445036443e-06,1.551730169104126e-05
1.3805925560008738e-06,4.605426898302243e-06,1.0763568409324428e-06,1.57209788612515e-05
1.3842852255311071e-06,4.614029217513761e-06,1.0604222631713849e-06,1.5927072732196898e-05
1.388120390785106e-06,4.622566971000724e-06,1.044804505313075e-06,1.6134675952225682e-05
1.3920670971061984e-06,4.630872153854982e-06,1.0295347718749248e-06,1.6342751313886512e-05
1.396082730379014e-06,4.638784659450346e-06,1.014641193915921e-06,1.6550149941277994e-05
1.400117394464925e-06,4.646136811202596e-06,1.0001501021450957e-06,1.6755698596741675e-05
1.4041163463973694e-06,4.652754005929724e-06,9.860844819832715e-07,1.695830278234428e-05
1.4080204820906066e-06,4.6584645619710666e-06,9.724625145615049e-07,1.7156969479785198e-05
1.411770514474031e-06,4.6631013534297435e-06,9.59296616810473e-07,1.7350741002823637e-05
1.4153134570296523e-06,4.666495393124697e-06,9.46592826173592e-07,1.7538628699133214e-05
1.418604007258793e-06,4.668472620618892e-06,9.343519994116415e-07,1.7719594892966015e-05
1.4216001985361146e-06,4.668854221014132e-06,9.225728475539005e-07,1.7892550909043645e-05
1.4242591501163124e-06,4.667456090800241e-06,9.112552092940584e-07,1.805634996150721e-05
1.4265352301365103e-06,4.664089699216844e-06,9.004012463980681e-07,1.8209803588847108e-05
1.4283790362998096e-06,4.658566149622333e-06,8.900138956288877e-07,1.8351767227191644e-05
1.4297370462701425e-06,4.650701654265303e-06,8.800969103617079e-07,1.8481326629967043e-05
1.4305540951309622e-06,4.640322720430937e-06,8.706607391441035e-07,1.8598015053506046e-05
1.4307794339746158e-06,4.627268378840153e-06,8.617297930042001e-07,1.8701882967470833e-05
1.4303725814856174e-06,4.611387601098607e-06,8.533426923774815e-07,1.8793354370979285e-05
1.429303839940892e-06,4.592535829718818e-06,8.455446997036076e-07,1.8873001469478893e-05
1.427549246879401e-06,4.570576020742968e-06,8.383776422717293e-07,1.894137935798775e-05
1.425085814320028e-06,4.545382616995679e-06,8.318715588303355e-07,1.8998995923671257e-05
1.4218933373742329e-06,4.516845353724511e-06,8.260407183948498e-07,1.9046449797100682e-05
1.4179626102023237e-06,4.484878075201551e-06,8.208842491573527e-07,1.9084618161714368e-05
1.4133016288846364e-06,4.4494387619020516e-06,8.163883741353255e-07,1.911468948537735e-05
1.407932259449228e-06,4.4105529101219535e-06,8.12528072987317e-07,1.9138027095254035e-05
1.4018839744891164e-06,4.36831924738169e-06,8.092683820503375e-07,1.915601095482582e-05
1.3951959713361894e-06,4.322889620578192e-06,8.065659150751973e-07,1.916993967444663e-05
1.38792318537582e-06,4.274449039960971e-06,8.0437161142177e-07,1.918097746438643e-05
1.380133575669422e-06,4.223224680938693e-06,8.02634716733533e-07,1.9190108637670028e-05
1.371896566129295e-06,4.1695072172507115e-06,8.013061322610548e-07,1.919809902011572e-05
1.3632741428536556e-06,4.113646078762824e-06,8.003405948689974e-07,1.920548760739167e-05
1.3543206620309234e-06,4.056016190419789e-06,7.996991258616396e-07,1.921260682949676e-05
1.345086774153775e-06,3.99698187419718e-06,7.993519057673121e-07,1.9219611052283625e-05
1.335623068854996e-06,3.936875332095492e-06,7.99278804873461e-07,1.922648881291861e-05
1.32598303780763e-06,3.875996957000795e-06,7.994669746393812e-07,1.923304774263885e-05
1.316225493454501e-06,3.8146322471190764e-06,7.99908317325336e-07,1.9238899313879856e-05
1.3064178592762185e-06,3.75306458764122e-06,8.005957103420438e-07,1.924347978007912e-05
1.2966411982000162e-06,3.6915708685510315e-06,8.015168786637238e-07,1.9246113779778688e-05
1.2869921686358135e-06,3.6304101426784486e-06,8.026510410707734e-07,1.924609907176372e-05
1.2775752058904936e-06,3.5698267554809096e-06,8.039713954455548e-07,1.9242768952005443e-05
1.2684880799238896e-06,3.5100709979352012e-06,8.05449348301889e-07,1.923550417510167e-05
1.2598124615813136e-06,3.451409419804953e-06,8.07055831172362e-07,1.9223733574753966e-05
1.251613213204738e-06,3.3941085176458094e-06,8.087614565176513e-07,1.920697046288049e-05
1.2439405907809287e-06,3.338422712546394e-06,8.105398965790974e-07,1.9184854191991226e-05
1.2368322638138428e-06,3.284615796309834e-06,8.123733409956537e-07,1.915714751056033e-05
1.2303142522873423e-06,3.232989189501769e-06,8.142557308359239e-07,1.9123700319607e-05
1.2244005470952455e-06,3.1838755558956815e-06,8.161913174975768e-07,1.908440666420145e-05
1.2190955416172381e-06,3.1376008774817643e-06,8.18188053458046e-07,1.9039172974469094e-05
1.214400220960493e-06,3.094447309434134e-06,8.202495378252796e-07,1.8987938094457027e-05
1.2103166966009954e-06,3.054635184704927e-06,8.223721933630061e-07,1.89307326885386e-05
1.2068486283475993e-06,3.0183263479074835e-06,8.245485013012681e-07,1.886769115147796e-05
1.2040014876759516e-06,2.9856485912413485e-06,8.267711283903866e-07,1.879899890127898e-05
1.2017869238075345e-06,2.9567283177148536e-06,8.29035052505403e-07,1.872483925215458e-05
1.2002291877764298e-06,2.9317107542353126e-06,8.313364072019833e-07,1.864537545259189e-05
1.1993683269123436e-06,2.9107614408398205e-06,8.336674709036631e-07,1.856074788568594e-05
1.19925620263155e-06,2.894050191545425e-06,8.360125989286045e-07,1.8471049165190846e-05
1.1999452505043043e-06,2.8817190532406123e-06,8.383496286967871e-07,1.8376291815440788e-05
1.2014811742816086e-06,2.8738500101467407e-06,8.40653411952438e-07,1.827642603808444e-05
1.2039097351314952e-06,2.8704540876473113e-06,8.428969345032533e-07,1.817141270906768e-05
1.2072882131702907e-06,2.8714795014483045e-06,8.450516229089513e-07,1.806130788307853e-05
1.21169002875475e-06,2.8768173758446754e-06,8.470895359296687e-07,1.794634387321821e-05
1.2172045388875477e-06,2.886301750696505e-06,8.489860421219605e-07,1.7826994160728226e-05
1.2239321641679423e-06,2.89972040069885e-06,8.507202429463532e-07,1.7703960393665493e-05
1.231969858432118e-06,2.916838300738568e-06,8.522722427852645e-07,1.757805498067491e-05
1.2413915857920187e-06,2.937412820330825e-06,8.536196964886371e-07,1.7450047494777795e-05
1.2522368365221349e-06,2.9611901385466612e-06,8.54737621435885e-07,1.732056118491398e-05
1.2645132381702313e-06,2.987903779441602e-06,8.556016878097567e-07,1.7190053458582213e-05
1.278206416954496e-06,3.0172923703690005e-06,8.561918685928116e-07,1.7058852672536553e-05
1.2932859995223929e-06,3.049119245751522e-06,8.564948801766332e-07,1.692719535887832e-05
1.309704320570327e-06,3.0831730886835236e-06,8.565047979814819e-07,1.6795253135620983e-05
1.327393464388483e-06,3.119254664604655e-06,8.562209741293975e-07,1.6663224573024974e-05
1.3462661106139649e-06,3.1571631891315233e-06,8.556457884883422e-07,1.653151520912442e-05
1.3662199661585959e-06,3.196684155715159e-06,8.547850044672537e-07,1.6400852635720114e-05
1.387142203871273e-06,3.2375765213678427e-06,8.536476170099286e-07,1.6272214494670912e-05
1.4089106415448344e-06,3.2795641583670762e-06,8.522424357553873e-07,1.6146640579102824e-05
1.4313918591672043e-06,3.322338197919756e-06,8.50574561933349e-07,1.6025053164698223e-05
1.4544409945033972e-06,3.3655711546423718e-06,8.486450043389974e-07,1.5908208788234915e-05
1.4779086524680241e-06,3.4089330902757576e-06,8.464523473059234e-07,1.5796870081155235e-05
1.5016554935724882e-06,3.452100526953066e-06,8.439947611597463e-07,1.5692064962684383e-05
1.5255668053264957e-06,3.494770807313876e-06,8.412721485727076e-07,1.559516796675778e-05
1.5495540636164694e-06,3.5366917960537847e-06,8.382865073354884e-07,1.550775030040512e-05
1.573543587311173e-06,3.5776782005248963e-06,8.350392035545299e-07,1.5431366591337065e-05
1.597473923237822e-06,3.6175912960057967e-06,8.315282824717387e-07,1.536739699380166e-05
1.621311503787852e-06,3.6563166336697237e-06,8.277486952558239e-07,1.5316939085241783e-05
1.6450631346963268e-06,3.6937799094442908e-06,8.236946060637659e-07,1.5280734506800226e-05
1.6687684009844464e-06,3.7299814249039703e-06,8.193614611875654e-07,1.5259149829665812e-05
1.6924787999956702e-06,3.765004245732605e-06,8.147466058624316e-07,1.5252211194468408e-05
1.7162365186045703e-06,3.7989814773585563e-06,8.098493652742175e-07,1.5259661154621703e-05
1.7400614247138854e-06,3.832043433027021e-06,8.046713871329552e-07,1.5281009382521437e-05
1.763947880429283e-06,3.864279254603758e-06,7.992178433649116e-07,1.5315562125002577e-05
1.7878682060582845e-06,3.8957270480592285e-06,7.935004297580684e-07,1.5362436419323355e-05
1.811779096102736e-06,3.9263788200621985e-06,7.875391845001015e-07,1.542057159279506e-05
1.83562523421992e-06,3.956189301973673e-06,7.813595402988853e-07,1.5488744172328616e-05
1.8593367275445489e-06,3.985084794749581e-06,7.749875454419773e-07,1.5565619047818172e-05
1.8828247166940625e-06,4.012966101813142e-06,7.684478060183339e-07,1.56498589001688e-05
1.9059822479379917e-06,4.039711822157744e-06,7.617646265191925e-07,1.5740223166962942e-05
1.9286917280690306e-06,4.065190736702368e-06,7.54964080142539e-07,1.5835578656025023e-05
1.950831948501484e-06,4.089272612526803e-06,7.480735779966476e-07,1.5934863012056858e-05
1.9722800999913293e-06,4.111827191105721e-06,7.411180905794005e-07,1.6037080989208076e-05
1.9929154326021943e-06,4.132720617632834e-06,7.34116670786123e-07,1.614131763657941e-05
2e-07,4.1518174657937935e-06,7.270817946803515e-07,1.6246720014067492e-05
2e-07,4.168990177882663e-06,7.200201778866458e-07,1.6352463186649177e-05
2e-07,4.184145025226728e-06,7.129349281125293e-07,1.6457721961719173e-05
2e-07,4.1972600153240485e-06,7.058311560272256e-07,1.6561649218946438e-05
2e-07,4.2084090521296024e-06,6.987229663025464e-07,1.6663393398865258e-05
2e-07,4.2177565927862505e-06,6.91636510849757e-07,1.676215168790649e-05
2e-07,4.225522233048113e-06,6.846092649456316e-07,1.6857186852743674e-05
2e-07,4.2319268853624895e-06,6.776877805775671e-07,1.6947791906052952e-05
2e-07,4.23715204719705e-06,6.709218284336356e-07,1.7033264434735086e-05
2e-07,4.241333237570401e-06,6.643571489456937e-07,1.7112936957521685e-05
2e-07,4.244575426779035e-06,6.580358322067385e-07,1.718624215340571e-05
2e-07,4.246975384839125e-06,6.520049320301624e-07,1.7252734805869238e-05
2e-07,4.248645516644575e-06,6.463219754074207e-07,1.73120290904457e-05
2e-07,4.249728583822723e-06,6.410508338735854e-07,1.7363708724845974e-05
2e-07,4.250391804080882e-06,6.362537279150228e-07,1.7407286093794754e-05
2e-07,4.250799947186486e-06,6.319867128310428e-07,1.744222697536155e-05
2e-07,4.2510863872609875e-06,6.282999348733253e-07,1.7468030561064763e-05
2e-07,4.25134709090097e-06,6.252398656422532e-07,1.7484336730880217e-05
2e-07,4.251654530977154e-06,6.228485052691603e-07,1.7490981786835095e-05
