1.1443151134310803e-06,2.9140789593132893e-06,8.708975898751923e-07,5.956925620792131e-06
1.1492579403122124e-06,2.9047309322440504e-06,8.743971211491553e-07,6.062027830043728e-06
1.1534835494389109e-06,2.893217672198565e-06,8.774972382105486e-07,6.168750690088142e-06
1.15700454990861e-06,2.8796864477700845e-06,8.801716021188637e-07,6.2765843145089734e-06
1.1598499955934456e-06,2.8643136162260914e-06,8.82399838146942e-07,6.385014860704169e-06
1.1620587627660204e-06,2.8472812190934366e-06,8.841623332674872e-07,6.493561267832865e-06
1.1636694827726544e-06,2.82877469709412e-06,8.854394499944136e-07,6.601785811847149e-06
1.1647130077425482e-06,2.8090036924977957e-06,8.862159831898695e-07,6.709279554828204e-06
1.1652105365250566e-06,2.7882181655914445e-06,8.864850584746306e-07,6.815646542048616e-06
1.1651744889034785e-06,2.766695892485326e-06,8.862472846801851e-07,6.920498526360348e-06
1.164609355607982e-06,2.7447090454353125e-06,8.855077915568085e-07,7.0234620233675705e-06
1.1635143239284558e-06,2.722496762872468e-06,8.842738416388151e-07,7.124184028938693e-06
1.1618892463108816e-06,2.7002568628116865e-06,8.825531097458613e-07,7.222320732634813e-06
1.1597394596581357e-06,2.678150222186996e-06,8.803535063235624e-07,7.317530202221108e-06
1.1570739220347978e-06,2.656311660556846e-06,8.776842979294123e-07,7.409500062999713e-06
1.1538994401805884e-06,2.634860695940087e-06,8.745560279893088e-07,7.49798644779775e-06
1.1502180121158217e-06,2.6139037127458104e-06,8.70978783498533e-07,7.582814894981422e-06
1.1460304338555392e-06,2.593529764374105e-06,8.669609079743808e-07,7.663844515196889e-06
1.141345365001951e-06,2.573805166129614e-06,8.625093301880096e-07,7.74093256950586e-06
1.136189232625514e-06,2.55476708814925e-06,8.576305559694763e-07,7.813915664595829e-06
1.1306118440735165e-06,2.5364196653375986e-06,8.523307095342741e-07,7.882597914820987e-06
1.1246853478609729e-06,2.518737201482356e-06,8.466146284087835e-07,7.946743583191851e-06
1.1184944654923441e-06,2.501673445081056e-06,8.404860440675436e-07,8.006084558932233e-06
1.1121212764962281e-06,2.4851755861485527e-06,8.339506136953348e-07,8.060336289146189e-06
1.1056348900951167e-06,2.469202578018869e-06,8.270198011121688e-07,8.109206925158613e-06
1.0990901860115764e-06,2.453739553866829e-06,8.197122449725618e-07,8.152419225086431e-06
1.0925309426044208e-06,2.4387972272980667e-06,8.120546416269681e-07,8.189794173875643e-06
1.0859927468250995e-06,2.4243966213683233e-06,8.040853785309144e-07,8.221386365353981e-06
1.0795037301530777e-06,2.4105503435999583e-06,7.958565006815476e-07,8.247554099613158e-06
1.073083530773816e-06,2.3972528053034353e-06,7.87428247319942e-07,8.268878975783371e-06
1.0667422146130205e-06,2.384481376532945e-06,7.78861062419802e-07,8.28602270283994e-06
1.0604811267063787e-06,2.3721996613124013e-06,7.702136989170188e-07,8.299653265243733e-06
1.0542961578760383e-06,2.3603588654018227e-06,7.615458515965255e-07,8.310438327324768e-06
1.0481808529775317e-06,2.348900864836828e-06,7.529183357952396e-07,8.319042135811195e-06
1.0421300843881444e-06,2.3377655626197207e-06,7.443889958662997e-07,8.326112895686866e-06
1.0361481252192207e-06,2.3268991770715323e-06,7.360078726428312e-07,8.332269114170533e-06
1.0302573474858074e-06,2.316254152291258e-06,7.278163023289611e-07,8.338087499832011e-06
1.0244995139812596e-06,2.3057793988837e-06,7.198512775397316e-07,8.344093700011175e-06
1.0189283990922979e-06,2.295412919759044e-06,7.121499320867537e-07,8.350755285846064e-06
1.0135995031323937e-06,2.2850824535913054e-06,7.047485467413245e-07,8.358476075505338e-06
1.0085630953607785e-06,2.2747075099980136e-06,6.976797107692851e-07,8.367592049526e-06
1.0038614148677273e-06,2.2641992949857702e-06,6.909742561276928e-07,8.378379842347735e-06
9.995281094836195e-07,2.253461051745748e-06,6.846657204158958e-07,8.391094650490812e-06
9.95589669362113e-07,2.2423898721555182e-06,6.787917172251182e-07,8.406036286168816e-06
9.920676105030364e-07,2.23088056474754e-06,6.733916451704839e-07,8.423604312011187e-06
9.889790374926336e-07,2.2188366802747744e-06,6.685020216537032e-07,8.444285087534508e-06
9.863345585957085e-07,2.206190718537643e-06,6.64150907234617e-07,8.468558940368887e-06
9.84134461269517e-07,2.1929216860909738e-06,6.603553897366664e-07,8.496787001707536e-06
9.823657127562831e-07,2.179055209977362e-06,6.571260258063071e-07,8.529152051818128e-06
9.81001483726226e-07,2.164645234763432e-06,6.544761895416234e-07,8.565669811985421e-06
9.800033312715444e-07,2.1497503116125162e-06,6.524280252001203e-07,8.6062300525653e-06
9.793263159475088e-07,2.134421808942176e-06,6.510094162632593e-07,8.650630586590736e-06
9.78926457310561e-07,2.1187099838991484e-06,6.502452259513837e-07,8.69860166978992e-06
9.787659527372344e-07,2.1026743889742743e-06,6.501504753599619e-07,8.749836643041742e-06
9.788111186916362e-07,2.0863821207074656e-06,6.507295933720362e-07,8.804032101333255e-06
9.790270153370286e-07,2.069895406248552e-06,6.519792774866045e-07,8.860916448199612e-06
9.79377476608151e-07,2.053263578575436e-06,6.538903548620294e-07,8.920251435691452e-06
9.798292651007411e-07,2.0365255230324293e-06,6.564472322330357e-07,8.981819475812382e-06
9.803522224173343e-07,2.019713794108805e-06,6.596273163620713e-07,9.045412768856288e-06
9.809148584686058e-07,2.002854929458845e-06,6.634014872413799e-07,9.110817170369362e-06
9.81480875514214e-07,1.9859720761504085e-06,6.67733252707231e-07,9.177776303949948e-06
9.820086516056023e-07,1.9690915243911133e-06,6.72577136928253e-07,9.245952250532376e-06
9.824528772905511e-07,1.952244479291626e-06,6.778799794996922e-07,9.314924286245613e-06
9.82767428309278e-07,1.9354610491388117e-06,6.835847476181833e-07,9.384235316980982e-06
9.829071813077614e-07,1.918764174923508e-06,6.896330740816897e-07,9.453442213018476e-06
9.828279694818009e-07,1.902169658903589e-06,6.959664100157639e-07,9.522121031578204e-06
9.82486530846012e-07,1.8856893893372783e-06,7.025294997085058e-07,9.589832329179377e-06
9.81840723566837e-07,1.8693324781732865e-06,7.092757694949038e-07,9.656097904792523e-06
9.808491399564311e-07,1.8531034568866416e-06,7.161692589227279e-07,9.72042258423893e-06
9.794705666873173e-07,1.8369995127988144e-06,7.231814729603947e-07,9.782346588471968e-06
9.77664404590223e-07,1.8210093717469243e-06,7.302868945663945e-07,9.841486007301377e-06
9.753920401219786e-07,1.8051148326361682e-06,7.374603391264862e-07,9.897534949636267e-06
9.726175076204621e-07,1.78929310667682e-06,7.446780744028938e-07,9.95023841447197e-06
9.693071120674344e-07,1.7735182904135017e-06,7.519230519068169e-07,9.99935314851023e-06
9.654303281820708e-07,1.7577619241369683e-06,7.591888323472519e-07,1.004461079972797e-05
9.609637347838542e-07,1.7419930265050503e-06,7.664757569913805e-07,1.00857026030711e-05
9.558967742167095e-07,1.7261790700746352e-06,7.737819379958534e-07,1.0122296891915338e-05
9.502354755292429e-07,1.7102896018102834e-06,7.810980824795838e-07,1.0154077044883267e-05
9.440002295653065e-07,1.694301770196065e-06,7.884106590870286e-07,1.0180774684055853e-05
9.372179970633015e-07,1.6782043252155443e-06,7.957080611545478e-07,1.0202182948740053e-05
9.299146284422901e-07,1.661997108654174e-06,8.029810996398068e-07,1.0218146281743626e-05
9.221119332136049e-07,1.6456869967094712e-06,8.102184198007053e-07,1.022853160233786e-05
9.138279014043316e-07,1.6292831670465259e-06,8.174038871735732e-07,1.0233211637574361e-05
9.050772843376348e-07,1.612793116887136e-06,8.245167732468216e-07,1.0232094099282456e-05
8.958735454320697e-07,1.5962209460415366e-06,8.315321938294435e-07,1.0225171250136999e-05
8.862321260160448e-07,1.57957122486897e-06,8.384224509164732e-07,1.0212553978268672e-05
8.761712631480983e-07,1.5628591177373616e-06,8.451589592995181e-07,1.0194499308748179e-05
8.657095296503473e-07,1.546118287886924e-06,8.517120721200377e-07,1.0171415762830118e-05
8.548641801807274e-07,1.5293964485326016e-06,8.580488574388827e-07,1.0143822074784637e-05
8.436521907426371e-07,1.5127433758644027e-06,8.641320637735434e-07,1.0112286123348576e-05
8.320912589236941e-07,1.4962066664087425e-06,8.699210506091324e-07,1.0077373639267192e-05
8.201994104626787e-07,1.4798404449063915e-06,8.753729312826874e-07,1.003960982791842e-05
8.079960772693746e-07,1.4637192081485946e-06,8.804443384898355e-07,9.999448455675693e-06
7.955059353257171e-07,1.4479469654105524e-06,8.850943492855015e-07,9.957243697370013e-06
7.827609511459561e-07,1.4326558087177237e-06,8.892869086379824e-07,9.913231831389819e-06
7.697969191881207e-07,1.4179934194376191e-06,8.929915558498397e-07,9.867531932810156e-06
7.566480672646133e-07,1.4041036663570868e-06,8.961820184894943e-07,9.820159437613246e-06
7.433449087646562e-07,1.3911089728485005e-06,8.988335288663231e-07,9.771042739989067e-06
7.299161114889608e-07,1.379104070901208e-06,9.009218866404508e-07,9.720040665412303e-06
7.163924091177965e-07,1.368162976052612e-06,9.02425579689628e-07,9.666963619583479e-06
7.028103489764284e-07,1.3583497852253936e-06,9.033284486740652e-07,9.611596953069248e-06
6.892144066410077e-07,1.3497230759801185e-06,9.036192497123066e-07,9.553715225782792e-06
6.756557020648161e-07,1.3423389959133522e-06,9.032882099505085e-07,9.493088317389584e-06
6.621865295995971e-07,1.3362596221879273e-06,9.023252899827835e-07,9.429491663990603e-06
6.488542321016152e-07,1.3315542492183446e-06,9.007219515398371e-07,9.362715011749086e-06
6.356987648049639e-07,1.3282901996788164e-06,8.984736814486704e-07,9.292561775103765e-06
6.227549584997718e-07,1.3265350100530165e-06,8.955828638905298e-07,9.218847931279587e-06
6.100584120413288e-07,1.3263787107032586e-06,8.92063656120348e-07,9.141409572786484e-06
5.976507801987479e-07,1.3279546351385086e-06,8.87947160776679e-07,9.060121258970766e-06
5.855796858943872e-07,1.3314347063178239e-06,8.832824348488155e-07,8.974920810899461e-06
5.738973167443493e-07,1.3369968906282342e-06,8.781322216487166e-07,8.885827125106947e-06
5.626633376763181e-07,1.3447871768771559e-06,8.725666854562769e-07,8.792939695384033e-06
5.51945273441534e-07,1.3548994346119851e-06,8.666570619448164e-07,8.696418060356393e-06
5.418100434682331e-07,1.367372554622831e-06,8.60469585200297e-07,8.596447352100806e-06
5.323147816825352e-07,1.3821929771287576e-06,8.540617756810477e-07,8.493208389493473e-06
5.235049784483493e-07,1.399298845876844e-06,8.474824803388735e-07,8.386872593000352e-06
5.154163099681135e-07,1.418588503274978e-06,8.407741632347117e-07,8.277624943020851e-06
5.08074762822424e-07,1.439936066259765e-06,8.339741226246113e-07,8.165691250249958e-06
5.014953556911718e-07,1.4632113851550404e-06,8.271131909089278e-07,8.051338363635482e-06
4.956816361155016e-07,1.4882967266326775e-06,8.202143717898786e-07,7.934854133209118e-06
4.906276503566323e-07,1.5150932362356913e-06,8.132929536484382e-07,7.816529161687732e-06
4.863228663873053e-07,1.5435136412985882e-06,8.06357341512852e-07,7.696637277445316e-06
4.827570798364472e-07,1.5734645479494861e-06,7.994108581583852e-07,7.5754234528114045e-06
4.799214160207437e-07,1.6048291277313631e-06,7.924552745992206e-07,7.453115003163664e-06
4.778053437274426e-07,1.6374596494493097e-06,7.854958558696446e-07,7.329935829642383e-06
4.7639268098230763e-07,1.6711806866677491e-06,7.785463705482828e-07,7.2061007095918425e-06
4.7566050212246935e-07,1.7057974522136968e-06,7.716313149711824e-07,7.081800528595932e-06
4.7558332753862563e-07,1.7411046678471816e-06,7.647839637740453e-07,6.957198540761087e-06
4.7613905873370216e-07,1.7768952011204777e-06,7.58041486196122e-07,6.832449342608028e-06
4.773105470853228e-07,1.8129655225226464e-06,7.514384461958301e-07,6.707740010280447e-06
4.79082599468685e-07,1.849113741222944e-06,7.45000825928769e-07,6.583323763784391e-06
4.814385540420851e-07,1.885135654087043e-06,7.38743735724825e-07,6.4595114798783016e-06
4.843582517022647e-07,1.9208285906411807e-06,7.326729133472928e-07,6.336628262435556e-06
4.87818190297695e-07,1.9560004908184984e-06,7.267879156049384e-07,6.214968971980182e-06
4.917942907626782e-07,1.9904728980133e-06,7.210854499307292e-07,6.0947730489964006e-06
4.96263041910535e-07,2.0240770380422053e-06,7.155622787024602e-07,5.976218989114989e-06
5.011977727894075e-07,2.0566552285461503e-06,7.102175991944891e-07,5.859428436560341e-06
5.065642201864835e-07,2.088069712297361e-06,7.050537997529674e-07,5.7444756240925175e-06
5.123195721549667e-07,2.118203983539485e-06,7.000763163189619e-07,5.6314187273727214e-06
5.184154405420204e-07,2.146953519643004e-06,6.952948377050286e-07,5.520367510838439e-06
5.248048066536236e-07,2.1742233100777626e-06,6.907233756450814e-07,5.411543705476518e-06
5.314493785078882e-07,2.199939053534441e-06,6.863760986339246e-07,5.305265487725959e-06
5.383206899526298e-07,2.2240544319623023e-06,6.822620011945102e-07,5.201869265045085e-06
5.453955517740607e-07,2.246541779149517e-06,6.783823288802039e-07,5.101642221992875e-06
5.526532024926219e-07,2.2673812023698462e-06,6.747315187955539e-07,5.004811224139163e-06
5.600752282356379e-07,2.2865636038302736e-06,6.713013771774096e-07,4.911606965874408e-06
5.676434190481598e-07,2.3040985178322998e-06,6.680855252587527e-07,4.822380288940223e-06
5.753363834928231e-07,2.3200147631167395e-06,6.650795331030332e-07,4.737677833769435e-06
5.831293423553407e-07,2.3343530795406715e-06,6.622778785072239e-07,4.658211124164432e-06
5.909956668356996e-07,2.3471554322502816e-06,6.596732132040158e-07,4.5847622472661366e-06
5.989066522476876e-07,2.358461108802991e-06,6.57257769023423e-07,4.518095250045813e-06
6.068316105020671e-07,2.3683114764716626e-06,6.550228074357122e-07,4.458888121389241e-06
6.147414705185718e-07,2.376753082802728e-06,6.529568855660286e-07,4.4076790807115505e-06
6.226127613041622e-07,2.383838208308959e-06,6.510455192990307e-07,4.3648351544889815e-06
6.304265169900485e-07,2.3896281257125155e-06,6.492727511760192e-07,4.330550867543122e-06
6.381635853352928e-07,2.3941942197657917e-06,6.476239473052225e-07,4.304869521445225e-06
6.458030256332679e-07,2.39761188520505e-06,6.460870902315159e-07,4.2877111339452465e-06
6.533242977759464e-07,2.399950542869561e-06,6.446528508250785e-07,4.2788927760091216e-06
6.607077794969715e-07,2.401266352033626e-06,6.433167526530572e-07,4.2781408757997235e-06
6.679326594114251e-07,2.4016024490134842e-06,6.420804935866271e-07,4.285104321899563e-06
6.74976412759003e-07,2.4009957670566444e-06,6.409482798714471e-07,4.299365494161097e-06
6.818181332883222e-07,2.3994855474060903e-06,6.399223455398199e-07,4.3204517974467725e-06
6.884433683170867e-07,2.3971201830038717e-06,6.390024322177425e-07,4.3478673609067705e-06
6.948457387948971e-07,2.39395978056609e-06,6.381869047864938e-07,4.381140658130886e-06
7.010235077506882e-07,2.3900727219394767e-06,6.374722520857985e-07,4.41985177351062e-06
7.069739610293277e-07,2.385536968169065e-06,6.368517024250102e-07,4.463625139315732e-06
7.126897952650026e-07,2.3804644674357e-06,6.363150388886248e-07,4.512112092875475e-06
7.181602066188888e-07,2.375042249624232e-06,6.358521780581764e-07,4.564979553398107e-06
7.23376158130618e-07,2.369557816664444e-06,6.35460179169692e-07,4.621894681220386e-06
7.283350224437216e-07,2.3643899710884623e-06,6.35146029645819e-07,4.682498163515004e-06
7.330398165232098e-07,2.359973301529284e-06,6.349202989848553e-07,4.746377983099906e-06
7.374957373052862e-07,2.356749741335585e-06,6.347883350657287e-07,4.81306252795675e-06
7.417109002207249e-07,2.3551183218610204e-06,6.347466836647448e-07,4.8820414777999655e-06
7.457000863025229e-07,2.355400665726577e-06,6.347854075292e-07,4.952801668804611e-06
7.494833602755873e-07,2.357833433887944e-06,6.348942038834694e-07,5.024851724805925e-06
7.530788310321296e-07,2.3625760878085376e-06,6.35067651080366e-07,5.097725298089866e-06
7.564982230211432e-07,2.369716378330554e-06,6.353044588501228e-07,5.170974496360012e-06
7.597518015535996e-07,2.3792723465952703e-06,6.356043162358666e-07,5.244164076093758e-06
7.628614277474152e-07,2.39119988811317e-06,6.359686208707542e-07,5.316872437458592e-06
7.658730871364784e-07,2.405409780481312e-06,6.364020206445508e-07,5.388695936503836e-06
7.688581889114853e-07,2.421790910182552e-06,6.369106076224991e-07,5.459241334934393e-06
7.719018325557869e-07,2.4402337055532024e-06,6.374987430806654e-07,5.528112000427627e-06
7.750862322917677e-07,2.4606474046093252e-06,6.381664038034982e-07,5.594913501575225e-06
7.784789253388574e-07,2.4829682460449605e-06,6.389102375140088e-07,5.659278508785117e-06
7.821290858137931e-07,2.5071597305461827e-06,6.397338157941881e-07,5.720887526599874e-06
7.860677431202002e-07,2.53320486939206e-06,6.40661863081825e-07,5.779481452290457e-06
7.903088007001732e-07,2.5610900526502382e-06,6.41742509299575e-07,5.8348711895278195e-06
7.948525760887241e-07,2.5907842171588594e-06,6.430336993043084e-07,5.886925649255055e-06
7.996914465515756e-07,2.6222190432414537e-06,6.44586983309215e-07,5.935531441781925e-06
8.048135301440237e-07,2.6552761253014763e-06,6.464391450136814e-07,5.980560613924943e-06
8.102039910826035e-07,2.689785736433084e-06,6.486113985586395e-07,6.0218740844091986e-06
8.158476166150192e-07,2.725535407061959e-06,6.511120050532367e-07,6.059343533694042e-06
8.217319347861374e-07,2.7622813325151217e-06,6.539391756549814e-07,6.092863369833893e-06
8.278471154103151e-07,2.7997578104502657e-06,6.570829513198164e-07,6.122344253739744e-06
8.3418371673851e-07,2.8376843157860617e-06,6.605266814535474e-07,6.147713225836443e-06
8.407317568028351e-07,2.8757729490973225e-06,6.642506331927782e-07,6.168969376930709e-06
8.474813299755098e-07,2.913739031842451e-06,6.682369999861417e-07,6.186276406602028e-06
8.544233255836286e-07,2.9513115133167088e-06,6.724707948582995e-07,6.199988756152549e-06
8.615492533365538e-07,2.988234726242374e-06,6.769353429865099e-07,6.210577377648439e-06
8.688481184345457e-07,3.024260099371045e-06,6.816073158522104e-07,6.218527827290754e-06
8.763005244221104e-07,3.05913960161243e-06,6.864558207983065e-07,6.224276196075581e-06
8.83874835131428e-07,3.0926300187521e-06,6.914473934224778e-07,6.2282201047736824e-06
8.915285764443268e-07,3.1244997752119755e-06,6.965538832561665e-07,6.2308111870531095e-06
8.992130711077772e-07,3.154527365307177e-06,7.01756226601645e-07,6.232648925416876e-06
9.068767340826248e-07,3.182496035804614e-06,7.070421729905173e-07,6.234479238908435e-06
9.14464884858623e-07,3.2081958765995387e-06,7.124018290005009e-07,6.237110058322188e-06
9.219191903706974e-07,3.2314336885397124e-06,7.178235417078649e-07,6.241317475098705e-06
9.291793664355265e-07,3.2520406912153703e-06,7.232915890894979e-07,6.247781573357258e-06
9.361856485555376e-07,3.269872050749224e-06,7.287867408279027e-07,6.257056629415941e-06
9.428818566299522e-07,3.2848048291544123e-06,7.342874700153863e-07,6.2695616283298586e-06
9.492198535568683e-07,3.296743068796635e-06,7.397691371268778e-07,6.285575615873316e-06
9.551612600900443e-07,3.3056244278313696e-06,7.452033983768725e-07,6.305240350827945e-06
9.606729971693282e-07,3.311416728839169e-06,7.505612639528391e-07,6.3285761767817045e-06
9.657213047939813e-07,3.314108435407132e-06,7.558165083235241e-07,6.355499016078794e-06
9.70270161126725e-07,3.3137062888497537e-06,7.609445238862598e-07,6.385822781677964e-06
9.742845340569544e-07,3.3102388408998462e-06,7.659185667052935e-07,6.419255417309682e-06
9.77734802773255e-07,3.303753843032413e-06,7.707074522093065e-07,6.455406350490045e-06
9.805979041555703e-07,3.2943073968335987e-06,7.752758556194884e-07,6.4938092489715875e-06
9.828552957655195e-07,3.281954379122913e-06,7.79587224669002e-07,6.533959239517452e-06
9.844919986364756e-07,3.2667491351337927e-06,7.836075716011574e-07,6.5753579872753974e-06
9.8549773352093e-07,3.2487542239106466e-06,7.873071066040951e-07,6.6175462195022836e-06
9.858676345277677e-07,3.2280450764713813e-06,7.906601657467609e-07,6.660113479412555e-06
9.856010677010643e-07,3.2047045278908483e-06,7.936459328977615e-07,6.702697358084609e-06
9.84698878774837e-07,3.17881462016066e-06,7.962482692702017e-07,6.7449821036706415e-06
9.831611507184773e-07,3.1504583774794836e-06,7.984526314297976e-07,6.786696721762674e-06
9.80987076971132e-07,3.119739048959408e-06,8.002435767678378e-07,6.827613532058429e-06
9.781757803376274e-07,3.0868072151812352e-06,8.016053280705409e-07,6.8675439340713306e-06
9.74727119623336e-07,3.0518731305781424e-06,8.025227800350123e-07,6.906322862289656e-06
9.706433112832465e-07,3.015195298454964e-06,8.029815497107286e-07,6.94378566266241e-06
9.659314626750894e-07,2.977056306163713e-06,8.029685552425627e-07,6.979759328983258e-06
9.606049192904016e-07,2.9377375354489018e-06,8.024733294887201e-07,7.014073164097144e-06
9.546812840501757e-07,2.8975019027321407e-06,8.014882033858102e-07,7.046564656816904e-06
9.481793781446958e-07,2.8565948258101896e-06,8.000069349179076e-07,7.07707142708355e-06
9.41118616186915e-07,2.815260826028082e-06,7.980239565754102e-07,7.10542472246717e-06
9.335188582963932e-07,2.7737586312212573e-06,7.95535649500037e-07,7.131454974997843e-06
9.254003098237341e-07,2.732363940936133e-06,7.925430835255566e-07,7.1549989953870466e-06
9.167879356074371e-07,2.691360957561347e-06,7.890544667045511e-07,7.1758889681331815e-06
9.077169190799496e-07,2.651024084480698e-06,7.850847810203708e-07,7.193928954755847e-06
8.982308034517756e-07,2.6115952289296718e-06,7.806523843366934e-07,7.2088848052058506e-06
8.883759804041859e-07,2.573270752387461e-06,7.757754977457964e-07,7.220496100609064e-06
8.782006401236031e-07,2.5362027945983442e-06,7.704702017544528e-07,7.228506547003189e-06
8.677558224363588e-07,2.5005043877988685e-06,7.647500600929245e-07,7.232714059956699e-06
8.570935031733221e-07,2.4662528632737744e-06,7.586281821704769e-07,7.233021636330002e-06
8.46263144069813e-07,2.433495614093786e-06,7.521203141734666e-07,7.229442346321214e-06
8.353102964960759e-07,2.402258611781728e-06,7.45245936837933e-07,7.222048526054284e-06
8.242769530552306e-07,2.3725567212703483e-06,7.380275475785415e-07,7.210921021895214e-06
8.132005172607691e-07,2.344406572954427e-06,7.304898183840688e-07,7.196142550947407e-06
8.021123553199397e-07,2.317833004297204e-06,7.226584645047247e-07,7.1778129948565735e-06
7.910411668479594e-07,2.2928601056879446e-06,7.14558477090693e-07,7.156047421658299e-06
7.800217096316431e-07,2.2695031864591896e-06,7.062124632446963e-07,7.130954693745138e-06
7.691007161710647e-07,2.247781634937274e-06,6.976400781322657e-07,7.1026293458020585e-06
7.58332825440807e-07,2.2277401008134274e-06,6.888588778395007e-07,7.0712008346053546e-06
7.477712297052989e-07,2.209454069774545e-06,6.798858897833814e-07,7.036930776184137e-06
7.374626267714784e-07,2.1930149631160733e-06,6.707396024823965e-07,7.0002649683792985e-06
7.274491632579923e-07,2.1785040557741762e-06,6.614419429379849e-07,6.961785630810451e-06
7.177741887323667e-07,2.16597076440896e-06,6.520183758119179e-07,6.922118256089673e-06
7.084873585432031e-07,2.1554279124816824e-06,6.424962174477685e-07,6.881855655743613e-06
6.996454949649421e-07,2.146861535168835e-06,6.329030022178506e-07,6.841535526754558e-06
6.913075156303047e-07,2.140245025650036e-06,6.232655020082893e-07,6.8017030226514155e-06
6.835263641305831e-07,2.1355501868164774e-06,6.136093507147711e-07,6.763009205244829e-06
6.763455798459178e-07,2.1327474882279847e-06,6.039580329267996e-07,6.7262386063054474e-06
6.698024788425997e-07,2.1317935648823e-06,5.943309701865233e-07,6.692256534781113e-06
6.639302756602713e-07,2.1326195089637725e-06,5.847429144399873e-07,6.661945294668055e-06
6.587550877340139e-07,2.135132264110273e-06,5.75205247358781e-07,6.636153808660349e-06
6.542932594542857e-07,2.1392231441917567e-06,5.657274320290737e-07,6.615651760205688e-06
6.505536075149972e-07,2.1447741151601185e-06,5.563173922694873e-07,6.601087670881369e-06
6.475431170667444e-07,2.151661734596824e-06,5.469812830830396e-07,6.592953103654544e-06
6.45271092656465e-07,2.159759154985753e-06,5.377233988522904e-07,6.591559584320387e-06
6.437470687777421e-07,2.168935075935668e-06,5.285462558234389e-07,6.597034069120992e-06
6.429741308894713e-07,2.17905200031984e-06,5.1945107078391e-07,6.609327844357859e-06
6.429452478719808e-07,2.189964866996821e-06,5.104391188361551e-07,6.628232357893955e-06
6.436457550111216e-07,2.201520010908349e-06,5.015134421654222e-07,6.653403046745516e-06
6.450565139306403e-07,2.213559148077002e-06,4.926793309492704e-07,6.6843921998455295e-06
6.471548877807476e-07,2.2259289141030003e-06,4.839436964263591e-07,6.720686323118837e-06
6.499165985703421e-07,2.2384877834859387e-06,4.7531533085368157e-07,6.761741624809395e-06
6.533181022027843e-07,2.251105532618569e-06,4.668059473527e-07,6.8070136093047175e-06
6.573373010550698e-07,2.2636568865338884e-06,4.584298244985257e-07,6.855979400382693e-06
6.619518575943915e-07,2.2760136589925783e-06,4.502020752708003e-07,6.90815496392258e-06
6.671348175821618e-07,2.2880405281446576e-06,4.4213798141920793e-07,6.963110072491573e-06
6.728508586212785e-07,2.299594902439336e-06,4.3425338812393026e-07,7.020473715353622e-06
6.790557397722395e-07,2.3105296678397543e-06,4.265636798582276e-07,7.079918359434652e-06
6.856968284526232e-07,2.3207014592395883e-06,4.1908246106881385e-07,7.1411261059885224e-06
6.927136672458058e-07,2.3299825033782035e-06,4.118227811186024e-07,7.2037532688040925e-06
7.0003970813572e-07,2.3382674195840824e-06,4.047987260014253e-07,7.267407838323172e-06
7.076053225149156e-07,2.345470065619237e-06,3.9802391085158893e-07,7.3316507065802525e-06
7.15341606781838e-07,2.3515137733787586e-06,3.91508491520189e-07,7.3960283934323154e-06
7.231834248066147e-07,2.356324423609042e-06,3.852581315528851e-07,7.460116020236315e-06
7.310689790864808e-07,2.3598329557732145e-06,3.792750225114697e-07,7.523529632758216e-06
7.389367745280749e-07,2.361983154701642e-06,3.7355914754151287e-07,7.5859071565222515e-06
7.467247369282557e-07,2.362736817680494e-06,3.681096617918858e-07,7.646891849480015e-06
7.543743879309933e-07,2.3620746126627703e-06,3.62927047864593e-07,7.706133346312886e-06
7.618380633848039e-07,2.3599943488113768e-06,3.580142495674321e-07,7.763292589677303e-06
7.690839679871542e-07,2.3565059764185045e-06,3.533747616389121e-07,7.818030225345388e-06
7.760963682005493e-07,2.3516272109662997e-06,3.490094561165462e-07,7.869982216231902e-06
7.828730632293638e-07,2.345388375792971e-06,3.449150986642172e-07,7.918750741663781e-06
7.894231667340221e-07,2.3378401417639082e-06,3.4108586941336626e-07,7.963925456020018e-06
7.957651998835244e-07,2.3290478163835474e-06,3.375180854274153e-07,8.005123067604371e-06
8.019221599570485e-07,2.3190753554229164e-06,3.342155410137988e-07,8.0420345314562e-06
8.079133151447981e-07,2.3079765909683282e-06,3.311906501002349e-07,8.074474595164562e-06
8.137486898212313e-07,2.2957982388057484e-06,3.2845994910445853e-07,8.102400336334593e-06
8.194302775022723e-07,2.282584847918522e-06,3.2603865944124226e-07,8.125869274897697e-06
8.249570296907809e-07,2.268377131600365e-06,3.239400229802294e-07,8.144971512476227e-06
8.303282034943288e-07,2.25320612865199e-06,3.221783826351943e-07,8.15979663275696e-06
8.355437519820946e-07,2.237090901884385e-06,3.207699652559027e-07,8.170442310358083e-06
8.406042971130918e-07,2.2200414043814738e-06,3.197297764265105e-07,8.177023319154418e-06
8.455104749343433e-07,2.202062415014922e-06,3.190683331570093e-07,8.179660535481882e-06
8.502599624769205e-07,2.183156072593288e-06,3.1879134551851404e-07,8.178468619171788e-06
8.548441878868028e-07,2.1633268651751097e-06,3.189027960578045e-07,8.173580620895684e-06
8.592470211899454e-07,2.142592739614868e-06,3.194092253198803e-07,8.16522263180605e-06
8.634452491448979e-07,2.120995023952233e-06,3.203227107055316e-07,8.153768406781544e-06
8.674103303810526e-07,2.0985965869299734e-06,3.2166091930982764e-07,8.139700458153495e-06
8.711106039286337e-07,2.0754701098902665e-06,3.2344267191111215e-07,8.123515811783753e-06
8.745124293917591e-07,2.051686977386647e-06,3.2568163422443137e-07,8.10565299980672e-06
8.775801031145306e-07,2.0273116709993005e-06,3.28383301872821e-07,8.086472169881305e-06
8.802758905831738e-07,2.002401608338268e-06,3.3154486959263284e-07,8.066309890119068e-06
8.825607911128597e-07,1.9770109577480183e-06,3.351549286754565e-07,8.04558432062462e-06
8.843955533569923e-07,1.9511918944494417e-06,3.391934788129883e-07,8.02485060643477e-06
8.857420678683356e-07,1.924991878136426e-06,3.4363410408408827e-07,8.004757108405578e-06
8.865664473240946e-07,1.8984561519547982e-06,3.484483098847802e-07,7.985957258945507e-06
8.868443407312858e-07,1.8716372159319283e-06,3.5360875473241455e-07,7.969039529148285e-06
8.865660903252796e-07,1.8445994495912662e-06,3.59087821020784e-07,7.954497695721307e-06
8.857371689623613e-07,1.8174133248746841e-06,3.6485387808314573e-07,7.942732066672262e-06
8.84373379031094e-07,1.7901486914177566e-06,3.7087000454915073e-07,7.934054245116268e-06
8.824969564004376e-07,1.7628739294644333e-06,3.770957046451011e-07,7.928682003427778e-06
8.801361808575077e-07,1.7356599353149448e-06,3.8349107150823456e-07,7.926735497570642e-06
8.773234056781969e-07,1.708587465736566e-06,3.900232668530804e-07,7.928238157086916e-06
8.7409036555749e-07,1.6817489834328009e-06,3.9667202547389323e-07,7.933110495311507e-06
8.704662802876727e-07,1.655238354198499e-06,4.034298533002513e-07,7.941165837522631e-06
8.664791997478905e-07,1.6291403390877373e-06,4.102962173646193e-07,7.952128938658916e-06
8.621550971343954e-07,1.6035290955489688e-06,4.172703453596036e-07,7.965670537445199e-06
8.575143256782728e-07,1.5784674297421297e-06,4.2434922896738036e-07,7.981440066646935e-06
8.52569690865401e-07,1.554003747019354e-06,4.315301979493404e-07,7.999094897678819e-06
8.473270004426439e-07,1.5301743824272881e-06,4.388112296348339e-07,8.018319440869827e-06
8.417862885770873e-07,1.5070107709395252e-06,4.461883438314432e-07,8.03882398866236e-06
8.35943054777518e-07,1.484542414803737e-06,4.536542783646717e-07,8.06033679648338e-06
8.297896967658159e-07,1.4627935584352247e-06,4.611984175766573e-07,8.082603869694829e-06
8.233171642027168e-07,1.4417817015549344e-06,4.688061833714139e-07,8.10538952680739e-06
8.16517244303275e-07,1.4215239720588931e-06,4.764585176665365e-07,8.128471700211811e-06
8.093849362832046e-07,1.402046294232831e-06,4.841319963572883e-07,8.151633603687964e-06
8.019189389727037e-07,1.3833852478521494e-06,4.917989823365027e-07,8.174647689672106e-06
7.941208086492657e-07,1.3655829465409835e-06,4.994282358498267e-07,8.197257759262852e-06
7.859946927506264e-07,1.3486900836926072e-06,5.06986329821068e-07,8.219190391530472e-06
7.775464882111349e-07,1.3327841182741265e-06,5.144389839792214e-07,8.24019696421691e-06
7.68781881341218e-07,1.3179870961564554e-06,5.217521633865785e-07,8.260072750811908e-06
7.59705787990153e-07,1.3044667998691984e-06,5.288935389310346e-07,8.278638514898236e-06
7.503245196457384e-07,1.2924178062104709e-06,5.358334888919032e-07,8.295728687488705e-06
7.406493293505915e-07,1.2820298075926196e-06,5.4254430091992e-07,8.31119925992869e-06
7.306981684560821e-07,1.2734648624711244e-06,5.489985037138196e-07,8.324930653689113e-06
7.204935115079682e-07,1.266858417467041e-06,5.55168300292093e-07,8.336810397861291e-06
7.100588397137235e-07,1.2623304744481115e-06,5.610259917166787e-07,8.34670718830342e-06
6.994173201101207e-07,1.2599875957082246e-06,5.665439979776068e-07,8.354473829742815e-06
6.885923285102286e-07,1.2599135830982364e-06,5.716951961611567e-07,8.360001502161654e-06
6.776078904697347e-07,1.262160529476137e-06,5.764547599057786e-07,8.363284292533236e-06
6.664894644720238e-07,1.2667496551421301e-06,5.808020364878346e-07,8.364431220492917e-06
6.552672260033259e-07,1.273675435877051e-06,5.847215656564727e-07,8.36362788901049e-06
6.439812228085686e-07,1.2829043565396379e-06,5.88203673066958e-07,8.361089939915665e-06
6.32684202635427e-07,1.294373921990933e-06,5.912440762561197e-07,8.357017858029738e-06
6.214387151410734e-07,1.3079982895774322e-06,5.938424321952585e-07,8.351555657490079e-06
6.103100920740793e-07,1.3236748126757964e-06,5.960005832098347e-07,8.344779937536764e-06
5.993612277019306e-07,1.3412866784953823e-06,5.977215155279185e-07,8.336724527846831e-06
5.886521428382724e-07,1.3607065342920376e-06,5.990098838669409e-07,8.327407096395567e-06
5.78240866170506e-07,1.3818052731233619e-06,5.998729784377268e-07,8.316833987168977e-06
5.681818120843568e-07,1.4044626102724278e-06,6.003202813293782e-07,8.304990192088612e-06
5.585223456024704e-07,1.4285734931356966e-06,6.003624207351841e-07,8.29184312557061e-06
5.493000239491014e-07,1.4540462221255569e-06,6.000116567900663e-07,8.277394505617758e-06
5.405415504397336e-07,1.480792313227867e-06,5.992826258228682e-07,8.261746471995859e-06
5.322636583718045e-07,1.508718044700659e-06,5.981917543058075e-07,8.245094489820892e-06
5.244754385211574e-07,1.537727298651305e-06,5.967569375542465e-07,8.227668665523372e-06
5.171799686294835e-07,1.5677262386320119e-06,5.94996727777012e-07,8.209733287422847e-06
5.103739605571426e-07,1.59861857220168e-06,5.929279548121743e-07,8.191632485382182e-06
5.040475741291009e-07,1.6303006973355586e-06,5.905643646657731e-07,8.173781769665354e-06
4.981863561069747e-07,1.6626672181641726e-06,5.879166846274102e-07,8.156606743991866e-06
4.927732719589591e-07,1.695618772233503e-06,5.849925659369452e-07,8.140491417166088e-06
4.87788671643745e-07,1.729060097569273e-06,5.817974297220128e-07,8.12575248842984e-06
4.832097869985779e-07,1.7628938619788732e-06,5.783373100547997e-07,8.112630308659266e-06
4.790114443375244e-07,1.7970249441340599e-06,5.74621871957316e-07,8.101285921430784e-06
4.751671597657141e-07,1.831370344158001e-06,5.706648125673626e-07,8.091798304557229e-06
4.716496020505383e-07,1.865857410674487e-06,5.664815028108325e-07,8.084164928028236e-06
4.6843093712104284e-07,1.900417055060503e-06,5.620861246483324e-07,8.078304098703007e-06
4.6548378397236346e-07,1.9349958742775703e-06,5.574898375534569e-07,8.074056649351379e-06
4.6278175464246176e-07,1.9695856822748818e-06,5.52700526004943e-07,8.07119511446723e-06
4.6029945209214346e-07,2.004240486127513e-06,5.477239945089001e-07,8.069439076687383e-06
4.580130082404601e-07,2.039061782748021e-06,5.425656227619671e-07,8.068459825764148e-06
4.559004623476869e-07,2.07416344885908e-06,5.372324607816059e-07,8.067876698494025e-06
4.5394264140737324e-07,2.109639160107639e-06,5.317353531455922e-07,8.067268351940837e-06
4.521254790171155e-07,2.145549160164257e-06,5.26088832310362e-07,8.066203601420281e-06
4.504403291986699e-07,2.1819332901507283e-06,5.203088841345643e-07,8.064269023627175e-06
4.488802661555931e-07,2.218839337558962e-06,5.144110143821666e-07,8.061076282377104e-06
4.474364936921511e-07,2.256342368889669e-06,5.084092204055031e-07,8.056257964445351e-06
4.4609870195575725e-07,2.2945417800710916e-06,5.023152656631453e-07,8.049468613372499e-06
4.4485746976951827e-07,2.333544371861061e-06,4.961383720040966e-07,8.040397481738098e-06
4.4370508003987533e-07,2.3734487529181243e-06,4.898859262849719e-07,8.028788888730777e-06
4.426349518250763e-07,2.4143365976447157e-06,4.835650200081984e-07,8.01445860635999e-06
4.416420754492543e-07,2.4562652992712256e-06,4.771838044878705e-07,7.99729619391697e-06
4.407255024602028e-07,2.499256753847414e-06,4.7075179103521263e-07,7.977251501796245e-06
4.3989236888162177e-07,2.543285697148508e-06,4.642793009413444e-07,7.954306796427242e-06
4.3916103961679497e-07,2.5882767374091043e-06,4.577775829016236e-07,7.928445027402483e-06
4.385595649064711e-07,2.6341129045370232e-06,4.5125965830205476e-07,7.89964092905667e-06
4.38119235951801e-07,2.680645546490929e-06,4.4474005946701156e-07,7.867884334036766e-06
4.3786996984711075e-07,2.7276985482492763e-06,4.3823435169715775e-07,7.833202387612282e-06
4.378437159449521e-07,2.775076920196737e-06,4.317613439611425e-07,7.795650777505803e-06
4.380838973533713e-07,2.82258106022296e-06,4.253464665337188e-07,7.755288641285064e-06
4.386547555065999e-07,2.8700109759997006e-06,4.190213275216164e-07,7.712166728257147e-06
4.3964567395294687e-07,2.9171686680812144e-06,4.128190299001622e-07,7.66633742055087e-06
4.4116796789673595e-07,2.963879045644718e-06,4.0677038878867027e-07,7.617871889302374e-06
4.4334348789376317e-07,3.0100150124409452e-06,4.0090472049084e-07,7.566861036388084e-06
4.462880164504609e-07,3.0555039997189938e-06,3.9525469308461036e-07,7.513395747117018e-06
4.500999256397321e-07,3.1003204774671982e-06,3.8986270487003226e-07,7.457552268154324e-06
4.548612255013778e-07,3.1444752444035618e-06,3.847856598667426e-07,7.39941313619322e-06
4.606426324013841e-07,3.187999875108428e-06,3.800959917794659e-07,7.339120750745368e-06
4.6750234274450463e-07,3.2309225680745037e-06,3.758773495289386e-07,7.276917486569853e-06
4.7548119208088577e-07,3.273244202395048e-06,3.722154395676044e-07,7.213133216389104e-06
4.846012154468798e-07,3.314932204897112e-06,3.6919128214083636e-07,7.148134120503522e-06
4.948669634977346e-07,3.355934881580214e-06,3.6688228678736185e-07,7.082272703939371e-06
5.06266934003119e-07,3.396197967541995e-06,3.6536465398393383e-07,7.015870195444437e-06
5.187791655263779e-07,3.4356676925885415e-06,3.6471043295689616e-07,6.9492330314680615e-06
5.323832629342515e-07,3.4742809134332205e-06,3.6498121514988046e-07,6.882662503907537e-06
5.470715009618327e-07,3.5119517238346933e-06,3.6622216565825633e-07,6.81642950531879e-06
5.628517979277399e-07,3.548562608171926e-06,3.6845923371265226e-07,6.7507482260458624e-06
5.797437523532031e-07,3.5839626447361533e-06,3.7170076784072965e-07,6.6857967117264706e-06
5.9777269542027e-07,3.617972694746554e-06,3.759405604609703e-07,6.621783116712055e-06
6.169629754627e-07,3.650397671632029e-06,3.8116018735913037e-07,6.558994590443754e-06
6.373285749342114e-07,3.681040237412445e-06,3.873337348364445e-07,6.4977746694567415e-06
6.588631939623215e-07,3.7097055090624007e-06,3.944353394426836e-07,6.438461041067487e-06
6.81535764742339e-07,3.7361988438703696e-06,4.024438607654757e-07,6.381343527575376e-06
7.052935754392451e-07,3.7603281522889863e-06,4.1134291967455065e-07,6.326681292780177e-06
7.300677838768641e-07,3.7819091120185858e-06,4.2111889094622453e-07,6.274797669726114e-06
7.55774767286072e-07,3.8007667469336763e-06,4.317561668521346e-07,6.226176687010473e-06
7.823150631474292e-07,3.8167400068407716e-06,4.4323032953387116e-07,6.181453619620861e-06
8.095761538388864e-07,3.829694814918606e-06,4.555050077457896e-07,6.141321847301682e-06
8.374390019772011e-07,3.839534807906111e-06,4.6853438437767923e-07,6.10644459965126e-06
8.657844666937595e-07,3.846196769559275e-06,4.822667394240157e-07,6.077398807989953e-06
8.944970015684847e-07,3.849635367677565e-06,4.966458337280709e-07,6.0546394642372595e-06
9.234644851808651e-07,3.8498172506784985e-06,5.116104006337319e-07,6.038479013014697e-06
9.525761782250187e-07,3.8467352044951485e-06,5.270930168046907e-07,6.029082265625901e-06
9.817203464466197e-07,3.840427188167923e-06,5.430198939738385e-07,6.026473101160006e-06
1.0107809187326106e-06,3.8309763248615955e-06,5.593116405445186e-07,6.03054472651212e-06
1.0396351143965955e-06,3.818491180586468e-06,5.758840810041375e-07,6.041069035648795e-06
1.0681551372448285e-06,3.8030930114967347e-06,5.926492692202867e-07,6.05770605180107e-06
1.0962134410597818e-06,3.7849267513433233e-06,6.09517211696661e-07,6.080017163669659e-06
1.12368748061365e-06,3.7641784453696646e-06,6.26397842434585e-07,6.107484973869714e-06
1.1504600871364682e-06,3.741074660457682e-06,6.432020919022014e-07,6.139540281192947e-06
1.1764159963753257e-06,3.7158603742192734e-06,6.598416120095406e-07,6.175596149708527e-06
1.201438923638418e-06,3.6887699714683035e-06,6.762279516622028e-07,6.215084800167047e-06
1.2254132558723436e-06,3.660010640305909e-06,6.922727736542908e-07,6.257480570700417e-06
1.2482315390158528e-06,3.6297636129877295e-06,7.078899140218245e-07,6.302298644517554e-06
1.2698031281314758e-06,3.5981890458413062e-06,7.229978163217264e-07,6.349088340986185e-06
1.2900559764535649e-06,3.565424156241408e-06,7.375204144583742e-07,6.397437815030932e-06
1.3089312295812249e-06,3.5315810113681536e-06,7.513864430197784e-07,6.4469788205858335e-06
1.3263780194110824e-06,3.4967507684601136e-06,7.645288226463548e-07,6.497373989949011e-06
1.342351967450448e-06,3.4610127304914466e-06,7.768856694441156e-07,6.548285317070753e-06
1.35681552070683e-06,3.4244465323466245e-06,7.884030502494946e-07,6.5993417635897014e-06
1.3697384498343971e-06,3.3871430349554318e-06,7.990383105215381e-07,6.65013099433148e-06
1.3810976516625941e-06,3.3492058467843134e-06,8.087615629737077e-07,6.700226475992505e-06
1.3908755549266514e-06,3.310755519668933e-06,8.175534969126096e-07,6.749226597033225e-06
1.3990574449389113e-06,3.2719576014833937e-06,8.254012687730668e-07,6.7967668851444055e-06
1.405630119576324e-06,3.2330598747425564e-06,8.32296079361526e-07,6.842505334128435e-06
1.4105844119129122e-06,3.1944031042171336e-06,8.382339444912509e-07,6.88610710559469e-06
1.4139188046301262e-06,3.1563944206578478e-06,8.432182467313385e-07,6.927231353442253e-06
1.4156386984050262e-06,3.119457887298278e-06,8.472610920658722e-07,6.9655170934113265e-06
1.4157528147671395e-06,3.0839829399481946e-06,8.503810372192251e-07,7.000582879496647e-06
1.4142729703762312e-06,3.050288735745735e-06,8.525983062554176e-07,7.032057414581186e-06
1.4112169440840278e-06,3.018612973240733e-06,8.539315706171506e-07,7.0596369562590014e-06
1.406608746676213e-06,2.989122148895643e-06,8.543974022730968e-07,7.083132446067058e-06
1.4004760525430903e-06,2.961932607191512e-06,8.540104304286576e-07,7.102475718273718e-06
1.3928492383054e-06,2.9371277798179843e-06,8.527840477968858e-07,7.117693729306931e-06
1.3837624483105629e-06,2.914762861924956e-06,8.507324706349812e-07,7.128871607744448e-06
1.3732556285035541e-06,2.8948600204164423e-06,8.478739655572101e-07,7.136114099058202e-06
1.3613802448498552e-06,2.87740295659488e-06,8.442340656173236e-07,7.139509175743315e-06
1.3482077045239249e-06,2.8623411390173493e-06,8.398461060169304e-07,7.1391082692385425e-06
1.3338330486716445e-06,2.849607368280195e-06,8.347476591643604e-07,7.134940142443759e-06
1.318371615872996e-06,2.8391388353890007e-06,8.289757122096016e-07,7.127042108945152e-06
1.3019526957559329e-06,2.830891099919769e-06,8.225651319755923e-07,7.115476629575336e-06
1.2847114479569794e-06,2.8248441299526532e-06,8.155535899209014e-07,7.100328787718127e-06
1.2667798859658906e-06,2.8210005040523283e-06,8.079920549181202e-07,7.081694081391812e-06
1.2482800478155408e-06,2.8193707500558763e-06,7.99953604648002e-07,7.059678418689602e-06
1.229320559088898e-06,2.8199489343256043e-06,7.91534183735916e-07,7.034448349204396e-06
1.2099962341213101e-06,2.8226979108131664e-06,7.828459655963454e-07,7.0062975662986494e-06
1.1903900870819157e-06,2.827553382075708e-06,7.740060519677786e-07,6.975645993289242e-06
1.1705766334881026e-06,2.834431901275305e-06,7.651245756184634e-07,6.9429975667230054e-06
1.1506259976818613e-06,2.843232518138717e-06,7.56297896165167e-07,6.908921418071092e-06
1.1306084083039798e-06,2.8538342162404165e-06,7.476072256210083e-07,6.87403007171586e-06
1.1105969855919936e-06,2.8660921080201494e-06,7.391189013804548e-07,6.838933978564931e-06
1.0906670023348505e-06,2.879838474276138e-06,7.30885472371721e-07,6.804201087466007e-06
1.0708941979886065e-06,2.894888758299992e-06,7.22947384179393e-07,6.770336171994289e-06
1.0513549666124945e-06,2.911043205357642e-06,7.153340186735479e-07,6.7377753407973765e-06
1.0321255706797514e-06,2.9280848295068835e-06,7.080656010202559e-07,6.706883343278245e-06
1.0132773617267577e-06,2.945786358815854e-06,7.01157688352517e-07,6.6779453814383245e-06
9.94870977044555e-07,2.963929064377241e-06,6.946262503818904e-07,6.651159682532037e-06
9.769546866010172e-07,2.9823187911046766e-06,6.884904496351875e-07,6.626636360860634e-06
9.595674769062497e-07,3.0007850831591616e-06,6.827727116376742e-07,6.604400713859338e-06
9.427418648671301e-07,3.019166614524348e-06,6.774970441545465e-07,6.5844013760795854e-06
9.265029875755049e-07,3.0372993679282787e-06,6.726864090571121e-07,6.566522695334535e-06
9.108668816246048e-07,3.055020268011663e-06,6.683606113634361e-07,6.550593872925178e-06
8.958407974935936e-07,3.072180755624941e-06,6.645350884429461e-07,6.536394388451778e-06
8.814248935524075e-07,3.088652465622638e-06,6.612198874802612e-07,6.523669050982975e-06
8.676148681304701e-07,3.1043237328610337e-06,6.584201858902025e-07,6.512156276683314e-06
8.544045808301122e-07,3.11910912027684e-06,6.56137512342711e-07,6.501613209509236e-06
8.417871802041795e-07,3.132975527571931e-06,6.543680805777129e-07,6.4918262439837016e-06
8.297548113453506e-07,3.1459535569822487e-06,6.530997749975317e-07,6.482609271586423e-06
8.182971972826862e-07,3.1581166875239894e-06,6.523114943339654e-07,6.473792406167327e-06
8.073997289819245e-07,3.1695505029978814e-06,6.519741629621589e-07,6.4652071327842725e-06
7.97043297845337e-07,3.180340115832798e-06,6.520520245220389e-07,6.456681238041026e-06
7.87207205054512e-07,3.1905773354466456e-06,6.525052350106777e-07,6.448049826732988e-06
7.778737050651401e-07,3.2003664969064844e-06,6.532931660805417e-07,6.439171877289607e-06
7.690317100392429e-07,3.209813684375926e-06,6.543754356344308e-07,6.4299365781894325e-06
7.606770857454853e-07,3.219005522233256e-06,6.557106689792964e-07,6.420254978823613e-06
7.528082164713496e-07,3.2279934995718087e-06,6.5725618643896e-07,6.4100410313161465e-06
7.454197884179357e-07,3.23679853470881e-06,6.589701152758707e-07,6.3991948187198545e-06
7.384996398181284e-07,3.24543642146444e-06,6.608143071147725e-07,6.387618729553096e-06
7.320297119701995e-07,3.2539407685968173e-06,6.627554931837058e-07,6.375264932879236e-06
7.259890279825499e-07,3.26236310213588e-06,6.647642283084188e-07,6.362149499463336e-06
7.203565211612004e-07,3.2707572510804285e-06,6.668134745367782e-07,6.3483059350993475e-06
7.151130270786462e-07,3.2791638375738287e-06,6.688775769690582e-07,6.333731686834293e-06
7.102448215232819e-07,3.287600636074502e-06,6.70931031737825e-07,6.318369425301032e-06
7.057479509290303e-07,3.2960584130051875e-06,6.729479017841407e-07,6.302123488597797e-06
7.016273817871438e-07,3.3045029259512263e-06,6.749036494705867e-07,6.284897564220279e-06
6.978909409596957e-07,3.3128847618969145e-06,6.767793023779673e-07,6.266618492650503e-06
6.94544665939567e-07,3.3211537257203907e-06,6.785646450007705e-07,6.2472217036215694e-06
6.915929849805378e-07,3.329268236450768e-06,6.802571643493308e-07,6.2266268183881405e-06
6.890407635885274e-07,3.337191759005225e-06,6.818586315090382e-07,6.2047388399413476e-06
6.868920364623722e-07,3.3448814313824663e-06,6.833732693616615e-07,6.1814708788794545e-06
6.851457298109669e-07,3.3522837279462544e-06,6.848072194350822e-07,6.156778797920426e-06
6.837931182865881e-07,3.3593392058779263e-06,6.861679183666623e-07,6.1307002285297115e-06
6.828186487465661e-07,3.3659878159871724e-06,6.874646091174045e-07,6.103366148690623e-06
6.82202750471074e-07,3.37217928481903e-06,6.887092496539569e-07,6.074967630626816e-06
6.819239139928324e-07,3.3778933857880637e-06,6.899154583704785e-07,6.045707460381621e-06
6.819588234613168e-07,3.383152623288448e-06,6.910959471481869e-07,6.015767862816169e-06
6.822834570621173e-07,3.3880083556131662e-06,6.922594741702252e-07,5.985291151001952e-06
6.828759636694549e-07,3.3925123773992918e-06,6.93408230499648e-07,5.954363826962287e-06
6.83720082127404e-07,3.3967108070412543e-06,6.945374413565098e-07,5.923011066766177e-06
6.848093074443733e-07,3.400672787753112e-06,6.956368748837304e-07,5.891215048265654e-06
6.861472721093104e-07,3.404516589074193e-06,6.966920408912108e-07,5.858973008988877e-06
6.877403899917018e-07,3.408395106817575e-06,6.97685110189037e-07,5.82637322446572e-06
6.895908228375935e-07,3.4124540407970475e-06,6.985983259456861e-07,5.793616841861373e-06
6.916994613085171e-07,3.4168072686801587e-06,6.994194653377523e-07,5.760961947161243e-06
6.940744073381606e-07,3.4215448062405543e-06,7.001443818400146e-07,5.728647314518707e-06
6.967321311469248e-07,3.426746080870533e-06,7.00775360000251e-07,5.696854655421197e-06
6.996882249825372e-07,3.432476350913337e-06,7.013180025552572e-07,5.665742628658153e-06
7.029474917900545e-07,3.4387716624599253e-06,7.017790054852369e-07,5.635553958750597e-06
7.065014095828248e-07,3.445626338261808e-06,7.02168910202133e-07,5.606721166551564e-06
7.10332680312674e-07,3.4529946703015244e-06,7.025097009505557e-07,5.579877664248765e-06
7.144233272320254e-07,3.4608088105582023e-06,7.028386080479433e-07,5.555782163963127e-06
7.187599702248416e-07,3.4689995947564933e-06,7.032023672286352e-07,5.5352277881591985e-06
7.233315902824571e-07,3.4775028312730173e-06,7.036457649148431e-07,5.5189676876354435e-06
7.281239512162665e-07,3.4862489169365217e-06,7.042026040477207e-07,5.5076558706064595e-06
7.33115818547552e-07,3.495157850621728e-06,7.048932813069576e-07,5.50180472639477e-06
7.382772278783751e-07,3.5041584229657035e-06,7.05725957392057e-07,5.501766244819463e-06
7.435697458633615e-07,3.513214664095488e-06,7.066977557076028e-07,5.507738747637703e-06
7.489481127333781e-07,3.522329411858728e-06,7.077960539066925e-07,5.51978648357621e-06
7.54361995965555e-07,3.531520301888256e-06,7.090005317744608e-07,5.537853711226916e-06
7.597580300755219e-07,3.540789848697088e-06,7.102857620574926e-07,5.561768934321997e-06
7.650819857517326e-07,3.5501158779326582e-06,7.116230461689779e-07,5.59125291338718e-06
7.70279857424173e-07,3.559467253635812e-06,7.129806510563433e-07,5.625938868216037e-06
7.752984805045859e-07,3.568825055888169e-06,7.143236802918542e-07,5.665397827280205e-06
7.800875463206978e-07,3.5781915660069397e-06,7.15614389973393e-07,5.709167585269212e-06
7.846015372944661e-07,3.5875840318645364e-06,7.168128006855919e-07,5.756790694141808e-06
7.887993553423015e-07,3.597015953868448e-06,7.178788920148063e-07,5.807848665739791e-06
7.926436241876901e-07,3.606475532580722e-06,7.187767508581782e-07,5.861973586837232e-06
7.961014740017823e-07,3.6159188057250216e-06,7.194772796997327e-07,5.91884453904301e-06
7.991449756028831e-07,3.6252852933550256e-06,7.199570592107628e-07,5.978181335944361e-06
8.017502587724273e-07,3.6345221304994285e-06,7.201958284536379e-07,6.0397258186637674e-06
8.038964700378534e-07,3.6435969722155883e-06,7.20175301080262e-07,6.103204982060587e-06
8.055647452530041e-07,3.6524948657272384e-06,7.198789913471881e-07,6.168295125850838e-06
8.067376471767729e-07,3.661206459209858e-06,7.19292309155093e-07,6.23460715123787e-06
8.073995467027475e-07,3.66971264475558e-06,7.184028343088908e-07,6.301698065507977e-06
8.075363853081618e-07,3.6779693767844483e-06,7.172009265773455e-07,6.36910147172044e-06
8.071347230571166e-07,3.685902677858034e-06,7.156803864754562e-07,6.436350862568038e-06
8.061818875559193e-07,3.6934183401799218e-06,7.138374767358962e-07,6.5029732651053685e-06
8.046668839691055e-07,3.7004155895910264e-06,7.11668566306953e-07,6.568469994788644e-06
8.025814305974469e-07,3.7067942897432182e-06,7.091689802607146e-07,6.632311858409526e-06
7.999222460174775e-07,3.712457884586895e-06,7.063335708447919e-07,6.693946896091647e-06
7.966932969810419e-07,3.717316829519662e-06,7.031579386071623e-07,6.75281094771438e-06
7.929052301239879e-07,3.7212879740288665e-06,6.99639274589351e-07,6.808344832860397e-06
7.885731279988222e-07,3.724285533528585e-06,6.957760700248006e-07,6.860016892351424e-06
7.837157288902255e-07,3.726212509668055e-06,6.915672202341023e-07,6.907343177942662e-06
7.783559074903608e-07,3.726959799242714e-06,6.870113955249596e-07,6.9499069502182695e-06
7.725192048750903e-07,3.7264075257724615e-06,6.82106742189174e-07,6.987378520370111e-06
7.662306208998127e-07,3.7244278972945055e-06,6.76851085644503e-07,7.01953285858609e-06
7.595138336036589e-07,3.7208964515848434e-06,6.712434331944085e-07,7.046264227524153e-06
7.523926816802897e-07,3.7157085846630736e-06,6.652868447067198e-07,7.067581899064513e-06
7.4489143214151e-07,3.7087876326058212e-06,6.589902058983803e-07,7.08357090819767e-06
7.37034094632697e-07,3.700076997904844e-06,6.523663725376424e-07,7.094342262810092e-06
7.288444822199631e-07,3.689524250924994e-06,6.454285753540897e-07,7.1000141771353955e-06
7.203486378424487e-07,3.677070051537591e-06,6.381885360600899e-07,7.100726960042502e-06
7.115803833034364e-07,3.6626467311025843e-06,6.306568453209274e-07,7.096664000935397e-06
7.025847387897481e-07,3.646183586567315e-06,6.228451895616342e-07,7.088059774920453e-06
6.934144192711886e-07,3.6276150512849693e-06,6.147697910760076e-07,7.075189018990958e-06
6.841239402851415e-07,3.606893379159617e-06,6.064531617019001e-07,7.0583597372531875e-06
6.747667261488174e-07,3.5840069261232435e-06,5.979220045297581e-07,7.037943237670422e-06
6.653940172079301e-07,3.5589929671958223e-06,5.89203482857901e-07,7.014406822825319e-06
6.560543481007614e-07,3.5319323367479424e-06,5.803235198995332e-07,6.988288719251127e-06
6.467945505797817e-07,3.502928533667553e-06,5.713086163753379e-07,6.96013524664802e-06
6.37660705289979e-07,3.4720857402528755e-06,5.621886376059807e-07,6.9304514302081865e-06
6.286969371299397e-07,3.439498758995506e-06,5.529961455836307e-07,6.8996911233160384e-06
6.199433916604015e-07,3.4052556207208888e-06,5.43763141605425e-07,6.8683196288704776e-06
6.11435935969563e-07,3.369444627874802e-06,5.345190931854395e-07,6.836925771570949e-06
6.032077017409056e-07,3.3321611143626633e-06,5.252900845537679e-07,6.8062731916833805e-06
5.95290720198103e-07,3.2935116333742493e-06,5.160981592548497e-07,6.7772431791410125e-06
5.877155089427695e-07,3.253612384355057e-06,5.069621313275258e-07,6.750734815465412e-06
5.805078211459455e-07,3.212582242498708e-06,4.978997272175554e-07,6.727585029690923e-06
5.736861445666773e-07,3.170535711147963e-06,4.889288519801514e-07,6.708522539213154e-06
5.672635104299481e-07,3.127582331740117e-06,4.800684383678177e-07,6.694147996084597e-06
5.612515198845435e-07,3.083831209446728e-06,4.71341307917902e-07,6.684927098361067e-06
5.556631988350135e-07,3.0393921927308862e-06,4.6277685143696183e-07,6.68118995380024e-06
5.50513306050621e-07,2.9943706254231253e-06,4.544093986977235e-07,6.683135755770232e-06
5.45817011455899e-07,2.948859809705877e-06,4.4627361557610683e-07,6.690838855904768e-06
5.415902754025429e-07,2.90293625942892e-06,4.384012894484296e-07,6.704248614678397e-06
5.378508339184067e-07,2.8566599167635104e-06,4.3082185897462386e-07,6.7231843187651786e-06
5.34615849315806e-07,2.810077975468118e-06,4.235671159658854e-07,6.747339630241119e-06
5.318998872318663e-07,2.7632299902136812e-06,4.166762820304317e-07,6.776305207995436e-06
5.297162868516232e-07,2.716154995944849e-06,4.101948972233894e-07,6.809605782176426e-06
5.280760570906785e-07,2.6689014834737616e-06,4.041679366718732e-07,6.846743759858739e-06
5.269829079010939e-07,2.6215333005656557e-06,3.986337986386491e-07,6.887239821601947e-06
5.264310176245103e-07,2.574124580295936e-06,3.93622316830592e-07,6.930665282489676e-06
5.264069531841526e-07,2.5267500257548956e-06,3.891549828788138e-07,6.976664788813284e-06
5.268911445943853e-07,2.4794852080073267e-06,3.852454207231808e-07,7.0249645545449035e-06
5.278579589385575e-07,2.432420222804683e-06,3.8190053846157546e-07,7.075362177941557e-06
5.292777738604002e-07,2.3856692228971013e-06,3.791220726398818e-07,7.127705722748302e-06
5.311214583767312e-07,2.3393607362762482e-06,3.769062694803422e-07,7.181875590389247e-06
5.333638393974612e-07,2.293617362494617e-06,3.7524200392808244e-07,7.237764003659757e-06
5.359855466160204e-07,2.2485410505241404e-06,3.7410996212614383e-07,7.295240753233282e-06
5.389761276808624e-07,2.2042083675826197e-06,3.734838758586274e-07,7.354124069050879e-06
5.423396427754198e-07,2.1606729864902025e-06,3.733333447332624e-07,7.414176122105261e-06
5.460989716935889e-07,2.117973861457961e-06,3.736273082793053e-07,7.475106940382254e-06
5.502920530088816e-07,2.0761458840166424e-06,3.7433753205700325e-07,7.536572316218263e-06
5.54961510370642e-07,2.035225380382999e-06,3.7544201919072254e-07,7.5981781435128416e-06
5.601497273669774e-07,1.9952466704549868e-06,3.769267775664239e-07,7.659501533730931e-06
5.65902426142966e-07,1.9562360244374275e-06,3.787840847570054e-07,7.720112563759155e-06
5.722693048159169e-07,1.918209272260107e-06,3.8100909720592043e-07,7.779574096673932e-06
5.792965972341738e-07,1.8811718985958356e-06,3.8359843525509e-07,7.83742840281389e-06
5.870190383568072e-07,1.845120891049401e-06,3.8655011899161e-07,7.893192855033305e-06
5.954560392435097e-07,1.8100483050476124e-06,3.898624592139976e-07,7.946372910633411e-06
6.046098843660653e-07,1.7759437952944508e-06,3.935341603088064e-07,7.996500362086778e-06
6.144673439203085e-07,1.7427963227165387e-06,3.975667916302826e-07,8.043191343280624e-06
6.250085258025343e-07,1.7105951296155937e-06,4.0196455868250267e-07,8.086182159772889e-06
6.362178108925375e-07,1.6793278129317803e-06,4.067289660527544e-07,8.125307075662601e-06
6.480873404927215e-07,1.648979215678379e-06,4.118533324413847e-07,8.16044191613743e-06
6.606117227281067e-07,1.6195345199700768e-06,4.173216809763153e-07,8.191466742547615e-06
6.737792781495422e-07,1.5909811859808088e-06,4.2311138359529404e-07,8.218269785987683e-06
6.875646758821882e-07,1.563305837814686e-06,4.291978060174369e-07,8.240774275738018e-06
7.019255182039218e-07,1.5364910287425073e-06,4.355596088211021e-07,8.25895816694544e-06
7.168036777607662e-07,1.5105185347105796e-06,4.421814456129385e-07,8.272857482321096e-06
7.321313023482589e-07,1.4853768455709264e-06,4.4905141380245207e-07,8.282555475427389e-06
7.478392106395171e-07,1.461062714099836e-06,4.5615593278627473e-07,8.288172349063284e-06
7.63862737555561e-07,1.437575806972737e-06,4.634771935798149e-07,8.289892338796218e-06
7.801420274872263e-07,1.4149185605812628e-06,4.709932225916605e-07,8.288003748320531e-06
7.966184257415622e-07,1.3931058335477626e-06,4.786773192825609e-07,8.28287278235511e-06
8.132305999396066e-07,1.3721730688203807e-06,4.864978163419028e-07,8.274862543371834e-06
8.299124494635598e-07,1.3521735693735416e-06,4.94420296454558e-07,8.264282512938244e-06
8.465930414530227e-07,1.333167874462035e-06,5.024097388025307e-07,8.251421313994318e-06
8.631979819496582e-07,1.3152116326353429e-06,5.104301765199826e-07,8.236651002804627e-06
8.796504798344444e-07,1.29834698045946e-06,5.184443046731907e-07,8.220508479317014e-06
8.958730204142969e-07,1.2826026766651648e-06,5.264155326065048e-07,8.203671385388876e-06
9.117918490864971e-07,1.2680039379539477e-06,5.343105873431281e-07,8.186866922051298e-06
9.273398152061424e-07,1.2545861414173412e-06,5.420993940243576e-07,8.170790761482581e-06
9.42453063500004e-07,1.242403368944569e-06,5.497525125507233e-07,8.156058687295256e-06
9.570666441148092e-07,1.2315241128943505e-06,5.572391092761058e-07,8.143177104343289e-06
9.711150812423072e-07,1.2220157148192782e-06,5.645266073905882e-07,8.132517440940516e-06
9.845353151454776e-07,1.2139297784412156e-06,5.715818083146678e-07,8.12429756380756e-06
9.97267253985085e-07,1.2072967504292299e-06,5.783733430786793e-07,8.118579408100987e-06
1.009252643071391e-06,1.2021255545194729e-06,5.848730855565761e-07,8.115280219342035e-06
1.020434863377598e-06,1.1984053903968122e-06,5.910547314635833e-07,8.114192427317958e-06
1.0307607144297705e-06,1.1961146862780606e-06,5.968927779812233e-07,8.115011328676649e-06
1.0401844589195391e-06,1.1952331992199525e-06,6.023645804904667e-07,8.117367303172124e-06
1.0486712574738123e-06,1.195746680800028e-06,6.074520734282259e-07,8.12085655108621e-06
1.0561953461629776e-06,1.1976554475023564e-06,6.121406060750723e-07,8.125067862846654e-06
1.0627349078233814e-06,1.2009994605542558e-06,6.164177161068779e-07,8.129607768962663e-06
1.0682715774618976e-06,1.2058744081167795e-06,6.202732916123661e-07,8.134123855916141e-06
1.0727970988077609e-06,1.2124124559436476e-06,6.236997704740354e-07,8.138316223719028e-06
1.0763205680722011e-06,1.2207474176379706e-06,6.266916952774322e-07,8.141932072258781e-06
1.0788689204102308e-06,1.2310027678117495e-06,6.29244446794009e-07,8.144760305180656e-06
1.0804801403067534e-06,1.2433076491488029e-06,6.31352784454018e-07,8.146640796734175e-06
1.081195295407984e-06,1.2578091308508856e-06,6.330105906026503e-07,8.147472531762447e-06
1.0810543619861997e-06,1.2746586454173366e-06,6.342133193734831e-07,8.147198940414779e-06
1.080094373030075e-06,1.293988682460514e-06,6.349624438467911e-07,8.145777392002099e-06
1.0783481541263613e-06,1.3159049620826005e-06,6.352673453483374e-07,8.143150118898694e-06
1.0758448556844777e-06,1.3404915623368491e-06,6.351422255342678e-07,8.139227353757529e-06
1.072611031669117e-06,1.3678086434890971e-06,6.346025168979065e-07,8.133902416008328e-06
1.0686698871469549e-06,1.3978784294934649e-06,6.33664605113401e-07,8.127093733308572e-06
1.0640407662266677e-06,1.430675372050679e-06,6.323457544616275e-07,8.118765091217732e-06
1.0587430073395098e-06,1.466128808995555e-06,6.306623503085875e-07,8.108907461718585e-06
1.0528032407627443e-06,1.504127614126738e-06,6.286300769173898e-07,8.097513857730942e-06
1.0462611727136469e-06,1.544521981406366e-06,6.262662629060915e-07,8.084560936058063e-06
1.0391707832668363e-06,1.5871300710246859e-06,6.235898795328322e-07,8.06999381370959e-06
1.031597216468212e-06,1.6317467428270183e-06,6.206199281934664e-07,8.053718659391237e-06
1.0236159922799652e-06,1.678146217631116e-06,6.173773021463168e-07,8.035601196437861e-06
1.0153199839951479e-06,1.726086854205874e-06,6.138884254118553e-07,8.015466652020716e-06
1.0068249203574928e-06,1.7753264576036915e-06,6.101859305787448e-07,7.993115155989488e-06
9.982622450944084e-07,1.825635060044878e-06,6.063072842044414e-07,7.968371153089737e-06
9.897626276293648e-07,1.8767901744351987e-06,6.02292016602643e-07,7.941146807790031e-06
9.814408102228904e-07,1.9285615570291517e-06,5.981774834023076e-07,7.911465750606965e-06
9.73388737753658e-07,1.9807019399997952e-06,5.939985408947933e-07,7.879430899662604e-06
9.656763754414595e-07,2.032948540897397e-06,5.897937682486968e-07,7.84517194862522e-06
9.583560469183377e-07,2.0850340090187118e-06,5.856105233449336e-07,7.80880633012117e-06
9.514694453921965e-07,2.136708375352014e-06,5.815010531393114e-07,7.770431991466184e-06
9.450569342513763e-07,2.187764165006575e-06,5.775133753658479e-07,7.730148077316063e-06
9.391633210251229e-07,2.23804326104899e-06,5.736863857621656e-07,7.68807016420071e-06
9.338348830035828e-07,2.287418175141663e-06,5.70051819686955e-07,7.64432208684384e-06
9.291122653059841e-07,2.3357725093302483e-06,5.666385434318618e-07,7.5990197535654635e-06
9.250283456274885e-07,2.38300429232448e-06,5.634741987309093e-07,7.552281071077444e-06
9.216099362210207e-07,2.4290423115061803e-06,5.605830380263609e-07,7.504291134562724e-06
9.188755775122222e-07,2.4738525174576267e-06,5.579830480416039e-07,7.455372810993268e-06
9.168317441929977e-07,2.5174264837144217e-06,5.5568537151534e-07,7.4059753737300325e-06
9.15474139617025e-07,2.5597592118611094e-06,5.536961534839746e-07,7.356595732664713e-06
9.14791680959358e-07,2.6008282837852435e-06,5.520199147759893e-07,7.3077151790791125e-06
9.14767897555184e-07,2.64058176034738e-06,5.506624384012748e-07,7.25980778383682e-06
9.153791325697248e-07,2.6789363858472685e-06,5.496294769807521e-07,7.213407350018626e-06
9.165924665467928e-07,2.715785450524768e-06,5.489217330484468e-07,7.169142940411424e-06
9.18366956031616e-07,2.751012870321257e-06,5.485321008574327e-07,7.127696582408062e-06
9.206585221338572e-07,2.7845058113241157e-06,5.48448010290174e-07,7.089732602806403e-06
9.234257373817823e-07,2.816158273636242e-06,5.486551355970549e-07,7.0558416358343095e-06
9.266343231602901e-07,2.8458655478538293e-06,5.49138041982826e-07,7.0265062101626446e-06
9.302585295221378e-07,2.8735178342273333e-06,5.498790908217244e-07,7.002083468141749e-06
9.342782149200369e-07,2.8989992273367235e-06,5.508598308937368e-07,6.982794011322878e-06
9.386739190194851e-07,2.922189879688016e-06,5.520631218236375e-07,6.968715047230016e-06
9.434224316646951e-07,2.9429679152375718e-06,5.534715675210598e-07,6.9597844408837765e-06
9.484925819511372e-07,2.9612107456106214e-06,5.550641296812323e-07,6.955819089497183e-06
9.53842748119496e-07,2.976797138856491e-06,5.568151122764101e-07,6.956544794875448e-06
9.594232827243924e-07,2.9896126357836545e-06,5.586955987857492e-07,6.9616238507393694e-06
9.651827577887932e-07,2.999557183971093e-06,5.606752776698314e-07,6.9706675323577685e-06
9.710728440203399e-07,3.006548699029558e-06,5.627231784659519e-07,6.983238088318538e-06
9.77048643626981e-07,3.0105216336766733e-06,5.648074340177549e-07,6.998852664494244e-06
9.830665590038568e-07,3.0114259805388636e-06,5.668953007104228e-07,7.016998275798593e-06
9.890847207935551e-07,3.009227097523725e-06,5.68953686964038e-07,7.037155600571249e-06
9.95067882032984e-07,3.003902989882808e-06,5.7094989577723e-07,7.058818270113106e-06
1.0009921867540311e-06,2.99544037623522e-06,5.728526628345545e-07,7.081504017673113e-06
1.00684414073773e-06,2.9838336516911233e-06,5.746329299557225e-07,7.104763051959948e-06
1.0126134226491112e-06,2.969086456920621e-06,5.762636093018379e-07,7.128186227942397e-06
1.0182848984766243e-06,2.9512122139206384e-06,5.777186863282525e-07,7.15141054346165e-06
1.0238362059516762e-06,2.930233628352204e-06,5.789723177312064e-07,7.174111700294293e-06
1.0292404154000587e-06,2.9061830951760287e-06,5.799981870416832e-07,7.195983871439322e-06
1.0344675407648218e-06,2.8791036404065413e-06,5.807696869738018e-07,7.2167198330701616e-06
1.0394832726033105e-06,2.84905018407232e-06,5.81261217093621e-07,7.236001102003148e-06
1.044248318996241e-06,2.816090385385266e-06,5.81449521740615e-07,7.2535139844827664e-06
1.0487197472422986e-06,2.7803028461287137e-06,5.813138929022241e-07,7.268990949040461e-06
1.0528530942887902e-06,2.7417746392331045e-06,5.808362228386141e-07,7.2822350208601254e-06
1.0566039073984471e-06,2.700604027692455e-06,5.800020523256242e-07,7.2931021516739625e-06
1.059928885342741e-06,2.6569092276630337e-06,5.788008136580275e-07,7.301465436099072e-06
1.0627874323147792e-06,2.6108364736969532e-06,5.772243562716803e-07,7.3071867623307386e-06
1.0651438762504648e-06,2.562560358416747e-06,5.75265739836098e-07,7.3101040287259076e-06
1.0669699983431874e-06,2.512275762691109e-06,5.72918838199069e-07,7.310032902366451e-06
1.0682449721086217e-06,2.460186594656544e-06,5.701779699803415e-07,7.306771108910448e-06
1.0689508039812307e-06,2.4065007884635515e-06,5.670378203078019e-07,7.300100138694791e-06
1.0690673538334329e-06,2.3514444342854333e-06,5.634941417511073e-07,7.2898036382352565e-06
1.0685711493707087e-06,2.2952973788578948e-06,5.5954512541406e-07,7.275719872513382e-06
1.067437091053422e-06,2.2384278843551003e-06,5.551922718373808e-07,7.257804335831914e-06
1.0656404113929102e-06,2.18129610732086e-06,5.504395772019275e-07,7.2361501840903505e-06
1.0631575038085615e-06,2.124416860354233e-06,5.452919965891226e-07,7.210948782137366e-06
1.0599655909671792e-06,2.068305376119198e-06,5.397548190293069e-07,7.1824255664891e-06
1.0560423847532854e-06,2.013448188069614e-06,5.338338865989791e-07,7.150793230508459e-06
1.0513671892187284e-06,1.9603116752913033e-06,5.275357409575572e-07,7.116242300426334e-06
1.0459229499124442e-06,1.909355918180506e-06,5.208673717179009e-07,7.078955275897459e-06
1.0396975161498122e-06,1.861025898111221e-06,5.138360284357036e-07,7.039109602123628e-06
1.0326850015017459e-06,1.8157265471557387e-06,5.064501381237968e-07,6.9968642000799206e-06
1.0248877104529843e-06,1.7738022484226035e-06,4.987219916825041e-07,6.9523547090598146e-06
1.0163156931756962e-06,1.7355312988480106e-06,4.90670316076461e-07,6.905727613063124e-06
1.0069844453265164e-06,1.7011304582492175e-06,4.823205241925903e-07,6.85722297013756e-06
9.969136960694762e-07,1.6707587322734482e-06,4.7370387900596926e-07,6.8072430721925875e-06
9.86126289822144e-07,1.6445165519441625e-06,4.648563653263074e-07,6.756328671476859e-06
9.746468394203451e-07,1.622446758561058e-06,4.558171975030841e-07,6.705065793760975e-06
9.625012756102129e-07,1.6045405735547947e-06,4.4663062600802115e-07,6.654011940058627e-06
9.497165666058878e-07,1.590744777323305e-06,4.373517841785993e-07,6.603704772650208e-06
9.363207660258743e-07,1.580972457198876e-06,4.280491464917661e-07,6.55473868329506e-06
9.223436059581574e-07,1.575115812585824e-06,4.187987366439369e-07,6.507811926402452e-06
9.078164763492456e-07,1.573049260373536e-06,4.096748603111885e-07,6.463690881774381e-06
8.927717189443844e-07,1.574628685152754e-06,4.0074391581278295e-07,6.4231434408689774e-06
8.772428386959575e-07,1.5797052614738241e-06,3.9206224434590477e-07,6.386884379833827e-06
8.612678855289145e-07,1.5881473428077553e-06,3.836757930098264e-07,6.355529219339823e-06
8.448953001894607e-07,1.5998468304424836e-06,3.756205180662764e-07,6.32956057536039e-06
8.281873840357831e-07,1.6147039787410645e-06,3.679232811673922e-07,6.309314519521385e-06
8.11219420801475e-07,1.6326057551502987e-06,3.606028173976733e-07,6.294980806214258e-06
7.940761067532191e-07,1.6534140465020568e-06,3.536711848323378e-07,6.286612086804119e-06
7.768456025708981e-07,1.676966694935186e-06,3.471371029187777e-07,6.284140357717957e-06
7.596143803725109e-07,1.7030827683440296e-06,3.4101148436816593e-07,6.287391240890255e-06
7.424674090479355e-07,1.7315630778342454e-06,3.3531200642184054e-07,6.296090575285483e-06
7.25490660662988e-07,1.7621875360245385e-06,3.300635197928288e-07,6.309870613575593e-06
7.087699482541827e-07,1.7947232019372779e-06,3.2529619207382685e-07,6.328284776242182e-06
6.923863109398594e-07,1.8289501978820758e-06,3.210440887276975e-07,6.350836005761685e-06
6.764123362527311e-07,1.864689515614935e-06,3.173425913751611e-07,6.3770167656366476e-06
6.60911051982669e-07,1.9018106758044846e-06,3.1422361418567947e-07,6.4063449919282365e-06
6.459356258021986e-07,1.9402158143496243e-06,3.117122670274304e-07,6.438380342291186e-06
6.315287263502735e-07,1.97981520854804e-06,3.0982744228737303e-07,6.4727254566670875e-06
6.177218124895076e-07,2.0205113682547626e-06,3.085829596483793e-07,6.509022237698032e-06
6.045352932467097e-07,2.062196428542352e-06,3.0798598208178085e-07,6.5469437326863124e-06
5.919812626257353e-07,2.104753417906289e-06,3.0803461925448873e-07,6.586185161868327e-06
5.800687207115057e-07,2.1480526530440867e-06,3.08717743302108e-07,6.626455269666653e-06
5.688073822561106e-07,2.1919517332481075e-06,3.10017084302518e-07,6.667461009434438e-06
5.582074676518968e-07,2.236312414263273e-06,3.11910532113626e-07,6.708887533468186e-06
5.482775006934112e-07,2.281025658078165e-06,3.1437536000764965e-07,6.750394789509847e-06
5.390218472352163e-07,2.326022624768811e-06,3.173895802202808e-07,6.791657426898423e-06
5.304388382451373e-07,2.37126225348674e-06,3.2093072913209585e-07,6.832432934656491e-06
5.225221680250701e-07,2.4167048991357656e-06,3.249733852512541e-07,6.872597108587254e-06
5.152659448181508e-07,2.462294219924292e-06,3.294883224326157e-07,6.912119044839937e-06
5.086697842032426e-07,2.507961180787075e-06,3.34443597130936e-07,6.951003826262595e-06
5.027415020156477e-07,2.553638255699852e-06,3.398045469092486e-07,6.989233866227029e-06
4.974961381150583e-07,2.5992656239675896e-06,3.4553280382603267e-07,7.026732898213071e-06
4.929501687799443e-07,2.644784744788652e-06,3.515867602154365e-07,7.063368686960009e-06
4.89114414114579e-07,2.6901241486923883e-06,3.5792363535445573e-07,7.098976718811453e-06
4.859907280056722e-07,2.73518513490677e-06,3.6450227847328603e-07,7.133385943520208e-06
4.835720310106775e-07,2.7798344173997435e-06,3.712854396239236e-07,7.166454700008699e-06
4.818428512595999e-07,2.823909812355384e-06,3.782395695149901e-07,7.198104105036307e-06
4.807801447995145e-07,2.8672383835769936e-06,3.85331954629386e-07,7.2283179867190595e-06
4.803549860365859e-07,2.9096515417917506e-06,3.925280881038532e-07,7.2571145193418915e-06
4.80534429025416e-07,2.9509850295246878e-06,3.99792242422973e-07,7.2845154676821425e-06
4.812830144069847e-07,2.991074788696119e-06,4.0708967998971726e-07,7.31052026516201e-06
4.825641068964051e-07,3.0297591474751337e-06,4.1438682124118925e-07,7.335085598645862e-06
4.843415752866357e-07,3.0668789809944148e-06,4.216503248367407e-07,7.358120246286212e-06
4.865812865518025e-07,3.1022741457857413e-06,4.288480143495511e-07,7.379490507907118e-06
4.892504236073493e-07,3.135792423205825e-06,4.359503611052002e-07,7.3990183381563505e-06
4.92316777700477e-07,3.1673137267785636e-06,4.4292989298858654e-07,7.416475948354387e-06
4.957531265525492e-07,3.1967657474093083e-06,4.497596060487827e-07,7.431595081854477e-06
4.995450294877721e-07,3.2241184076391187e-06,4.564136423184942e-07,7.444114044249671e-06
5.036941204526802e-07,3.2493729559178424e-06,4.628697134149474e-07,7.4538799922584714e-06
5.08212933223185e-07,3.272557396433343e-06,4.6910937202778347e-07,7.460942570769219e-06
5.131154511986957e-07,3.29372337778147e-06,4.7511606353730105e-07,7.465538162747299e-06
5.184091090360322e-07,3.3129409285958414e-06,4.80873691819939e-07,7.4680058445992e-06
5.240906824705053e-07,3.330290684338201e-06,4.86366540485931e-07,7.468745047801001e-06
5.301461553978172e-07,3.3458522564044117e-06,4.915813813016517e-07,7.468202353114417e-06
5.365523656607492e-07,3.359695138548508e-06,4.965114018491954e-07,7.466839465138492e-06
5.432789904599633e-07,3.371881543513646e-06,5.011583216381244e-07,7.465102408974237e-06
5.502913584300157e-07,3.382477882418146e-06,5.055305205807406e-07,7.463409443566948e-06
5.575522734994816e-07,3.3915679830742787e-06,5.096386765068751e-07,7.4621458142501285e-06
5.650213932504665e-07,3.3992669095795462e-06,5.134914926893582e-07,7.4616516814764175e-06
5.72654825155494e-07,3.405727628624449e-06,5.170935708721108e-07,7.4621980546724106e-06
5.804066945898546e-07,3.4111298640366013e-06,5.204460381927279e-07,7.4639608856171765e-06
5.882312303989648e-07,3.415654005909151e-06,5.235483805562904e-07,7.467010287234033e-06
5.960839767518364e-07,3.4194561787091475e-06,5.26399629500506e-07,7.4713166992815585e-06
6.039237111598207e-07,3.4226616766228523e-06,5.289988541807968e-07,7.476761828471727e-06
6.117190582057376e-07,3.425374684003323e-06,5.313451441694772e-07,7.483154070512906e-06
6.194578697680193e-07,3.4276824900707853e-06,5.334368116311881e-07,7.490256238181805e-06
6.271501839545529e-07,3.4296486487903987e-06,5.352711142814628e-07,7.497809536755606e-06
6.348210054499378e-07,3.4313137076449838e-06,5.368471393835028e-07,7.5055336710097276e-06
6.424992897290331e-07,3.4327085592904586e-06,5.381711657054889e-07,7.513124284588547e-06
6.50210454972219e-07,3.4338623432080742e-06,5.392587899715857e-07,7.5202711945313846e-06
6.579725661087512e-07,3.434794474228536e-06,5.401317760467759e-07,7.526679373803468e-06
6.657929311983358e-07,3.435501631186763e-06,5.408145838568855e-07,7.532079214409987e-06
6.73665944068446e-07,3.4359549503808917e-06,5.413332778772869e-07,7.536235245095993e-06
6.815739951852653e-07,3.436108771009594e-06,5.417148861247079e-07,7.538950790168279e-06
6.89489922812623e-07,3.435910926910395e-06,5.419859859867471e-07,7.540063767884195e-06
6.973798377731456e-07,3.4353081583616493e-06,5.421708497571225e-07,7.539444268943338e-06
7.052069760640338e-07,3.4342451341388737e-06,5.422895024553559e-07,7.536993946212824e-06
7.129353464266604e-07,3.432658021023438e-06,5.423564107387196e-07,7.532631937747847e-06
7.205302106222869e-07,3.430471366260156e-06,5.423806515649212e-07,7.5262694992243916e-06
7.279559334348126e-07,3.427605157774259e-06,5.423674501272011e-07,7.517789846401988e-06
7.351765088765394e-07,3.423983104828216e-06,5.423198832777954e-07,7.5070506624645845e-06
7.421617707919743e-07,3.419530781789636e-06,5.422391718027398e-07,7.493925855504874e-06
7.488950440419727e-07,3.414167565174306e-06,5.421241005668144e-07,7.478361898868567e-06
7.553755209702173e-07,3.4078033985096738e-06,5.4197136163079e-07,7.4603861369840374e-06
7.616128569208623e-07,3.400341516679423e-06,5.417765540228116e-07,7.4400568119560565e-06
7.676182226396304e-07,3.3916808696261026e-06,5.415350252829337e-07,7.417412187914777e-06
7.733987835953958e-07,3.381719424633731e-06,5.412426595717333e-07,7.392456874123978e-06
7.789572720975735e-07,3.3703606139847475e-06,5.40897175128664e-07,7.365185626341786e-06
7.842924581987752e-07,3.357516897547158e-06,5.404993754985063e-07,7.3356343334557084e-06
7.893980109058104e-07,3.3431128054517917e-06,5.400521409934272e-07,7.303913012912865e-06
7.942624560471953e-07,3.3270971533765096e-06,5.395577805220979e-07,7.270175707890855e-06
7.98871994995493e-07,3.3094578477033007e-06,5.390164705723475e-07,7.234563417159767e-06
8.032124599661347e-07,3.2902228371144003e-06,5.384254051185983e-07,7.1971990616626874e-06
8.072682827921594e-07,3.26944536306366e-06,5.37777644372835e-07,7.158248265210907e-06
8.110224609186695e-07,3.2471900626288946e-06,5.370619301430733e-07,7.117976862913112e-06
8.144601277456184e-07,3.2235343113058032e-06,5.362640441568811e-07,7.076743479639155e-06
8.175715430984086e-07,3.198577711909616e-06,5.353683111787421e-07,7.0349377413156966e-06
8.203499041317905e-07,3.1724434068486686e-06,5.343585350926263e-07,6.992910276944098e-06
8.227867811925695e-07,3.1452678195225897e-06,5.332194868442173e-07,6.950930980209702e-06
8.248701982756359e-07,3.117185941992477e-06,5.319386601280599e-07,6.909186534799164e-06
8.265848298138432e-07,3.0883190481953955e-06,5.305063175430125e-07,6.8677960469649475e-06
8.279120928531191e-07,3.0587692588751548e-06,5.289147444508271e-07,6.826824690618482e-06
8.288306956802069e-07,3.0286198551845886e-06,5.271585526477723e-07,6.7862994604931645e-06
8.293189107522895e-07,2.997936013256263e-06,5.252352531083898e-07,6.746240493513403e-06
8.293583164486752e-07,2.9667656681709106e-06,5.231454992877685e-07,6.706722643541524e-06
8.289372560222753e-07,2.9351438543479685e-06,5.208924682625922e-07,6.667944818032936e-06
8.280516021407505e-07,2.9031000948274033e-06,5.184801907727715e-07,6.6302367131726975e-06
8.267019961149526e-07,2.8706645133889163e-06,5.159131515258856e-07,6.593984173991166e-06
8.248914537459883e-07,2.8378696688766165e-06,5.131970879082415e-07,6.559547627327547e-06
8.226273557153609e-07,2.804753784401614e-06,5.103382928874083e-07,6.527257527310921e-06
8.199243024712205e-07,2.771373793934842e-06,5.07342527380639e-07,6.497498356326187e-06
8.168027580669616e-07,2.73782683186885e-06,5.042154032625486e-07,6.470790019121312e-06
8.132850748102184e-07,2.704270073247554e-06,5.009628755171069e-07,6.4477721591644614e-06
8.093928910128573e-07,2.670925326417649e-06,4.975908586588797e-07,6.429118506210399e-06
8.051471933426907e-07,2.638057455244157e-06,4.941046377452406e-07,6.415459152623547e-06
8.005704490541081e-07,2.6059331721511682e-06,4.905088515935374e-07,6.407333201065077e-06
7.956903661036265e-07,2.574785673903221e-06,4.868079178132114e-07,6.405161009410145e-06
7.905442756761814e-07,2.544801989417639e-06,4.830057000965447e-07,6.4092313006639155e-06
7.851803655608445e-07,2.5161278112045946e-06,4.791042777427607e-07,6.41970392192331e-06
7.796526859022407e-07,2.4888792273552267e-06,4.751036159352368e-07,6.436619867544668e-06
7.740132968055343e-07,2.463150604306911e-06,4.710037370648103e-07,6.459904432396691e-06
7.683089883158473e-07,2.439012218249372e-06,4.6680938760638706e-07,6.4893613957212815e-06
7.625847811652406e-07,2.4165089828387103e-06,4.6253436743152333e-07,6.524668572623405e-06
7.568876738658233e-07,2.3956716776206755e-06,4.582011807841318e-07,6.565387168171535e-06
7.512650538054519e-07,2.376533506108511e-06,4.5383635163640634e-07,6.6109866174316556e-06
7.457607706261827e-07,2.3591427151938075e-06,4.4946604898525657e-07,6.660876354226853e-06
7.404129651237953e-07,2.3435679210459137e-06,4.451136232266029e-07,6.7144398784911974e-06
7.352525917322824e-07,2.329892376460056e-06,4.407977920868767e-07,6.7710663380130375e-06
7.303017724048449e-07,2.318199812087011e-06,4.365319695820782e-07,6.830170353944794e-06
7.255741215010065e-07,2.308561989556184e-06,4.323262998147256e-07,6.891199272162382e-06
7.210771424007655e-07,2.301032107086858e-06,4.281921033992192e-07,6.9536348580556745e-06
7.168143926149195e-07,2.2956401096553373e-06,4.241460012057269e-07,7.0169929036759874e-06
7.127897061394241e-07,2.2923867195416344e-06,4.202104151542182e-07,7.0808167371801725e-06
7.090179141414465e-07,2.2912368562126e-06,4.164098586116105e-07,7.144657835008885e-06
7.055360059787372e-07,2.292116405520509e-06,4.1276662532613156e-07,7.208048640039726e-06
7.024030239523019e-07,2.2949144830083517e-06,4.0929889790901947e-07,7.270485308526302e-06
6.996894856693249e-07,2.2994891942596268e-06,4.060201792444349e-07,7.331435421652391e-06
6.974653861376065e-07,2.3056743522769924e-06,4.0294017840097215e-07,7.3903755341227876e-06
6.957908862355168e-07,2.3132844570409598e-06,4.000704410845253e-07,7.446842360111661e-06
6.947126742690123e-07,2.322118763486741e-06,3.9743293352896454e-07,7.500461205372221e-06
6.942678780072281e-07,2.3319673911923013e-06,3.950629741399489e-07,7.550934482002403e-06
6.944907026582578e-07,2.3426170275164816e-06,3.930034795559613e-07,7.598011857865363e-06
6.954161661391138e-07,2.353853267028426e-06,3.912966796909329e-07,7.641464199772163e-06
6.970793433877467e-07,2.3654607937254257e-06,3.89978249056127e-07,7.681061606991054e-06
6.995117269218277e-07,2.3772231717384244e-06,3.8907523730029094e-07,7.716557800972357e-06
7.027377876945309e-07,2.3889253140419068e-06,3.886085218167906e-07,7.747690481539118e-06
7.06772117872491e-07,2.400360810291909e-06,3.8859837525124607e-07,7.774193915954809e-06
7.11616342350937e-07,2.4113390690366298e-06,3.8906940980482996e-07,7.795817542383916e-06
7.172574297991128e-07,2.4216874956228857e-06,3.900513954821742e-07,7.812365218516382e-06
7.236690316490659e-07,2.4312536645323343e-06,3.9157562967271377e-07,7.823762733286559e-06
7.308154955182324e-07,2.4399103646938517e-06,3.936691035328802e-07,7.830110177601442e-06
7.386550850834976e-07,2.44755697620146e-06,3.963494216139861e-07,7.831663099087907e-06
7.471385825454945e-07,2.454114820951597e-06,3.9962306985501797e-07,7.828757759344703e-06
7.562057427141759e-07,2.4595207550016885e-06,4.034861536284856e-07,7.82174015041207e-06
7.657843367933968e-07,2.4637223746597653e-06,4.079251297295053e-07,7.810919032915562e-06
7.757919867616165e-07,2.4666791044403784e-06,4.1291779610921576e-07,7.796543007477581e-06
7.861394126645538e-07,2.4683702731006174e-06,4.184352078210553e-07,7.778809422105815e-06
7.967339772917455e-07,2.468799979698613e-06,4.2444360208565737e-07,7.757888940996068e-06
8.074821959158941e-07,2.4679883771217534e-06,4.309063179118865e-07,7.733936535672878e-06
8.182918706843845e-07,2.465954983873061e-06,4.37785879943912e-07,7.707094220495227e-06
8.29076020166912e-07,2.462707910301361e-06,4.450437312633792e-07,7.677527528015426e-06
8.397586148652345e-07,2.4582448075690368e-06,4.526371857533888e-07,7.645498170596465e-06
8.502787322919398e-07,2.4525602598870302e-06,4.605176702591177e-07,7.611395706275995e-06
8.605897623339529e-07,2.4456496009809203e-06,4.686312940810313e-07,7.575680388742868e-06
8.706538189631286e-07,2.437505808061973e-06,4.769194622500426e-07,7.5387974260467405e-06
8.804353619354973e-07,2.4281157845406588e-06,4.853195175298316e-07,7.501158002385044e-06
8.898986874190788e-07,2.4174619526937083e-06,4.937672663098404e-07,7.463220315089359e-06
8.99009020366797e-07,2.405530490137016e-06,5.022026290430942e-07,7.425592337274022e-06
9.077339454506214e-07,2.392321904003701e-06,5.105760659716253e-07,7.389044933889313e-06
9.160443927373665e-07,2.3778556618806e-06,5.188505574250903e-07,7.354434637230557e-06
9.239143247574012e-07,2.362170256964587e-06,5.269975837075789e-07,7.322610530346274e-06
9.31318348748513e-07,2.345328604010064e-06,5.349907217918909e-07,7.294343918365692e-06
9.382296229872192e-07,2.327428979911704e-06,5.428015260683573e-07,7.270283959858234e-06
9.446200804272137e-07,2.3086115245477242e-06,5.504009283528715e-07,7.250928275222916e-06
9.50461906317465e-07,2.2890525420804934e-06,5.577646089080262e-07,7.236602034209517e-06
9.557281929052084e-07,2.2689454393674253e-06,5.648755037891171e-07,7.227457037937143e-06
9.60392125995216e-07,2.248476754527038e-06,5.717206014823641e-07,7.223490382093678e-06
9.644267127412834e-07,2.2278144905884155e-06,5.782872339109953e-07,7.224564879272998e-06
9.678087489878992e-07,2.2071151348125825e-06,5.845628307537448e-07,7.230423319239519e-06
9.705265280853487e-07,2.186535817043836e-06,5.905368108905851e-07,7.2407000864528125e-06
9.725848512320563e-07,2.166238716160106e-06,5.962018560652072e-07,7.254937851175115e-06
9.740026682202405e-07,2.146385996926895e-06,6.015521918483671e-07,7.272618942850908e-06
9.74805449875699e-07,2.1271290746758338e-06,6.065799774081908e-07,7.293211808793944e-06
9.75019566294325e-07,2.108601355645948e-06,6.112740715492579e-07,7.316220439630936e-06
9.746731293423678e-07,2.0909198929289532e-06,6.156214726143125e-07,7.3412160587439056e-06
9.73799288997655e-07,2.0741868923188802e-06,6.196083632793339e-07,7.367836141706233e-06
9.724369151735087e-07,2.058484980745073e-06,6.232202732656201e-07,7.395762720639992e-06
9.706275755405216e-07,2.0438783845842896e-06,6.264427155425412e-07,7.424704737439513e-06
9.684096810630063e-07,2.0304282534482066e-06,6.292639767424362e-07,7.454393424632123e-06
9.658134640207195e-07,2.0182099481751843e-06,6.316799646462863e-07,7.484580425937009e-06
9.628603605686017e-07,2.007318948300784e-06,6.336972167870922e-07,7.51502449346005e-06
9.59565837745933e-07,1.997864728835631e-06,6.353308842331565e-07,7.545467596345003e-06
9.55943354218445e-07,1.989954585324928e-06,6.365988013137856e-07,7.575616402683136e-06
9.520090130360172e-07,1.9836715603809157e-06,6.375157930099558e-07,7.605151203689042e-06
9.477866735199741e-07,1.9790597016952612e-06,6.38092140657641e-07,7.63377183864196e-06
9.433118895173159e-07,1.976126282561526e-06,6.383365610535821e-07,7.661248237045594e-06
9.386320039511007e-07,1.9748573638350817e-06,6.382597223868343e-07,7.687429849208437e-06
9.33800989108918e-07,1.9752392425693857e-06,6.378738119640128e-07,7.712217060471678e-06
9.288719510206831e-07,1.977279753345931e-06,6.37189520283256e-07,7.73552602128208e-06
9.238940324961978e-07,1.9810220398245842e-06,6.362149762950921e-07,7.757258047092538e-06
9.189162842406662e-07,1.986545242654705e-06,6.349574244619415e-07,7.777284924236501e-06
9.139934347080137e-07,1.993955073373576e-06,6.334255579799958e-07,7.795458304823412e-06
9.091890261072396e-07,2.00337072982864e-06,6.316301439407866e-07,7.811614521391859e-06
9.045748968792965e-07,2.014907799766745e-06,6.295825696180598e-07,7.825560023099966e-06
9.002270899363269e-07,2.028655825586242e-06,6.272936540560281e-07,7.837074469562308e-06
8.962197138353994e-07,2.044657945499609e-06,6.247757638115569e-07,7.845959654224439e-06
8.926181696912046e-07,2.062900790674844e-06,6.220500376570438e-07,7.85210472125898e-06
8.894731361170938e-07,2.083314578601463e-06,6.191548621453904e-07,7.85551117716175e-06
8.868175291408285e-07,2.105779979216019e-06,6.161469399246498e-07,7.856262494414276e-06
8.84666578040459e-07,2.1301379471346383e-06,6.130926915170288e-07,7.854472326871594e-06
8.830188672660723e-07,2.1561982602134682e-06,6.100574859324882e-07,7.850245055001003e-06
8.818573186813831e-07,2.183745310771601e-06,6.070992988261615e-07,7.843658870545451e-06
8.811508369941457e-07,2.21254278065559e-06,6.042664037710998e-07,7.834761952091675e-06
8.808571609091366e-07,2.242342603943771e-06,6.015965969049695e-07,7.82357224537595e-06
8.809267771757223e-07,2.272902063829094e-06,5.991183561152126e-07,7.810080640718283e-06
8.813068698618824e-07,2.304002324228074e-06,5.968545844201642e-07,7.794259846120339e-06
8.819441454362102e-07,2.335458846674049e-06,5.948255862641898e-07,7.776104818046602e-06
8.82786703467626e-07,2.3671229352891585e-06,5.930479485181917e-07,7.755722812863995e-06
8.837845293778273e-07,2.398881279564604e-06,5.91531514561591e-07,7.733404436416744e-06
8.84887628989711e-07,2.4306570784906517e-06,5.902788991127136e-07,7.70959689671489e-06
8.860442118728676e-07,2.462403088146533e-06,5.89287846594971e-07,7.68480837472257e-06
8.872033330536265e-07,2.4940793422865536e-06,5.885530410289332e-07,7.659526443640675e-06
8.88320728861298e-07,2.5256333858341456e-06,5.880661718415691e-07,7.634215010001828e-06
8.893608840302136e-07,2.557003352610738e-06,5.878168047046125e-07,7.609378292192508e-06
8.902936177035385e-07,2.588133343582017e-06,5.877942060255368e-07,7.585589681976172e-06
8.910905523096048e-07,2.6189774919875612e-06,5.879873600462873e-07,7.563446402031298e-06
8.91725204260636e-07,2.649487230822599e-06,5.883842008382835e-07,7.543513266895107e-06
8.92174817634103e-07,2.6795934123491834e-06,5.889712899854136e-07,7.526284831660103e-06
8.924194935147843e-07,2.7091963050529653e-06,5.897320602613092e-07,7.5121535157683596e-06
8.924385567573878e-07,2.7381664867523e-06,5.906448144260116e-07,7.501384192583975e-06
8.92208449326346e-07,2.7663517379379446e-06,5.916829724318848e-07,7.4940995303487825e-06
8.917038411519799e-07,2.7935877190147577e-06,5.928167447384328e-07,7.490277576762863e-06
8.909000883970556e-07,2.81970992579936e-06,5.940146269289717e-07,7.489762052891208e-06
8.897748690002459e-07,2.844559262392268e-06,5.952439456876745e-07,7.492285048930017e-06
8.883079028772206e-07,2.8679797595562383e-06,5.964705880328522e-07,7.4974998151046175e-06
8.864797773407776e-07,2.8898170207432136e-06,5.976594372289653e-07,7.505012621105032e-06
8.842728450987472e-07,2.909925117055645e-06,5.987771423891053e-07,7.514403479878167e-06
