1.1478461009756085e-06,6.181827235521695e-07,5.07850503692256e-07,2.0932426834989247e-05
1.1359412078244221e-06,6.135542715077876e-07,5.083637645913317e-07,2.0750917259858468e-05
1.1235631706000226e-06,6.097834972195372e-07,5.088446481446736e-07,2.055465255912163e-05
1.1107366608692487e-06,6.069838389784493e-07,5.092916828347783e-07,2.034460495807058e-05
1.0974922897482293e-06,6.052742566938122e-07,5.09699799528279e-07,2.012211657422269e-05
1.083865937302775e-06,6.047645073457416e-07,5.100600760219117e-07,1.9888731290438158e-05
1.0698979379225798e-06,6.055431732546185e-07,5.103598563422858e-07,1.964598941247233e-05
1.055633017819778e-06,6.0767094379597e-07,5.105836522904992e-07,1.939531586826693e-05
1.0411237682164623e-06,6.111806151171304e-07,5.107141662886478e-07,1.913809670090316e-05
1.026433438594221e-06,6.160798420153832e-07,5.107327275997952e-07,1.887594856841608e-05
1.0116307619284738e-06,6.223535505965601e-07,5.10619621724377e-07,1.8610962048919312e-05
9.967802743392712e-07,6.299668921432488e-07,5.103545644508954e-07,1.8345704361649913e-05
9.81937592101763e-07,6.388684531226684e-07,5.099172149067691e-07,1.808303148791348e-05
9.671511306487832e-07,6.489919862284835e-07,5.09288517700104e-07,1.7825860657403648e-05
9.524652781866777e-07,6.602566961225485e-07,5.084522175785874e-07,1.7576977728982685e-05
9.379216120401905e-07,6.725680692978307e-07,5.073950654950072e-07,1.7338904164018666e-05
9.235575743264126e-07,6.858215523065315e-07,5.061064419762014e-07,1.7113814118436484e-05
9.094044935140644e-07,6.999102376593167e-07,5.045776994490451e-07,1.6903476957975252e-05
8.954888322579092e-07,7.147341545981673e-07,5.028007970641725e-07,1.6709219664714904e-05
8.818373355251169e-07,7.302056773465091e-07,5.007676197888329e-07,1.6531917285066428e-05
8.684803565538426e-07,7.46247800174326e-07,4.984707547089307e-07,1.6372018819591642e-05
8.554490719506056e-07,7.627869066995807e-07,4.959048552791439e-07,1.6229609632648277e-05
8.42770765502694e-07,7.797461609695481e-07,4.930678264781243e-07,1.6104499886619695e-05
8.304687638840585e-07,7.970454496772306e-07,4.899606424246025e-07,1.5996317807737914e-05
8.18568710237697e-07,8.146064786928371e-07,4.865856423842043e-07,1.5904593579458483e-05
8.071073862897344e-07,8.323576958967879e-07,4.829452102768794e-07,1.582883531721149e-05
7.961378371007055e-07,8.502370984806543e-07,4.790413747943978e-07,1.5768595516678175e-05
7.857271167569651e-07,8.681922260950401e-07,4.7487552503513053e-07,1.5723501057096555e-05
7.759474118926658e-07,8.861755308773687e-07,4.704487955770256e-07,1.5693225119088834e-05
7.668652699737383e-07,9.04137931625704e-07,4.6576427178008393e-07,1.5677437045705083e-05
7.585354669996716e-07,9.22027086645788e-07,4.6083011352433517e-07,1.5675774108918068e-05
7.510007471111725e-07,9.397888658152143e-07,4.556603175882628e-07,1.5687822657341636e-05
7.442927369642578e-07,9.573652628803348e-07,4.5027241917928745e-07,1.571308618332965e-05
7.384313070121506e-07,9.746905294450364e-07,4.4468551424718955e-07,1.5750941077482933e-05
7.334235710856873e-07,9.916907749577215e-07,4.389202673151828e-07,1.5800595201516354e-05
7.292640003085196e-07,1.008286253827115e-06,4.3299958719328287e-07,1.5861098375333263e-05
7.259355311005502e-07,1.0243943067659505e-06,4.269490209139861e-07,1.5931434339606318e-05
7.234127742760554e-07,1.0399316799006607e-06,4.207962256220932e-07,1.6010621018122666e-05
7.216688592364916e-07,1.0548148564348472e-06,4.1456897714725597e-07,1.609772923471534e-05
7.20681767336881e-07,1.0689604187319744e-06,4.082931862708994e-07,1.619182861263292e-05
7.204365488154711e-07,1.0822879541065158e-06,4.01992576150568e-07,1.629192285484359e-05
7.20926308307731e-07,1.094724620694937e-06,3.956893372473624e-07,1.639691787606588e-05
7.221516320198974e-07,1.1062096129419648e-06,3.894052207767857e-07,1.6505627815073104e-05
7.241155316868901e-07,1.116695810098603e-06,3.8316268618228017e-07,1.6616811681373042e-05
7.268189017229287e-07,1.1261474368534651e-06,3.769846078987354e-07,1.6729260933097464e-05
7.302628663115738e-07,1.1345400747366355e-06,3.7089347234048745e-07,1.6841929715934478e-05
7.344561633644176e-07,1.1418673667188532e-06,3.6491184114570545e-07,1.6954024396146084e-05
7.39421600567902e-07,1.1481455728813088e-06,3.5906288533286094e-07,1.7064988383429708e-05
7.451957180389059e-07,1.1534071065524342e-06,3.533703870524314e-07,1.7174410025138962e-05
7.518190409263856e-07,1.1576890553551143e-06,3.478585599356937e-07,1.7281912611617223e-05
7.593217477305777e-07,1.161028479074649e-06,3.4255051761328587e-07,1.738706178397983e-05
7.677131717910999e-07,1.1634671876971679e-06,3.374656712390372e-07,1.748932633881174e-05
7.769793904754686e-07,1.1650587294952896e-06,3.326182462773417e-07,1.7588123468246493e-05
7.87086264665987e-07,1.1658691511021354e-06,3.2801767285901425e-07,1.7682908682399936e-05
7.97983156308655e-07,1.1659706584854126e-06,3.236694458431097e-07,1.777322426852414e-05
8.096057813354759e-07,1.1654332054550614e-06,3.195751509595933e-07,1.78586855058415e-05
8.218790563641183e-07,1.1643180128920724e-06,3.157326434987072e-07,1.793894135569255e-05
8.347218917201732e-07,1.162675492150964e-06,3.121375145767017e-07,1.8013645054831248e-05
8.48054479012232e-07,1.1605475691982877e-06,3.0878489040772354e-07,1.8082499374895545e-05
8.618052571776796e-07,1.1579706091759613e-06,3.0567101953426127e-07,1.8145372854499967e-05
8.759155390232555e-07,1.1549756647546828e-06,3.02794926405994e-07,1.8202340622350078e-05
8.903410417691775e-07,1.1515870083215341e-06,3.001589950758853e-07,1.8253631755199992e-05
9.050498318743713e-07,1.1478225236572835e-06,2.977675548120339e-07,1.8299624772629826e-05
9.200198166332466e-07,1.1436962554675116e-06,2.956245739170155e-07,1.834086746292493e-05
9.352375136184131e-07,1.139219535996011e-06,2.9373187468461045e-07,1.837801597573849e-05
9.506938200317914e-07,1.1344011355083387e-06,2.9208849092449977e-07,1.8411732364582682e-05
9.66375605779213e-07,1.1292509701876713e-06,2.906918900639585e-07,1.844260646865047e-05
9.822586584756997e-07,1.1237878953393732e-06,2.895409093856049e-07,1.8471103107158187e-05
9.983092827635755e-07,1.1180471019866322e-06,2.886377128350537e-07,1.849752378415733e-05
1.014497733532798e-06,1.1120824398699692e-06,2.8798686753818715e-07,1.852198107376169e-05
1.0308140101050246e-06,1.1059618548028341e-06,2.875931993030169e-07,1.854438952300196e-05
1.047272951948177e-06,1.0997575210687228e-06,2.874599622859064e-07,1.8564475160354724e-05
1.0639083456866572e-06,1.0935365909245038e-06,2.8758745790707e-07,1.8581794589850867e-05
1.0807619972542835e-06,1.087358677333102e-06,2.879725232153353e-07,1.859575962226269e-05
1.0978709105286062e-06,1.0812777803049285e-06,2.886085530662764e-07,1.860567838138777e-05
1.1152551334188558e-06,1.0753428116660594e-06,2.89485698787356e-07,1.861080960774813e-05
1.1329097504208873e-06,1.069596387894346e-06,2.905914916408981e-07,1.8610401200394385e-05
1.1508044698959206e-06,1.0640725864144778e-06,2.919113844397565e-07,1.860370368820878e-05
1.168889844345319e-06,1.0587936729239332e-06,2.934289086217724e-07,1.858998773897904e-05
1.1871041448933002e-06,1.053768881426412e-06,2.951254794785178e-07,1.856856752428658e-05
1.2053774766353797e-06,1.0489964378188995e-06,2.969808033724961e-07,1.8538794091224208e-05
1.223634043981606e-06,1.0444666474259302e-06,2.989767542916285e-07,1.8500025906831773e-05
1.2417925108493094e-06,1.0401670374824231e-06,3.011030657079126e-07,1.8451623157739592e-05
1.2597648009890802e-06,1.036091584396923e-06,3.0335746030186537e-07,1.839297980569978e-05
1.2774577846515498e-06,1.032250111996569e-06,3.057400708205889e-07,1.8323568885620947e-05
1.2947817620913737e-06,1.0286719443777755e-06,3.0825096615186447e-07,1.8242981256528667e-05
1.3116624494866322e-06,1.0254042497375648e-06,3.1089318962366663e-07,1.8150951387608327e-05
1.3280470632036258e-06,1.022507478775704e-06,3.136745117168057e-07,1.8047357798946506e-05
1.3438985574072978e-06,1.0200464110331595e-06,3.1660491683469555e-07,1.793219737003891e-05
1.3591830497245334e-06,1.018079473715804e-06,3.196930760042286e-07,1.7805550609226744e-05
1.3738616879206788e-06,1.0166540374577455e-06,3.2294347130099824e-07,1.7667548539192742e-05
1.3878929697961977e-06,1.0158089387539594e-06,3.2635469735816243e-07,1.7518362649504916e-05
1.401240718493466e-06,1.0155800600847157e-06,3.2992003910006965e-07,1.7358237367399013e-05
1.4138788825241317e-06,1.0160058900556692e-06,3.3362865697559995e-07,1.718752551104959e-05
1.4257911297490288e-06,1.0171285952434934e-06,3.374653604539382e-07,1.700668606608213e-05
1.436969727187524e-06,1.01898731974913e-06,3.4141000911569535e-07,1.6816273817526026e-05
1.4474162277609913e-06,1.0216086852907696e-06,3.4543772949828325e-07,1.6616931527205807e-05
1.4571400390852012e-06,1.0250026620399034e-06,3.495197807611713e-07,1.640935376015645e-05
1.4661510830423262e-06,1.029164371073548e-06,3.53624753647699e-07,1.6194248674874334e-05
1.474453662477617e-06,1.0340773536692686e-06,3.5771987208289034e-07,1.5972326872020166e-05
1.4820502387601988e-06,1.039717377543775e-06,3.6177272371784345e-07,1.5744279557450353e-05
1.4889486333178247e-06,1.046056923483618e-06,3.657540453775174e-07,1.5510743407652446e-05
1.4951614926203025e-06,1.0530678863958656e-06,3.696405578204624e-07,1.5272305175183388e-05
1.5006986587271709e-06,1.0607202069389806e-06,3.734153922699528e-07,1.502955968652717e-05
1.5055603480898416e-06,1.0689766954065969e-06,3.7706546960925386e-07,1.4783205043648095e-05
1.5097362803852429e-06,1.0777887617614842e-06,3.8057804467059396e-07,1.4534142927640314e-05
1.5132093639915069e-06,1.0870990219875314e-06,3.83938538338037e-07,1.4283502165659626e-05
1.515959576348488e-06,1.0968485975766122e-06,3.871301561280929e-07,1.4032539869929825e-05
1.5179665274897326e-06,1.1069811153047251e-06,3.9013539834217405e-07,1.3782494105832934e-05
1.5192109079206129e-06,1.1174423669587232e-06,3.9293879022149136e-07,1.353450629141443e-05
1.5196747852138432e-06,1.1281811046119397e-06,3.9552917482579435e-07,1.3289632499585135e-05
1.519340754689087e-06,1.1391518423101342e-06,3.9790091945065057e-07,1.3048849330623046e-05
1.5181898291857331e-06,1.1503149695767056e-06,4.0005401015467883e-07,1.2813008235436764e-05
1.5162002710292714e-06,1.161633356230466e-06,4.0199299802927006e-07,1.2582811578594307e-05
1.5133505490258297e-06,1.1730703704327637e-06,4.0372559072766157e-07,1.235889934828925e-05
1.5096260994797174e-06,1.1845905496431203e-06,4.052610734896817e-07,1.2142004769076786e-05
1.5050286986514847e-06,1.1961578408488266e-06,4.066086764447185e-07,1.1933004720236504e-05
1.4995865873836294e-06,1.2077297371727558e-06,4.077777846214725e-07,1.1732807797728218e-05
1.4933577079788118e-06,1.2192524397700293e-06,4.0878097779645426e-07,1.1542212867970391e-05
1.4864198932564468e-06,1.2306620444654117e-06,4.0963781707593436e-07,1.1361832259882511e-05
1.478854464771497e-06,1.241894702912393e-06,4.10375867476311e-07,1.1192115227716634e-05
1.4707366960542146e-06,1.2529024902984057e-06,4.110273715707113e-07,1.1033530641429203e-05
1.462138660833821e-06,1.2636611165926519e-06,4.116239526518158e-07,1.0886823145010872e-05
1.4531369844628798e-06,1.2741615076978641e-06,4.121929598160375e-07,1.0753109891495657e-05
1.4438162276696938e-06,1.2843955851545514e-06,4.127567614729753e-07,1.0633753932463556e-05
1.434265876890981e-06,1.294349691591542e-06,4.1333363287336154e-07,1.0530165896603144e-05
1.424572212511345e-06,1.3040054400811557e-06,4.1393881689555116e-07,1.0443651265145501e-05
1.4148087656154371e-06,1.3133399465758418e-06,4.145854683176863e-07,1.0375312247172993e-05
1.4050320780301849e-06,1.3223258592393907e-06,4.152846311254403e-07,1.0325985395600026e-05
1.3952849527996271e-06,1.3309365171003427e-06,4.160450177565464e-07,1.029619915673975e-05
1.3856015582623378e-06,1.3391551175215906e-06,4.1687527145136883e-07,1.0286143151524972e-05
1.3760081545922511e-06,1.3469841132690895e-06,4.1778746619068104e-07,1.0295657915248823e-05
1.3665199423355242e-06,1.3544500533621037e-06,4.187972811255849e-07,1.0324258116408169e-05
1.3571387634335214e-06,1.3615985162104688e-06,4.1991999588838896e-07,1.0371185409389655e-05
1.347854070837961e-06,1.3684812362457169e-06,4.2116596396975174e-07,1.0435471637841618e-05
1.3386476534324122e-06,1.3751435242444729e-06,4.225385545329917e-07,1.0515996739958098e-05
1.3295014422492942e-06,1.3816199397783272e-06,4.240349179139398e-07,1.0611535720337309e-05
1.320404134859955e-06,1.3879413439777581e-06,4.256483285903085e-07,1.0720797284457766e-05
1.3113528643830496e-06,1.394143767635635e-06,4.27370352795057e-07,1.0842468301545695e-05
1.302352404664257e-06,1.4002662546210786e-06,4.291928747583575e-07,1.0975262705818397e-05
1.2934161584377845e-06,1.4063402852055695e-06,4.311104158579326e-07,1.111794996756928e-05
1.284567854866358e-06,1.412381826241766e-06,4.331204063763378e-07,1.1269366284373454e-05
1.2758397422866795e-06,1.418389623144614e-06,4.3522050951698883e-07,1.1428426074492865e-05
1.2672668681910843e-06,1.4243502581874084e-06,4.374068859924435e-07,1.1594102054919036e-05
1.2588811778135008e-06,1.430251929716979e-06,4.3967680794083643e-07,1.1765351360257926e-05
1.2507075325351715e-06,1.4361020205273149e-06,4.420335541775598e-07,1.19410535090573e-05
1.2427627839660696e-06,1.4419383945310582e-06,4.444883021872354e-07,1.2120022731678853e-05
1.2350588480329638e-06,1.447830213131646e-06,4.4705676676521073e-07,1.2301078757728039e-05
1.2276070623566552e-06,1.4538703380224849e-06,4.497531638467946e-07,1.2483141225920985e-05
1.2204216831691398e-06,1.4601632494365684e-06,4.525856116472331e-07,1.2665297649686665e-05
1.2135224923145672e-06,1.4668126442751032e-06,4.555549891106342e-07,1.2846795330493935e-05
1.2069358488630345e-06,1.4739099780687803e-06,4.5865660569941646e-07,1.3026990444240387e-05
1.200695371498745e-06,1.4815244576695489e-06,4.6188404065411865e-07,1.3205315760826401e-05
1.194842263341631e-06,1.489699280210655e-06,4.6523449818233756e-07,1.3381265469592113e-05
1.1894210508378332e-06,1.498456749553407e-06,4.6871335641634636e-07,1.3554366390110243e-05
1.18447133941823e-06,1.5078084041663528e-06,4.723362009388704e-07,1.3724123733707255e-05
1.1800233151096015e-06,1.5177663746038236e-06,4.761279820820548e-07,1.388996673677941e-05
1.1760982302856153e-06,1.5283519349677074e-06,4.801177240596635e-07,1.4051238008268305e-05
1.172707181059447e-06,1.539595968700395e-06,4.843299789631958e-07,1.4207236365336545e-05
1.1698484229784305e-06,1.5515319873391975e-06,4.887794085530886e-07,1.4357295107711124e-05
1.16750975267171e-06,1.564187476184456e-06,4.934710169666358e-07,1.4500886875100845e-05
1.1656743758845563e-06,1.5775767071045622e-06,4.98402095939563e-07,1.4637732959474075e-05
1.1643221367469912e-06,1.5916943772467248e-06,5.035636218795586e-07,1.4767850028424521e-05
1.1634261092562638e-06,1.6065101471004512e-06,5.089421735710455e-07,1.4891477664926684e-05
1.1629535048671335e-06,1.621967305220642e-06,5.145226238470605e-07,1.5008920323820886e-05
1.16287491639071e-06,1.6379890194095272e-06,5.20290309637748e-07,1.5120401286556555e-05
1.1631749187528605e-06,1.654490148178057e-06,5.262312471489458e-07,1.5225993258305588e-05
1.1638538999701282e-06,1.671385530876121e-06,5.323301067649501e-07,1.5325610101629136e-05
1.164918924474195e-06,1.6885879031573769e-06,5.385674511487791e-07,1.541901884779229e-05
1.166371471113063e-06,1.7060019718568796e-06,5.449184097442436e-07,1.5505884704234695e-05
1.1682000851936056e-06,1.7235297592844849e-06,5.513539664176073e-07,1.5585901719322844e-05
1.170379054281095e-06,1.7410919810082585e-06,5.578448938619398e-07,1.5658997016156837e-05
1.1728718709045194e-06,1.7586513426834881e-06,5.643669082653207e-07,1.5725461637473507e-05
1.175638783218193e-06,1.776219002268292e-06,5.709032970447615e-07,1.5785875830082987e-05
1.1786428823178008e-06,1.793837264836536e-06,5.7744214234008e-07,1.5840903483388544e-05
1.1818478256387852e-06,1.8115498973855709e-06,5.839704049562919e-07,1.5891114687996375e-05
1.1852106377818373e-06,1.8293848132109862e-06,5.904710133331716e-07,1.5936922720763723e-05
1.1886789666431713e-06,1.8473618238835102e-06,5.969269123186737e-07,1.5978700980215803e-05
1.1921948361411279e-06,1.8655112466168525e-06,6.033276408329759e-07,1.601703674001967e-05
1.195699433616603e-06,1.883883204023423e-06,6.09670539187827e-07,1.605289131361642e-05
1.1991340148959351e-06,1.9025409668837291e-06,6.159563906176525e-07,1.6087533248479424e-05
1.2024379635499432e-06,1.921543441911664e-06,6.221844742887177e-07,1.6122364310515714e-05
1.2055480737511886e-06,1.9409275053694458e-06,6.283501886799013e-07,1.6158773910930153e-05
1.2083996852627055e-06,1.96070032550843e-06,6.344464656403562e-07,1.6198039143134446e-05
1.21092795625342e-06,1.9808421181713804e-06,6.404662689588304e-07,1.6241249922931145e-05
1.2130690033635406e-06,2.001309476090518e-06,6.464012457024255e-07,1.628925581709885e-05
1.2147613815273843e-06,2.0220349817477688e-06,6.522373347838648e-07,1.6342643875542747e-05
1.2159475271060587e-06,2.042929381644188e-06,6.579525084217342e-07,1.6401742849793794e-05
1.2165746261974355e-06,2.0638874057204047e-06,6.635184968678769e-07,1.6466631149440594e-05
1.216594856029186e-06,2.0847930315353216e-06,6.689047357506211e-07,1.6537134918862186e-05
1.2159656331938774e-06,2.1055287538439997e-06,6.74081189399701e-07,1.6612830732372493e-05
1.214650450966585e-06,2.1259938836162207e-06,6.790180233777529e-07,1.66930791208595e-05
1.21261907505335e-06,2.1461222530520318e-06,6.836849653099119e-07,1.6777087584683838e-05
1.2098474768634433e-06,2.1658861053077552e-06,6.880532172085156e-07,1.6863986723312498e-05
1.2063209610411837e-06,2.1852863709329733e-06,6.920978618535363e-07,1.6952916090691728e-05
1.2020400501843638e-06,2.2043375300808825e-06,6.957977613719468e-07,1.70430956613289e-05
1.1970225100613278e-06,2.2230508475809804e-06,6.99133480335541e-07,1.7133847713457593e-05
1.1912985270534298e-06,2.241418529008347e-06,7.020855554458546e-07,1.722458860110764e-05
1.184907919718421e-06,2.2594060129802874e-06,7.046337057914349e-07,1.7314825990126103e-05
1.177906271858878e-06,2.276957100571946e-06,7.067569926314902e-07,1.740414174678364e-05
1.1703703287569885e-06,2.294006687004256e-06,7.084353149384228e-07,1.7492138763886986e-05
1.1623918470040468e-06,2.3104889198532776e-06,7.096506168004203e-07,1.7578382118154488e-05
1.1540636330984422e-06,2.326335210474661e-06,7.103860125299494e-07,1.766236128249842e-05
1.1454686735525508e-06,2.341475240026545e-06,7.106245782193031e-07,1.774347498447957e-05
1.1366786949609886e-06,2.355856154836789e-06,7.103507450295079e-07,1.7821065408831147e-05
1.1277593524205857e-06,2.369471225264589e-06,7.095543830355667e-07,1.7894502323404428e-05
1.1187741440409047e-06,2.3823747889688357e-06,7.082345061860281e-07,1.7963240091847974e-05
1.109782988879841e-06,2.3946710884666053e-06,7.063995278967409e-07,1.802681110765386e-05
1.1008393106739263e-06,2.406482845851237e-06,7.040648703953819e-07,1.8084807935228185e-05
1.091990376817964e-06,2.4179195166668634e-06,7.012506834559907e-07,1.813688927979023e-05
1.0832780293116358e-06,2.4290643492986963e-06,6.979805406932779e-07,1.81827839461549e-05
1.0747354380782869e-06,2.4399790917465422e-06,6.942822416167401e-07,1.822227046682811e-05
1.0663830173725255e-06,2.4507113148025737e-06,6.901900183612713e-07,1.825516256348096e-05
1.0582288127956854e-06,2.4612979606729527e-06,6.857425211236175e-07,1.828131219194926e-05
1.0502743846350843e-06,2.471768985175604e-06,6.809760410388229e-07,1.830059944678666e-05
1.0425232695871755e-06,2.482152929719493e-06,6.759200549785736e-07,1.831291587232129e-05
1.0349850998093242e-06,2.4924801188004342e-06,6.705976107030425e-07,1.8318161032426546e-05
1.027670660027232e-06,2.502778324021815e-06,6.650271813955861e-07,1.8316241493612653e-05
1.0205834266479442e-06,2.5130608559943647e-06,6.59224292612996e-07,1.8307053526417652e-05
1.0137158637866717e-06,2.523313351815125e-06,6.532035380934568e-07,1.829044904882442e-05
1.0070505461685272e-06,2.5334873219891892e-06,6.469811272308362e-07,1.8266232430286427e-05
1.000562190737434e-06,2.543502611868061e-06,6.405766364876322e-07,1.823422491280761e-05
9.942204105931398e-07,2.553255572104887e-06,6.340126132525858e-07,1.8194341006791105e-05
9.879951349973502e-07,2.562630636316113e-06,6.273130313563932e-07,1.8146603852533025e-05
9.818653049495055e-07,2.571513452029208e-06,6.205017727739675e-07,1.8091101797221535e-05
9.758287108285416e-07,2.5798025828918136e-06,6.136006273954098e-07,1.8027932463695635e-05
9.6990566267039e-07,2.587415804507387e-06,6.066278000184652e-07,1.795719355859331e-05
9.641312932543122e-07,2.5942874465834256e-06,5.995985799900375e-07,1.787903491431215e-05
9.585459875316202e-07,2.600360020032494e-06,5.925269813916172e-07,1.779367909106415e-05
9.531965755906854e-07,2.605578387235523e-06,5.854260311067947e-07,1.7701365844342575e-05
9.481456229176876e-07,2.6098891900950114e-06,5.783067573824319e-07,1.7602298268375058e-05
9.434794432682819e-07,2.613242306860879e-06,5.711776145745982e-07,1.7496623859770772e-05
9.393098133405369e-07,2.6155907142259545e-06,5.640448508160242e-07,1.7384426373535072e-05
9.357663251929119e-07,2.6168866829682214e-06,5.569136708051276e-07,1.7265720868925545e-05
9.329794759833996e-07,2.6170769646102607e-06,5.497903727104021e-07,1.714045386512258e-05
9.310615015232755e-07,2.616104188268405e-06,5.42685004872795e-07,1.7008514703190764e-05
9.300956718026484e-07,2.613918793641967e-06,5.356132929286364e-07,1.6869750271915674e-05
9.301385955689976e-07,2.610498980792295e-06,5.285961580309465e-07,1.6723972280065428e-05
9.312299498244482e-07,2.6058711963581285e-06,5.216573821693149e-07,1.6570967653367403e-05
9.334022421048469e-07,2.6001199987927773e-06,5.148224383505254e-07,1.641052003077148e-05
9.366862782260092e-07,2.5933776402652698e-06,5.081181745156907e-07,1.6242434767099897e-05
9.411088646293651e-07,2.5857964322636768e-06,5.015704154352041e-07,1.6066561151721713e-05
9.466835307805091e-07,2.5775240751947567e-06,4.952004679821207e-07,1.5882817832009235e-05
9.534016754697537e-07,2.56870220064273e-06,4.890238574004393e-07,1.569122765673218e-05
9.612311987952014e-07,2.559481577575646e-06,4.830516155548621e-07,1.5491936759453283e-05
9.7012393209106e-07,2.550027089243147e-06,4.772915625919171e-07,1.5285181587230458e-05
9.800285290724831e-07,2.540502905730024e-06,4.7174839491398743e-07,1.5071222952013327e-05
9.90900476289348e-07,2.531054211335696e-06,4.664244630203002e-07,1.4850304625575631e-05
1.0026996846690045e-06,2.52180041161766e-06,4.613219603382043e-07,1.4622654032096195e-05
1.0153791243165853e-06,2.5128373215777e-06,4.5644497766618435e-07,1.4388497065803626e-05
1.0288791786890612e-06,2.5042382170423247e-06,4.518016095141369e-07,1.414806515159029e-05
1.0431320996272032e-06,2.496049984819492e-06,4.474067866052637e-07,1.3901605981996146e-05
1.0580668700066996e-06,2.4882886055640333e-06,4.4328337687536906e-07,1.3649422678503146e-05
1.0736070541735405e-06,2.4809390165913267e-06,4.394588487156375e-07,1.339193541818833e-05
1.0896647565402998e-06,2.4739616757773534e-06,4.3596034758272953e-07,1.312972631947085e-05
1.1061384652146663e-06,2.467305568792821e-06,4.328140051970395e-07,1.2863540876769354e-05
1.1229199255496346e-06,2.4609218055979805e-06,4.300477784229397e-07,1.2594258569271382e-05
1.1399081925327369e-06,2.4547686452859925e-06,4.2769196099393075e-07,1.2322858552415151e-05
1.157021661674692e-06,2.4488068631295547e-06,4.257764602798624e-07,1.2050383828588338e-05
1.1742006181778308e-06,2.4429991234294453e-06,4.24328520888781e-07,1.1777895529158485e-05
1.1914010496015872e-06,2.4373259870829905e-06,4.2337134184225775e-07,1.1506417776788199e-05
1.208584757262831e-06,2.4318074828737064e-06,4.2292156002546184e-07,1.1236887059796913e-05
1.2257130460832528e-06,2.426509434030896e-06,4.2298710925394884e-07,1.0970129718375459e-05
1.2427489703116077e-06,2.42153102183583e-06,4.235675700781387e-07,1.070686394539568e-05
1.2596645448317994e-06,2.4169815128863054e-06,4.246551631381783e-07,1.0447707969072144e-05
1.276447027995083e-06,2.4129547780166053e-06,4.262348180130697e-07,1.0193224725551233e-05
1.293101837961453e-06,2.409513035954419e-06,4.28284580234609e-07,9.94403523768914e-06
1.3096502951043849e-06,2.4066866087104187e-06,4.3077669992299273e-07,9.700935304607286e-06
1.3261212884075715e-06,2.4044838484625184e-06,4.336779027165944e-07,9.46490702110485e-06
1.342539297353286e-06,2.4028988453067283e-06,4.369490020565336e-07,9.23702187794238e-06
1.3589151308958289e-06,2.4019102189827995e-06,4.405457130205677e-07,9.018320353205266e-06
1.37524602796867e-06,2.4014783405942283e-06,4.4442118900357763e-07,8.809719978498773e-06
1.391523208425682e-06,2.4015516163557723e-06,4.485296389806469e-07,8.61198553330732e-06
1.4077375171458569e-06,2.402078576818777e-06,4.528295491845755e-07,8.425795380412705e-06
1.423879677624393e-06,2.403015532832501e-06,4.572841471111646e-07,8.251841937694992e-06
1.4399385451177602e-06,2.404324543505907e-06,4.6185947714445077e-07,8.090841456100279e-06
1.455898404754564e-06,2.4059630193367453e-06,4.665238087586627e-07,7.943439527393336e-06
1.4717360046264029e-06,2.407877047028439e-06,4.712491298013747e-07,7.810105860148087e-06
1.4874192627149538e-06,2.4100105917051124e-06,4.760111411488432e-07,7.691081987082816e-06
1.5029065243051544e-06,2.412323523866144e-06,4.807875329709401e-07,7.5863868921298e-06
1.5181479030086373e-06,2.4147990793789933e-06,4.855587239915821e-07,7.495854270112798e-06
1.5330922781873492e-06,2.4174321238443827e-06,4.903110190515149e-07,7.419180121412587e-06
1.5476955108075943e-06,2.42021012886733e-06,4.950377768421813e-07,7.356015696772179e-06
1.56192338378192e-06,2.4231043280157533e-06,4.997385180996874e-07,7.306139202283853e-06
1.575748406692886e-06,2.4260749260025587e-06,5.044192564030825e-07,7.269596328110658e-06
1.5891424412666994e-06,2.4290822974758117e-06,5.090926494484215e-07,7.246649344922528e-06
1.6020695697150776e-06,2.43209652960138e-06,5.13774391279752e-07,7.2375810589929704e-06
1.6144838399985056e-06,2.435104089228964e-06,5.184777125909204e-07,7.242527077357999e-06
1.6263315521075125e-06,2.4381112830503976e-06,5.23210871279495e-07,7.261418899518512e-06
1.6375547061884814e-06,2.441138667532158e-06,5.279789096022117e-07,7.294083610113936e-06
1.6480945843654498e-06,2.444203775204734e-06,5.327876075813595e-07,7.340497307263922e-06
1.6578963989438896e-06,2.4473034652190398e-06,5.376473791392308e-07,7.400998318220326e-06
1.6669141407250063e-06,2.4504121800489047e-06,5.425740366973529e-07,7.476263776363292e-06
1.6751129876018532e-06,2.4534985488991057e-06,5.475839249952229e-07,7.567118190393324e-06
1.6824673052758709e-06,2.4565469997878648e-06,5.526868499135317e-07,7.67435430672642e-06
1.6889542575778376e-06,2.4595712857954965e-06,5.578830207134652e-07,7.798628639096444e-06
1.6945464757783013e-06,2.4626153671862e-06,5.631653642062903e-07,7.940396082464909e-06
1.6992085354783743e-06,2.4657416838370516e-06,5.685243801016513e-07,8.099842079944726e-06
1.7028980494863147e-06,2.469012728988805e-06,5.73951501143819e-07,8.276821715830308e-06
1.7055685702151237e-06,2.472477391505963e-06,5.794379679166696e-07,8.470838212950911e-06
1.7071719284784228e-06,2.4761694512578092e-06,5.849706483937976e-07,8.681061490600149e-06
1.7076603567874945e-06,2.480117114045282e-06,5.90529150013713e-07,8.906372824548156e-06
1.706988990891579e-06,2.484353966144603e-06,5.960863946861487e-07,9.145427182561329e-06
1.705116757752351e-06,2.488917718904144e-06,6.016122982121392e-07,9.396721572271719e-06
1.7020050633644086e-06,2.4938353649506332e-06,6.070794460068613e-07,9.658656392951136e-06
1.6976166574651482e-06,2.499109824073888e-06,6.124673335808039e-07,9.929587561271463e-06
1.6919165729279013e-06,2.5047193609660164e-06,6.177616840901922e-07,1.0207880294830037e-05
1.6848758824007219e-06,2.5106259456576683e-06,6.229501965962787e-07,1.0491967326830753e-05
1.6764769024086138e-06,2.5167876236589284e-06,6.280187635363465e-07,1.0780393269893796e-05
1.6667155316656038e-06,2.5231771360289557e-06,6.329506782622121e-07,1.1071834828088311e-05
1.655598407168914e-06,2.529802839863184e-06,6.37728992243542e-07,1.1365105617386816e-05
1.6431386433565226e-06,2.53671768883822e-06,6.423397938992737e-07,1.1659141177711113e-05
1.6293538744577938e-06,2.5440093320331013e-06,6.467731206924614e-07,1.1952952369319146e-05
1.6142651816185678e-06,2.55177888093352e-06,6.51020555421503e-07,1.2245560344737304e-05
1.597896753238924e-06,2.560117671870531e-06,6.550716646605222e-07,1.2535940855844193e-05
1.5802796784885886e-06,2.5690867604746653e-06,6.589115614724122e-07,1.2822997278531344e-05
1.5614577755808251e-06,2.578705036792141e-06,6.625208103007419e-07,1.3105573522299385e-05
1.5414876721583375e-06,2.5889527638402766e-06,6.658780555761914e-07,1.3382497269366734e-05
1.5204329575673678e-06,2.599789894099108e-06,6.689639311408312e-07,1.365260724887168e-05
1.4983605506156138e-06,2.611180869328478e-06,6.717639373345987e-07,1.3914743843173926e-05
1.4753420531972327e-06,2.6231174526702086e-06,6.742702677283267e-07,1.4167749140634707e-05
1.4514560445651453e-06,2.635632178155796e-06,6.764834243488748e-07,1.4410500641230865e-05
1.4267884702148206e-06,2.6487956272359587e-06,6.784111988955892e-07,1.464194683800626e-05
1.4014298906004698e-06,2.6626957520874703e-06,6.800640469038202e-07,1.4861115846393429e-05
1.3754696069187452e-06,2.6774065862647515e-06,6.814518209040506e-07,1.5067090494352471e-05
1.3489907059276694e-06,2.69296283481758e-06,6.825839117546907e-07,1.525897037184234e-05
1.3220713995168774e-06,2.7093554713716715e-06,6.834685788874806e-07,1.543585258501504e-05
1.2947945982146834e-06,2.726546067478699e-06,6.841113170923587e-07,1.5596836389003697e-05
1.2672629203331756e-06,2.744481713566418e-06,6.845163960756879e-07,1.5741052141082603e-05
1.2396103343263118e-06,2.763097898592931e-06,6.846905779929204e-07,1.5867737976114594e-05
1.2119993980324273e-06,2.782313651903544e-06,6.846440034717089e-07,1.597634101699732e-05
1.1846030005567458e-06,2.802028234373733e-06,6.843866904326808e-07,1.6066549085846627e-05
1.1575843084158224e-06,2.8221212036984502e-06,6.839244149296463e-07,1.6138226524215313e-05
1.1310899550756756e-06,2.842455389205035e-06,6.832580983731455e-07,1.619134732850961e-05
1.1052551070219525e-06,2.86288771421048e-06,6.823870076059463e-07,1.622599376452724e-05
1.0802074746245772e-06,2.883289979484224e-06,6.813140716879045e-07,1.6242389757614612e-05
1.0560667682386866e-06,2.903570113044298e-06,6.800494676537461e-07,1.624091609700066e-05
1.032945484074794e-06,2.9236801155131224e-06,6.786080321916274e-07,1.6222084307879452e-05
1.010951871803239e-06,2.9436050693695018e-06,6.770031213237226e-07,1.618649843295079e-05
9.901899150644713e-07,2.963339891909571e-06,6.752435127470297e-07,1.6134893960685488e-05
9.707527669581544e-07,2.9828670270588537e-06,6.733344921901599e-07,1.60682572390354e-05
9.527137086547408e-07,3.002149506870759e-06,6.712802799038761e-07,1.5987859792456454e-05
9.36123331172996e-07,3.021149429116713e-06,6.69085069533011e-07,1.589512083925116e-05
9.210149037867805e-07,3.039864499000947e-06,6.667522845974068e-07,1.579142786316306e-05
9.074116913116962e-07,3.058357493025103e-06,6.642847176368602e-07,1.5678048387241362e-05
8.95332416133344e-07,3.0767573696734324e-06,6.616856462935524e-07,1.5556175376085126e-05
8.847934926768799e-07,3.0952335412075964e-06,6.589582248776511e-07,1.5427110226915553e-05
8.758049753030627e-07,3.1139617943774797e-06,6.561038994129068e-07,1.52924643975658e-05
8.683660087249865e-07,3.1330956140116205e-06,6.531220274373675e-07,1.5154190250745334e-05
8.624718545584002e-07,3.152745112272598e-06,6.500106881942338e-07,1.5014429453439545e-05
8.581292021161472e-07,3.1729672017372904e-06,6.467678833858677e-07,1.4875323498524485e-05
8.553621013383582e-07,3.1937729294155914e-06,6.4339305248936e-07,1.4738870735139045e-05
8.542006670938418e-07,3.21514398782038e-06,6.398898232926657e-07,1.4606827606301175e-05
8.546632330799813e-07,3.2370401279370675e-06,6.36268477806344e-07,1.4480641123369988e-05
8.567450715408592e-07,3.259392105927885e-06,6.325450202426195e-07,1.4361411003152951e-05
8.604155587709312e-07,3.2820920916457014e-06,6.287382788091971e-07,1.4249885392987458e-05
8.65619336583687e-07,3.3049946821895483e-06,6.248676498962205e-07,1.4146489079670685e-05
8.722793100096893e-07,3.3279303938135984e-06,6.209510188321766e-07,1.4051383759286767e-05
8.803013550098623e-07,3.3507236678021287e-06,6.170030096826244e-07,1.396456292296518e-05
8.895789545245544e-07,3.373208303429003e-06,6.13034544791428e-07,1.3885954070782806e-05
8.999958935586338e-07,3.3952395098883586e-06,6.090534000016774e-07,1.3815475694615037e-05
9.114286731948538e-07,3.4167034426055763e-06,6.050652314200997e-07,1.3753042569900098e-05
9.237508589019463e-07,3.4375205490062266e-06,6.010748827150593e-07,1.3698569994115961e-05
9.368381299072895e-07,3.4576347039552185e-06,5.97087540343614e-07,1.3652003996555471e-05
9.505704474130728e-07,3.476989363626738e-06,5.931092402903859e-07,1.3613342500206475e-05
9.648301609719826e-07,3.4955098272928184e-06,5.891463908265743e-07,1.3582613005276075e-05
9.79500262769978e-07,3.5131068234711648e-06,5.852044900640355e-07,1.3559831615929105e-05
9.944656204230142e-07,3.529694151691336e-06,5.812870433467182e-07,1.3544983185254261e-05
1.009613760677099e-06,3.5452035996242874e-06,5.773955844160915e-07,1.3538021570211161e-05
1.0248325877898452e-06,3.559586305048391e-06,5.735306468397561e-07,1.3538871598960796e-05
1.0400075109708058e-06,3.572800228196161e-06,5.696928501695685e-07,1.354741889319252e-05
1.0550209959069886e-06,3.5847923961274767e-06,5.658838068951956e-07,1.356347907046422e-05
1.0697543316493642e-06,3.5954867991143683e-06,5.621070615671887e-07,1.3586776603207034e-05
1.084090087982836e-06,3.604783745728875e-06,5.583689970272407e-07,1.3616984243285372e-05
1.0979155561397822e-06,3.6125682929554986e-06,5.546800131906879e-07,1.3653796498569505e-05
1.1111273952159631e-06,3.618720530910201e-06,5.510557425825389e-07,1.3696961893822173e-05
1.1236353836431685e-06,3.6231211771478654e-06,5.475163419096125e-07,1.3746273652381009e-05
1.1353670646279137e-06,3.6256520339162735e-06,5.440835078033429e-07,1.3801560544741987e-05
1.146279617108931e-06,3.6261959849779816e-06,5.407780207223307e-07,1.3862676381247052e-05
1.1563737326277466e-06,3.624638971891485e-06,5.376188895217247e-07,1.3929466674847686e-05
1.1656947289138673e-06,3.620876909520627e-06,5.34622609606809e-07,1.4001729756818713e-05
1.1743199635399151e-06,3.6148316686573477e-06,5.318023171053458e-07,1.4079211105198115e-05
1.182342796093153e-06,3.6064664447812066e-06,5.291667271924015e-07,1.4161616447805066e-05
1.1898587182263916e-06,3.5957822625250124e-06,5.26718655581741e-07,1.4248607577505176e-05
1.1969571743085678e-06,3.5827983920424117e-06,5.244545453564842e-07,1.4339780819993482e-05
1.2037212295310626e-06,3.5675400432271177e-06,5.223662918363278e-07,1.4434631282316024e-05
1.210230195968118e-06,3.5500419927245424e-06,5.204448699168517e-07,1.4532515690918154e-05
1.216559188490163e-06,3.530352826199185e-06,5.186832396958133e-07,1.4632648484117126e-05
1.2227764046839303e-06,3.5085295938458603e-06,5.170775269688786e-07,1.4734147071576007e-05
1.22894148599634e-06,3.4846302029541167e-06,5.156280186340273e-07,1.4836112762242935e-05
1.2351048898734969e-06,3.4587105939239785e-06,5.143392129717098e-07,1.4937715749725659e-05
1.2413076628631555e-06,3.4308234873106155e-06,5.1321778364095e-07,1.5038244019505271e-05
1.2475854253151114e-06,3.4010154766919623e-06,5.122698584185515e-07,1.5137086486194745e-05
1.2539808966660715e-06,3.3693253548677475e-06,5.114986955424292e-07,1.5233662206721735e-05
1.2605617172290883e-06,3.33578559135869e-06,5.109042716614082e-07,1.5327385742753678e-05
1.267431786914838e-06,3.3004261616561893e-06,5.104859477885817e-07,1.5417761018970424e-05
1.2747238202233455e-06,3.263279872633313e-06,5.10245208015895e-07,1.550451148024601e-05
1.2825743884074928e-06,3.2243855408952635e-06,5.101850684735709e-07,1.558755266094922e-05
1.2910983372316523e-06,3.1837856580788132e-06,5.103071656908864e-07,1.5666826532780253e-05
1.3003767619801124e-06,3.141523425800747e-06,5.106093549834657e-07,1.574217013290815e-05
1.310459009126197e-06,3.0976467016426927e-06,5.1108498384211e-07,1.5813272214751482e-05
1.3213719874481815e-06,3.0522170038154608e-06,5.117232986839213e-07,1.5879683949648827e-05
1.3331296265628963e-06,3.0053159310222136e-06,5.12510685973475e-07,1.5940856957109397e-05
1.3457389029983897e-06,2.957046624521729e-06,5.134326929389172e-07,1.5996177874508522e-05
1.3592035474645212e-06,2.9075327290056007e-06,5.144755650259539e-07,1.6045003634805252e-05
1.3735261218179791e-06,2.8569167784366347e-06,5.156270599013198e-07,1.6086738305002893e-05
1.388707530980861e-06,2.805359425863207e-06,5.168768287411879e-07,1.6120928979989534e-05
1.4047455963537338e-06,2.753038741362863e-06,5.182147173740307e-07,1.6147287631369612e-05
1.4216360804419088e-06,2.700144636279519e-06,5.196280773912376e-07,1.6165615797776434e-05
1.439376896435071e-06,2.646867934424401e-06,5.211022463330372e-07,1.6175719127556945e-05
1.4579694200330464e-06,2.5933911524242404e-06,5.226232468351372e-07,1.617737677735441e-05
1.477410142729477e-06,2.5398849594154144e-06,5.241776262727384e-07,1.6170355422348033e-05
1.497681009897554e-06,2.4865101179258337e-06,5.257497850802965e-07,1.615445792918491e-05
1.5187529379450546e-06,2.43342491657633e-06,5.273217544979874e-07,1.612958511108631e-05
1.5405973830726117e-06,2.380796376037264e-06,5.288760152568992e-07,1.609575067842826e-05
1.563188752953968e-06,2.3288093949427363e-06,5.303972174593942e-07,1.605303599631778e-05
1.586493982492234e-06,2.277664440899101e-06,5.318705202390327e-07,1.6001527700523705e-05
1.6104593168314654e-06,2.227561898514792e-06,5.332787264496401e-07,1.5941271613465008e-05
1.635004075992649e-06,2.178683327239267e-06,5.346015985353489e-07,1.5872256289403667e-05
1.6600251560325252e-06,2.131179085419193e-06,5.358176335701733e-07,1.5794423965815002e-05
1.6854103138556102e-06,2.0851652739792117e-06,5.369058163130042e-07,1.57077151222492e-05
1.7110531754212357e-06,2.0407279568220954e-06,5.378459807562047e-07,1.5612197734704508e-05
1.7368599172503338e-06,1.9979286576153013e-06,5.386189105703134e-07,1.5508284346928352e-05
1.762743103127364e-06,1.9568079693356275e-06,5.392082982836986e-07,1.5396873722040203e-05
1.7886108119558066e-06,1.917388050227871e-06,5.396050222204844e-07,1.527926806276207e-05
1.8143635367845725e-06,1.8796731300428047e-06,5.398115595519207e-07,1.515694659100811e-05
1.8399010089139462e-06,1.8436485370097333e-06,5.398443772390213e-07,1.503135645020924e-05
1.8651320659026471e-06,1.8092841765159885e-06,5.397329108116178e-07,1.4903836079565076e-05
1.8899825389541554e-06,1.7765455570016564e-06,5.395146056258968e-07,1.4775777985190872e-05
1.9143980180058187e-06,1.745404935115353e-06,5.392289464422446e-07,1.4648936719839444e-05
1.9383388048757227e-06,1.7158427860401012e-06,5.389136882059964e-07,1.4525538983619354e-05
1.961769224575133e-06,1.6878396285566878e-06,5.3860209868951e-07,1.4408060523906733e-05
1.984646257302997e-06,1.6613677931683159e-06,5.383200661397957e-07,1.429890524306674e-05
2e-07,1.6363917204554182e-06,5.380855201017712e-07,1.4200183487143995e-05
2e-07,1.6128749554371445e-06,5.379109928117998e-07,1.4113585579349552e-05
2e-07,1.5907849197449611e-06,5.378062248932185e-07,1.4040324081533207e-05
2e-07,1.570090447674088e-06,5.377784691342979e-07,1.3981138455498313e-05
2e-07,1.5507540334043825e-06,5.378312145962357e-07,1.3936336508214651e-05
2e-07,1.5327241338189785e-06,5.379636316201304e-07,1.3905848084887214e-05
2e-07,1.5159323484539989e-06,5.381721964948935e-07,1.3889286710162366e-05
2e-07,1.5002964644834563e-06,5.384538748976078e-07,1.3886019835078498e-05
2e-07,1.485726362437287e-06,5.388095719975275e-07,1.3895231916879047e-05
2e-07,1.4721285515404326e-06,5.392460805683293e-07,1.3915972374257122e-05
2e-07,1.4594078674458455e-06,5.397750915815621e-07,1.3947211251135488e-05
2e-07,1.4474694637142618e-06,5.4041060427065e-07,1.3987901124121267e-05
2e-07,1.4362244160645168e-06,5.411667810395921e-07,1.4036996856519888e-05
2e-07,1.425598759082368e-06,5.42056021924636e-07,1.4093427542517728e-05
2e-07,1.4155450323413131e-06,5.430868905487262e-07,1.4156083807083819e-05
2e-07,1.4060543890994489e-06,5.442639868153735e-07,1.4223836762211743e-05
2e-07,1.397164657629851e-06,5.455914640956783e-07,1.429553731908029e-05
2e-07,1.3889610278237518e-06,5.470777857303118e-07,1.4369997834950684e-05
2e-07,1.3815671609530772e-06,5.487379128234629e-07,1.4445994533956226e-05
2e-07,1.375124430484117e-06,5.505911686713447e-07,1.4522275797156852e-05
2e-07,1.36976509482416e-06,5.526553539517464e-07,1.4597570243729074e-05
2e-07,1.365595293518345e-06,5.549405864527728e-07,1.4670638214650463e-05
2e-07,1.362695864294381e-06,5.574467730271005e-07,1.4740367568225781e-05
2e-07,1.3611305337123173e-06,5.601652378691646e-07,1.4805827944404443e-05
2e-07,1.3609496145091023e-06,5.630819774065408e-07,1.486622318769529e-05
2e-07,1.362189497984264e-06,5.66179795237305e-07,1.4920802153214926e-05
2e-07,1.3648744909125626e-06,5.694389337266984e-07,1.4968805944687454e-05
2e-07,1.3690276103870544e-06,5.728372628254554e-07,1.5009452694153613e-05
2e-07,1.3746904855495286e-06,5.763502459319055e-07,1.5041947243082412e-05
2e-07,1.3819390921874704e-06,5.799503357046341e-07,1.5065524226861795e-05
2e-07,1.390881876527105e-06,5.836059427163746e-07,1.507950634820442e-05
2e-07,1.4016424552411814e-06,5.872810424274365e-07,1.5083331851543259e-05
2e-07,1.414335737653167e-06,5.909365300786019e-07,1.5076546670740035e-05
2e-07,1.4290447666764172e-06,5.945334063180822e-07,1.5058812858930076e-05
2e-07,1.4458063679711937e-06,5.980360837674561e-07,1.5029977454082015e-05
2e-07,1.464610465475586e-06,6.014131160751445e-07,1.4990187843180286e-05
2e-07,1.4854103836133815e-06,6.046354331587836e-07,1.4939966318619354e-05
2e-07,1.5081366790335956e-06,6.076747646601653e-07,1.4880156200500301e-05
2e-07,1.5327085435463751e-06,6.105039979488691e-07,1.4811758118382278e-05
2e-07,1.559041075729778e-06,6.131005786095716e-07,1.4735754455687955e-05
2e-07,1.5870475109374522e-06,6.154515720873116e-07,1.4652999283850467e-05
1.980413916546304e-06,1.61663540074986e-06,6.175544119602471e-07,1.4564182959405123e-05
1.9570068296702785e-06,1.6476991622621474e-06,6.194115346181603e-07,1.446983472363168e-05
1.9328202227697393e-06,1.6801138256939509e-06,6.210252120760126e-07,1.4370345297899744e-05
1.907910215480304e-06,1.7137365817751375e-06,6.223963701675729e-07,1.4266056481596032e-05
1.8823299973074105e-06,1.7484209831901992e-06,6.235257716314429e-07,1.4157463855443378e-05
1.856133804345512e-06,1.7840350973158062e-06,6.244157136187282e-07,1.4045406954020365e-05
1.8293798929465518e-06,1.820467814958319e-06,6.250706556344584e-07,1.393103364392588e-05
1.802131865414376e-06,1.857619368447611e-06,6.254973250240029e-07,1.3815565361593838e-05
1.774460836378685e-06,1.895386872583154e-06,6.257065785287396e-07,1.370009244801027e-05
1.746447681300764e-06,1.9336608275396838e-06,6.257152708140729e-07,1.3585549733106904e-05
1.7181820237413705e-06,1.9723336045437736e-06,6.255446702634148e-07,1.3472904110783356e-05
1.6897564745150278e-06,2.0113019354595938e-06,6.252164865782016e-07,1.3363463376651732e-05
1.66126029010524e-06,2.0504563937073015e-06,6.247498323490147e-07,1.3259070908618933e-05
1.6327797490001732e-06,2.0896741624979776e-06,6.241607907263954e-07,1.3162031736115425e-05
1.6044067535903998e-06,2.1288287358632625e-06,6.234633309502925e-07,1.3074876168257725e-05
1.5762497910156954e-06,2.167808021946258e-06,6.226691416108225e-07,1.3000149673232864e-05
1.548438293381533e-06,2.206520267844384e-06,6.217868479676506e-07,1.294028851916218e-05
1.5211134113961632e-06,2.244880848858765e-06,6.208220087630663e-07,1.2897534953105119e-05
1.494409542970898e-06,2.2827995832148718e-06,6.197766994832424e-07,1.287385521940465e-05
1.4684414213409297e-06,2.3201894540725813e-06,6.186481913722522e-07,1.287086791076279e-05
1.4433040780425325e-06,2.356985438819941e-06,6.174287554140414e-07,1.288979595226788e-05
1.4190795773431991e-06,2.3931460463418116e-06,6.161073901285201e-07,1.293143819318668e-05
1.3958443319215755e-06,2.428634900371658e-06,6.146720787707901e-07,1.2996145807718862e-05
1.3736747959339985e-06,2.4634055488451447e-06,6.13110774875269e-07,1.3083807737267827e-05
1.3526501320161092e-06,2.497402687080093e-06,6.114112423461916e-07,1.3193881550767005e-05
1.3328516499482708e-06,2.5305678061217536e-06,6.095626575197814e-07,1.3325485112012096e-05
1.314358136757748e-06,2.5628386386102364e-06,6.07558966793342e-07,1.3477513051407492e-05
1.297240332895887e-06,2.5941480739157782e-06,6.053996230222207e-07,1.3648740312284446e-05
1.2815622851145166e-06,2.624426304041535e-06,6.030869590388654e-07,1.3837902572836707e-05
1.2673873214156372e-06,2.6536007651247303e-06,6.006240842199331e-07,1.4043751139548224e-05
1.2547780547360295e-06,2.6815915424259503e-06,5.980148373430296e-07,1.4265086620100815e-05
1.2437875172197241e-06,2.7083083062789163e-06,5.952648839303195e-07,1.4500778379378574e-05
1.2344476323337034e-06,2.7336540720836843e-06,5.923838927925343e-07,1.4749757082226748e-05
1.2267628585633944e-06,2.7575307716194345e-06,5.893874976958475e-07,1.5010969479840876e-05
1.2207128166737371e-06,2.779839399443408e-06,5.862963609128589e-07,1.5283321048646485e-05
1.2162610855763012e-06,2.800480150246905e-06,5.831326494287772e-07,1.5565632790276874e-05
1.2133660012176563e-06,2.8193616748955965e-06,5.799174847249597e-07,1.5856604837404752e-05
1.211990197062499e-06,2.8364147998318275e-06,5.766716125117666e-07,1.6154790583432133e-05
1.2121022718610442e-06,2.851599591854035e-06,5.734178895850882e-07,1.6458598233322086e-05
1.213667680079426e-06,2.8649009536098517e-06,5.70182230761757e-07,1.676629899439359e-05
1.216636525168203e-06,2.87631533958392e-06,5.669921877630406e-07,1.7076024010314137e-05
1.2209369131426183e-06,2.8858388723817962e-06,5.638762715973393e-07,1.7385774638655776e-05
1.22647527037538e-06,2.893468573807926e-06,5.608644579936457e-07,1.7693465291506514e-05
1.2331412078614128e-06,2.8992160087504434e-06,5.579863101576054e-07,1.799698603938197e-05
1.240815578606621e-06,2.903119583139888e-06,5.552665585599369e-07,1.8294266485043438e-05
1.2493798571528638e-06,2.9052452094214617e-06,5.527219586530164e-07,1.858336183469335e-05
1.2587229683303551e-06,2.9056784029734143e-06,5.503614882495184e-07,1.8862572242990288e-05
1.2687447248444963e-06,2.9045167064460087e-06,5.481879897721103e-07,1.9130517238186328e-05
1.2793581071445878e-06,2.9018664758718126e-06,5.461986407482782e-07,1.9386104349216825e-05
1.290489214337446e-06,2.897840838891675e-06,5.44384568147014e-07,1.962844395905742e-05
1.3020721480250923e-06,2.8925538072936658e-06,5.427318917070407e-07,1.9856785927397917e-05
1.314040785174219e-06,2.8861095525020903e-06,5.412253139819708e-07,2.007048774528312e-05
1.326322095854248e-06,2.8785913399734317e-06,5.39852375445494e-07,2.0268972309597585e-05
1.3388334551798578e-06,2.8700564309318307e-06,5.386054435270303e-07,2.045167181130584e-05
1.3514849829632182e-06,2.8605371368065486e-06,5.374810921318759e-07,2.06180194726398e-05
1.3641885120740506e-06,2.8500433144229803e-06,5.364779378782065e-07,2.076749998073442e-05
1.3768708176974813e-06,2.838566283441045e-06,5.355936884360749e-07,2.0899686159635134e-05
1.3894819923166494e-06,2.826085368236332e-06,5.348231012336298e-07,2.101423062776524e-05
1.4019913886401377e-06,2.8125741063773463e-06,5.341580505909452e-07,2.1110838376440617e-05
1.4143746368327512e-06,2.79800817643075e-06,5.335883805651536e-07,2.118925903217452e-05
1.4266057323045194e-06,2.782382233455749e-06,5.331015925178358e-07,2.1249367162934014e-05
1.4386635425418544e-06,2.765732803807066e-06,5.326820654774122e-07,2.129129883168408e-05
1.4505444563556347e-06,2.748154080190754e-06,5.323117990691791e-07,2.1315508888742552e-05
1.462267335551834e-06,2.72979821637273e-06,5.319723842694821e-07,2.1322758424136112e-05
1.4738680310459015e-06,2.710860987661256e-06,5.316477860965276e-07,2.1314100667058026e-05
1.4853874350598827e-06,2.6915576469458454e-06,5.313278406191443e-07,2.129081729358516e-05
1.4968565755053068e-06,2.6720956280709547e-06,5.310093143609365e-07,2.1254301905380443e-05
1.508284692590792e-06,2.6526538895507844e-06,5.306925323567378e-07,2.1205970132185005e-05
1.519656002156349e-06,2.6333796450746044e-06,5.303772727611923e-07,2.1147212619907282e-05
1.5309337514341757e-06,2.6144015557898537e-06,5.300615999876699e-07,2.1079343089681783e-05
1.5420652136026709e-06,2.595844616991067e-06,5.297425826442322e-07,2.1003530231855413e-05
1.5529845264561522e-06,2.577838132789901e-06,5.294171575421507e-07,2.0920762685826918e-05
1.563615814805705e-06,2.5605202345028587e-06,5.290830812745676e-07,2.0831867425136007e-05
1.5738772965923897e-06,2.544040258176132e-06,5.287403948735813e-07,2.073752980975256e-05
1.5836847780219803e-06,2.528553788248684e-06,5.283940147298225e-07,2.063827484309724e-05
1.5929577470783471e-06,2.5142093785999013e-06,5.28056324926187e-07,2.0534433932010465e-05
1.6016311028847158e-06,2.501134685405201e-06,5.277474081181677e-07,2.0426136704489668e-05
1.6096688348988648e-06,2.489427204044849e-06,5.274919524201986e-07,2.031333720521563e-05
1.61707411021642e-06,2.47914897535362e-06,5.273142459206924e-07,2.0195868556875004e-05
1.6238906750738653e-06,2.470326558797777e-06,5.272348615697024e-07,2.007352421939697e-05
1.6301927715501428e-06,2.46295954297624e-06,5.272702137891414e-07,1.9946147877117027e-05
1.6360671458122136e-06,2.4570342298455798e-06,5.274320813228055e-07,1.981369437970286e-05
1.6415958929124211e-06,2.452530647502768e-06,5.277257501365062e-07,1.9676241590819086e-05
1.646850896875211e-06,2.449424330835533e-06,5.281487719336879e-07,1.9533963031468573e-05
1.6519010851769609e-06,2.4477038687963058e-06,5.286924118283278e-07,1.9387087208817386e-05
1.656821066045357e-06,2.4474055533545707e-06,5.293459029038788e-07,1.923586339123893e-05
1.6616951290790838e-06,2.448635437846309e-06,5.301005368533321e-07,1.9080529417865094e-05
1.6666175405103525e-06,2.4515611529827654e-06,5.309492890865013e-07,1.8921281798254904e-05
1.671686743530694e-06,2.4563846802463682e-06,5.318833059627193e-07,1.8758262418909477e-05
1.6769935977345738e-06,2.4633101885476143e-06,5.328911746710442e-07,1.859155085162736e-05
1.6826100864077957e-06,2.472511937800777e-06,5.339610631439486e-07,1.8421151489567396e-05
1.6885836849752775e-06,2.484107874744111e-06,5.350816851669452e-07,1.8247000429379487e-05
1.694936871050633e-06,2.498149229367689e-06,5.362423101181906e-07,1.8069008778353464e-05
1.7016686962320537e-06,2.514632981503296e-06,5.374331258128433e-07,1.7887136999222005e-05
1.7087572770603934e-06,2.533530063419133e-06,5.386444326821678e-07,1.7701468730234435e-05
1.716163547508524e-06,2.5548103605821962e-06,5.398644759547499e-07,1.7512210100271173e-05
1.7238342486015163e-06,2.5784483283665625e-06,5.410782999789998e-07,1.7319602757964466e-05
1.7317034704877196e-06,2.6044063900913547e-06,5.422686050320412e-07,1.7123838715363862e-05
1.7397006660240455e-06,2.6326088935060924e-06,5.434171460843743e-07,1.6925037854335323e-05
1.7477736339964627e-06,2.6629263896171874e-06,5.445053790555865e-07,1.6723295761796468e-05
1.755917943690097e-06,2.6951802953237998e-06,5.45514549567328e-07,1.651877331935034e-05
1.764188742990453e-06,2.729163692631016e-06,5.464261904054397e-07,1.6311744526455123e-05
1.7726831417825961e-06,2.764666193769717e-06,5.472241204848252e-07,1.6102554318082395e-05
1.7815073841772568e-06,2.801487368810177e-06,5.478967559116755e-07,1.589154393845176e-05
1.790748775691132e-06,2.839429634873524e-06,5.484364633081604e-07,1.5679029396433506e-05
1.8004628899292575e-06,2.878280948740653e-06,5.488362287898622e-07,1.5465362561032112e-05
1.8106773093585662e-06,2.9178099540691015e-06,5.490876642348993e-07,1.5251047313994772e-05
1.8214040990123974e-06,2.957779395046278e-06,5.491825432904157e-07,1.5036837775724536e-05
1.832650249705833e-06,2.9979599159254613e-06,5.491150687291238e-07,1.4823729331614889e-05
1.8444210535627148e-06,3.0381308561034938e-06,5.488810886031325e-07,1.4612829632805993e-05
1.8567195349463699e-06,3.0780713884570588e-06,5.484762096588468e-07,1.4405194765459925e-05
1.86954582387538e-06,3.117550780695112e-06,5.478961118791489e-07,1.4201718951365064e-05
1.882895266807428e-06,3.1563240997555056e-06,5.471377593218143e-07,1.4003095571458944e-05
1.8967536777000668e-06,3.1941329855890608e-06,5.462010785055653e-07,1.3809814410139692e-05
1.911089870679374e-06,3.2307075989179263e-06,5.450924395169547e-07,1.3622172969327567e-05
1.925849119971304e-06,3.2657695071038142e-06,5.438268042929225e-07,1.3440322103652605e-05
1.9409552076779202e-06,3.2990377409739263e-06,5.424246944577714e-07,1.3264386441527773e-05
1.956320938370668e-06,3.3302389456674938e-06,5.409062750571079e-07,1.3094616197428164e-05
1.971855081234795e-06,3.3591196782908632e-06,5.392871945865925e-07,1.293142459889834e-05
1.9874598395154133e-06,3.385454187443612e-06,5.375780364497535e-07,1.2775275752022818e-05
2e-07,3.409041702236096e-06,5.357867424515539e-07,1.2626546897659193e-05
2e-07,3.429699119986947e-06,5.33921340242996e-07,1.2485467225766926e-05
2e-07,3.447260792532911e-06,5.319901658324883e-07,1.2352197430073186e-05
2e-07,3.461585395447348e-06,5.299996953985573e-07,1.2227063856898461e-05
2e-07,3.4725602936046264e-06,5.279525760236931e-07,1.2110775301148586e-05
2e-07,3.480098649058384e-06,5.258480187495615e-07,1.2004420041116251e-05
2e-07,3.4841353367210136e-06,5.236838179184747e-07,1.1909291532903896e-05
2e-07,3.48463158972751e-06,5.214575620010749e-07,1.182671424577486e-05
2e-07,3.481585180780998e-06,5.191667362359686e-07,1.175792478213184e-05
2e-07,3.475032221077642e-06,5.168092652526196e-07,1.1703976238446325e-05
2e-07,3.4650402917878647e-06,5.143855837515524e-07,1.166564343150805e-05
2e-07,3.4517051053157617e-06,5.119019749370185e-07,1.1643348244400958e-05
2e-07,3.4351515509730862e-06,5.093718541532739e-07,1.1637141134036013e-05
2e-07,3.415528342709193e-06,5.068121353788988e-07,1.1646738745837613e-05
2e-07,3.3929936123809663e-06,5.042378527711757e-07,1.1671577252024397e-05
2e-07,3.367701383735038e-06,5.016597930547576e-07,1.1710855294212115e-05
2e-07,3.3397981432151022e-06,4.99085464050608e-07,1.1763583187177934e-05
2e-07,3.3094298316441155e-06,4.965208402170705e-07,1.1828646281680818e-05
2e-07,3.276748786207458e-06,4.939711807349075e-07,1.190486987712359e-05
2e-07,3.241910006032168e-06,4.914418857544758e-07,1.1991095776677548e-05
2e-07,3.205065059320425e-06,4.889413425480649e-07,1.208627017309052e-05
2e-07,3.1663644466905507e-06,4.864844827699472e-07,1.2189501404956867e-05
2e-07,3.125959364235785e-06,4.840927506658742e-07,1.2300063987952135e-05
2e-07,3.08399481077338e-06,4.817901667894161e-07,1.2417373340574715e-05
2e-07,3.0406021658151136e-06,4.796002128229954e-07,1.2540947329898968e-05
2e-07,2.995900399272145e-06,4.775449805144907e-07,1.2670336776543302e-05
2e-07,2.9500051730365534e-06,4.7564443904081783e-07,1.2805034811897204e-05
2e-07,2.903036924374848e-06,4.739161030860317e-07,1.2944413097116423e-05
2e-07,2.8551208288565643e-06,4.723752560471797e-07,1.308770268201494e-05
2e-07,2.806383855566154e-06,4.710344299118335e-07,1.3234013323071462e-05
2e-07,2.7569580577300973e-06,4.6990338095090896e-07,1.3382392873166735e-05
2e-07,2.706988160899961e-06,4.689902497818552e-07,1.3531894341702873e-05
2e-07,2.656635161057564e-06,4.683017145684454e-07,1.3681601914147715e-05
2e-07,2.606072504223935e-06,4.6784276698253023e-07,1.3830626161930338e-05
2e-07,2.5554781905001783e-06,4.676179305180323e-07,1.3978112523329608e-05
2e-07,2.5050282805946064e-06,4.6763185858100386e-07,1.4123272622331235e-05
2e-07,2.45489434988776e-06,4.678900789445358e-07,1.426539861276024e-05
2e-07,2.4052439331407856e-06,4.6840284602460317e-07,1.4403820651086773e-05
2e-07,2.356239090598017e-06,4.6918744414058457e-07,1.4537837839212039e-05
2e-07,2.3080285355863188e-06,4.702640255487465e-07,1.4666691958295167e-05
2e-07,2.2607370135604755e-06,4.7164875893076963e-07,1.4789622680023608e-05
2e-07,2.214459650455813e-06,4.733492847782731e-07,1.4905988522623302e-05
2e-07,2.169262778249179e-06,4.753634332317818e-07,1.5015357942764624e-05
2e-07,2.12518767940667e-06,4.776806420846253e-07,1.5117476893801932e-05
2e-07,2.0822556073411967e-06,4.802846838468597e-07,1.5212150682010019e-05
2e-07,2.0404734113435858e-06,4.831561742128189e-07,1.5299145795812625e-05
2e-07,1.9998377986515653e-06,4.862755845956542e-07,1.5378158344709853e-05
2e-07,1.960338903748604e-06,4.896267580044012e-07,1.5448829322707098e-05
2e-07,1.921965613604837e-06,4.93197115901085e-07,1.5510760844249483e-05
2e-07,1.8847112089871071e-06,4.969733542434766e-07,1.5563512914718476e-05
2e-07,1.8485760891002427e-06,5.009372542578374e-07,1.560660843398337e-05
2e-07,1.813566193822736e-06,5.050657404815638e-07,1.563959486728346e-05
2e-07,1.77968711078605e-06,5.093348395839768e-07,1.5662201256084907e-05
2e-07,1.746937385907589e-06,5.137230862152274e-07,1.5674535315289152e-05
2e-07,1.7153059320575648e-06,5.182101291925764e-07,1.5677152487119105e-05
2e-07,1.6847744711856232e-06,5.22773405141843e-07,1.5670917174831587e-05
2e-07,1.6553235643934885e-06,5.273898349120671e-07,1.5656783447310285e-05
2e-07,1.6269400601910382e-06,5.320417034370108e-07,1.563569696020394e-05
2e-07,1.5996227729936414e-06,5.367188146200968e-07,1.560870865402411e-05
2e-07,1.5733822109477785e-06,5.414151254705292e-07,1.5577157837796686e-05
2e-07,1.548232687141024e-06,5.461247494206695e-07,1.5542702902878265e-05
2e-07,1.5241842087251443e-06,5.508394001703773e-07,1.550718620451239e-05
2e-07,1.501240550724364e-06,5.555466670847098e-07,1.5472464345696924e-05
2e-07,1.4793975317660763e-06,5.602292672728474e-07,1.5440270498833413e-05
2e-07,1.4586392792683152e-06,5.648656337573797e-07,1.5412112718302466e-05
2e-07,1.438942813232728e-06,5.694322503448722e-07,1.5389208939967068e-05
2e-07,1.4202942785847392e-06,5.73907626340649e-07,1.537246455710527e-05
2e-07,1.4027027731680826e-06,5.782763788570285e-07,1.5362485351947136e-05
2e-07,1.3861963232978764e-06,5.825300719627884e-07,1.535959831660596e-05
2e-07,1.3708043681933478e-06,5.866640590460643e-07,1.5363871332625228e-05
2e-07,1.3565487578591663e-06,5.906761897796398e-07,1.537514316725697e-05
2e-07,1.3434552091046308e-06,5.945697161519601e-07,1.5393051829651725e-05
2e-07,1.3315719475188543e-06,5.983533871152011e-07,1.5417051348254053e-05
1.997214190167242e-06,1.3209746770464183e-06,6.020356589833e-07,1.5446450373117378e-05
1.991400680275821e-06,1.3117517358881581e-06,6.056194155056043e-07,1.54804936086181e-05
1.986395168974774e-06,1.3039811177118528e-06,6.091019377659243e-07,1.5518448399802382e-05
1.9821929906010927e-06,1.297715022228714e-06,6.124770762440016e-07,1.5559643225135367e-05
1.9788117842135374e-06,1.2929761237007786e-06,6.157352327456661e-07,1.5603451220864695e-05
1.9762911975162867e-06,1.2897601169005566e-06,6.188622126457551e-07,1.5649267558488567e-05
1.974689054434799e-06,1.2880427080746523e-06,6.218403088738873e-07,1.5696515776771655e-05
1.974069016075605e-06,1.2877908060793688e-06,6.246514682764891e-07,1.5744656871950954e-05
1.9744835392890737e-06,1.2889698690653231e-06,6.272802635883129e-07,1.5793163664164594e-05
1.9759602183215974e-06,1.291541170103249e-06,6.297150506423497e-07,1.5841465238582478e-05
1.978494741500661e-06,1.2954553308708258e-06,6.319462781626825e-07,1.5888901318685398e-05
1.982050144463052e-06,1.3006507910007928e-06,6.339636963188686e-07,1.5934732394806413e-05
1.9865618383935053e-06,1.3070593064271796e-06,6.357567954810452e-07,1.597822745627272e-05
1.991946914294338e-06,1.3146175428180657e-06,6.373188745188124e-07,1.601879275779296e-05
1.9981138029143867e-06,1.3232793406567158e-06,6.386502146995488e-07,1.6056052109920495e-05
2e-07,1.333020090271063e-06,6.397586745525675e-07,1.6089824236751223e-05
2e-07,1.3438294066640324e-06,6.406598011846871e-07,1.6120037700948386e-05
2e-07,1.3556959104907247e-06,6.413758201021099e-07,1.614664089627532e-05
2e-07,1.368597484836777e-06,6.41931727582246e-07,1.6169519909119158e-05
2e-07,1.3825079780428031e-06,6.423500358587036e-07,1.6188438538360185e-05
2e-07,1.397411106364118e-06,6.426466916429728e-07,1.620302665444863e-05
2e-07,1.4133060360936433e-06,6.428298214743822e-07,1.6212815830841414e-05
2e-07,1.4302059142419219e-06,6.429018076449321e-07,1.6217294553074678e-05
2e-07,1.4481391716519319e-06,6.428620978974163e-07,1.6215966074575067e-05
2e-07,1.4671524171193948e-06,6.427075512377467e-07,1.620841630029668e-05
2e-07,1.4873066649300224e-06,6.424311191319329e-07,1.6194405748673237e-05
2e-07,1.5086657955840357e-06,6.420214474562775e-07,1.6173980149083447e-05
2e-07,1.5312803828853496e-06,6.41463779125603e-07,1.6147535421678117e-05
2e-07,1.5551717521575663e-06,6.407415506149301e-07,1.6115756308697595e-05
2e-07,1.5803264504076998e-06,6.39838904343044e-07,1.6079438997425024e-05
2e-07,1.6067077867866347e-06,6.387436059396311e-07,1.6039303349312585e-05
2e-07,1.6342808100183806e-06,6.374496515234329e-07,1.5995900382999165e-05
2e-07,1.6630388128203512e-06,6.359595296464511e-07,1.5949623676687988e-05
2e-07,1.6930147473642097e-06,6.342836708227519e-07,1.5900741872277427e-05
2e-07,1.724266360481344e-06,6.324356166334725e-07,1.5849421003851122e-05
2e-07,1.756841812877653e-06,6.304278803412698e-07,1.5795825999568647e-05
2e-07,1.7907482563182942e-06,6.2827251752027e-07,1.574031835177011e-05
2e-07,1.8259390254654651e-06,6.259832499700555e-07,1.568356537073798e-05
2e-07,1.8623162890905083e-06,6.23576383039485e-07,1.562643131730968e-05
2e-07,1.8997416933231216e-06,6.210719525516725e-07,1.5569760932914992e-05
2e-07,1.9380514787493917e-06,6.184942564796919e-07,1.551421893945765e-05
2e-07,1.977068198961561e-06,6.158694043688289e-07,1.546028142835917e-05
2e-07,2.016602814762244e-06,6.132213598960212e-07,1.5408432071869635e-05
2e-07,2.0564568567284224e-06,6.105689955189663e-07,1.5359456890662375e-05
2e-07,2.096435430890538e-06,6.079254368781197e-07,1.5314579001923652e-05
2e-07,2.1363647695354214e-06,6.053003875385118e-07,1.5275338214687094e-05
2e-07,2.176105512171761e-06,6.027027626302793e-07,1.5243373345116266e-05
2e-07,2.215563440134322e-06,6.001400424966834e-07,1.5220250399886413e-05
2e-07,2.254699356274674e-06,5.976163290626707e-07,1.5207348473656054e-05
2e-07,2.2935303626013192e-06,5.951324589325267e-07,1.5205782382991287e-05
2e-07,2.3321126414807544e-06,5.92686543269408e-07,1.5216364004831463e-05
2e-07,2.3705089778214e-06,5.90273733705695e-07,1.5239607021215075e-05
2e-07,2.4087614976594318e-06,5.87888120970567e-07,1.5275757467915575e-05
2e-07,2.4468879295192667e-06,5.8552636643192e-07,1.5324812191269898e-05
2e-07,2.484895815961988e-06,5.831886222002213e-07,1.5386502404385792e-05
2e-07,2.5227947356007482e-06,5.808765747255093e-07,1.5460274013653213e-05
2e-07,2.5605948367215044e-06,5.785916212690543e-07,1.5545308295783567e-05
2e-07,2.5982949198937003e-06,5.763338877329504e-07,1.5640572417880077e-05
2e-07,2.6358762332732733e-06,5.741025010488208e-07,1.5744881278597007e-05
2e-07,2.6733151394936003e-06,5.718973345952717e-07,1.5856982254405233e-05
2e-07,2.710603541088922e-06,5.697194347410609e-07,1.597564074781701e-05
2e-07,2.7477535925191456e-06,5.675698012830247e-07,1.6099676898231202e-05
2e-07,2.7847828176544213e-06,5.654504103027264e-07,1.6227964197437006e-05
2e-07,2.821694708942448e-06,5.633665174624757e-07,1.6359443132766792e-05
2e-07,2.8584636298838487e-06,5.613259167799107e-07,1.6493159037600204e-05
2e-07,2.895025946919138e-06,5.593369472428925e-07,1.6628290641020064e-05
2e-07,2.9312829733039592e-06,5.574089540618617e-07,1.6764145946589264e-05
2e-07,2.9671151106630247e-06,5.55552855744116e-07,1.6900117171682436e-05
2e-07,3.002394623243642e-06,5.537795275986392e-07,1.7035601730961403e-05
2e-07,3.036987939773168e-06,5.520989954864426e-07,1.7169941721723966e-05
2e-07,3.070753077417618e-06,5.5052224920038e-07,1.7302423875025758e-05
2e-07,3.103539920383584e-06,5.490629654323687e-07,1.7432298015599915e-05
2e-07,3.1351904797427208e-06,5.477365697582296e-07,1.7558766108804424e-05
2e-07,3.165536677865583e-06,5.4655830155229e-07,1.7680961909126102e-05
2e-07,3.194400863513721e-06,5.455425016943679e-07,1.7797960312785112e-05
2e-07,3.2215999481759974e-06,5.447017361311928e-07,1.7908812730760308e-05
2e-07,3.2469479672437437e-06,5.44044630128876e-07,1.8012567611175306e-05
1.9998197940732484e-06,3.2702563368560736e-06,5.435740663806793e-07,1.810827219861238e-05
1.991256910036643e-06,3.2913351959382643e-06,5.432869565514271e-07,1.819499945398557e-05
1.982610081925529e-06,3.3099975546028307e-06,5.431746887081452e-07,1.827190919867408e-05
1.973804045905021e-06,3.3260655437373835e-06,5.432244901283039e-07,1.8338307672494988e-05
1.9647719260897146e-06,3.3393749660540362e-06,5.434239602057736e-07,1.839369545214827e-05
1.955467329284735e-06,3.349775053267693e-06,5.437670706440251e-07,1.8437815442648928e-05
1.9458710672601683e-06,3.357126578164376e-06,5.442552808482445e-07,1.847065864109071e-05
1.9359901053887858e-06,3.361302097796595e-06,5.448918673171665e-07,1.84923758180138e-05
1.925850057687974e-06,3.3621881141152283e-06,5.456754927775688e-07,1.850315670826259e-05
1.9154845458156303e-06,3.3596888189682638e-06,5.465992378606063e-07,1.850318458180484e-05
1.904924307245394e-06,3.353729078672403e-06,5.47654959737234e-07,1.8492664130452013e-05
1.8941886599902737e-06,3.344253520095618e-06,5.488374470088687e-07,1.8471851399229292e-05
1.8832819438265552e-06,3.3312256191916783e-06,5.501441317240384e-07,1.8441055922475955e-05
1.8721951057383999e-06,3.314632261231244e-06,5.515721198867057e-07,1.8400615316456624e-05
1.8609084207165718e-06,3.2944924617797544e-06,5.531158619472488e-07,1.8350883027802855e-05
1.8493928191721191e-06,3.2708634048655407e-06,5.547664038269758e-07,1.8292312705022595e-05
1.837611268423643e-06,3.2438360649218524e-06,5.565114211440504e-07,1.82255849515938e-05
1.825520932772596e-06,3.213521644035325e-06,5.583349886318104e-07,1.815159195821344e-05
1.8130777243590462e-06,3.180040987645386e-06,5.602190767216889e-07,1.8071267839874693e-05
1.8002459951801754e-06,3.143523711595124e-06,5.621492113820297e-07,1.7985429134306244e-05
1.7870105302465642e-06,3.1041092186776503e-06,5.641212560504183e-07,1.7894754130421205e-05
1.7733820805780312e-06,3.06194242255854e-06,5.661442221930091e-07,1.7799953246492744e-05
1.7593899526708198e-06,3.0171695608570608e-06,5.682383202568221e-07,1.7702042042182176e-05
1.7450673332665782e-06,2.969941126035505e-06,5.704305637346173e-07,1.7602486520967483e-05
1.730443533248597e-06,2.9204193921135038e-06,5.727505235797937e-07,1.7503110687707784e-05
1.715545453941911e-06,2.8687836131018482e-06,5.752281192794208e-07,1.7405893813614705e-05
1.7003976705584027e-06,2.815230267500945e-06,5.778917891798218e-07,1.7312799003164124e-05
1.6850199615248553e-06,2.7599692930584353e-06,5.80764557511646e-07,1.722564985126518e-05
1.6694290259780442e-06,2.7032173066620224e-06,5.838601530593916e-07,1.7146033487131682e-05
1.6536413539390331e-06,2.645189479736686e-06,5.871823391814632e-07,1.7075231979895605e-05
1.6376714211818484e-06,2.5860944635278286e-06,5.907274354817897e-07,1.7014187287434405e-05
1.6215302665306523e-06,2.5261407073237117e-06,5.944870772262685e-07,1.6963487952282777e-05
1.6052318309755037e-06,2.465556905074778e-06,5.984481539694165e-07,1.692337084864207e-05
1.588801922321647e-06,2.4046101845695343e-06,6.02591461852658e-07,1.689375770031981e-05
1.5722775504425938e-06,2.3436004501441778e-06,6.068925038182848e-07,1.687433071017159e-05
1.5556961277364657e-06,2.282837125057181e-06,6.113255573536964e-07,1.6864617924407128e-05
1.5390869459185037e-06,2.222629004831776e-06,6.158697933273015e-07,1.6864071312904044e-05
1.5224726590568663e-06,2.163295835295088e-06,6.205122326139412e-07,1.6872140290731655e-05
1.505877909625258e-06,2.1051755584450576e-06,6.252435735808272e-07,1.68883379462021e-05
1.4893403897059329e-06,2.0486094376801315e-06,6.300516783304232e-07,1.6912281900264528e-05
1.472921150154983e-06,1.993917327548314e-06,6.349189546831092e-07,1.6943689725156346e-05
1.4567072819351915e-06,1.941382660564157e-06,6.398231846074935e-07,1.6982347535857573e-05
1.4407997308849876e-06,1.8912514703333493e-06,6.447398306717325e-07,1.7028091177458162e-05
1.4252950230921557e-06,1.8437355968414082e-06,6.496452192820954e-07,1.708079279425934e-05
1.4102786255129601e-06,1.7990114225046906e-06,6.545179145929154e-07,1.7140322411833558e-05
1.3958278450554626e-06,1.7572151342445409e-06,6.593369174649566e-07,1.72064934369959e-05
1.3820102412657655e-06,1.7184396703133813e-06,6.640808365936565e-07,1.727901363493336e-05
1.3688790668427993e-06,1.6827358002614262e-06,6.68730634190893e-07,1.7357449094635584e-05
1.3564725765097526e-06,1.6501159452367612e-06,6.732718237049114e-07,1.7441232523500947e-05
1.3448135613018292e-06,1.620557654409212e-06,6.776931033297598e-07,1.7529736194147478e-05
1.333907409901532e-06,1.594006323308112e-06,6.819845306442608e-07,1.7622347110501785e-05
1.3237424319509372e-06,1.570379213717816e-06,6.861374021873209e-07,1.771848258314556e-05
1.3142920858607416e-06,1.5495715059058063e-06,6.901436358957504e-07,1.781757666657432e-05
1.3055183954778392e-06,1.5314626015816256e-06,6.939939451565515e-07,1.7919087008508633e-05
1.29737933792919e-06,1.5159194082684091e-06,6.976764028703531e-07,1.8022516953685948e-05
1.2898415463041408e-06,1.5027974026314234e-06,7.011757586942421e-07,1.8127402024567466e-05
1.2828959526737528e-06,1.4919477210528763e-06,7.044729726553125e-07,1.8233230133778878e-05
1.276568542671021e-06,1.4832396880282331e-06,7.075451174317409e-07,1.833935441681068e-05
1.2709142058303449e-06,1.476594247334364e-06,7.103669315124138e-07,1.8444979096898292e-05
1.2659960113693935e-06,1.472006816100818e-06,7.129140142321231e-07,1.8549212335043592e-05
1.2618753487959887e-06,1.4695452064370848e-06,7.151650005541262e-07,1.8651147331421522e-05
1.2586256783997694e-06,1.469329070421523e-06,7.171007129678669e-07,1.874996917942157e-05
1.2563467628940727e-06,1.471501628499018e-06,7.187016902952078e-07,1.884504211830233e-05
1.2551576232331795e-06,1.4761986902172824e-06,7.199477839899016e-07,1.8935886224604706e-05
1.255175440782003e-06,1.4835277373784594e-06,7.208213308243071e-07,1.9022061260162052e-05
1.2564957040959231e-06,1.4935736369980302e-06,7.213105728648743e-07,1.9103091223218334e-05
1.2591792821186994e-06,1.506420109882376e-06,7.214097979344375e-07,1.9178492935573207e-05
1.2632469192536636e-06,1.5221532652585337e-06,7.211176428226119e-07,1.924783366154812e-05
1.2686805676492757e-06,1.5408385815726131e-06,7.204369021857435e-07,1.931074013428049e-05
1.2754288565261855e-06,1.5625009703303763e-06,7.19376246140252e-07,1.9366861740648678e-05
1.2834133827372476e-06,1.587127019326568e-06,7.179513487066281e-07,1.941585074417828e-05
1.2925356556273238e-06,1.6146714137602791e-06,7.161823104146871e-07,1.9457449070387325e-05
1.3026857581787509e-06,1.6450546204364463e-06,7.140882131257937e-07,1.949164161564009e-05
1.3137506632849532e-06,1.6781719568092424e-06,7.116837040317816e-07,1.951869595423055e-05
1.3256189249197542e-06,1.7139310460065175e-06,7.089798188895109e-07,1.9539050709098908e-05
1.3381807095063743e-06,1.7522959137407162e-06,7.059872009754095e-07,1.9553178609146774e-05
1.3513273144690685e-06,1.7932988969846257e-06,7.027188048123954e-07,1.9561501529038142e-05
1.3649584136374978e-06,1.8370075050989304e-06,6.991905674236273e-07,1.956439994651638e-05
1.3789976318141277e-06,1.8834710650699268e-06,6.954204952114567e-07,1.956235774714808e-05
1.393403079831457e-06,1.9326875392392516e-06,6.91426345744105e-07,1.9556129667583847e-05
1.4081601538605244e-06,1.984607680110098e-06,6.872229960960563e-07,1.954673230458397e-05
1.4232656520804051e-06,2.0391545967437245e-06,6.82821282822493e-07,1.9535271737714455e-05
1.4387277404846226e-06,2.0962303960038897e-06,6.782282167824481e-07,1.9522771423931634e-05
1.454583344535685e-06,2.1557086582362703e-06,6.73448739752641e-07,1.951006073371224e-05
1.4709038629905684e-06,2.217428909768597e-06,6.68489413073453e-07,1.9497706012745e-05
1.487774418053016e-06,2.281201816790229e-06,6.633616301574283e-07,1.948598029402724e-05
1.5052658006640643e-06,2.3468230568075683e-06,6.580814656051961e-07,1.9474874233509505e-05
1.5234204826620281e-06,2.4140909088444833e-06,6.526669573066433e-07,1.9464134137368922e-05
1.5422513171901442e-06,2.4828189156961347e-06,6.471354512598514e-07,1.9453298702146e-05
1.56174159808922e-06,2.5528354309571658e-06,6.415017401095761e-07,1.9441725202374053e-05
1.5818455147063547e-06,2.62397402187374e-06,6.357769218829028e-07,1.9428617775873745e-05
1.602491860522777e-06,2.696065443552946e-06,6.299689711210546e-07,1.9413061629314545e-05
1.6235883701976534e-06,2.7689312721887382e-06,6.240851812616127e-07,1.939405589710356e-05
1.6450261368001478e-06,2.8423754574938718e-06,6.181349219617905e-07,1.9370547823273912e-05
1.666685494151791e-06,2.9161892738156907e-06,6.121320985237392e-07,1.934148960386676e-05
1.6884408337487763e-06,2.990184330211375e-06,6.060960096439646e-07,1.9305926246786724e-05
1.710162836448277e-06,3.0642354046250086e-06,6.000484919570608e-07,1.9263073453676167e-05
1.7317209114586957e-06,3.138304044126758e-06,5.940104656487315e-07,1.9212341144582528e-05
1.7529900591042492e-06,3.212428375495297e-06,5.880024170453225e-07,1.9153315867190162e-05
1.7738651751119651e-06,3.286681463189129e-06,5.820486787079435e-07,1.9085731994426588e-05
1.7942768984779468e-06,3.361119014272572e-06,5.761834230160746e-07,1.9009435055277052e-05
1.8141945550377395e-06,3.435739678890147e-06,5.704541850353047e-07,1.8924336781914904e-05
1.8336115211439358e-06,3.5104672648358567e-06,5.649182297016092e-07,1.8830368290349333e-05
1.852527447926572e-06,3.585151974635616e-06,5.596338531067278e-07,1.8727463097291365e-05
1.8709448340612485e-06,3.6595815429136727e-06,5.546530173463776e-07,1.86156186359018e-05
1.8888799935516247e-06,3.733495112899464e-06,5.500171875564406e-07,1.849500332294576e-05
1.906376430401824e-06,3.806597088802037e-06,5.457555875045214e-07,1.836599919494197e-05
1.9235129189638006e-06,3.878571700252339e-06,5.418872060176654e-07,1.822914950124208e-05
1.940399520457422e-06,3.949103934737663e-06,5.3842619176518e-07,1.808508523590265e-05
1.957156673512464e-06,4.017905592487992e-06,5.353866693191449e-07,1.7934492445886818e-05
1.9738868233967744e-06,4.084732682406657e-06,5.32783354066427e-07,1.7778114336924448e-05
1.9906549210961557e-06,4.149385408962396e-06,5.306276589954224e-07,1.7616727025533948e-05
2e-07,4.211696523417058e-06,5.289228553931262e-07,1.745105329309416e-05
2e-07,4.271520661417958e-06,5.276622140452373e-07,1.728167492229522e-05
2e-07,4.3287312421377405e-06,5.268306316886307e-07,1.71090198958695e-05
2e-07,4.383217911669985e-06,5.26408188426443e-07,1.6933424009120307e-05
2e-07,4.434875861974598e-06,5.263735968091723e-07,1.6755228038091104e-05
2e-07,4.483593673341168e-06,5.267056875609161e-07,1.6574887333048944e-05
2e-07,4.529255034339771e-06,5.273828848218828e-07,1.6393054582744148e-05
2e-07,4.5717552595754314e-06,5.283817303240554e-07,1.6210572518545612e-05
2e-07,4.611014602311855e-06,5.296755871572643e-07,1.602836774099076e-05
2e-07,4.646972577493008e-06,5.312344054621054e-07,1.5847307876404668e-05
2e-07,4.679568973546587e-06,5.330247475913756e-07,1.566809927039872e-05
2e-07,4.708730135719722e-06,5.3501018468253e-07,1.549126400572853e-05
2e-07,4.734366395734736e-06,5.371547892609143e-07,1.5317167830960496e-05
2e-07,4.756376290708574e-06,5.394276919673522e-07,1.514604804250339e-05
2e-07,4.7746585576441776e-06,5.418023478831801e-07,1.497805264573204e-05
2e-07,4.789125157094328e-06,5.442514686290288e-07,1.4813370530585974e-05
2e-07,4.799701568032549e-06,5.467442103321538e-07,1.4652427006545919e-05
2e-07,4.806321971992565e-06,5.492475406744296e-07,1.4495956132517127e-05
2e-07,4.808938443977726e-06,5.517291666973009e-07,1.4344877009892902e-05
2e-07,4.807540309040281e-06,5.541591700071197e-07,1.4200110064776572e-05
2e-07,4.802166036497725e-06,5.565101564821842e-07,1.406245655892543e-05
2e-07,4.7929010884929385e-06,5.587584505346126e-07,1.3932605333535525e-05
2e-07,4.779862206424498e-06,5.608857491116396e-07,1.3811299367254877e-05
2e-07,4.763174082133475e-06,5.628777382902255e-07,1.3699529954066928e-05
2e-07,4.7429550408900424e-06,5.647208371885417e-07,1.3598550257346733e-05
2e-07,4.719321628045417e-06,5.664008155295521e-07,1.3509710909463793e-05
2e-07,4.6924032829770635e-06,5.679031727481728e-07,1.3434269681911575e-05
2e-07,4.662354621238638e-06,5.692132743242029e-07,1.337324919161807e-05
2e-07,4.6293594527763675e-06,5.703157431956197e-07,1.3327342462154073e-05
2e-07,4.593625039212609e-06,5.711940341984307e-07,1.329686404253414e-05
2e-07,4.5553675329592834e-06,5.718309725381158e-07,1.328174996880344e-05
2e-07,4.5147953320631175e-06,5.72210727012991e-07,1.328159889217598e-05
2e-07,4.472105380615318e-06,5.723231319118517e-07,1.3295729966900445e-05
2e-07,4.427497311567768e-06,5.721678276868212e-07,1.3323243099261806e-05
2e-07,4.381187761873529e-06,5.717531830357539e-07,1.3363080847988412e-05
2e-07,4.33340800325579e-06,5.7109176045074e-07,1.341407476044664e-05
2e-07,4.284387691785312e-06,5.701980050984805e-07,1.3474955739882987e-05
2e-07,4.234340716601706e-06,5.690875747820706e-07,1.3544348378709066e-05
2e-07,4.183464220784559e-06,5.677753676075947e-07,1.3620793604020775e-05
2e-07,4.131942617590351e-06,5.662731615984157e-07,1.3702804307688192e-05
2e-07,4.07994499881234e-06,5.645890395770396e-07,1.3788910621839648e-05
2e-07,4.027620528064824e-06,5.627292505031547e-07,1.3877670617049466e-05
2e-07,3.97509736045708e-06,5.6070007152722e-07,1.396766587290792e-05
2e-07,3.922479755944901e-06,5.585073560513403e-07,1.4057498939381844e-05
2e-07,3.869843156328933e-06,5.561561361425486e-07,1.4145795723998936e-05
2e-07,3.817235833255976e-06,5.536520097421999e-07,1.4231214657487235e-05
2e-07,3.764690115700649e-06,5.510020346276982e-07,1.4312453825703879e-05
2e-07,3.712237102535002e-06,5.482139202527373e-07,1.4388259700945765e-05
2e-07,3.6599173307080614e-06,5.452952298849047e-07,1.4457476955372863e-05
2e-07,3.607785216864888e-06,5.422539915646943e-07,1.4519146130681284e-05
2e-07,3.5559090387563247e-06,5.390992117472615e-07,1.4572562206405164e-05
2e-07,3.504367165422473e-06,5.358402299741249e-07,1.4617223038886933e-05
2e-07,3.4532401365833267e-06,5.324869595121262e-07,1.4652728664394456e-05
2e-07,3.4025998384977287e-06,5.290512435383584e-07,1.4678722953917013e-05
2e-07,3.352503596175372e-06,5.255463734934404e-07,1.4694879725905426e-05
2e-07,3.303002538521512e-06,5.219842519314639e-07,1.4700901972537615e-05
2e-07,3.254159556311467e-06,5.18373731574979e-07,1.469654117591828e-05
2e-07,3.206062299157642e-06,5.147226698252525e-07,1.4681641656418705e-05
2e-07,3.1588249363556462e-06,5.110410475624684e-07,1.4656198493671008e-05
2e-07,3.1125805582451233e-06,5.073410363520645e-07,1.4620452989981574e-05
2e-07,3.0674679058949706e-06,5.036350685921072e-07,1.4575017865749384e-05
2e-07,3.02362103148191e-06,4.999355988886211e-07,1.4520929806583734e-05
1.9926210213983284e-06,2.981169153042772e-06,4.96255737343999e-07,1.445956067105058e-05
1.9698736894412768e-06,2.940242597320068e-06,4.926077649506473e-07,1.4392433613654044e-05
1.9462842090567767e-06,2.900974886619152e-06,4.890008802051564e-07,1.4321026826290203e-05
1.921872627804064e-06,2.8634935851413987e-06,4.854409344441227e-07,1.4246632702743203e-05
1.8966714669509662e-06,2.827903466481263e-06,4.819312871699447e-07,1.4170317064033453e-05
1.8707213730241803e-06,2.794280478416893e-06,4.784730986623541e-07,1.409295933274764e-05
1.8440644953519573e-06,2.7626851338735527e-06,4.7506500252320024e-07,1.4015303347966508e-05
1.8167442053124646e-06,2.7331777109040126e-06,4.717032988132942e-07,1.3937969889026831e-05
1.7888066930017796e-06,2.7058200199129087e-06,4.6838390286748655e-07,1.386145683020833e-05
1.760300362151494e-06,2.6806692027673025e-06,4.65103916505674e-07,1.3786227687535714e-05
1.7312776380759243e-06,2.6577725026368788e-06,4.618608473966217e-07,1.3712894151700801e-05
1.7017995225147768e-06,2.6371616424404066e-06,4.586523375377856e-07,1.3642312487870853e-05
1.671936530068384e-06,2.618841827251162e-06,4.5547694845627097e-07,1.3575486647591885e-05
1.6417635792297624e-06,2.6027799802176588e-06,4.5233336242520683e-07,1.351340391479046e-05
1.6113530735445012e-06,2.5889029931651126e-06,4.4921921205327794e-07,1.3457004093445951e-05
1.580772277939547e-06,2.577107621462117e-06,4.461312760742241e-07,1.3407316550485925e-05
1.5500875410522302e-06,2.5672724983628786e-06,4.4306617147869817e-07,1.3365571900015627e-05
1.5193703653283864e-06,2.5592654160148867e-06,4.400221202317112e-07,1.333315688927873e-05
1.4887001259689557e-06,2.552948734714397e-06,4.370030064586977e-07,1.3311495700872375e-05
1.458165807588252e-06,2.5481828517347487e-06,4.340213389013937e-07,1.3301946012879461e-05
1.4278672179261862e-06,2.544822186383936e-06,4.3109512195772107e-07,1.3305715005464699e-05
1.397910961921969e-06,2.542709161206323e-06,4.282414687649901e-07,1.3323786803570214e-05
1.3684057462655848e-06,2.541676413360067e-06,4.254740601926028e-07,1.3356854557460926e-05
1.3394659022127194e-06,2.541554013042149e-06,4.228047778415848e-07,1.3405263921531173e-05
1.311216557036693e-06,2.5421746556259362e-06,4.2024660484728593e-07,1.3469001001416648e-05
1.2837880948013257e-06,2.543377869665115e-06,4.1781740226112683e-07,1.3547745491381962e-05
1.257302007131657e-06,2.545015632905124e-06,4.1554176244309703e-07,1.3640950657335069e-05
1.231860590938334e-06,2.5469595447932118e-06,4.1344865348278975e-07,1.374788411701264e-05
1.2075460553311337e-06,2.549109041980855e-06,4.115697319453974e-07,1.3867614746269568e-05
1.184422506894163e-06,2.551397366895775e-06,4.0994023511956504e-07,1.3998994523514123e-05
1.1625356452580542e-06,2.553791571445351e-06,4.0859654773778e-07,1.4140691032653576e-05
1.1419133823259282e-06,2.5562889455624557e-06,4.0757001781460207e-07,1.4291276830512211e-05
1.122572465347598e-06,2.5589126489877856e-06,4.0688276231699977e-07,1.4449321423782801e-05
1.1045320771990976e-06,2.5617016478407434e-06,4.065470896887213e-07,1.4613435643054929e-05
1.0878263670500614e-06,2.5646936952830232e-06,4.0656802968965673e-07,1.4782286448351408e-05
1.0725041725718154e-06,2.5679106253630632e-06,4.0694910201103064e-07,1.4954626837190699e-05
1.0586148600200053e-06,2.571355375947213e-06,4.076970161156914e-07,1.5129337160087374e-05
1.0461924731262009e-06,2.5750243784875213e-06,4.088197707037019e-07,1.5305436969978573e-05
1.035251490703588e-06,2.5789278391302e-06,4.1032094071152097e-07,1.5482050248470466e-05
1.0257949681131455e-06,2.5831032674860372e-06,4.121966240487362e-07,1.5658348892741644e-05
1.0178236776775671e-06,2.5876183174817198e-06,4.1443562807321045e-07,1.5833505253774294e-05
1.011338174321607e-06,2.592566736943515e-06,4.1702079771208746e-07,1.6006658013702495e-05
1.0063366930830186e-06,2.598056720100193e-06,4.199309375064098e-07,1.617690047520891e-05
1.002813544184842e-06,2.604195441011608e-06,4.2314449399832246e-07,1.6343326536482633e-05
1.0007571032750728e-06,2.611081621717516e-06,4.266471994966074e-07,1.650511317720701e-05
1.0001457003953811e-06,2.618808653037186e-06,4.3044001034094857e-07,1.6661554942450064e-05
1.0009439080087715e-06,2.627468116544383e-06,4.3453870158991384e-07,1.6812027028005343e-05
1.0031008199584177e-06,2.637148312351048e-06,4.389649068385913e-07,1.6955919420073315e-05
1.0065492159794821e-06,2.6479302616838915e-06,4.4373691149716656e-07,1.7092592963485813e-05
1.0112086660955295e-06,2.6598804521907132e-06,4.4886549681317814e-07,1.7221411277004447e-05
1.0169969000202815e-06,2.6730382682141464e-06,4.543547395291154e-07,1.7341826384902256e-05
1.023845233535951e-06,2.6874061380393293e-06,4.602045499166847e-07,1.7453415860940963e-05
1.0317061595504007e-06,2.702957014692681e-06,4.664108490103794e-07,1.7555838053887866e-05
1.0405463096310952e-06,2.7196617230330603e-06,4.7296325764311535e-07,1.7648759774152942e-05
1.0503337742236671e-06,2.7375209786788564e-06,4.798432812731292e-07,1.7731819467379198e-05
1.0610334847714143e-06,2.756585042458236e-06,4.870243273398872e-07,1.7804679258548342e-05
1.0726098090505785e-06,2.77695636722655e-06,4.944741965102921e-07,1.7867140458915447e-05
1.0850274981782996e-06,2.798780423224796e-06,5.021601148343742e-07,1.7919205023516165e-05
1.0982507565394486e-06,2.822229162016445e-06,5.100538591197311e-07,1.796102633452508e-05
1.1122456554528457e-06,2.8474757660108207e-06,5.181337540101026e-07,1.7992803860038877e-05
1.1269858633023705e-06,2.8746618097718398e-06,5.263822976571322e-07,1.8014690732315187e-05
1.1424546898964888e-06,2.9038738922834062e-06,5.34781563816438e-07,1.8026750746474712e-05
1.1586378622149212e-06,2.935147210209476e-06,5.433097067725135e-07,1.802896024233512e-05
1.1755135839246729e-06,2.9684815189398467e-06,5.519402878172686e-07,1.802123626080278e-05
1.1930529622518283e-06,3.003840631095327e-06,5.606435343643985e-07,1.8003525063191697e-05
1.2112302495728241e-06,3.041136857668126e-06,5.693868219187181e-07,1.7975998683731517e-05
1.2300277893303615e-06,3.0802235846723554e-06,5.781343515277899e-07,1.793928310416312e-05
1.2494285364198592e-06,3.120903082346425e-06,5.868475026957101e-07,1.7894526796423353e-05
1.2694053544683944e-06,3.162939340898319e-06,5.954854878324947e-07,1.7843228689543524e-05
1.2899169169264108e-06,3.2060735761147323e-06,6.040079287889349e-07,1.7786966224661985e-05
1.3109080594998235e-06,3.2500468692812216e-06,6.123805586275091e-07,1.77271914341532e-05
1.3323090667212805e-06,3.294621071809521e-06,6.20579116333747e-07,1.7665164834060817e-05
1.3540364779815741e-06,3.3395829437365936e-06,6.285867691136903e-07,1.7602079201511037e-05
1.3759983720220771e-06,3.3847317635248217e-06,6.363878455282753e-07,1.7539310549756266e-05
1.398100976714439e-06,3.429865509045544e-06,6.439633038260298e-07,1.7478559197087908e-05
1.4202556148525316e-06,3.4747769093410783e-06,6.512893782720987e-07,1.7421773640555177e-05
1.4423872077497474e-06,3.5192551182230034e-06,6.58338439609798e-07,1.7370988964459816e-05
1.4644406948189262e-06,3.563086991038388e-06,6.650818227376793e-07,1.7328197791104114e-05
1.486380228190746e-06,3.6060643772689087e-06,6.714942050668906e-07,1.7295264487944722e-05
1.508182028606982e-06,3.6479979688976287e-06,6.775581433292218e-07,1.727386513950456e-05
1.5298323901984062e-06,3.6887224328994833e-06,6.832673279400492e-07,1.7265438646990938e-05
1.551341981754028e-06,3.728085231352127e-06,6.886275297553402e-07,1.7271147487686043e-05
1.5727652635480766e-06,3.7659308324701667e-06,6.936547738354705e-07,1.7291854711935885e-05
1.5942028584527566e-06,3.8021007306889434e-06,6.983708790380035e-07,1.7328104558877264e-05
