2e-07,2.4395855818076616e-06,1.1352872713573302e-06,1.636687252225997e-05
2e-07,2.4304672246037392e-06,1.1292820747953291e-06,1.6340451944506243e-05
2e-07,2.4253941175286644e-06,1.1228906993431258e-06,1.6313760669620236e-05
2e-07,2.4241848199281644e-06,1.1162553112744878e-06,1.6288404919615037e-05
2e-07,2.426640790361721e-06,1.109516337046779e-06,1.6265921806589374e-05
2e-07,2.432561520626764e-06,1.1027970657639378e-06,1.6247627215916322e-05
2e-07,2.4417441355400533e-06,1.0961982609142046e-06,1.6234531306330665e-05
2e-07,2.4539803975106356e-06,1.08979959412781e-06,1.6227333882813682e-05
2e-07,2.469073691485875e-06,1.0836652301686097e-06,1.622647277480034e-05
2e-07,2.4868728986586757e-06,1.0778501428615723e-06,1.623219867149477e-05
2e-07,2.5072916061554025e-06,1.072402794520381e-06,1.6244654079452037e-05
2e-07,2.5302859045458956e-06,1.0673634347414415e-06,1.6263924083631813e-05
2e-07,2.5558076945178767e-06,1.0627605529438796e-06,1.629005187177949e-05
2e-07,2.58377802863955e-06,1.058608062717972e-06,1.632303863505353e-05
2e-07,2.6140918481194737e-06,1.0549044052759615e-06,1.6362820480124048e-05
2e-07,2.6466331510761693e-06,1.0516334494534372e-06,1.6409207833587873e-05
2e-07,2.681290233675848e-06,1.0487663236285848e-06,1.64618270044855e-05
2e-07,2.717965085389948e-06,1.046264555391139e-06,1.6520122888417965e-05
2e-07,2.7565647312883127e-06,1.04408547454556e-06,1.6583413284964052e-05
2e-07,2.7969842677737357e-06,1.0421868487904894e-06,1.6650935989963376e-05
2e-07,2.839109411333866e-06,1.0405280577969249e-06,1.6721863760840547e-05
2e-07,2.8828372698381507e-06,1.039071840167275e-06,1.6795305797138074e-05
2e-07,2.9280824640468154e-06,1.0377869285327291e-06,1.6870324584667178e-05
2e-07,2.9747552715769636e-06,1.036645449465899e-06,1.694597671706757e-05
2e-07,3.0227394945560104e-06,1.0356174358706882e-06,1.7021361447166964e-05
2e-07,3.0718952762550234e-06,1.0346699187706602e-06,1.7095666248969295e-05
2e-07,3.1220702898312238e-06,1.033769913777803e-06,1.7168202192014144e-05
2e-07,3.173097868641286e-06,1.0328859125682624e-06,1.7238400454444358e-05
2e-07,3.224800680801638e-06,1.031987325243749e-06,1.7305752052690415e-05
2e-07,3.277017504920445e-06,1.0310457024046663e-06,1.7369734213329846e-05
2e-07,3.329625446850815e-06,1.0300373016062185e-06,1.7429785432155562e-05
2e-07,3.382526963299664e-06,1.0289442884633579e-06,1.7485317636062488e-05
2e-07,3.4356154686414208e-06,1.027758218072759e-06,1.7535725422080747e-05
2e-07,3.4887600062362463e-06,1.0264895358737127e-06,1.7580414098881712e-05
2e-07,3.541824838781382e-06,1.0251759201836902e-06,1.7618842886849018e-05
2e-07,3.594696976785882e-06,1.0238782285858631e-06,1.765053293442119e-05
2e-07,3.64729351856792e-06,1.0226648361855837e-06,1.7675066131093216e-05
2e-07,3.699548687921344e-06,1.0215961218530675e-06,1.7692109024655077e-05
2e-07,3.7513905353718338e-06,1.0207166430210464e-06,1.7701412931681923e-05
2e-07,3.8027185765101197e-06,1.0200531429068924e-06,1.7702767310624572e-05
2e-07,3.853397608245617e-06,1.0196144367372308e-06,1.7695958336430082e-05
2e-07,3.90326723672908e-06,1.019392638900363e-06,1.768078535020343e-05
2e-07,3.952148550477892e-06,1.01936637876044e-06,1.7657143362133468e-05
2e-07,3.999844823122223e-06,1.0195039977732006e-06,1.762511550506117e-05
2e-07,4.046148728414181e-06,1.0197658064506175e-06,1.7584985818195007e-05
2e-07,4.090855239484633e-06,1.0201095737602958e-06,1.7537158550529075e-05
2e-07,4.133769459606617e-06,1.020500035067284e-06,1.7482072282912535e-05
2e-07,4.1747038003949234e-06,1.0209154153650318e-06,1.7420180230754057e-05
2e-07,4.213471046662936e-06,1.0213483289583378e-06,1.7351961897931627e-05
2e-07,4.249893387498914e-06,1.0218056615497773e-06,1.7277892444942678e-05
2e-07,4.2838308317858e-06,1.0223060914454098e-06,1.719838019637432e-05
2e-07,4.31519585630669e-06,1.0228711925331322e-06,1.7113768902221482e-05
2e-07,4.343931347217856e-06,1.0235169981373363e-06,1.7024468599598857e-05
2e-07,4.369975484668854e-06,1.0242531735058156e-06,1.6931123671869252e-05
2e-07,4.39324410669322e-06,1.0250849510375209e-06,1.6834644091943624e-05
2e-07,4.413630428247336e-06,1.026012213350461e-06,1.673606851007066e-05
2e-07,4.431009852727052e-06,1.0270272924978432e-06,1.663637839805043e-05
2e-07,4.4452462085128955e-06,1.0281142750752756e-06,1.65363930802387e-05
2e-07,4.456200652373072e-06,1.029250319931817e-06,1.6436850611166464e-05
2e-07,4.463741422846797e-06,1.030408399686304e-06,1.63386676923809e-05
2e-07,4.4677483589787075e-06,1.0315593782692422e-06,1.6243164775080353e-05
2e-07,4.4681134356580525e-06,1.0326729668824595e-06,1.6152045195065556e-05
2e-07,4.4647463687398505e-06,1.0337199836821359e-06,1.6067187038176055e-05
2e-07,4.457584175657483e-06,1.0346742898176608e-06,1.5990432057433966e-05
2e-07,4.44659451900765e-06,1.0355109218600444e-06,1.5923440284123426e-05
2e-07,4.4317706338240734e-06,1.0362022945595548e-06,1.5867601746976648e-05
2e-07,4.4131247433266504e-06,1.0367166463658572e-06,1.582399776407572e-05
2e-07,4.3906843461402965e-06,1.0370208344160026e-06,1.5793393146273596e-05
2e-07,4.364490767125099e-06,1.0370873274786855e-06,1.577622528302305e-05
2e-07,4.334598607141361e-06,1.036902459248731e-06,1.5772581147264095e-05
2e-07,4.301073408545754e-06,1.036469563984035e-06,1.5782198987331453e-05
2e-07,4.263988687065031e-06,1.0358032055735931e-06,1.5804516099976652e-05
2e-07,4.223429290127375e-06,1.0349208268467968e-06,1.583874507555418e-05
2e-07,4.17950117002706e-06,1.0338404263071511e-06,1.5883970984110448e-05
2e-07,4.132336486308697e-06,1.0325821697565953e-06,1.5939269030825755e-05
2e-07,4.082087077978813e-06,1.0311666752997996e-06,1.600381837462652e-05
2e-07,4.028915769312061e-06,1.0296102964501878e-06,1.6076975455526222e-05
2e-07,3.9729931462942315e-06,1.0279235353460346e-06,1.6158280028718672e-05
2e-07,3.9144937835583645e-06,1.0261134130371122e-06,1.6247403887393618e-05
2e-07,3.853592762657556e-06,1.0241846842527608e-06,1.6344095804314363e-05
2e-07,3.7904679249386735e-06,1.022140651668089e-06,1.6448155487484886e-05
2e-07,3.7253023353923315e-06,1.0199884174730268e-06,1.6559404851693374e-05
2e-07,3.6582817262816895e-06,1.0177444794821323e-06,1.6677617722306134e-05
2e-07,3.5895955349787966e-06,1.0154322436928628e-06,1.6802418557372283e-05
2e-07,3.5194552038334764e-06,1.0130723424717005e-06,1.6933208564597473e-05
2e-07,3.4481213332376777e-06,1.0106757376427151e-06,1.706918776530718e-05
2e-07,3.37590766986945e-06,1.008245999785913e-06,1.720945989344407e-05
2e-07,3.303153915122533e-06,1.005785249000176e-06,1.7353108789512993e-05
2e-07,3.230202303103665e-06,1.0032951100580995e-06,1.7499191726041737e-05
2e-07,3.1573977626547317e-06,1.000775423902548e-06,1.764671888068468e-05
2e-07,3.085086509465178e-06,9.982290079391405e-07,1.7794689658717175e-05
2e-07,3.0135979435857018e-06,9.956695154915577e-07,1.7942176373757073e-05
2e-07,2.943231073329949e-06,9.931233876704023e-07,1.8088378525450493e-05
2e-07,2.8742557651497187e-06,9.90624444759919e-07,1.8232581595349867e-05
2e-07,2.806911343669208e-06,9.882053582235077e-07,1.83740556916742e-05
2e-07,2.741397723060981e-06,9.858906037614291e-07,1.851198600958043e-05
2e-07,2.6778749629582524e-06,9.836934769947558e-07,1.86454929776542e-05
2e-07,2.6164780616283627e-06,9.816168528221895e-07,1.8773740714265187e-05
2e-07,2.5573376387503416e-06,9.79655646500894e-07,1.88960478894413e-05
2e-07,2.5005915184453633e-06,9.777981654600712e-07,1.901189176056406e-05
2e-07,2.446378686172405e-06,9.76025754879499e-07,1.9120807270866612e-05
2e-07,2.3948253880366402e-06,9.743134452924075e-07,1.9222286472042102e-05
2e-07,2.346040941049096e-06,9.726332851438255e-07,1.931576343974263e-05
2e-07,2.3001229744521067e-06,9.709586882651357e-07,1.940067274402908e-05
2e-07,2.257157112839851e-06,9.692665657733575e-07,1.9476508085145647e-05
2e-07,2.217208582753951e-06,9.675351936921912e-07,1.9542835346001268e-05
2e-07,2.1803196660421027e-06,9.657402189480223e-07,1.959925662992209e-05
2e-07,2.1465212749057264e-06,9.638535712293069e-07,1.964537691416354e-05
2e-07,2.115846605116038e-06,9.61846186627637e-07,1.9680891051087947e-05
2e-07,2.0883275880813496e-06,9.596920816518415e-07,1.9705789881029252e-05
2e-07,2.063977067485429e-06,9.573712035811798e-07,1.972047368054822e-05
2e-07,2.042781907022097e-06,9.54869226585842e-07,1.9725649911180328e-05
2e-07,2.0247138862307843e-06,9.521746608270607e-07,1.972213467715908e-05
2e-07,2.0097355520922938e-06,9.492756650952672e-07,1.971072141142557e-05
1.987174643504327e-06,1.9977927646516404e-06,9.461587449745613e-07,1.969221628971663e-05
1.9589079825570342e-06,1.9888172503362505e-06,9.428096465412069e-07,1.966758604653642e-05
1.931118299287175e-06,1.9827498650967757e-06,9.392154290254091e-07,1.9638017426611973e-05
1.903932670324115e-06,1.9795594137426337e-06,9.353675034908468e-07,1.9604823337740647e-05
1.8774930293124447e-06,1.9792328422115244e-06,9.312655447681879e-07,1.9569301623192214e-05
1.8519527127088435e-06,1.9817473641052903e-06,9.269211327032947e-07,1.9532620769546974e-05
1.8274597871064568e-06,1.98705715548123e-06,9.223596367013462e-07,1.9495743889072776e-05
1.8041352540189174e-06,1.9951079459995566e-06,9.176176328707621e-07,1.945937839566477e-05
1.7820633992264775e-06,2.0058594340586047e-06,9.127362507571896e-07,1.942395106184974e-05
1.76129848109082e-06,2.019295749621644e-06,9.077565301499495e-07,1.9389623084786647e-05
1.7418789107564338e-06,2.0354228100648653e-06,9.027188320757277e-07,1.9356335114289226e-05
1.7238372406458905e-06,2.0542569638195457e-06,8.976619726502486e-07,1.932386226207073e-05
1.7072004893707204e-06,2.0758106977894083e-06,8.92619721690583e-07,1.9291856628758842e-05
1.6919842279118478e-06,2.1000805737650293e-06,8.876179205128887e-07,1.9259852534800256e-05
1.6781893337439273e-06,2.1270350356043324e-06,8.82677238197934e-07,1.922725376257879e-05
1.6658066154696262e-06,2.156601904740684e-06,8.778207593082409e-07,1.9193344867652536e-05
1.654824240380492e-06,2.188667972726058e-06,8.730803280514672e-07,1.915733194817701e-05
1.6452322564419291e-06,2.2230967679655085e-06,8.684979770696567e-07,1.91184002248566e-05
1.6370246665413151e-06,2.259750831506188e-06,8.641233468312613e-07,1.9075773423377358e-05
1.6301991354117525e-06,2.298504665252729e-06,8.600109945124798e-07,1.902875580474879e-05
1.6247520092525663e-06,2.339246211120202e-06,8.562195504250795e-07,1.897675744612385e-05
1.6206692763292215e-06,2.3818676618294527e-06,8.528089484302301e-07,1.8919314635981385e-05
1.617918214388673e-06,2.426247664423886e-06,8.498335082472965e-07,1.8856095724319666e-05
1.6164431969774734e-06,2.4722335642383652e-06,8.473366225403072e-07,1.8786870774471774e-05
1.6161661882130811e-06,2.519633704208718e-06,8.453545591571057e-07,1.871145935454046e-05
1.6169925654463374e-06,2.5682201232600256e-06,8.439271499828943e-07,1.8629693852336278e-05
1.618821394763846e-06,2.6177364108212367e-06,8.431048763300343e-07,1.854140157071237e-05
1.621554223993817e-06,2.6679092213808084e-06,8.42948679342497e-07,1.844641071237555e-05
1.6250954320457991e-06,2.7184605199546213e-06,8.435249935257651e-07,1.8344610459849628e-05
1.6293462810718062e-06,2.7691164745784847e-06,8.448953328059086e-07,1.8236031068236152e-05
1.6342040451649043e-06,2.819613644253023e-06,8.471050054440772e-07,1.8120866019242168e-05
1.639569983275799e-06,2.869700228115705e-06,8.501817878773853e-07,1.7999436235157438e-05
1.6453558029181351e-06,2.919131626802196e-06,8.54145011822892e-07,1.7872133213753407e-05
1.6514809125052342e-06,2.9676745508470797e-06,8.590140026031335e-07,1.7739343324842986e-05
1.657863785109867e-06,3.0151323976490435e-06,8.648074062059895e-07,1.7601375275637158e-05
1.664414004083884e-06,3.0613808372473373e-06,8.715346832513849e-07,1.7458430310909407e-05
1.6710301123851117e-06,3.1063877627862417e-06,8.791878619029335e-07,1.7310617362107737e-05
1.6776048621850247e-06,3.1502009571009984e-06,8.877400317615827e-07,1.7157992699368693e-05
1.6840338573704568e-06,3.1929092492802014e-06,8.971512466998092e-07,1.7000610332582654e-05
1.6902202417722255e-06,3.2345989725580465e-06,9.07378216314865e-07,1.6838578056085065e-05
1.696072287000884e-06,3.275329709620901e-06,9.183823547782871e-07,1.6672125759276892e-05
1.7014990050010669e-06,3.315141068363257e-06,9.301338627708549e-07,1.650168593510908e-05
1.706409190782763e-06,3.3540767724969227e-06,9.426127958968216e-07,1.6327933566003797e-05
1.710712963070376e-06,3.392201568609511e-06,9.5580712748668e-07,1.615171991104155e-05
1.7143229523866122e-06,3.4296052847701324e-06,9.697066262672206e-07,1.5973928984968884e-05
1.717153729459149e-06,3.466403704653815e-06,9.842927241968838e-07,1.5795368860865155e-05
1.7191198801190762e-06,3.5027396229823264e-06,9.995295298195327e-07,1.561675810030112e-05
1.7201353814519719e-06,3.5387765021850297e-06,1.015361941683179e-06,1.543876009228685e-05
1.7201160213230762e-06,3.5746756939798165e-06,1.0317181569864417e-06,1.5262001863265656e-05
1.7189847098405327e-06,3.610564644814453e-06,1.0485118380027693e-06,1.5087068625138586e-05
1.7166790822763129e-06,3.6465202138700296e-06,1.0656463496757331e-06,1.4914523267536817e-05
1.7131571909458598e-06,3.6825741841633766e-06,1.0830212317886483e-06,1.4744985072521371e-05
1.7083951703321772e-06,3.718724676224842e-06,1.100536250362993e-06,1.4579183808453659e-05
1.7023783401305741e-06,3.7549476106517236e-06,1.1180935679173451e-06,1.4417895862625409e-05
1.6950940468206499e-06,3.7912131314347067e-06,1.1356026867435566e-06,1.4261813975877453e-05
1.6865322191167226e-06,3.827499801718485e-06,1.1529884151482198e-06,1.4111457838282605e-05
1.6766939411037598e-06,3.8637935579397835e-06,1.1701935392697785e-06,1.396719288100741e-05
1.6656003706949582e-06,3.900069211094876e-06,1.187169815717433e-06,1.3829395482863605e-05
1.6532910943773182e-06,3.936266325222794e-06,1.2038656158274941e-06,1.3698690936313795e-05
1.6398139485562471e-06,3.972278480302734e-06,1.2202203928655328e-06,1.357606389222103e-05
1.6252186367239715e-06,4.007967019527511e-06,1.236165489203799e-06,1.3462748397811189e-05
1.609556844196451e-06,4.043190739554217e-06,1.2516284473842872e-06,1.3360015288656335e-05
1.592883804062803e-06,4.077833208182053e-06,1.2665371166577438e-06,1.3268996587877147e-05
1.5752605729506457e-06,4.111816374342031e-06,1.2808190849665758e-06,1.3190581899791162e-05
1.5567560611130169e-06,4.145093924595777e-06,1.294399403766812e-06,1.3125360875338695e-05
1.537444771841756e-06,4.177631235852125e-06,1.3072026544633112e-06,1.3073595762100572e-05
1.5174010391473216e-06,4.209406195344067e-06,1.319158742355971e-06,1.3035228912412219e-05
1.4966951137406426e-06,4.240445218061265e-06,1.330206984981698e-06,1.3009919963552735e-05
1.4753932321597202e-06,4.270854887123823e-06,1.340295465257083e-06,1.299710181888094e-05
1.453561359476276e-06,4.300816131074645e-06,1.349379019740206e-06,1.299604800168854e-05
1.4312712259749363e-06,4.330551898698435e-06,1.3574205353014277e-06,1.3005934061231353e-05
1.4086024189528469e-06,4.360289593783483e-06,1.364393028834896e-06,1.3025878431088769e-05
1.3856366354935163e-06,4.3902262493307864e-06,1.3702770479241694e-06,1.3054964509541353e-05
1.3624508860327336e-06,4.4204995616464495e-06,1.3750558497293464e-06,1.3092253060682362e-05
1.3391158009460741e-06,4.451178338862034e-06,1.3787154083172935e-06,1.3136791572897195e-05
1.3156951873350928e-06,4.482282635561052e-06,1.3812492897272915e-06,1.3187617195817596e-05
1.2922446017112174e-06,4.513815491361372e-06,1.3826618507203312e-06,1.3243757075591515e-05
1.2688140433815306e-06,4.545778466174757e-06,1.3829660162732377e-06,1.3304253096607142e-05
1.245456464803765e-06,4.5781644137500325e-06,1.3821781484368047e-06,1.3368218164227275e-05
1.222237050663303e-06,4.610938658052592e-06,1.3803135293347224e-06,1.3434882299116615e-05
1.1992371834215285e-06,4.6440212889447205e-06,1.3773837613213942e-06,1.3503590587939965e-05
1.1765497255101152e-06,4.677279766782991e-06,1.373396809038482e-06,1.3573762831973567e-05
1.1542686989771023e-06,4.710538342141276e-06,1.3683598889809091e-06,1.3644842248787473e-05
1.1324827904949834e-06,4.743603679625576e-06,1.3622865966036202e-06,1.3716261461622115e-05
1.1112795122489422e-06,4.776291542825799e-06,1.3552065092614418e-06,1.3787464078723653e-05
1.0907574808950143e-06,4.808432755188765e-06,1.3471670864654808e-06,1.3857964264748638e-05
1.071036638654498e-06,4.8398558384463475e-06,1.338223804841605e-06,1.3927365417037982e-05
1.052255307326716e-06,4.870372262068106e-06,1.3284289285700006e-06,1.3995315974574283e-05
1.0345542838916081e-06,4.899786551495383e-06,1.317827494847918e-06,1.4061445607624274e-05
1.0180620187181523e-06,4.927919711204903e-06,1.3064586491199836e-06,1.4125321946193586e-05
1.0028900212212372e-06,4.954619526563702e-06,1.2943579226998767e-06,1.4186444011363571e-05
9.891314346494944e-07,4.97975123401419e-06,1.2815583058261455e-06,1.4244254622705032e-05
9.768555340306818e-07,5.003184383191767e-06,1.2680901201532282e-06,1.4298150620859173e-05
9.661028933464311e-07,5.024789337774421e-06,1.2539814107625271e-06,1.4347487209687045e-05
9.568869002200793e-07,5.044439813156223e-06,1.2392606999944463e-06,1.4391577794053796e-05
9.491992581208296e-07,5.0620115281766405e-06,1.223961598155092e-06,1.4429704005073764e-05
9.430143779205628e-07,5.07737498194291e-06,1.208124686394778e-06,1.4461161057897034e-05
9.38291884312433e-07,5.090387770447273e-06,1.1917935809178802e-06,1.4485342270781644e-05
9.349784776811331e-07,5.100891285372069e-06,1.1750100706741185e-06,1.4501805620763733e-05
9.330084815301548e-07,5.108715610849951e-06,1.1578162111582872e-06,1.4510254664409879e-05
9.32303971058264e-07,5.1136962893097416e-06,1.140267378250614e-06,1.4510469799708332e-05
9.32775985962764e-07,5.115697363042324e-06,1.1224507235912236e-06,1.4502282066865314e-05
9.343261444570885e-07,5.114625802203515e-06,1.1044929848402386e-06,1.4485597133138276e-05
9.368480956071518e-07,5.110426904826155e-06,1.0865486832609353e-06,1.4460415071958985e-05
9.402289717201557e-07,5.103063328364255e-06,1.0687780507386835e-06,1.4426827041909604e-05
9.443515306855341e-07,5.09249399637066e-06,1.0513283709830893e-06,1.4384994135209126e-05
9.4909845530412e-07,5.078666990442056e-06,1.0343248882362689e-06,1.433513973533386e-05
9.54358135598744e-07,5.061524086635006e-06,1.017871171382871e-06,1.4277632382945526e-05
9.60028083010397e-07,5.041007785091823e-06,1.0020555029641016e-06,1.4213124976675806e-05
9.660154144710235e-07,5.017066022968712e-06,9.869591002611014e-07,1.4142584160942516e-05
9.72237049994429e-07,4.989660699003962e-06,9.726626441006108e-07,1.4067182423685525e-05
9.786203156643887e-07,4.958790832141169e-06,9.592486497830892e-07,1.3988165454880027e-05
9.851047532868476e-07,4.924522695116996e-06,9.468009779055637e-07,1.3906755609876748e-05
9.91643704645845e-07,4.8869996332777885e-06,9.354048801980645e-07,1.3824148457237177e-05
9.982021805175216e-07,4.8464161070181485e-06,9.25145735199407e-07,1.3741625281799827e-05
1.004752341072807e-06,4.802975626986142e-06,9.161015244514757e-07,1.3660645321823925e-05
1.0112697296151009e-06,4.75686608547901e-06,9.083317007122131e-07,1.3582800134928023e-05
1.0177318123699e-06,4.708263570134181e-06,9.018722292575201e-07,1.3509690023125427e-05
1.0241201929918909e-06,4.657348974163437e-06,8.967398906692215e-07,1.3442811724691775e-05
1.030424100018164e-06,4.604314716321364e-06,8.929377183069736e-07,1.33834798792757e-05
1.036638895404447e-06,4.549358528782754e-06,8.904562252223425e-07,1.3332785478563969e-05
1.0427589042818343e-06,4.492684784691966e-06,8.892748024269176e-07,1.3291587856153133e-05
1.04877211264849e-06,4.4345187033604805e-06,8.893650855379722e-07,1.3260520065688914e-05
1.054662101155764e-06,4.375109647131871e-06,8.906937437187345e-07,1.323998579892834e-05
1.0604148731852854e-06,4.314714494447982e-06,8.932296525319081e-07,1.323014660502346e-05
1.0660255912579599e-06,4.253583613304612e-06,8.969581086265608e-07,1.3230910113426199e-05
1.0715009722635642e-06,4.191968164862297e-06,9.018904280475428e-07,1.3241935680052745e-05
1.0768580583896368e-06,4.1301477525786566e-06,9.080607008581533e-07,1.3262674312643205e-05
1.082129225414505e-06,4.068468250160705e-06,9.155152223570936e-07,1.3292434423153081e-05
1.0873756745174387e-06,4.007369691796113e-06,9.243009662726688e-07,1.3330458917208972e-05
1.092693694049618e-06,3.947380145607492e-06,9.344548626194868e-07,1.337600392479049e-05
1.0982055673143817e-06,3.8890720545768475e-06,9.459946797644444e-07,1.3428384203262476e-05
1.104044134167122e-06,3.833001644876452e-06,9.589144016339998e-07,1.348696454413305e-05
1.1103371752899094e-06,3.7796581928307127e-06,9.73188703170555e-07,1.3551134073293332e-05
1.1171926345178057e-06,3.7294466707511636e-06,9.88784436277478e-07,1.3620297003257906e-05
1.124690663375481e-06,3.6827073477471254e-06,1.005668810075448e-06,1.3693871159327216e-05
1.1328876395720451e-06,3.6397488131630822e-06,1.0238068504116607e-06,1.3771287148642294e-05
1.141825747491945e-06,3.600873705846331e-06,1.043150998954293e-06,1.3851987759141488e-05
1.1515357369899316e-06,3.566392578350213e-06,1.0636332601051564e-06,1.3935406790320792e-05
1.162029937634335e-06,3.5366258000441865e-06,1.0851662176232726e-06,1.4020932135651453e-05
1.173294478920564e-06,3.511899865688868e-06,1.1076513309518129e-06,1.410792411524091e-05
1.1852881473828748e-06,3.4925454852986237e-06,1.1309918766398997e-06,1.4195813248510437e-05
1.1979475518665554e-06,3.4788924245487227e-06,1.1551041674062395e-06,1.4284181288995554e-05
1.21119651252208e-06,3.471254546293865e-06,1.1799166163892416e-06,1.4372766169660251e-05
1.224957020272788e-06,3.469910439378763e-06,1.2053559806586898e-06,1.4461439761676194e-05
1.2391557851338e-06,3.4750837328598298e-06,1.231333603240237e-06,1.455018998936983e-05
1.2537216798186672e-06,3.486920084673719e-06,1.2577414272552223e-06,1.463908435870886e-05
1.2685773684667368e-06,3.5054678259512114e-06,1.284455592668838e-06,1.4728201987432157e-05
1.2836338068969716e-06,3.5306721785896637e-06,1.3113420375852324e-06,1.481757672160816e-05
1.2987929056867675e-06,3.5623800138597984e-06,1.338261192915942e-06,1.490719580838626e-05
1.3139547860532127e-06,3.6003596137629533e-06,1.3650706110387684e-06,1.499702864596226e-05
1.3290215931964998e-06,3.6443475206498407e-06,1.3916250004446235e-06,1.5087042668221366e-05
1.3438983799752984e-06,3.694110501074743e-06,1.4177749187627232e-06,1.5177181950454068e-05
1.3585007548226424e-06,3.7494958267403663e-06,1.4433676405722082e-06,1.5267308278153257e-05
1.372769788217696e-06,3.810453047512482e-06,1.4682536102389464e-06,1.5357153835022573e-05
1.386680826101581e-06,3.877018871993187e-06,1.4922970898032195e-06,1.5446318713807967e-05
1.4002388267112472e-06,3.949268082342778e-06,1.5153846393195447e-06,1.5534286745550394e-05
1.4134676091792964e-06,4.027249796843012e-06,1.5374272506993422e-06,1.5620442954369903e-05
1.4264001476138941e-06,4.110930490776743e-06,1.5583557905943354e-06,1.570409929767227e-05
1.4390687182011597e-06,4.20015738791571e-06,1.5781117545640888e-06,1.5784511422886624e-05
1.4514964879189038e-06,4.294650922054343e-06,1.596638913452641e-06,1.5860881824234226e-05
1.463698082026841e-06,4.3940228846562585e-06,1.6138805641436487e-06,1.5932389872237405e-05
1.4756870203715947e-06,4.4978049759780566e-06,1.6297802046773951e-06,1.599830507486264e-05
1.4874773808588802e-06,4.605477250515835e-06,1.6442807994146743e-06,1.605817804593842e-05
1.499077035019129e-06,4.716491754699357e-06,1.657323498137664e-06,1.611194397923819e-05
1.5104807482375426e-06,4.8302857907654896e-06,1.6688495456264637e-06,1.615979676893768e-05
1.5216670435355768e-06,4.946285162429282e-06,1.6788043180051389e-06,1.6201957465506933e-05
1.5325978913412285e-06,5.063906347987046e-06,1.6871395221088172e-06,1.6238533702360998e-05
1.5432202477410502e-06,5.182567325198676e-06,1.6938140246127968e-06,1.626949822738247e-05
1.5534689471778775e-06,5.3017097971130385e-06,1.6987992590801858e-06,1.6294708019139506e-05
1.5632735890776618e-06,5.420820453313884e-06,1.7020927796235168e-06,1.6313909694483534e-05
1.5725713459469141e-06,5.539428356171828e-06,1.7037330122122298e-06,1.632673887926259e-05
1.5813182723742503e-06,5.657074735289475e-06,1.70380185631085e-06,1.6332734374441448e-05
1.5894884808791843e-06,5.7732864287271276e-06,1.7024117449147723e-06,1.6331363740907582e-05
1.5970624101996975e-06,5.8875804125655925e-06,1.699687294435069e-06,1.6322054152196613e-05
1.6040168279573994e-06,5.999485616554547e-06,1.6957510756218446e-06,1.630423573454971e-05
1.6103238471623591e-06,6e-07,1.6907171386850602e-06,1.6277397394653863e-05
1.615953726419549e-06,6e-07,1.6846897285845283e-06,1.6241130355860145e-05
1.6208753140889048e-06,6e-07,1.6777610147776454e-06,1.6195143910407903e-05
1.6250554365437897e-06,6e-07,1.6700094182804606e-06,1.613928163773996e-05
1.6284614387561144e-06,6e-07,1.6615048090329863e-06,1.6073556768289418e-05
1.6310672315396048e-06,6e-07,1.6523190742291726e-06,1.599816113459799e-05
1.6328584707427915e-06,6e-07,1.6425332711877498e-06,1.5913417038235856e-05
1.633832167354645e-06,6e-07,1.6322368465482142e-06,1.5819720061083366e-05
1.6339908532686588e-06,6e-07,1.6215240217563238e-06,1.571750529686907e-05
1.6333370015147188e-06,6e-07,1.610492314105954e-06,1.5607213005829173e-05
1.6318710646016658e-06,6e-07,1.5992426666197192e-06,1.548925165295596e-05
1.6295902943212169e-06,6e-07,1.5878782740708431e-06,1.536398207019294e-05
1.6264873836727346e-06,6e-07,1.5764984667971633e-06,1.5231724054451853e-05
1.6225506423561708e-06,6e-07,1.565189069712769e-06,1.5092766789383396e-05
1.6177646058025953e-06,6e-07,1.5540174064997392e-06,1.494736718349602e-05
1.6121111035179106e-06,6e-07,1.5430369291928219e-06,1.47957409142948e-05
1.6055741060787158e-06,6e-07,1.5322974508546594e-06,1.4638064826941114e-05
1.598149252829691e-06,6e-07,1.5218514285202997e-06,1.4474492183042925e-05
1.5898526779470084e-06,6e-07,1.5117496230823566e-06,1.4305162707119987e-05
1.5807214593132938e-06,6e-07,1.5020311248028191e-06,1.4130206383743427e-05
1.5708056065360383e-06,6e-07,1.4927194059215188e-06,1.3949766918127731e-05
1.560159357664952e-06,6e-07,1.4838287412527697e-06,1.3764044529018631e-05
1.5488363394019429e-06,6e-07,1.4753742524365528e-06,1.3573331718694466e-05
1.536886640769245e-06,6e-07,1.4673761888926873e-06,1.3378039517106812e-05
1.524354980217805e-06,6e-07,1.4598552010006814e-06,1.3178708824438813e-05
1.5112833164366439e-06,6e-07,1.4528233409063543e-06,1.2975984528254465e-05
1.4977173182838698e-06,6e-07,1.4462800301583503e-06,1.2770554057012793e-05
1.4837096076005331e-06,6e-07,1.440217456393741e-06,1.2563087804041991e-05
1.469317389700232e-06,6e-07,1.434629986823225e-06,1.2354207846621664e-05
1.4546000802470663e-06,6e-07,1.4295196392280848e-06,1.214447090251128e-05
1.439620526305356e-06,6e-07,1.424893814067178e-06,1.1934367121706695e-05
1.4244477420498354e-06,6e-07,1.4207577242717286e-06,1.172435175105676e-05
1.4091582761188557e-06,6e-07,1.417107923459143e-06,1.1514901716651407e-05
1.3938338807127545e-06,6e-07,1.41392938993293e-06,1.1306600160224345e-05
1.3785556390354919e-06,5.977879578430132e-06,1.411194411233531e-06,1.1100230418911357e-05
1.3634026089189309e-06,5.853856273127643e-06,1.4088624131382628e-06,1.0896785694393247e-05
1.3484593454718102e-06,5.727081097426221e-06,1.406880020061836e-06,1.0697352941004204e-05
1.33382057753961e-06,5.598397098756721e-06,1.405181563557975e-06,1.0502976458264103e-05
1.319585335762497e-06,5.468634446614994e-06,1.4036924086482646e-06,1.0314594987320338e-05
1.3058498173549702e-06,5.3385651316275394e-06,1.4023354050546814e-06,1.013302281868872e-05
1.2927055956371126e-06,5.2088926368473194e-06,1.4010387444146105e-06,9.958940250133957e-06
1.2802385684328406e-06,5.080269834733371e-06,1.399744772102166e-06,9.792900310978928e-06
1.2685243791334022e-06,4.9533164750709325e-06,1.398416931975516e-06,9.635351174760632e-06
1.2576225965198756e-06,4.8286134943921685e-06,1.397039269616346e-06,9.48670068505262e-06
1.247574571362647e-06,4.706680023635006e-06,1.395607885754349e-06,9.347410655541763e-06
1.2384052017867314e-06,4.587963023596532e-06,1.3941194286725063e-06,9.2180107389196e-06
1.230124384262927e-06,4.472850620507284e-06,1.3925624038139446e-06,9.099004648422764e-06
1.222726269427426e-06,4.361685348483174e-06,1.3909154039586935e-06,8.990775121059389e-06
1.2161886034467967e-06,4.254760316313596e-06,1.3891514968475712e-06,8.89355844020102e-06
1.2104746517873778e-06,4.152309774955153e-06,1.3872433169796752e-06,8.807511016092068e-06
1.2055382763827446e-06,4.05451233609373e-06,1.38516493942375e-06,8.732893347738678e-06
1.2013336940670571e-06,3.961509681684802e-06,1.3828905892807029e-06,8.670275279634684e-06
1.1978295199491735e-06,3.873425483848145e-06,1.3803915404042915e-06,8.620565447447517e-06
1.1950187222186232e-06,3.790366940115135e-06,1.3776331097181326e-06,8.58484417565518e-06
1.1929172143805285e-06,3.71240712981799e-06,1.3745755014112886e-06,8.56416425534142e-06
1.1915556733451458e-06,3.6395668165246215e-06,1.3711800737065162e-06,8.55942316646929e-06
1.1909710513092638e-06,3.5718135676568876e-06,1.3674159065113556e-06,8.571294994633259e-06
1.191198589438999e-06,3.5090722560549933e-06,1.363264467111245e-06,8.600185450763111e-06
1.192270501240052e-06,3.4512304215021493e-06,1.3587271489346482e-06,8.646201850926183e-06
1.1942265716220884e-06,3.398136832820336e-06,1.3538317728474898e-06,8.709149796811588e-06
1.1971244274101458e-06,3.349606278609305e-06,1.3486279083248629e-06,8.788556996966633e-06
1.2010369767574631e-06,3.305434304950431e-06,1.3431735622249264e-06,8.883714125794148e-06
1.20604344917524e-06,3.2654070622607397e-06,1.3375228541704296e-06,8.99372636032408e-06
1.2122224582369422e-06,3.2293004618830814e-06,1.331717916050855e-06,9.117573780539247e-06
1.2196435349059323e-06,3.1968815995964773e-06,1.3257849484609163e-06,9.254178897463092e-06
1.2283546246881909e-06,3.1679151120760483e-06,1.3197345783429396e-06,9.402474038008204e-06
1.2383719450091387e-06,3.142163610401858e-06,1.313565351411473e-06,9.561454416073177e-06
1.2496775134876622e-06,3.119384529763951e-06,1.3072676461677796e-06,9.730199585595216e-06
1.2622219418694281e-06,3.099336565636945e-06,1.300826192819255e-06,9.907852225391172e-06
1.2759280534223805e-06,3.0817944299464656e-06,1.2942231791800482e-06,1.0093571164579908e-05
1.2906946618161213e-06,3.0665558358329413e-06,1.2874437863700858e-06,1.0286496469967784e-05
1.3064009299723741e-06,3.053432920628388e-06,1.2804801837389529e-06,1.0485734553261243e-05
1.3229103749144286e-06,3.0422403934235717e-06,1.2733296118383137e-06,1.0690334767125177e-05
1.3400761505772112e-06,3.032794003466284e-06,1.2659907533056978e-06,1.0899252459079582e-05
1.357751735641062e-06,3.024912955941144e-06,1.2584650708039323e-06,1.1111329079926973e-05
1.3758055931403477e-06,3.0184156937847657e-06,1.2507598200643604e-06,1.132530772215316e-05
1.3941302385579642e-06,3.0131157578473462e-06,1.242885862836553e-06,1.1539892102289738e-05
1.4126387851849156e-06,3.008826936960247e-06,1.23485271935475e-06,1.175384438342959e-05
1.431254021373096e-06,3.005369729723732e-06,1.226665466068833e-06,1.1966070011511564e-05
1.4499000739311912e-06,3.00256955763797e-06,1.2183228164848895e-06,1.2175647239372162e-05
1.4684990344414455e-06,3.000254618761272e-06,1.209816860987103e-06,1.2381823263731513e-05
1.4869691261897575e-06,2.998259106490662e-06,1.2011350626758266e-06,1.2584014147264986e-05
1.5052252411936588e-06,2.9964224252500345e-06,1.1922620484824869e-06,1.2781808205535915e-05
1.5231833310369803e-06,2.9945826968019937e-06,1.1831801430914957e-06,1.2974923928467465e-05
1.540764218362017e-06,2.992575445360957e-06,1.1738696371517108e-06,1.3163103300325207e-05
1.5578928401855244e-06,2.9902388761297402e-06,1.1643094815459835e-06,1.3346029361986818e-05
1.5744946232138201e-06,2.9874159602248774e-06,1.1544790573706172e-06,1.3523351164652686e-05
1.5904930845766104e-06,2.9839526998600986e-06,1.1443629312673436e-06,1.3694774882505268e-05
1.6058101534731071e-06,2.979700758233918e-06,1.1339585791129602e-06,1.3860139841129425e-05
1.6203680866929511e-06,2.974523470027985e-06,1.1232802886173932e-06,1.4019469237991795e-05
1.6340922246708885e-06,2.968300024898889e-06,1.112353467886715e-06,1.4173009555295294e-05
1.6469137718658597e-06,2.960935576167679e-06,1.1012054027963885e-06,1.4321211842411752e-05
1.6587717105030929e-06,2.952385039385873e-06,1.0898631979891409e-06,1.4464619992844107e-05
1.6696141887502604e-06,2.942676607284367e-06,1.0783607445404746e-06,1.4603718022872007e-05
1.679399671545733e-06,2.931913812593042e-06,1.0667471537395673e-06,1.4738807163008932e-05
1.6880965476084037e-06,2.920250671090708e-06,1.0550893170045195e-06,1.4869947847748407e-05
1.695680157534876e-06,2.9078548756264097e-06,1.0434673194224757e-06,1.4996964635555252e-05
1.7021281455631506e-06,2.8948897071407316e-06,1.0319652019884374e-06,1.5119488906221204e-05
1.7074186392466597e-06,2.8815347648033474e-06,1.020661389632619e-06,1.5237043946968436e-05
1.7115370601636258e-06,2.8680270113728746e-06,1.009622550083232e-06,1.5349219199125453e-05
1.7144864031190174e-06,2.8546801772247013e-06,9.989014522511093e-07,1.5455889222545874e-05
1.7162884754484057e-06,2.8418584942672006e-06,9.885399382175714e-07,1.555729523007967e-05
1.7169752205147529e-06,2.829922807894765e-06,9.785775774835753e-07,1.565391222725882e-05
1.7165796982779738e-06,2.8191978397388625e-06,9.690603253597374e-07,1.5746234378690055e-05
1.7151335375998688e-06,2.8099884628533773e-06,9.600435316894551e-07,1.5834628964608648e-05
1.7126692733879688e-06,2.8026157631371543e-06,9.51591904873274e-07,1.5919358232719792e-05
1.709220889985551e-06,2.797425430682969e-06,9.437800880082802e-07,1.6000797122830514e-05
1.7048218360114303e-06,2.7947561654765666e-06,9.366898422022186e-07,1.607967638756629e-05
1.6995082088982682e-06,2.7948913635066953e-06,9.304000220928214e-07,1.6157121292178525e-05
1.6933305548072824e-06,2.7980250299234342e-06,9.24976613625753e-07,1.6234491075659884e-05
1.6863653992986732e-06,2.8042563971055247e-06,9.204732868608331e-07,1.6313181799762342e-05
1.6787147252951953e-06,2.813605909135521e-06,9.169387627939705e-07,1.6394472922575235e-05
1.670492348381851e-06,2.8260405062390275e-06,9.144177078257192e-07,1.647941660221839e-05
1.6618081247599285e-06,2.841498902701505e-06,9.129438733153116e-07,1.6568777570334084e-05
1.6527620551562185e-06,2.859902146033438e-06,9.125359942330856e-07,1.6663040977966313e-05
1.6434467735617226e-06,2.881146005328785e-06,9.131991161135084e-07,1.6762475321906993e-05
1.633948330316422e-06,2.905095766848559e-06,9.149251860984406e-07,1.6867205019789116e-05
1.6243455108907263e-06,2.931592960107481e-06,9.176932785875912e-07,1.6977243119347063e-05
1.614710193970139e-06,2.9604589458401e-06,9.214739906459736e-07,1.709246405216716e-05
1.6051046134363806e-06,2.991494495732841e-06,9.262345437392748e-07,1.7212549066253666e-05
1.5955778707678498e-06,3.024493098226453e-06,9.31939295209087e-07,1.7336950126253476e-05
1.5861667714178032e-06,3.0592634893342656e-06,9.385478655409559e-07,1.746489546256497e-05
1.576899112161639e-06,3.0956358749116043e-06,9.460143854881063e-07,1.759545116896821e-05
1.5677960346197031e-06,3.133446862147868e-06,9.542860570565304e-07,1.7727620245784808e-05
1.558871616400077e-06,3.1725227590822e-06,9.632990768063629e-07,1.786042227487149e-05
1.5501309146505472e-06,3.212676507122041e-06,9.729762235508608e-07,1.7992929721907222e-05
1.5415715266058412e-06,3.2537154870556567e-06,9.832327001070084e-07,1.8124290694117725e-05
1.533190124731276e-06,3.2954468775087288e-06,9.939896148932345e-07,1.8253759416529142e-05
1.5249865076071669e-06,3.337673337000033e-06,1.0051853362491502e-06,1.8380712615555348e-05
1.5169585531676451e-06,3.38018338988596e-06,1.016776377246574e-06,1.8504627395413844e-05
1.5090939960782075e-06,3.422744176412705e-06,1.0287302244642356e-06,1.8625033981297572e-05
1.5013691817933641e-06,3.465107173337861e-06,1.0410182188046759e-06,1.8741466289201325e-05
1.4937550517908574e-06,3.5070369193006974e-06,1.053612216172282e-06,1.8853419306521447e-05
1.4862253352723587e-06,3.5483550579924834e-06,1.0664821249646223e-06,1.8960341606138628e-05
1.4787636744099223e-06,3.588975215484602e-06,1.0795916352736874e-06,1.9061681803544306e-05
1.4713644699961497e-06,3.6289105703634895e-06,1.092896118851298e-06,1.9156940526245828e-05
1.4640270058010741e-06,3.6682505359819017e-06,1.1063469687123873e-06,1.924567900470356e-05
1.4567515084562113e-06,3.707116025896302e-06,1.1198980189840334e-06,1.9327503732764888e-05
1.4495391411166545e-06,3.7456251976372187e-06,1.1335085809894082e-06,1.9402072910943696e-05
1.4423898377438718e-06,3.7838968932970917e-06,1.1471452720917871e-06,1.9469124217501827e-05
1.4352996643299281e-06,3.822071248197765e-06,1.1607844253177721e-06,1.952846771159857e-05
1.4282644333048819e-06,3.8603106121603205e-06,1.1744103499158644e-06,1.9579924872573706e-05
1.4212860517751838e-06,3.8987757782196135e-06,1.1880066246402442e-06,1.962326390739382e-05
1.4143722014882328e-06,3.937593865713059e-06,1.2015465611027083e-06,1.965816467688727e-05
1.4075308836763285e-06,3.976836284181966e-06,1.2149912463327184e-06,1.9684215240936785e-05
1.4007673351585178e-06,4.016519522426195e-06,1.2282943246314494e-06,1.970095317623124e-05
1.3940850266676797e-06,4.056623595673157e-06,1.2414053933624493e-06,1.970795408438512e-05
1.387489869259556e-06,4.097109194825688e-06,1.254269305429798e-06,1.9704916953702922e-05
1.380991995543724e-06,4.137920441848097e-06,1.2668265001036257e-06,1.969167617365376e-05
1.3745990922713775e-06,4.1789736705891365e-06,1.279016570637052e-06,1.966813389333069e-05
1.368308780620336e-06,4.22014164146592e-06,1.2907803756929808e-06,1.963417621083625e-05
1.362112510162736e-06,4.261245813434067e-06,1.302061024091882e-06,1.95896262127942e-05
1.3560114279503158e-06,4.302065155176218e-06,1.3128108219070943e-06,1.9534235825006132e-05
1.3500320143443113e-06,4.3423590699621555e-06,1.3230018303024547e-06,1.946770681051981e-05
1.3442291466657006e-06,4.381889647921842e-06,1.3326285669454487e-06,1.9389767366320457e-05
1.338674617462525e-06,4.420427971933944e-06,1.3417001606215193e-06,1.930035328692293e-05
1.3334387198429485e-06,4.457746898170992e-06,1.3502308314989826e-06,1.9199852368152155e-05
1.3285772527912875e-06,4.4936144726585914e-06,1.3582356700595079e-06,1.90892254977728e-05
1.3241294042857695e-06,4.527795880635804e-06,1.3657299528499422e-06,1.8969882199260293e-05
1.3201192118805428e-06,4.5600647098263335e-06,1.3727268272142909e-06,1.8843421791274494e-05
1.3165561033323653e-06,4.590213365443664e-06,1.379233978787193e-06,1.8711405503169567e-05
1.3134364102655613e-06,4.618047948159014e-06,1.38525596549519e-06,1.8575240032675215e-05
1.3107444765559848e-06,4.643375991453386e-06,1.3908029232270122e-06,1.843624202065197e-05
1.3084550238618192e-06,4.666007461960823e-06,1.395897573276844e-06,1.829584102759737e-05
1.3065397913427755e-06,4.685769906763485e-06,1.4005747950956185e-06,1.815569732771341e-05
1.3049731826369939e-06,4.702525431544252e-06,1.4048743782360112e-06,1.8017626378995466e-05
1.303733441059554e-06,4.716180978775158e-06,1.4088310494780324e-06,1.7883450531277224e-05
1.3028048545571504e-06,4.726693741355968e-06,1.4124674316831403e-06,1.7754875129693202e-05
1.3021839391669835e-06,4.734078186054151e-06,1.4157916067374677e-06,1.7633387390483294e-05
1.3018833361605516e-06,4.738409165675194e-06,1.4187968679798818e-06,1.7520188184972103e-05
1.3019271722946852e-06,4.739808181716099e-06,1.4214638199269874e-06,1.741618246627894e-05
1.302339718946388e-06,4.7384199251587445e-06,1.423765080623247e-06,1.732201273952518e-05
1.3031338302924571e-06,4.7344083656283245e-06,1.4256691140267831e-06,1.7238090075087126e-05
1.3043050731305081e-06,4.727982101019874e-06,1.427141015348741e-06,1.716460279239729e-05
1.3058333847966235e-06,4.719418262364499e-06,1.4281418612534797e-06,1.7101511945732725e-05
1.307687633493562e-06,4.709050590411632e-06,1.4286290698510043e-06,1.704854571526341e-05
1.3098276561823123e-06,4.697221942692354e-06,1.4285591046400563e-06,1.7005211939673494e-05
1.3122052351695291e-06,4.684234969385061e-06,1.4278913433702262e-06,1.6970841909600092e-05
1.3147678530591164e-06,4.6703353664575805e-06,1.4265917963616396e-06,1.6944653140133387e-05
1.3174642752930785e-06,4.655732131015278e-06,1.4246384631165104e-06,1.692581145337341e-05
1.3202496389252096e-06,4.640630057187561e-06,1.422028023293376e-06,1.6913470194567616e-05
1.3230878317332202e-06,4.625242462764637e-06,1.4187785584420701e-06,1.6906774208744447e-05
1.3259473271169286e-06,4.6097730119018215e-06,1.4149243229747176e-06,1.6904856548247917e-05
1.3287920738476869e-06,4.5943908664903644e-06,1.41050604108826e-06,1.6906853646746187e-05
1.331575103241098e-06,4.57922465920167e-06,1.405565956334552e-06,1.6911917144985365e-05
1.334237948382724e-06,4.564367162202851e-06,1.4001517303052264e-06,1.6919201068293493e-05
1.3367140282441514e-06,4.549880264108296e-06,1.3943221261464329e-06,1.6927836566765936e-05
1.3389346923217457e-06,4.535806424415529e-06,1.3881445216694041e-06,1.6936913985218437e-05
1.3408349463658294e-06,4.522176717465051e-06,1.381683645256939e-06,1.6945497896064043e-05
1.3423545653637501e-06,4.509003007393165e-06,1.3749913970924437e-06,1.695269894068797e-05
1.343435126562023e-06,4.496273764315779e-06,1.3681057180204563e-06,1.6957762130973738e-05
1.3440178273584044e-06,4.483972542887833e-06,1.3610570533954807e-06,1.6960086562552682e-05
1.344044550731037e-06,4.472104272037285e-06,1.3538759057457636e-06,1.6959171291844886e-05
1.343459937194215e-06,4.460706998529412e-06,1.346594940588383e-06,1.695456117328035e-05
1.342211466871913e-06,4.449846876029461e-06,1.3392440605308472e-06,1.694582058089492e-05
1.3402482607021459e-06,4.439608143051999e-06,1.3318439159906995e-06,1.6932526567914346e-05
1.3375218967574922e-06,4.430085305711298e-06,1.3244040532653697e-06,1.691432776790359e-05
1.3339890330354756e-06,4.421372006546017e-06,1.3169265400766668e-06,1.689106402518908e-05
1.3296123940899594e-06,4.413540662358592e-06,1.3094104557853808e-06,1.686282059646713e-05
1.3243616113290968e-06,4.4066210397980914e-06,1.3018546732789171e-06,1.682987774189359e-05
1.3182188480907938e-06,4.400593939696544e-06,1.2942647205008143e-06,1.6792639787735067e-05
1.311186455138807e-06,4.395402996382444e-06,1.2866657335515082e-06,1.675157104532608e-05
1.3032878297964618e-06,4.390967236693209e-06,1.2791091205141774e-06,1.670712661633173e-05
1.2945595244155605e-06,4.387182924237127e-06,1.2716624518815958e-06,1.665969627194225e-05
1.2850422735647422e-06,4.383926513205771e-06,1.2643906563934152e-06,1.6609565919191127e-05
1.2747791270714714e-06,4.38106425807142e-06,1.2573442984802691e-06,1.655689138316637e-05
1.2638205545234508e-06,4.378454738559823e-06,1.2505606790281642e-06,1.6501703016832987e-05
1.2522292025598751e-06,4.375947630989752e-06,1.2440724439724336e-06,1.6443943026630466e-05
1.2400787232324119e-06,4.373398909065996e-06,1.2379144202052825e-06,1.638350272168126e-05
1.2274476131467257e-06,4.37069824761587e-06,1.2321227348740551e-06,1.6320243001561398e-05
1.214413956862856e-06,4.367782368365214e-06,1.2267285937847456e-06,1.6254001851524814e-05
1.2010549506342505e-06,4.36462032858601e-06,1.2217542504262382e-06,1.6184597399178252e-05
1.1874477591618284e-06,4.3611816456350546e-06,1.2172148550051355e-06,1.6111853227831313e-05
1.1736668486984777e-06,4.35740863711686e-06,1.2131215124419909e-06,1.6035661493093813e-05
1.1597790799469349e-06,4.353205198080179e-06,1.2094812463663184e-06,1.5956042001600986e-05
1.145840981272845e-06,4.348440599223442e-06,1.2062964994452908e-06,1.5873136129751184e-05
1.1319008514710648e-06,4.342962066100792e-06,1.203566295924368e-06,1.5787139072828194e-05
1.1180077204846235e-06,4.336614283907578e-06,1.2012886313312866e-06,1.5698223783614067e-05
1.1042246530474763e-06,4.3292642506102135e-06,1.199464113653505e-06,1.560648875675077e-05
1.0906361268313787e-06,4.3208196199020066e-06,1.198097031749467e-06,1.5511932616398836e-05
1.077342959026418e-06,4.31122530419417e-06,1.1971894870704209e-06,1.541445123228037e-05
1.0644529116474916e-06,4.3004392421618724e-06,1.1967327193324809e-06,1.531385637730766e-05
1.052080408954162e-06,4.288407532275049e-06,1.1967030713833094e-06,1.5209915731856491e-05
1.040355372321013e-06,4.275058732411387e-06,1.1970640471185798e-06,1.5102403041746896e-05
1.029427771709602e-06,4.2603187760216764e-06,1.1977703178976605e-06,1.4991130450142526e-05
1.0194581472374755e-06,4.244128671668053e-06,1.1987694751005644e-06,1.4875946806513165e-05
1.0105985317901066e-06,4.226446035881373e-06,1.2000020085520358e-06,1.4756721371216316e-05
1.002975654428202e-06,4.207234378217933e-06,1.201403424806307e-06,1.4633332250686137e-05
9.966825901621192e-07,4.1864566502906786e-06,1.202910472697412e-06,1.450565628979086e-05
9.917776558429012e-07,4.164075593891903e-06,1.2044679534023057e-06,1.4373562876709551e-05
9.882873431776557e-07,4.1400584368171276e-06,1.2060314389786708e-06,1.42369286411983e-05
9.862106353404991e-07,4.1143859256717204e-06,1.2075669901339322e-06,1.4095664493032535e-05
9.85523177978834e-07,4.0870641250657946e-06,1.2090502851152979e-06,1.3949720048691378e-05
9.861815547872352e-07,4.05815074829978e-06,1.2104634856120883e-06,1.3799060432935006e-05
9.881288441203563e-07,4.027802619410502e-06,1.2117891635371192e-06,1.3643639754551885e-05
9.912989192371988e-07,3.996316600716409e-06,1.2130049961533777e-06,1.3483388791762693e-05
9.956154985830244e-07,3.964128560938073e-06,1.2140818241468072e-06,1.3318221824079604e-05
1.0009890056594351e-06,3.931760615291339e-06,1.214983537440293e-06,1.3148055079508556e-05
1.0073181006370519e-06,3.899740437173148e-06,1.2156680574765445e-06,1.2972827223546895e-05
1.0144962632348542e-06,3.8685378073052e-06,1.2160906068229888e-06,1.2792518584781885e-05
1.0224172843589249e-06,3.838546195504834e-06,1.21620815116213e-06,1.2607161095376696e-05
1.03097506991505e-06,3.810097159576847e-06,1.2159816685225896e-06,1.2416835189035343e-05
1.0400597479190858e-06,3.783482213641288e-06,1.2153747670428936e-06,1.2221662459044135e-05
1.0495553678495523e-06,3.7589701234923346e-06,1.214350579773783e-06,1.2021801013867285e-05
1.0593416621257066e-06,3.736812967692771e-06,1.2128696794450227e-06,1.1817464762281116e-05
1.0693009102212395e-06,3.7172343024219e-06,1.2108899553996795e-06,1.1608976907063022e-05
1.0793303183276091e-06,3.700405043721217e-06,1.2083681985538636e-06,1.1396795102792114e-05
1.0893527293537826e-06,3.6864270833993753e-06,1.2052629224701326e-06,1.1181454903614273e-05
1.099314856789633e-06,3.675339683934035e-06,1.2015364786125378e-06,1.0963485112180003e-05
1.1091745460005968e-06,3.667143174961351e-06,1.1971545043366436e-06,1.074337760938176e-05
1.118891037791847e-06,3.661823857943213e-06,1.1920840560840125e-06,1.052163063858221e-05
1.128426168480768e-06,3.659368407407562e-06,1.1862936239726831e-06,1.0298812225747906e-05
1.1377500425281456e-06,3.6597603548014114e-06,1.1797565179034594e-06,1.0075571729463097e-05
1.1468417118224607e-06,3.662959501028254e-06,1.1724552246234402e-06,9.852608591657463e-06
1.155685348371124e-06,3.6688828262298613e-06,1.1643827913222674e-06,9.630656820935193e-06
1.1642720440843474e-06,3.677403531058718e-06,1.155542123025397e-06,9.410493790526407e-06
1.1726109198188836e-06,3.6883593364193863e-06,1.1459455864593003e-06,9.192960713934227e-06
1.1807374924896831e-06,3.701555161154133e-06,1.1356126319617036e-06,8.978983017338346e-06
1.1887068214611379e-06,3.716762227298554e-06,1.124565306329472e-06,8.76956770324987e-06
1.1965748364769891e-06,3.733722916835202e-06,1.1128253661238022e-06,8.565777402158107e-06
1.2043827831814793e-06,3.7521619208475655e-06,1.1004141765054994e-06,8.368698388240319e-06
1.2121555122883688e-06,3.7717946025119583e-06,1.0873574351532666e-06,8.179389890151432e-06
1.2199127522984786e-06,3.7923282486197466e-06,1.073696205086244e-06,7.9987977982552e-06
1.2276839317877508e-06,3.8134635138586764e-06,1.0594972054022385e-06,7.827676415258487e-06
1.2355143570208334e-06,3.834899401753561e-06,1.0448530394422354e-06,7.666569871720736e-06
1.2434579936475002e-06,3.856337184865581e-06,1.0298721955653372e-06,7.5158389659845995e-06
1.2515654177015949e-06,3.877486910075544e-06,1.0146675143988836e-06,7.375711912781696e-06
1.2598788737543319e-06,3.898082518242463e-06,9.993492066409677e-07,7.246376642953943e-06
1.268434378874135e-06,3.917898452751758e-06,9.840197299794184e-07,7.128089650814377e-06
1.2772601813647221e-06,3.936755151329888e-06,9.687686457942802e-07,7.0212248051995956e-06
1.2863691013324517e-06,3.95450705214242e-06,9.536707605430185e-07,6.926254260664914e-06
1.295755649937695e-06,3.971022438538587e-06,9.387882113628395e-07,6.8437060904585736e-06
1.3054041027488623e-06,3.986179960854239e-06,9.241730871460569e-07,6.774108253841201e-06
1.3152993434269546e-06,3.999889431588944e-06,9.098684472066208e-07,6.717926004570169e-06
1.3254294979862377e-06,4.0121113037569325e-06,8.959089233202156e-07,6.675519981203168e-06
1.335780112657302e-06,4.022852722076827e-06,8.823219595367075e-07,6.647129825545418e-06
1.3463291756423936e-06,4.0321448079208564e-06,8.691279740049005e-07,6.632854977402152e-06
1.357047578525362e-06,4.040015792137601e-06,8.563404795584094e-07,6.6326234799612765e-06
1.367900957998604e-06,4.046469767575763e-06,8.439733485528487e-07,6.646175596073157e-06
1.3788513223362196e-06,4.051477194651236e-06,8.320573998462399e-07,6.673075152426321e-06
1.3898607540603468e-06,4.054981703954413e-06,8.206540835361737e-07,6.7127352272921875e-06
1.4008962717225478e-06,4.056920754458078e-06,8.098523512198387e-07,6.764441885315843e-06
1.4119318142064266e-06,4.057245968776702e-06,7.997509146308986e-07,6.827369419861337e-06
1.4229445468437344e-06,4.055925730417305e-06,7.904394836829563e-07,6.900591405286862e-06
1.4339086639512285e-06,4.0529306007940974e-06,7.819877090135933e-07,6.983093624921927e-06
1.4447948884537399e-06,4.0482248530980296e-06,7.744424410548731e-07,7.073801661204283e-06
1.4555783650185948e-06,4.041781666198562e-06,7.678305652069045e-07,7.171630206852283e-06
1.4662474293883492e-06,4.033612992472251e-06,7.62163238800245e-07,7.27552187911687e-06
1.476806026421177e-06,4.023796831579294e-06,7.574382902573697e-07,7.3844488357731016e-06
1.4872709538239247e-06,4.01249426766175e-06,7.536410715159436e-07,7.49740244074061e-06
1.4976658619585203e-06,3.9999471143942405e-06,7.507458501971431e-07,7.613388923213907e-06
1.5080100684272497e-06,3.986445555406123e-06,7.487183617549591e-07,7.731421077286338e-06
1.5183064539469826e-06,3.9722759554669474e-06,7.475196705433418e-07,7.850517552163569e-06
1.5285376954603704e-06,3.957678602947908e-06,7.471108525169705e-07,7.9697270573905e-06
1.5386702288869602e-06,3.942838717073982e-06,7.474560701942955e-07,8.088157930776488e-06
1.5486580787682606e-06,3.927909380808242e-06,7.485235538604199e-07,8.20498520187802e-06
1.5584438119468384e-06,3.913040766553662e-06,7.502856080590466e-07,8.319449058613048e-06
1.5679587386370222e-06,3.898388395016868e-06,7.527170490833169e-07,8.430869176477313e-06
1.5771245406317415e-06,3.8840969785718316e-06,7.557925255111769e-07,8.538661441724326e-06
1.5858571178740337e-06,3.870277220059037e-06,7.594841347806515e-07,8.642344100252965e-06
1.5940731389649817e-06,3.856994058196015e-06,7.637587844220338e-07,8.74154928133406e-06
1.601697152493949e-06,3.844273368058594e-06,7.685762985636983e-07,8.836040783820661e-06
1.6086623195645074e-06,3.832118999495052e-06,7.738913962416925e-07,8.925697567776444e-06
1.6149042370966126e-06,3.820524904338315e-06,7.796585808083455e-07,9.0104421590207e-06
1.6203575564331773e-06,3.8094761874955963e-06,7.858356584223099e-07,9.09017114095117e-06
1.624960113898931e-06,3.7989530753017653e-06,7.923840737721613e-07,9.164739658379393e-06
1.6286589575349806e-06,3.788956492402604e-06,7.992667139089176e-07,9.233979864748366e-06
1.631411763026143e-06,3.7795437022053414e-06,8.064451641903737e-07,9.297743025864824e-06
1.6331836524159216e-06,3.770840819266017e-06,8.138818386791326e-07,9.355967500164237e-06
1.633944476809106e-06,3.7630210932646004e-06,8.21550192975075e-07,9.408710830314978e-06
1.6336691653216057e-06,3.7562633355935317e-06,8.294440664123027e-07,9.456098179833957e-06
1.6323385668036654e-06,3.750712512909568e-06,8.375739700257715e-07,9.498244040790635e-06
1.6299378595386563e-06,3.7464651458507287e-06,8.459529283006846e-07,9.535230582257277e-06
1.6264535721157262e-06,3.743581618206057e-06,8.545856397489495e-07,9.567162135334516e-06
1.6218727762574203e-06,3.7421003188342133e-06,8.634669405336119e-07,9.594265535340416e-06
1.6161848347452792e-06,3.742034470046025e-06,8.725830328870419e-07,9.616976859934413e-06
1.6093820963040597e-06,3.7433612784411453e-06,8.819105117412177e-07,9.635941674873483e-06
1.6014600299371647e-06,3.746023750179373e-06,8.914170572294442e-07,9.651924691505522e-06
1.592422605662366e-06,3.749948096917037e-06,9.010661361749576e-07,9.665709393101786e-06
1.5822937337126542e-06,3.755060504175024e-06,9.108207093881573e-07,9.678047721764638e-06
1.5711257813052187e-06,3.7612876089404868e-06,9.206425550044959e-07,9.689635009364509e-06
1.5589950417000718e-06,3.7685450885618036e-06,9.304902690183649e-07,9.701059936803438e-06
1.5459878545112228e-06,3.776737414616761e-06,9.403180766863985e-07,9.712754832628746e-06
1.5321919389486704e-06,3.7857781685594117e-06,9.500742310277716e-07,9.725035576559513e-06
1.5176956074911357e-06,3.795612400316896e-06,9.597010702526684e-07,9.738266801519651e-06
1.5025853480711408e-06,3.806223516878751e-06,9.691410348382674e-07,9.7530409340388e-06
1.4869402004913886e-06,3.8176237961814785e-06,9.783465539475449e-07,9.770205724531794e-06
1.4708278534509645e-06,3.8298335074490976e-06,9.872861748379092e-07,9.790724341811128e-06
1.4543031134540397e-06,3.8428575996643535e-06,9.959436320320299e-07,9.815482370995378e-06
1.4374084477281832e-06,3.8566724778082785e-06,1.0043128025880985e-06,9.845167292665669e-06
1.4201790413881466e-06,3.871227612918557e-06,1.0123910652557069e-06,9.880335800559787e-06
1.402652137071165e-06,3.886458255961571e-06,1.02017356832144e-06,9.921665465196444e-06
1.3848733434990295e-06,3.902302944315917e-06,1.027653460739853e-06,9.970185788810783e-06
1.366895313189736e-06,3.918711597282325e-06,1.0348271743217973e-06,1.0027297013866503e-05
1.3487734568303872e-06,3.93563772878828e-06,1.0416963681300044e-06,1.0094621581602694e-05
1.3305622179535605e-06,3.953038953926935e-06,1.0482634381305478e-06,1.017382908008397e-05
1.31231189152017e-06,3.9709050093020115e-06,1.0545252312411585e-06,1.0266481894159706e-05
1.2940680291273552e-06,3.9892909367596744e-06,1.060469219759865e-06,1.0373905518926967e-05
1.275876076407853e-06,4.00832267866593e-06,1.0660737294867449e-06,1.0497102709580485e-05
1.2577879916382868e-06,4.02816577494638e-06,1.0713121653529626e-06,1.0636717317522847e-05
1.239862575048348e-06,4.0489726788050725e-06,1.0761578454729737e-06,1.0793031588565036e-05
1.2221619698434423e-06,4.0708387773003685e-06,1.08058495146588e-06,1.0965974116788717e-05
1.2047541753485684e-06,4.0937882641556324e-06,1.0845666176570296e-06,1.1155120631711493e-05
1.1877164543989854e-06,4.117783699908918e-06,1.0880742437268956e-06,1.1359697852376711e-05
1.1711288540886619e-06,4.142738870925165e-06,1.091077998935443e-06,1.1578622947787233e-05
1.1550635635681169e-06,4.168524025939582e-06,1.0935466850065584e-06,1.1810585200619868e-05
1.1395811531172389e-06,4.194965240136233e-06,1.0954475315490153e-06,1.2054148637182354e-05
1.1247323436772e-06,4.221844975364887e-06,1.0967473450692332e-06,1.2307862345026927e-05
1.1105592927804715e-06,4.248908013289439e-06,1.097416226867432e-06,1.257036696859014e-05
1.0970952531668141e-06,4.2758702656518165e-06,1.0974334332621742e-06,1.2840461428955493e-05
1.0843636310448521e-06,4.302431329795888e-06,1.0967913195776574e-06,1.3117100707256516e-05
1.072378745591236e-06,4.328293728742994e-06,1.0954941542817032e-06,1.3399342429360448e-05
1.0611498666282915e-06,4.353180347480365e-06,1.0935535493111795e-06,1.368627330221086e-05
1.0506864576897826e-06,4.3768400841549125e-06,1.0909832471152015e-06,1.3976939003101636e-05
1.0410030627382652e-06,4.399046193851924e-06,1.0877947298872988e-06,1.4270306619753888e-05
1.032122766959276e-06,4.4195998338367565e-06,1.0839963551676479e-06,1.4565259061510506e-05
1.0240751287446009e-06,4.4383445229273205e-06,1.079597806457992e-06,1.486059080703544e-05
1.0168899327112314e-06,4.4551806041163456e-06,1.0746156271305503e-06,1.5155012157991675e-05
1.0105967215877549e-06,4.4700588802078e-06,1.0690735729073723e-06,1.5447188296299864e-05
1.005228749665433e-06,4.482953703482048e-06,1.0629989589698502e-06,1.5735785568093388e-05
1.000818037672852e-06,4.4938483312082856e-06,1.0564212237240209e-06,1.601948364100953e-05
9.973840878399674e-07,4.502748662155361e-06,1.0493750819158414e-06,1.6296961452491495e-05
9.949292405153662e-07,4.5096976979855286e-06,1.0419059901979356e-06,1.6566894871967357e-05
9.934406445578078e-07,4.514771143474718e-06,1.034072494361168e-06,1.682799088383158e-05
9.928934150765866e-07,4.518070098001993e-06,1.025940440856479e-06,1.7079022291985942e-05
9.932530414056956e-07,4.519729858248187e-06,1.0175720661019213e-06,1.7318810952442032e-05
9.944755209586015e-07,4.519939465681741e-06,1.0090185994204816e-06,1.7546215154283205e-05
9.96506879323458e-07,4.518940687661399e-06,1.0003195763668837e-06,1.7760222728450852e-05
9.992852675808595e-07,4.516992836042517e-06,9.91505483755721e-07,1.7960094773021087e-05
1.0027457365517984e-06,4.514343223218345e-06,9.82601009481713e-07,1.814539090890817e-05
1.006825774178013e-06,4.511232067072812e-06,9.736278650611878e-07,1.8315852804988448e-05
1.0114677051636197e-06,4.507897941065839e-06,9.646065180758058e-07,1.84712743441166e-05
1.01661682766719e-06,4.504561236191209e-06,9.555579962587856e-07,1.8611429166228026e-05
1.0222207723479513e-06,4.501423672068917e-06,9.465059624858194e-07,1.873604545966785e-05
1.028231868286225e-06,4.498700279670121e-06,9.374762534543007e-07,1.8844820764086e-05
1.0346071031124649e-06,4.496631447621562e-06,9.284930724521992e-07,1.893747433489282e-05
1.041303491970492e-06,4.495450812478099e-06,9.19575268412063e-07,1.9013810341721505e-05
1.0482726507531411e-06,4.4953643324385504e-06,9.107358041091313e-07,1.9073747444293306e-05
1.0554588656969468e-06,4.496574463841089e-06,9.019838615969244e-07,1.911729272986507e-05
1.062801661809474e-06,4.49930831145042e-06,8.933264861655906e-07,1.914450347339333e-05
1.0702409630664777e-06,4.503809778738572e-06,8.847679852983469e-07,1.91555417668918e-05
1.07772270047749e-06,4.510304951639926e-06,8.763086420928574e-07,1.915082337956261e-05
1.0852021327908985e-06,4.518967965449205e-06,8.679448846460753e-07,1.9131067987406205e-05
1.0926430523396437e-06,4.529899712561808e-06,8.596718716432102e-07,1.9097182908788867e-05
1.1000144865080051e-06,4.543116580824579e-06,8.514879573498919e-07,1.905020572504207e-05
1.1072869847181952e-06,4.5585487556092865e-06,8.43397746803782e-07,1.8991397564058224e-05
1.1144305683604756e-06,4.576050260239907e-06,8.354108170639252e-07,1.892228729148504e-05
1.1214148346150878e-06,4.595413346643467e-06,8.275383759405334e-07,1.8844576004879398e-05
1.1282087102886702e-06,4.6163792206173066e-06,8.197913164429644e-07,1.8760000600915988e-05
1.1347823161117244e-06,4.638651155128645e-06,8.121783220146528e-07,1.8670225984556208e-05
1.1411152006585828e-06,4.661918160832955e-06,8.047029910571162e-07,1.857677626233161e-05
1.147204045422492e-06,4.685875807415181e-06,7.973628511635381e-07,1.848099063325157e-05
1.1530590008925683e-06,4.710226591563996e-06,7.901508235246686e-07,1.838398684222117e-05
1.1586912629705821e-06,4.734674810452778e-06,7.830564160360717e-07,1.8286630624107185e-05
1.1641050854917464e-06,4.758940750971278e-06,7.760667536763792e-07,1.8189516899740907e-05
1.1692990181935062e-06,4.782787781608139e-06,7.691705631456175e-07,1.809297451189021e-05
1.1742692557924377e-06,4.806035762065822e-06,7.623628713660787e-07,1.7997102516568125e-05
1.1790108205433796e-06,4.8285442665544295e-06,7.556440683769128e-07,1.7901822770194806e-05
1.1835182360032169e-06,4.850175561459456e-06,7.490155289072341e-07,1.7806920799536414e-05
1.187784888534046e-06,4.870765094236729e-06,7.424794125143302e-07,1.771207360669395e-05
1.1917997319775893e-06,4.890115188738354e-06,7.360426971271305e-07,1.7616890205313265e-05
1.195544773772149e-06,4.908007474892991e-06,7.297187895109406e-07,1.7520970393105485e-05
1.1989962861478466e-06,4.924225693863446e-06,7.235231959064122e-07,1.7423956942570374e-05
1.202127179519925e-06,4.938576686256569e-06,7.174678063756378e-07,1.732556172796311e-05
1.2049081407976801e-06,4.950893058699992e-06,7.115586985010577e-07,1.7225562436996037e-05
1.2073087485899492e-06,4.961018020824195e-06,7.057962599614057e-07,1.7123778204925568e-05
1.2092979365340089e-06,4.968791393771579e-06,7.001761175693272e-07,1.7020050551326813e-05
1.210842685086873e-06,4.974049019479842e-06,6.946904847974272e-07,1.6914254385648598e-05
1.2119083002398522e-06,4.976631329163598e-06,6.893281869354282e-07,1.6806330550343202e-05
1.2124619308342165e-06,4.976391775221643e-06,6.840742197593094e-07,1.669630464901954e-05
1.2124764626225122e-06,4.9731991155571736e-06,6.789119109872762e-07,1.6584268898366175e-05
1.211933122285903e-06,4.966932032147066e-06,6.738268521028101e-07,1.6470336960865287e-05
1.2108224531997295e-06,4.957471819021406e-06,6.688094813323526e-07,1.6354595083315517e-05
1.2091434033144269e-06,4.944700618134931e-06,6.638555477867824e-07,1.6237079735852385e-05
1.2069003002685531e-06,4.928508710932693e-06,6.589647372733061e-07,1.6117818943619253e-05
1.204097621613326e-06,4.908814286598659e-06,6.541390837932459e-07,1.599691096612928e-05
1.200735491750723e-06,4.885592782756978e-06,6.493828612534499e-07,1.5874540191100948e-05
1.1968091136324975e-06,4.85889943527927e-06,6.447027320932987e-07,1.5750903847013408e-05
1.1923105466541698e-06,4.8288671131145435e-06,6.401081276962552e-07,1.5626138041046847e-05
1.1872306783654138e-06,4.7956783958072175e-06,6.356130086454074e-07,1.550030668604388e-05
1.1815629157454704e-06,4.759529078747172e-06,6.312364331433975e-07,1.5373447431133034e-05
1.1753093028169792e-06,4.720602801111496e-06,6.269991647407674e-07,1.5245628112783936e-05
1.1684848561415509e-06,4.679068643074456e-06,6.229192911613285e-07,1.5116952009542133e-05
1.161115408742334e-06,4.635096404988176e-06,6.190108989798092e-07,1.4987537231958105e-05
1.1532312172586492e-06,4.588866349375133e-06,6.152844986620136e-07,1.4857529291258402e-05
1.1448619527998414e-06,4.5405630419365765e-06,6.117484692514055e-07,1.4727104606583591e-05
1.1360341049262672e-06,4.490365802058791e-06,6.084145692473044e-07,1.4596425108747138e-05
1.1267704779587171e-06,4.438441707058159e-06,6.053059100032081e-07,1.4465583560397199e-05
1.1170915222398177e-06,4.384939345390384e-06,6.024595234649188e-07,1.4334572187530469e-05
1.1070156633741337e-06,4.3299873981746026e-06,5.999199703225273e-07,1.4203281613326425e-05
1.0965582956256048e-06,4.273700507720009e-06,5.977308943171324e-07,1.4071539952347748e-05
1.0857331325597858e-06,4.2161923395967235e-06,5.95931241015591e-07,1.3939176515333474e-05
1.0745565287241699e-06,4.157596879150663e-06,5.945534439209003e-07,1.3806054711579235e-05
1.063049995894621e-06,4.098095191546466e-06,5.93620826413859e-07,1.3672052889828578e-05
1.0512382398266217e-06,4.037932402786689e-06,5.931466991166996e-07,1.353705221740686e-05
1.0391462867635368e-06,3.977402969333207e-06,5.93135779962821e-07,1.3400995964116125e-05
1.0267990471200785e-06,3.916812003984592e-06,5.935858446741953e-07,1.3264035408338568e-05
1.0142235925652384e-06,3.856454772849168e-06,5.944882378155269e-07,1.3126699576574009e-05
1.001454390013384e-06,3.796631704806645e-06,5.958279500510574e-07,1.298992210387624e-05
9.885391516710246e-07,3.7376688337537765e-06,5.975848539420383e-07,1.2854869082015362e-05
9.755390817824929e-07,3.679911237809362e-06,5.997358979923475e-07,1.2722753615967768e-05
9.62520577991851e-07,3.623693599453852e-06,6.022585893629401e-07,1.2594739280869075e-05
9.495448123938358e-07,3.5693252411241562e-06,6.051367510274563e-07,1.2471854595511356e-05
9.366663286602128e-07,3.5171047610651643e-06,6.083645086964781e-07,1.23549173970376e-05
9.239427225482572e-07,3.4673291493847257e-06,6.119431663785659e-07,1.2244527508943012e-05
9.114442738373558e-07,3.420274953710526e-06,6.15873306899642e-07,1.2141145543638533e-05
8.992550636901613e-07,3.3761728807702607e-06,6.201497908656921e-07,1.2045237395857494e-05
8.874687462595098e-07,3.335195187298095e-06,6.247647188636777e-07,1.1957400350703099e-05
8.761816680351344e-07,3.2974545303177506e-06,6.297145720889893e-07,1.1878390586047067e-05
8.654834573497629e-07,3.263014460753962e-06,6.350010308240568e-07,1.1809061552001235e-05
8.554525820050057e-07,3.231913870592624e-06,6.40623339473212e-07,1.1750265714008963e-05
8.461635080471361e-07,3.2041901783214307e-06,6.465721126101278e-07,1.170274663256959e-05
8.376995767624902e-07,3.179878616106652e-06,6.528311522125397e-07,1.1667046829259615e-05
8.301607464954403e-07,3.158991280650651e-06,6.593826429786372e-07,1.164347105571844e-05
8.236604711085947e-07,3.141508971376275e-06,6.66208623890627e-07,1.1632101885603385e-05
8.183127102627129e-07,3.127401136349534e-06,6.732901316380101e-07,1.1632834727673457e-05
8.142167126472875e-07,3.1166460290898134e-06,6.806092217059489e-07,1.1645418336519205e-05
8.114498908893078e-07,3.1092256623130265e-06,6.881524398874344e-07,1.1669503719157947e-05
8.100705104238876e-07,3.105103399205592e-06,6.959115802154146e-07,1.1704740409552396e-05
8.101208139269945e-07,3.1042038652589716e-06,7.038801722632473e-07,1.1750894099634414e-05
8.116247166860565e-07,3.106407007898098e-06,7.120473517222175e-07,1.180784864288062e-05
8.145868687376532e-07,3.1115525905084186e-06,7.203946732107021e-07,1.1875498228882652e-05
8.189995418737755e-07,3.1194439987302706e-06,7.288984249649648e-07,1.1953716708026225e-05
8.248501512087128e-07,3.1298513144394925e-06,7.375332384437697e-07,1.2042484414571104e-05
8.321208556056179e-07,3.1425221956389637e-06,7.462731837474174e-07,1.2142031663982158e-05
8.40786910897157e-07,3.1572002563892545e-06,7.55090262426288e-07,1.2252828381974385e-05
8.508252026653551e-07,3.1736404334516723e-06,7.639520885904561e-07,1.237542980633354e-05
8.622297620077404e-07,3.1916167253038897e-06,7.728206502046129e-07,1.2510286199745664e-05
8.750216324730501e-07,3.2109250319683995e-06,7.816530344553461e-07,1.2657608837724085e-05
8.892469551694616e-07,3.231378001091206e-06,7.90405085330735e-07,1.2817425137954073e-05
9.049657932173391e-07,3.2527898756804366e-06,7.990358492056542e-07,1.2989831565689011e-05
9.222377490137574e-07,3.2749626218122942e-06,8.075072605760461e-07,1.317516880631944e-05
9.411075810672216e-07,3.2976848145049794e-06,8.157798520285817e-07,1.3373902214542198e-05
9.615920207691456e-07,3.3207375455657417e-06,8.238106252905261e-07,1.358634555861118e-05
9.836726465999675e-07,3.3438945576107937e-06,8.315546041727234e-07,1.3812496544564066e-05
1.0072991388138038e-06,3.3669190779158133e-06,8.389685850028056e-07,1.4052072365865054e-05
1.032402102255617e-06,3.3895687874949142e-06,8.460150193761233e-07,1.4304629401349106e-05
1.0589088000074131e-06,3.4116083470345835e-06,8.526613719216685e-07,1.4569642709974936e-05
1.086750045576507e-06,3.4328205593547142e-06,8.588751503172814e-07,1.4846523863394873e-05
1.1158529496956136e-06,3.453014178873716e-06,8.646223779508858e-07,1.513458802604852e-05
1.1461299064486744e-06,3.4720292503959464e-06,8.698728154074768e-07,1.5432996561659848e-05
1.1774763586654451e-06,3.48973379902493e-06,8.74606869374678e-07,1.57407318840217e-05
1.209777168259259e-06,3.5060145774154466e-06,8.78817994560339e-07,1.6056607931833302e-05
1.2429149766717464e-06,3.520782699633776e-06,8.825086337954269e-07,1.6379266590331513e-05
1.2767755541575183e-06,3.534002574972696e-06,8.856838596208372e-07,1.6707162960038646e-05
1.3112467143783293e-06,3.545723452634136e-06,8.883472666838137e-07,1.703857803864472e-05
1.3462108188132615e-06,3.556086221977404e-06,8.904990604119475e-07,1.7371659257419428e-05
1.38153628450748e-06,3.5652928274244837e-06,8.921359040386785e-07,1.7704476273591006e-05
1.4170752462924137e-06,3.5735518928949373e-06,8.932523734108248e-07,1.8035076617107267e-05
1.4526679898325585e-06,3.581036157355703e-06,8.93843029860191e-07,1.836150772826504e-05
1.4881476976161164e-06,3.5878718774979486e-06,8.939052952742463e-07,1.8681813033907905e-05
1.5233426500788774e-06,3.5941470951470207e-06,8.93442009166746e-07,1.8994048306658232e-05
1.5580783731030642e-06,3.5999215340608856e-06,8.924614851107382e-07,1.9296313593063124e-05
1.5921798266167309e-06,3.605230818826229e-06,8.909757715563238e-07,1.9586758997557026e-05
1.62547409892582e-06,3.610085161956392e-06,8.889994543586116e-07,1.986357325277823e-05
1.6577970622128185e-06,3.61447267202446e-06,8.865515618379343e-07,2.0125006720719766e-05
1.6890017792553184e-06,3.6183716466997536e-06,8.836602666602148e-07,2.0369440102655302e-05
1.7189610358580261e-06,3.621758943882721e-06,8.803647326333664e-07,2.0595440844480568e-05
1.7475623997156949e-06,3.624604459394001e-06,8.767108584894852e-07,2.0801745361752868e-05
1.7747022712934734e-06,3.6268632960018404e-06,8.727442698356201e-07,2.098718741255772e-05
1.8002830559319137e-06,3.6284812448709085e-06,8.685049577464233e-07,2.115064953529217e-05
1.8242111266211464e-06,3.629408523626433e-06,8.640250123952131e-07,2.129107667768081e-05
1.8463958365883446e-06,3.6296052846453866e-06,8.593284595048887e-07,2.1407532802722918e-05
1.8667537097841011e-06,3.62903419989376e-06,8.544326952324573e-07,2.1499244357777687e-05
1.885217373632657e-06,3.6276537388530364e-06,8.493506509773141e-07,2.156559519071248e-05
1.901744800914907e-06,3.6254273292226883e-06,8.44091122963295e-07,2.160610806585513e-05
1.916323198011246e-06,3.622343875064846e-06,8.386576559368482e-07,2.1620450810861853e-05
1.9289627228314155e-06,3.6184282135805963e-06,8.33049046964559e-07,2.1608453015014248e-05
1.9396847839663416e-06,3.6137274299712792e-06,8.272615238270889e-07,2.157012022938648e-05
1.9485156603523633e-06,3.6082871374106416e-06,8.21290643273222e-07,2.150566401709133e-05
1.955486732703303e-06,3.6021432286114234e-06,8.151319426858644e-07,2.141552960122936e-05
1.9606348107977434e-06,3.5953328825055404e-06,8.087805358915599e-07,2.1300359144828178e-05
1.963999381300905e-06,3.5879121308280473e-06,8.022308437944654e-07,2.116090561732601e-05
1.965618736483359e-06,3.5799663030358857e-06,7.954772294800788e-07,2.0997977219861508e-05
1.9655280420127723e-06,3.571600212192268e-06,7.885151828832694e-07,2.081242975494003e-05
1.963759281894229e-06,3.5629113436891e-06,7.813423950053559e-07,2.060517653099116e-05
1.9603429028270536e-06,3.553972637757537e-06,7.739603457299993e-07,2.0377193985807362e-05
1.9553124082064963e-06,3.544843167702728e-06,7.663765392668612e-07,2.012951292013452e-05
1.948708550713683e-06,3.5355922016536202e-06,7.586042867972559e-07,1.9863255449841587e-05
1.9405789568629538e-06,3.526308088832923e-06,7.506590571413049e-07,1.9579803289472243e-05
1.9309746310975784e-06,3.517082336614347e-06,7.425549038132155e-07,1.9281004033973405e-05
1.9199475139170524e-06,3.5079899139176834e-06,7.343030192975474e-07,1.896920503461568e-05
1.9075550757833407e-06,3.4990910079020416e-06,7.259118922266223e-07,1.8647077669428048e-05
1.89387311918815e-06,3.4904477073245246e-06,7.173882065967519e-07,1.8317362302703285e-05
1.879004956879e-06,3.482128777592735e-06,7.087373315573331e-07,1.7982673494248196e-05
1.8630772970947655e-06,3.4741997889462914e-06,6.999628728867569e-07,1.7645504408272747e-05
1.8462280866320168e-06,3.4667257081241478e-06,6.910666809235365e-07,1.7308440266473754e-05
1.8285939273138611e-06,3.4597963920975883e-06,6.82051924623445e-07,1.6974338314335128e-05
1.810300419175523e-06,3.4535447444302383e-06,6.729293408606258e-07,1.6646269980142483e-05
1.7914581267158073e-06,3.4481303128053406e-06,6.637212583906797e-07,1.6327315696515646e-05
1.7721630822865138e-06,3.443710373136709e-06,6.544592522562831e-07,1.60203859010997e-05
1.7524981634274623e-06,3.440437379651953e-06,6.451804588337159e-07,1.5728111353902484e-05
1.7325353830584614e-06,3.438472913847968e-06,6.359264940055575e-07,1.545277456502984e-05
1.7123415362443968e-06,3.4379794363537048e-06,6.267406201320449e-07,1.5196264450258307e-05
1.691986167969026e-06,3.4390935462487845e-06,6.176638550054472e-07,1.4960057563064728e-05
1.6715458484309592e-06,3.441919311389192e-06,6.08734728015201e-07,1.4745229157799875e-05
1.6511000076763184e-06,3.4465466990919226e-06,5.999895050330846e-07,1.4552476881877478e-05
1.6307219212617075e-06,3.4530603608312987e-06,5.914605185779182e-07,1.4382142288925268e-05
1.6104731671297062e-06,3.4615244293986334e-06,5.831768840760879e-07,1.4234232864126266e-05
1.5904038597397562e-06,3.471961630636318e-06,5.751680493472014e-07,1.4108448880402859e-05
1.5705553035454956e-06,3.4843410662081566e-06,5.674650057509233e-07,1.4004225986037753e-05
1.5509647206174842e-06,3.4985808695085978e-06,5.600973013807604e-07,1.3920802808103534e-05
1.5316716015247906e-06,3.5145703484864525e-06,5.530900825840854e-07,1.3857302088494122e-05
1.5127196830456513e-06,3.532207531356501e-06,5.464645986760814e-07,1.3812805515097711e-05
1.4941519138323627e-06,3.551437967510045e-06,5.402398566871118e-07,1.3786400672703982e-05
1.4760058690389622e-06,3.5722672928970117e-06,5.344320076645295e-07,1.3777192437765725e-05
1.4583161893282806e-06,3.5947285017490545e-06,5.290523214954008e-07,1.3784291714410705e-05
1.4411186778714075e-06,3.618830255539445e-06,5.241073020070445e-07,1.3806785302746076e-05
1.4244477166370854e-06,3.6445281783451837e-06,5.196020684623066e-07,1.3843697655542167e-05
1.4083315227640169e-06,3.6717217936701315e-06,5.155434909883532e-07,1.3893975421657502e-05
1.3927992738334138e-06,3.7002586290009873e-06,5.119401979867491e-07,1.3956495093378573e-05
1.377900746941462e-06,3.729944078749682e-06,5.088006041384847e-07,1.4030059529541296e-05
1.3637183608359087e-06,3.760556321645038e-06,5.061302459206487e-07,1.411337536428172e-05
1.3503578525634501e-06,3.791855888002963e-06,5.039304676635471e-07,1.4205046025663068e-05
1.3379268287283146e-06,3.8235945449253266e-06,5.022007501514175e-07,1.4303594299562333e-05
1.3265170309632798e-06,3.855530237147002e-06,5.009419662232425e-07,1.440748336586492e-05
1.3161994842784223e-06,3.88743373161264e-06,5.001567911613321e-07,1.4515122917540854e-05
1.307029131499533e-06,3.919079206654141e-06,4.998473215261183e-07,1.4624885038720316e-05
1.2990455507942743e-06,3.950232134858351e-06,5.000113823137668e-07,1.473514222260715e-05
1.2922680812905614e-06,3.980645493622596e-06,5.006395790034934e-07,1.4844302871135715e-05
1.2866964342242387e-06,4.010062556989965e-06,5.017151804008931e-07,1.4950826708751309e-05
1.2823183928789754e-06,4.038219334607682e-06,5.032167560718663e-07,1.5053228943975836e-05
1.279117171878185e-06,4.064845755596029e-06,5.051208804520842e-07,1.5150085486701892e-05
1.2770739337898438e-06,4.089672794135293e-06,5.074025063486217e-07,1.5240049608773694e-05
1.2761641564847194e-06,4.11245029404258e-06,5.100340190730808e-07,1.532187792518137e-05
1.2763509434302843e-06,4.132970255513397e-06,5.129849104932847e-07,1.5394474008247792e-05
1.2775820527699516e-06,4.151078065828559e-06,5.16222549243392e-07,1.5456949324602475e-05
1.2797925599445694e-06,4.166659338329709e-06,5.197145637326833e-07,1.5508642611574167e-05
1.2829092587171578e-06,4.179622476940948e-06,5.234334745943511e-07,1.5549068474462587e-05
1.2868524743460414e-06,4.189903006585429e-06,5.273621795370892e-07,1.557785625664743e-05
1.2915341827502429e-06,4.197479065699848e-06,5.31496217717698e-07,1.5594739275288705e-05
1.2968571147190159e-06,4.202373687851984e-06,5.358402859401846e-07,1.5599576706846606e-05
1.3027196753015191e-06,4.2046392456929e-06,5.404007999015739e-07,1.5592352451971673e-05
1.3090250304578493e-06,4.204336279924152e-06,5.451786568620543e-07,1.5573136164586234e-05
1.315691174104531e-06,4.201524409832626e-06,5.501671166549774e-07,1.5542058841611357e-05
1.3226591387968923e-06,4.196271526873885e-06,5.553561794999466e-07,1.5499395117341598e-05
1.3298926897057815e-06,4.188671568910302e-06,5.607369360173388e-07,1.5445724218657445e-05
1.3373674602140978e-06,4.178859079085458e-06,5.663007356252578e-07,1.5381975091358403e-05
1.345057428740671e-06,4.16700813027855e-06,5.720394032347298e-07,1.530928866297981e-05
1.3529257613305766e-06,4.153308694984301e-06,5.779505781284867e-07,1.52288386696479e-05
1.360921191560291e-06,4.13793400734805e-06,5.840401536431776e-07,1.514171956203658e-05
1.3689784220702548e-06,4.121020990430933e-06,5.903183920315725e-07,1.5048952202161983e-05
1.3770203218898105e-06,4.102670662631678e-06,5.967966786747296e-07,1.4951642033990217e-05
1.3849600989398686e-06,4.082957882701475e-06,6.034876065242652e-07,1.4851162613859182e-05
1.3927030305598456e-06,4.061938954682766e-06,6.104049566410643e-07,1.4749165947726417e-05
1.4001487183789895e-06,4.039656356490305e-06,6.175616413126664e-07,1.4647446232027268e-05
1.4071936553268594e-06,4.016141219991382e-06,6.249655715589146e-07,1.454781603804e-05
1.4137332837276155e-06,3.991413744140743e-06,6.326159521596077e-07,1.4452028830265774e-05
1.41966533171089e-06,3.965493886547438e-06,6.405032306350975e-07,1.4361699068887469e-05
1.4248967847947226e-06,3.9384294989047095e-06,6.486115199217508e-07,1.4278208940816806e-05
1.429354417500785e-06,3.9103226296266065e-06,6.569201733778834e-07,1.4202630012281562e-05
1.4329949966629203e-06,3.8813343512698615e-06,6.654033732136619e-07,1.4135684397805121e-05
1.4358058303360612e-06,3.851670578366275e-06,6.740294094497904e-07,1.407775154452241e-05
1.4377909615220615e-06,3.821556443910321e-06,6.827612912321353e-07,1.4028909220269564e-05
1.4389549424839672e-06,3.7912040252097917e-06,6.915596163146832e-07,1.398897642554152e-05
1.4392982032059026e-06,3.760786458053869e-06,7.003902366364171e-07,1.3957539425468705e-05
1.4388203491130197e-06,3.7304338548107673e-06,7.09234936845017e-07,1.3933975597073047e-05
1.4375202878037892e-06,3.700251828410026e-06,7.180971170171652e-07,1.3917495701281425e-05
1.4353928256162692e-06,3.6703460897645934e-06,7.269992501392187e-07,1.3907214168175411e-05
1.4324280228986438e-06,3.640833132296567e-06,7.359755589449698e-07,1.3902223384375766e-05
1.4286150572538844e-06,3.6118311904971344e-06,7.450628633062016e-07,1.390162014454852e-05
1.4239480202201773e-06,3.5834445664078675e-06,7.542936014067479e-07,1.3904484106175699e-05
1.4184311797498204e-06,3.555760059351683e-06,7.63695537778672e-07,1.390986925798496e-05
1.4120829884827862e-06,3.528856079706224e-06,7.732937887128694e-07,1.391682554017276e-05
1.404937702400105e-06,3.5028045102656137e-06,7.831077064132467e-07,1.392440765791134e-05
1.3970416163254069e-06,3.477659239155622e-06,7.931474025245409e-07,1.393166789647747e-05
1.3884453093859695e-06,3.453450696962205e-06,8.034163186045145e-07,1.3937681584927206e-05
1.3791989323436135e-06,3.430194771177396e-06,8.139125662033394e-07,1.3941646970055883e-05
1.36935389052383e-06,3.4078992875849606e-06,8.246242149719931e-07,1.3943073480671594e-05
1.3589673123336849e-06,3.38655708656085e-06,8.355267667352901e-07,1.3941973954487268e-05
1.3481022236293001e-06,3.366135960569991e-06,8.465864288040495e-07,1.3938888950500632e-05
1.3368202864794987e-06,3.346575679354687e-06,8.577636832496996e-07,1.3934708566770346e-05
1.325173359896202e-06,3.327789886833121e-06,8.69017040450873e-07,1.393044015188173e-05
1.3132008261993937e-06,3.3096695158667763e-06,8.803096642518776e-07,1.3927029122435218e-05
1.3009322639152783e-06,3.292087526599494e-06,8.916125349523351e-07,1.3925242848198434e-05
1.2883912344165263e-06,3.2749030423711025e-06,9.028994360287719e-07,1.3925637048811267e-05
1.275599017901289e-06,3.257965835774067e-06,9.141405190395694e-07,1.3928621228741864e-05
1.2625805210166401e-06,3.241131293080502e-06,9.253000420526192e-07,1.3934568848246698e-05
1.2493688297504106e-06,3.224288554357028e-06,9.36338142742185e-07,1.3943893506422776e-05
1.2360034147241338e-06,3.207378415662185e-06,9.472149988834526e-07,1.3957074166627453e-05
1.2225280690774254e-06,3.1903806456694664e-06,9.578932755506741e-07,1.3974669257328698e-05
1.2089940770284165e-06,3.1732900141312754e-06,9.683376316304129e-07,1.3997367091775063e-05
1.1954610739545015e-06,3.156112373501079e-06,9.785140609517599e-07,1.4026067704586013e-05
1.1819898238163514e-06,3.138877637724381e-06,9.88389209116015e-07,1.4061925855712304e-05
1.1686340619727571e-06,3.121641863954265e-06,9.97928820243554e-07,1.410630798440328e-05
1.155438312163203e-06,3.10447080804014e-06,1.0070963708637005e-06,1.4160675157982285e-05
1.1424388579409552e-06,3.0874250871798716e-06,1.0158524572576006e-06,1.4226445239197852e-05
1.1296635572950519e-06,3.070555457810126e-06,1.0241546017035858e-06,1.4304941137733364e-05
1.1171312563863207e-06,3.053897278581841e-06,1.0319582403835756e-06,1.4397483165319143e-05
1.1048533515024677e-06,3.0374685217909973e-06,1.0392199636496e-06,1.4505508195986975e-05
1.0928368117612145e-06,3.0212843253301133e-06,1.0459007100517186e-06,1.46305729372924e-05
1.0810866126854231e-06,3.0053789815248317e-06,1.05196574741387e-06,1.477428885070873e-05
1.0696073859758998e-06,2.989815998324895e-06,1.0573825905102628e-06,1.4938273674358124e-05
1.0584048615124806e-06,2.9746806271015167e-06,1.062119427819747e-06,1.5124033730375648e-05
1.0474892555682287e-06,2.9600614409169468e-06,1.0661444668235072e-06,1.533272980340757e-05
1.0368796193974415e-06,2.9460315202884107e-06,1.0694260129958992e-06,1.5564988405543198e-05
1.0266039029898349e-06,2.9326446828713718e-06,1.0719345415716732e-06,1.5820903179362233e-05
1.016694426566973e-06,2.919955889344128e-06,1.0736470570517818e-06,1.610022520587913e-05
1.0071819674669352e-06,2.9080509866206562e-06,1.0745501468622214e-06,1.64026826034806e-05
9.980925020998406e-07,2.8970580274559507e-06,1.0746386945091028e-06,1.6728287703525246e-05
9.894505450712544e-07,2.8871283350692837e-06,1.0739117036194411e-06,1.707744964906551e-05
9.812862163514685e-07,2.8784063384274325e-06,1.0723695536731658e-06,1.7450863734283953e-05
9.736401355354704e-07,2.8710146448449923e-06,1.0700172177890845e-06,1.7849317819418506e-05
9.665635000008872e-07,2.865054789815628e-06,1.0668709134369044e-06,1.8273595757641885e-05
9.601129603761374e-07,2.8606099823367597e-06,1.062958697458134e-06,1.8724598239998252e-05
9.543424550425448e-07,2.8577435255792918e-06,1.0583140894743434e-06,1.9203616438114792e-05
9.492954556776669e-07,2.856492136769373e-06,1.0529707397461348e-06,1.9712484526126866e-05
9.450001841492063e-07,2.856858683600588e-06,1.0469601080009474e-06,2.025341594352096e-05
9.414714196259388e-07,2.858810028012063e-06,1.0403096847085695e-06,2.082863537814919e-05
9.387206218890884e-07,2.8622795501967584e-06,1.0330424884637648e-06,2.1439994237232294e-05
9.367648644237973e-07,2.867172353637612e-06,1.0251790278953024e-06,2.2088628606717832e-05
9.35624157395668e-07,2.8733710680911462e-06,1.0167414103584718e-06,2.277472374296565e-05
9.353175066752784e-07,2.8807382320819987e-06,1.0077590211041099e-06,2.3497498668945708e-05
9.358713497403013e-07,2.8891212342993043e-06,9.98272855096151e-07,2.425542211503151e-05
9.373286403638893e-07,2.8983739668037117e-06,9.883347103490977e-07,2.5046526984025672e-05
9.397418233073317e-07,2.9083923538831543e-06,9.780025833362324e-07,2.586867742705951e-05
9.431568612037864e-07,2.9191414390957463e-06,9.67335785439844e-07,2.671973031115464e-05
9.47607430938224e-07,2.930654131043428e-06,9.56390348855895e-07,2.7597613796880574e-05
9.531227884032947e-07,2.942998459851496e-06,9.452152381835005e-07,2.850036656048067e-05
9.597364829958436e-07,2.956230717176494e-06,9.338505839737577e-07,2.9426149444907942e-05
9.67489023041492e-07,2.9703616982797925e-06,9.223278201120605e-07,3.037321973018437e-05
9.764262622273422e-07,2.985347887014905e-06,9.10671053622246e-07,3.1339872857497556e-05
9.865923350915196e-07,3.0010980941597814e-06,8.988989819316977e-07,3.2324371644836166e-05
9.980172519654293e-07,3.01748281653707e-06,8.870271653155977e-07,3.3324860113399816e-05
1.0107071839685024e-06,3.034340756782172e-06,8.750717155390957e-07,3.4339231897234445e-05
1.0246470272596966e-06,3.051484887393065e-06,8.630542711810295e-07,3.536496028520397e-05
1.0398134484787372e-06,3.0687127390190088e-06,8.510039814897292e-07,3.639896171349402e-05
1.0561826557093617e-06,3.085820524138564e-06,8.389530710313925e-07,3.743755532464254e-05
1.0737239341463194e-06,3.1026182361294104e-06,8.269301949622081e-07,3.8476508485866554e-05
1.0923917021801005e-06,3.118942714327201e-06,8.149573703590603e-07,3.951114057310238e-05
1.1121279201342115e-06,3.1346668566386267e-06,8.030501573695678e-07,4.053648495348601e-05
1.1328664451372737e-06,3.149708442168277e-06,7.912191882491292e-07,4.154746820254692e-05
1.1545298029534095e-06,3.1640364781592707e-06,7.794725449302919e-07,4.253902192367512e-05
1.177022952891786e-06,3.1776607695514883e-06,7.678169429615264e-07,4.3506116686348355e-05
1.2002311194758878e-06,3.1906057143773584e-06,7.562571010256739e-07,4.444378622117598e-05
1.2240215446224221e-06,3.202891332271453e-06,7.447957551405749e-07,4.534716338317411e-05
1.2482462127100219e-06,3.214529743716497e-06,7.33434618049459e-07,4.621150543640028e-05
1.2727457893076962e-06,3.225526690209473e-06,7.221747793860044e-07,4.703225322223735e-05
1.2973564186796526e-06,3.2358835358854754e-06,7.110167564020153e-07,4.780517892906614e-05
1.3219177319141362e-06,3.2456006813450407e-06,6.999616797673694e-07,4.85265241967279e-05
1.3462776009676991e-06,3.254683278158994e-06,6.890160311648902e-07,4.9192979409417404e-05
1.3702913849697978e-06,3.2631462019294238e-06,6.781993885873495e-07,4.980156430733322e-05
1.3938185843939378e-06,3.2710088710569107e-06,6.675483426788374e-07,5e-06
1.416720530792845e-06,3.2782818965705732e-06,6.571119934000546e-07,5e-06
1.438859324657768e-06,3.2849637111993264e-06,6.46945536134997e-07,5e-06
1.460098532084558e-06,3.291055325385795e-06,6.371109339353276e-07,5e-06
1.4803066101778253e-06,3.2965828675466803e-06,6.276803827961533e-07,5e-06
1.4993598428991469e-06,3.301614859451565e-06,6.18731852364122e-07,5e-06
1.5171420648887103e-06,3.3062648274557135e-06,6.10339015898786e-07,5e-06
1.5335455625977943e-06,3.3106764829691378e-06,6.025652167865245e-07,5e-06
1.5484773708080488e-06,3.3149973830647056e-06,5.954634098668576e-07,5e-06
1.5618648238261032e-06,3.319351925217472e-06,5.890791784985452e-07,5e-06
1.573653915221837e-06,3.3238299640843858e-06,5.834540347415747e-07,5e-06
1.5838075828805913e-06,3.328496277349012e-06,5.786256448119752e-07,5e-06
1.5923098882486788e-06,3.333400760319594e-06,5.746242521333087e-07,5e-06
1.599169177289042e-06,3.338575186173085e-06,5.714702491316148e-07,5e-06
1.6044145378195416e-06,3.3440267289478494e-06,5.691770603968538e-07,5e-06
1.6080882266397752e-06,3.3497386084139714e-06,5.677562531692033e-07,5e-06
1.6102430470873482e-06,3.3556784843114534e-06,5.672191194436397e-07,5e-06
1.6109494485031548e-06,3.361811030480396e-06,5.675724708981396e-07,4.959649026001646e-05
1.6103014214175689e-06,3.368108071793789e-06,5.68812549727805e-07,4.899567774015901e-05
1.6084112926377606e-06,3.374551364669035e-06,5.709230577124565e-07,4.83454161081182e-05
1.6053979593215678e-06,3.381125711218176e-06,5.738769499466521e-07,4.764843763158778e-05
1.6013753326414978e-06,3.387803492325266e-06,5.776379148285325e-07,4.69075041903301e-05
1.5964446720201902e-06,3.3945307508263258e-06,5.821615385975792e-07,4.6125422591215164e-05
1.5906943287448126e-06,3.401225625199956e-06,5.873982438104236e-07,4.530505023843908e-05
1.5842063035867468e-06,3.40778615061337e-06,5.932962770340039e-07,4.4449265723378936e-05
1.5770609621840613e-06,3.414095298014947e-06,5.998015358886741e-07,4.356091535313977e-05
1.5693326125467042e-06,3.4200183555950687e-06,6.068558942952907e-07,4.2642771835082144e-05
1.561082043970248e-06,3.4253993396547735e-06,6.143975064185945e-07,4.1697523888039454e-05
1.5523562306018059e-06,3.4300648404916106e-06,6.223621955480569e-07,4.072779940321851e-05
1.543195301406629e-06,3.4338392424702167e-06,6.306842629780276e-07,3.9736222263099385e-05
