2.7900450391106464e-07,2.866365467836047e-07,4.187014258490916e-07,1.236890390742004e-05
2.792357043043918e-07,2.836839770029928e-07,4.2078836941761865e-07,1.2457636560714336e-05
2.794101979719527e-07,2.8078228524066205e-07,4.232908593428539e-07,1.25393060205093e-05
2.795207315670761e-07,2.7793068156885296e-07,4.261755706925486e-07,1.2613462157010706e-05
2.7956154104404114e-07,2.751273310157092e-07,4.294091344153592e-07,1.2679736358763429e-05
2.7952801982139747e-07,2.7236918317142957e-07,4.3295720123576346e-07,1.27377943786694e-05
2.7941578478527906e-07,2.696524351375156e-07,4.367825559437298e-07,1.2787338682671782e-05
2.7922082854119616e-07,2.6697373078593714e-07,4.4084569382217187e-07,1.2828124967358286e-05
2.789406499952424e-07,2.643308142661048e-07,4.4510856950212986e-07,1.2859960186100324e-05
2.7857434823118344e-07,2.617220661962266e-07,4.495391252335411e-07,1.2882681308837312e-05
2.781211716661684e-07,2.591459693984557e-07,4.5411230987871573e-07,1.2896133898480292e-05
2.775796310431013e-07,2.566019920734281e-07,4.588060527910182e-07,1.2900189361650045e-05
2.769481696205637e-07,2.540926501186709e-07,4.635960965453042e-07,1.28948113729277e-05
2.762264755670275e-07,2.516248981105144e-07,4.684539713074112e-07,1.2880144023304058e-05
2.7541641818136764e-07,2.492090790545428e-07,4.7334888828070966e-07,1.2856601762085008e-05
2.745229220500992e-07,2.468561152779432e-07,4.782518434009587e-07,1.2824916017965772e-05
2.7355569435100804e-07,2.445761870363909e-07,4.831384401287386e-07,1.2786075566621155e-05
2.725294892956283e-07,2.4237930970376983e-07,4.879878175690471e-07,1.2741168987406324e-05
2.71460934696218e-07,2.4027526778957713e-07,4.927789351516297e-07,1.2691218409539038e-05
2.703653424459156e-07,2.3827281942308413e-07,4.974878831724247e-07,1.263709320567838e-05
2.692563164028865e-07,2.363799358920931e-07,5.020883793502397e-07,1.2579511337886114e-05
2.681465025095459e-07,2.3460469383278032e-07,5.065539121219365e-07,1.2519067887994142e-05
2.6704747980329377e-07,2.329551144717539e-07,5.108597831200025e-07,1.2456268188796773e-05
2.659694237095304e-07,2.314385738002977e-07,5.14985377453141e-07,1.2391622934907417e-05
2.6492245929801414e-07,2.3006138629066357e-07,5.189157529845151e-07,1.232580711463853e-05
2.6391867595773857e-07,2.288278824417474e-07,5.226411410034673e-07,1.2259740588491409e-05
2.629716612957041e-07,2.2774042681776762e-07,5.261557051110026e-07,1.219449264906789e-05
2.6209401604267357e-07,2.2680076449247852e-07,5.294569834846635e-07,1.2131099707643375e-05
2.6129548007869297e-07,2.2601055987010841e-07,5.325446145367327e-07,1.2070428567927126e-05
2.605821877539972e-07,2.2537122698087068e-07,5.354175964410409e-07,1.2013169751335433e-05
2.59956751378934e-07,2.248839256372139e-07,5.380726319662522e-07,1.1960025047680976e-05
2.5941890056934427e-07,2.2454911069050587e-07,5.40505318832621e-07,1.1912004631736755e-05
2.5896634981885506e-07,2.2436674955528693e-07,5.42711847260368e-07,1.1870574172133189e-05
2.58595825083263e-07,2.243382118498785e-07,5.446883437104874e-07,1.1837536513778525e-05
2.5830366880014273e-07,2.244671218257073e-07,5.46429011108798e-07,1.1814799833210435e-05
2.58085716327649e-07,2.247579394642149e-07,5.479258771419203e-07,1.1804180829376545e-05
2.579371761399195e-07,2.2521523604031372e-07,5.491697931721822e-07,1.1807257486305502e-05
2.5785298738708557e-07,2.2584474021296158e-07,5.501510217042079e-07,1.1825268866400404e-05
2.5782817868173964e-07,2.2665348639488467e-07,5.508596843237325e-07,1.18590854670805e-05
2.578580162408915e-07,2.2764767222582132e-07,5.512863405706112e-07,1.1909230928359206e-05
2.579383664931932e-07,2.2883046003090915e-07,5.514219714767084e-07,1.1975898810012896e-05
2.580660320524121e-07,2.3020188000787606e-07,5.512573330576903e-07,1.205894822039635e-05
2.582382462760561e-07,2.3175985115051328e-07,5.507829203669703e-07,1.2157907256279984e-05
2.58451511600636e-07,2.3350031271863952e-07,5.499906143639692e-07,1.2272009057650828e-05
2.587010542521257e-07,2.354162553738697e-07,5.488753918424133e-07,1.2400254308275478e-05
2.58982084870564e-07,2.374973535920496e-07,5.474345958398854e-07,1.2541474072154807e-05
2.592930873065812e-07,2.397313316201891e-07,5.456660784644517e-07,1.2694388865811279e-05
2.5963832884691556e-07,2.4210543339569625e-07,5.435681870858471e-07,1.2857685320267614e-05
2.600263563556586e-07,2.4460625379888985e-07,5.411409579404657e-07,1.3030096668111865e-05
2.604673870537586e-07,2.472190655576961e-07,5.383867254482415e-07,1.3210439323641202e-05
2.6097302202123193e-07,2.499277970463889e-07,5.353109570626e-07,1.3397611684900035e-05
2.615553269794416e-07,2.527153389944879e-07,5.31922775570603e-07,1.3590604213626755e-05
2.622243668541114e-07,2.5556486910717103e-07,5.282331331709345e-07,1.3788515932142624e-05
2.629883355431395e-07,2.5846247873672987e-07,5.242528119229632e-07,1.3990545877016227e-05
2.638560294182223e-07,2.613991069611826e-07,5.199934178024543e-07,1.4195969559453933e-05
2.648369399142746e-07,2.64370813204331e-07,5.154692304670741e-07,1.440409955940701e-05
2.6593837773952906e-07,2.673789496250771e-07,5.106962345560664e-07,1.4614213736759766e-05
2.6716329522241566e-07,2.7042995780227554e-07,5.056897509429115e-07,1.4825504311435058e-05
2.6851048861088004e-07,2.73532498568722e-07,5.00464317408584e-07,1.503710238815736e-05
2.699755217455489e-07,2.7669348743843343e-07,4.950353918964428e-07,1.5248125925364353e-05
2.7155110286247806e-07,2.799165967190197e-07,4.89420408595473e-07,1.5457689970882557e-05
2.7322738105705296e-07,2.8320323103631804e-07,4.836389699545188e-07,1.5664902764097504e-05
2.749922923349144e-07,2.865538254811173e-07,4.777132070196539e-07,1.586888364867667e-05
2.76831883925304e-07,2.8996752384832156e-07,4.716694376033167e-07,1.6068787227971368e-05
2.7873068182597056e-07,2.934403573289159e-07,4.6554256873114965e-07,1.626381735406599e-05
2.8067181448208324e-07,2.9696464262957194e-07,4.5938096697313136e-07,1.645323948835057e-05
2.826374202921753e-07,3.005310888197997e-07,4.5324636615112647e-07,1.6636374720094494e-05
2.846102298470776e-07,3.041313939345061e-07,4.472090125315506e-07,1.681256976175674e-05
2.8657579457095564e-07,3.077586193397359e-07,4.4134168250282895e-07,1.6981175275030118e-05
2.8852363021887324e-07,3.114063229059541e-07,4.3571309873839614e-07,1.714152810190946e-05
2.904467272632056e-07,3.150684916609341e-07,4.3038230118314954e-07,1.7292918402263466e-05
2.923401793948102e-07,3.1873979295345633e-07,4.25398144260495e-07,1.7434572991095153e-05
2.9419906352246974e-07,3.224156181133609e-07,4.208047678262262e-07,1.7565693984227732e-05
2.960167324980055e-07,3.2609289746013297e-07,4.166477520375153e-07,1.76855439744523e-05
2.977852747646157e-07,3.297716310789443e-07,4.1297547492027867e-07,1.779352520513988e-05
2.994968757579308e-07,3.334547028411327e-07,4.098359893518611e-07,1.7889201549752502e-05
3.011442204344109e-07,3.371457807902863e-07,4.072726985743893e-07,1.7972264852434228e-05
3.0272131574757376e-07,3.408479239333332e-07,4.053204002165455e-07,1.8042485844437667e-05
3.042258715240329e-07,3.4456295178186823e-07,4.0400235314726174e-07,1.809967646631364e-05
3.056609146780041e-07,3.4829105121165427e-07,4.0332950119210134e-07,1.8143696753761755e-05
3.070334810097708e-07,3.520307674648037e-07,4.033015025966958e-07,1.817451195055328e-05
3.0835153936710556e-07,3.557784808084141e-07,4.0390823824906563e-07,1.8192206274623787e-05
3.096217076218234e-07,3.595281431760303e-07,4.051310696891433e-07,1.819691199874105e-05
3.1084867681444804e-07,3.632723609628445e-07,4.0694351064366906e-07,1.8188743812887892e-05
3.1203584284062555e-07,3.67003558102861e-07,4.09311862805369e-07,1.8167778339323332e-05
3.131860203347709e-07,3.707140136104388e-07,4.1219627937114967e-07,1.8134045415736296e-05
3.143008651192869e-07,3.743948624662511e-07,4.155521987671843e-07,1.8087525919590122e-05
3.153797768683764e-07,3.7803484932312265e-07,4.193316748647413e-07,1.8028159267672185e-05
3.164199583378426e-07,3.8161984603704866e-07,4.2348456001577896e-07,1.7955853320746112e-05
3.174174493379482e-07,3.8513311920602985e-07,4.2796151572803204e-07,1.7870498603967935e-05
3.1836808368929767e-07,3.8855610404547183e-07,4.3271787176877354e-07,1.7771984238290803e-05
3.192678021700431e-07,3.9187044839832906e-07,4.3771380253722794e-07,1.766020791210011e-05
3.201129229483219e-07,3.9506081808904354e-07,4.4291180945020895e-07,1.7535082372987565e-05
3.209009218583603e-07,3.9811638197829883e-07,4.482755412856164e-07,1.7396542883515978e-05
3.216311042613474e-07,4.010305211461645e-07,4.5376885209536245e-07,1.7244554535560455e-05
3.22304496983628e-07,4.038002467906114e-07,4.5935382125356157e-07,1.707911504989691e-05
3.2292257746404426e-07,4.064255866579532e-07,4.649897900574479e-07,1.6900253610288238e-05
3.2348553677148534e-07,4.089075829743186e-07,4.706340364341404e-07,1.6708037017529182e-05
3.2399146960519923e-07,4.11245576054269e-07,4.762438456236036e-07,1.6502594938475853e-05
3.2443712664682286e-07,4.1343563495613325e-07,4.817798128053078e-07,1.6284150068557047e-05
3.24820905324783e-07,4.1547022976404647e-07,4.872078440903572e-07,1.6053021841077107e-05
3.251461063997528e-07,4.173387857830274e-07,4.924982663917625e-07,1.5809604872162287e-05
3.254200921199199e-07,4.1902873091919863e-07,4.976236729754561e-07,1.5554343393383567e-05
3.256503298935992e-07,4.2052672945145e-07,5.025569427960978e-07,1.528771034053601e-05
3.258419603831733e-07,4.2182020665557757e-07,5.072700339722814e-07,1.5010204399028112e-05
3.2599752825995887e-07,4.228985049237236e-07,5.117341037834685e-07,1.4722370728431893e-05
3.261173072668732e-07,4.2375318889987546e-07,5.159206527795335e-07,1.4424819095273575e-05
3.262000315768852e-07,4.2437796319364683e-07,5.198033992612652e-07,1.4118213344915637e-05
3.26243612211239e-07,4.247683257177714e-07,5.233611402396361e-07,1.3803244232034558e-05
3.262449463493171e-07,4.2492058477404594e-07,5.265801295707478e-07,1.3480612240673985e-05
3.261991029342508e-07,4.24830666826113e-07,5.29454438749629e-07,1.3151023488285208e-05
3.260988004909769e-07,4.244939855421688e-07,5.319853650896165e-07,1.2815188910028115e-05
3.259346256307128e-07,4.239061789900912e-07,5.341796536626907e-07,1.2473830883218765e-05
3.256958090691337e-07,4.230634558018088e-07,5.360460896705619e-07,1.2127709269814516e-05
3.25370921640749e-07,4.219628536159689e-07,5.37594403149384e-07,1.1777647849090726e-05
3.249483651828009e-07,4.206027199882706e-07,5.388381874544755e-07,1.1424526082714992e-05
3.244173147481681e-07,4.1898261408732636e-07,5.397972193800879e-07,1.1069249198418157e-05
3.237692279057183e-07,4.171028339815892e-07,5.404968277565246e-07,1.0712732491317816e-05
3.2299899868520925e-07,4.1496430502558617e-07,5.409661705148722e-07,1.0355912075864682e-05
3.221045442245725e-07,4.12569151080072e-07,5.412353615703293e-07,9.99979208778035e-06
3.210849415284111e-07,4.099220866293925e-07,5.413312343441147e-07,9.645500748132124e-06
3.199393797264555e-07,4.070311945769613e-07,5.412744545492008e-07,9.294276060303938e-06
3.186686552259092e-07,4.0390652534379894e-07,5.410796797265828e-07,8.947385890728947e-06
3.172775092626936e-07,4.0055845056905396e-07,5.40757284089309e-07,8.606086787527662e-06
3.157746217971004e-07,3.9699796446800793e-07,5.403147343302199e-07,8.271653672793241e-06
3.141701492876141e-07,3.932372973913168e-07,5.397576918103207e-07,7.945432402453425e-06
3.1247341277051896e-07,3.892902340427732e-07,5.390914536359283e-07,7.628895882484502e-06
3.106919142337276e-07,3.851740913798632e-07,5.383223586018216e-07,7.3236719062426235e-06
3.088312585639257e-07,3.809115974971182e-07,5.37458809678292e-07,7.031480983951998e-06
3.0689587951865766e-07,3.765290836205243e-07,5.365109870152547e-07,6.753994839546777e-06
3.048904339988083e-07,3.7205239485908273e-07,5.354901474135824e-07,6.492693726323956e-06
3.028207642463562e-07,3.675042817278249e-07,5.344121099665982e-07,6.248779044420481e-06
3.0069341310114174e-07,3.6290423718982063e-07,5.333053571864361e-07,6.0231477644278914e-06
2.985146131352528e-07,3.582696085505623e-07,5.322163031065711e-07,5.816404232378571e-06
2.962900796690167e-07,3.536162790039004e-07,5.312058714393922e-07,5.628894093492905e-06
2.940251209581263e-07,3.4895843794456267e-07,5.303403047683963e-07,5.46079305001672e-06
2.917243585662485e-07,3.443085388240865e-07,5.296825601705486e-07,5.312284206224794e-06
2.893915035203525e-07,3.3967754920533035e-07,5.292871809493847e-07,5.1837151610790225e-06
2.8702946408488907e-07,3.350753199500276e-07,5.291984323610031e-07,5.0755634654832705e-06
2.846405360061513e-07,3.3051188461974385e-07,5.294507103831382e-07,4.988252740322467e-06
2.8222700191725265e-07,3.259991723247949e-07,5.300700909132374e-07,4.9219996617269796e-06
2.7979233487871673e-07,3.2155115013746636e-07,5.310755695015899e-07,4.8767783838860325e-06
2.7734184832935336e-07,3.1718228778689797e-07,5.32479390446084e-07,4.852438684831759e-06
2.748819545736409e-07,3.1290656561150225e-07,5.342875206891823e-07,4.8489519412573935e-06
2.7241881307737496e-07,3.0873752203247107e-07,5.365007060940621e-07,4.866596749407184e-06
2.699574104733221e-07,3.0468781255191133e-07,5.391151154236174e-07,4.905932660179748e-06
2.6750160142575986e-07,3.007684357789882e-07,5.421225561377371e-07,4.967647187151525e-06
2.650550793444347e-07,2.969892881739121e-07,5.455111551354094e-07,5.0524177412439455e-06
2.62622412426328e-07,2.9336116819875086e-07,5.492662606775327e-07,5.160811687003115e-06
2.6020892802186923e-07,2.898970590228753e-07,5.533718626618357e-07,5.293207472314623e-06
2.578193353653721e-07,2.8661159250656774e-07,5.578120618794867e-07,5.449740566274404e-06
2.554568741976233e-07,2.8351989087659e-07,5.625695681535514e-07,5.6302674141154005e-06
2.5312445976197767e-07,2.806359212664013e-07,5.676223708654053e-07,5.834337304814244e-06
2.5082632215173894e-07,2.7797021841924927e-07,5.729424294154118e-07,6.061183832069578e-06
2.4856814051149444e-07,2.755286457886974e-07,5.784954642014545e-07,6.309738907741022e-06
2.4635687894034204e-07,2.7331313185303204e-07,5.842405995968207e-07,6.578657515614047e-06
2.442019978950555e-07,2.713235582208108e-07,5.901311498816005e-07,6.866358444391685e-06
2.42116496561872e-07,2.6955992756333974e-07,5.961162758135767e-07,7.17108013286521e-06
2.401157840661955e-07,2.6802415254973827e-07,6.021426327658443e-07,7.49094179273093e-06
2.3821505022563943e-07,2.667204610363317e-07,6.081569817807875e-07,7.824014514265413e-06
2.3642676062448092e-07,2.6565403325119336e-07,6.141103832772628e-07,8.168385632530395e-06
2.347591297326753e-07,2.6482911211580034e-07,6.199617224603152e-07,8.522183138039077e-06
2.3321610834991962e-07,2.642483020071906e-07,6.256779012385665e-07,8.883569066281573e-06
2.317992631683784e-07,2.639133352932377e-07,6.312309943570139e-07,9.250738330161034e-06
2.305102152995625e-07,2.638253153854046e-07,6.365950196732186e-07,9.621932268718573e-06
2.2935086067558355e-07,2.6398301419496643e-07,6.417450325169961e-07,9.995452810168603e-06
2.2832154654777342e-07,2.643812630106402e-07,6.466576085258069e-07,1.0369671904130107e-05
2.274204547038793e-07,2.650114689927118e-07,6.513095500260365e-07,1.0743024692893724e-05
2.266455147112503e-07,2.658631046771491e-07,6.556757922281699e-07,1.1113976110233517e-05
2.259968194553157e-07,2.669242721447789e-07,6.597290062820733e-07,1.1481002841955948e-05
2.254769598445517e-07,2.681812587693465e-07,6.634400687212412e-07,1.1842619678144494e-05
2.2508941098589602e-07,2.6961818161527364e-07,6.667783200990743e-07,1.2197401033785185e-05
2.248368485535479e-07,2.712172775011233e-07,6.697125508292558e-07,1.2543970373491694e-05
2.2471993561960126e-07,2.7295952375343225e-07,6.722129013421566e-07,1.2880986140741886e-05
2.2473685263604652e-07,2.748250570714122e-07,6.742522503727467e-07,1.32071437446709e-05
2.2488432032938145e-07,2.767935416982209e-07,6.758067622319927e-07,1.3521201530756469e-05
2.2515932500215549e-07,2.7884474001672807e-07,6.768562009012215e-07,1.3822036160951858e-05
2.255599039520578e-07,2.809583458615278e-07,6.773840244986639e-07,1.4108725833284821e-05
2.2608499261600146e-07,2.8311298682553676e-07,6.773767941210773e-07,1.4380614024717576e-05
2.2673430588158823e-07,2.852859233734865e-07,6.768228222852876e-07,1.4637291666652343e-05
2.2750778520746088e-07,2.8745354819230597e-07,6.757114749963214e-07,1.487852094373262e-05
2.2840433573654982e-07,2.895918359267664e-07,6.74033589409046e-07,1.5104147591236587e-05
2.2942162734711905e-07,2.916773516931313e-07,6.717816564893175e-07,1.531401470139608e-05
2.3055733122931032e-07,2.9368941202144985e-07,6.689499812196329e-07,1.5507904376517067e-05
2.318099133562685e-07,2.956119630311547e-07,6.655356563265665e-07,1.56855254435533e-05
2.3317807805593053e-07,2.974331481676881e-07,6.615395458222204e-07,1.584654431440574e-05
2.346601489921885e-07,2.99142978024718e-07,6.569666138337628e-07,1.599065500610958e-05
2.3625456827761308e-07,3.007318970238668e-07,6.518259324527445e-07,1.611765574647772e-05
2.3795977052930851e-07,3.021913522533091e-07,6.461303772968339e-07,1.6227475311315235e-05
2.39772551591522e-07,3.0351419209049463e-07,6.398958326176054e-07,1.6320141316868038e-05
2.4168726195754164e-07,3.046941384989496e-07,6.331403968131456e-07,1.63957339933936e-05
2.4369641158514576e-07,3.0572657088501673e-07,6.258839489056724e-07,1.6454364948771946e-05
2.4579178914507505e-07,3.06610082118328e-07,6.181477976736093e-07,1.64961984657383e-05
2.4796638677631357e-07,3.0734555189317514e-07,6.099545712314431e-07,1.6521480365037688e-05
2.502156582889626e-07,3.079333139210997e-07,6.013283971836786e-07,1.6530536384100272e-05
2.525364055575589e-07,3.083717278161018e-07,5.922947109344589e-07,1.6523751168120338e-05
2.5492558215340236e-07,3.086576680241022e-07,5.828803518826214e-07,1.6501531595210793e-05
2.5738038520201695e-07,3.0878756959649704e-07,5.731147850455782e-07,1.6464266204099248e-05
2.5989738964994717e-07,3.087585192662268e-07,5.630307946773238e-07,1.6412308877149303e-05
2.6247111793395427e-07,3.085689359502391e-07,5.526635991078281e-07,1.6345984419599985e-05
2.650957429039709e-07,3.082192191041632e-07,5.420500141260989e-07,1.6265598966011132e-05
2.677698315035887e-07,3.077132315200379e-07,5.312282459178649e-07,1.6171443478702845e-05
2.704984238540378e-07,3.07058728019228e-07,5.202371138216652e-07,1.606378734345052e-05
2.732898261464316e-07,3.062653570739619e-07,5.091146360513616e-07,1.5942877973069668e-05
2.761515064519065e-07,3.0534249188735197e-07,4.978968993877017e-07,1.580896155201084e-05
2.790883203087749e-07,3.042982332645606e-07,4.866176988771283e-07,1.566230527737152e-05
2.821022524038345e-07,3.031391656065209e-07,4.753084234609371e-07,1.5503197809848237e-05
2.8519268981036647e-07,3.018709550605221e-07,4.6399770489974773e-07,1.533193781563952e-05
2.8835641989606e-07,3.0049937271418056e-07,4.5271166737843933e-07,1.5148827028242569e-05
2.91586882875495e-07,2.990311764385577e-07,4.414747976550561e-07,1.4954176953674808e-05
2.9487330385017646e-07,2.974745493883697e-07,4.303105115537547e-07,1.4748331937753519e-05
2.9820062690146864e-07,2.958387372204678e-07,4.192415900167809e-07,1.4531696466144636e-05
3.015506811963191e-07,2.9413434036169574e-07,4.082904766814578e-07,1.4304756007659269e-05
3.049040688979312e-07,2.923755962342215e-07,3.97478984619219e-07,1.4068096003336663e-05
3.082416232151147e-07,2.9058197567948487e-07,3.868276394155965e-07,1.3822415532893594e-05
3.115453776713077e-07,2.887761122091703e-07,3.763551738344886e-07,1.3568519980098018e-05
3.148000621690913e-07,2.869797300488047e-07,3.6607877550081613e-07,1.3307299987212264e-05
3.179948615601851e-07,2.8521111065640347e-07,3.560151594034613e-07,1.303971787795166e-05
3.211237392005798e-07,2.834849572078452e-07,3.461818507760573e-07,1.276679683395105e-05
3.2418363410889824e-07,2.8181305891833505e-07,3.365980243884059e-07,1.2489597070828765e-05
3.2717228001408965e-07,2.8020477524445603e-07,3.272846112324507e-07,1.220917815289374e-05
3.300869060440784e-07,2.786683082936652e-07,3.18264631631135e-07,1.1926553956139639e-05
3.329233852858733e-07,2.7721285734525144e-07,3.0956386096603806e-07,1.1642659931059414e-05
3.356764914811778e-07,2.758497622345265e-07,3.0120970890224423e-07,1.1358359404992668e-05
3.383409886754057e-07,2.745918830972174e-07,2.932284920395746e-07,1.1074492898566408e-05
3.4091221557068574e-07,2.7345172866719406e-07,2.8564381298432684e-07,1.0791952158506004e-05
3.433868639635146e-07,2.7243921816359345e-07,2.7847630897992177e-07,1.0511730730347698e-05
3.4576345548664587e-07,2.715608400173897e-07,2.71743271351218e-07,1.0234898793405076e-05
3.480411495543293e-07,2.7082130408945277e-07,2.654584598016248e-07,9.96253403264772e-06
3.502185015311312e-07,2.7022657593805804e-07,2.596330294896705e-07,9.695684986051615e-06
3.5229317403860666e-07,2.697852689545808e-07,2.5427695906441067e-07,9.435383112028892e-06
3.542613129512426e-07,2.695067929605511e-07,2.4940022629063376e-07,9.182687503406426e-06
3.561171051375457e-07,2.6939826917905915e-07,2.450130760831015e-07,8.938739624945646e-06
3.5785385508721025e-07,2.6946250931159147e-07,2.411247464279624e-07,8.7047722450304e-06
3.594650500475991e-07,2.6969738433456623e-07,2.3774194834754186e-07,8.482040154028981e-06
3.6094373597608816e-07,2.700968053889151e-07,2.348683682289845e-07,8.27171343995796e-06
3.622813893306988e-07,2.706538734032753e-07,2.3250454094473052e-07,8.074789383973351e-06
3.6346790846057453e-07,2.71364843350137e-07,2.306483081942161e-07,7.892069034684704e-06
3.644929359905176e-07,2.7223156749326616e-07,2.2929655168390518e-07,7.724245115113993e-06
3.653471661498279e-07,2.732614953851409e-07,2.284473539052663e-07,7.572062757646646e-06
3.660222497749452e-07,2.7446511882328073e-07,2.281013043943777e-07,7.43640967414809e-06
3.665101165066597e-07,2.758521243137582e-07,2.2826124759935628e-07,7.318255535334119e-06
3.668029588072115e-07,2.7742870643954957e-07,2.2893089702944077e-07,7.218508330584154e-06
3.668936272163756e-07,2.791966583805825e-07,2.301129421170104e-07,7.13789283794889e-06
3.6677606228460176e-07,2.811533550362846e-07,2.3180754333753772e-07,7.076892549604428e-06
3.6644601242156956e-07,2.832925945554116e-07,2.3401379443211694e-07,7.035731092817833e-06
3.659019525175271e-07,2.856061249996161e-07,2.36734329002282e-07,7.014367893651361e-06
3.651456114265985e-07,2.880845608304681e-07,2.399793389039716e-07,7.012542100600126e-06
3.641820967515372e-07,2.907169314196977e-07,2.437683348851811e-07,7.029914100305662e-06
3.6301974864985095e-07,2.9348954591516326e-07,2.4812981014704326e-07,7.066234956235204e-06
3.6166921840842987e-07,2.963855513885641e-07,2.530976108371261e-07,7.121379144594467e-06
3.6014198717795405e-07,2.993855755003067e-07,2.587044061734795e-07,7.195219432743429e-06
3.5844924498596366e-07,3.024690216299228e-07,2.649747182943081e-07,7.28748870829261e-06
3.56601410307991e-07,3.0561644260174286e-07,2.719201997685393e-07,7.39771913370738e-06
3.5460831909996525e-07,3.088118952854631e-07,2.795398614019968e-07,7.525291224311971e-06
3.524800456599191e-07,3.120425889923134e-07,2.878246929980955e-07,7.669629479556039e-06
3.502276568999553e-07,3.152968887492316e-07,2.967618661740201e-07,7.830427799092974e-06
3.4786293088675e-07,3.18563350973271e-07,3.0633563613517854e-07,8.007692352202531e-06
3.45397651712212e-07,3.2183003764668694e-07,3.165270229224664e-07,8.201599877744695e-06
3.428441142528915e-07,3.250833716503468e-07,3.273140685316873e-07,8.412334643467673e-06
3.402156781756553e-07,3.283077760282522e-07,3.386712924064029e-07,8.639983640348238e-06
3.375256748887752e-07,3.314863166893081e-07,3.50567782089451e-07,8.884472604173171e-06
3.347860764763575e-07,3.346014985607854e-07,3.6296625692334754e-07,9.145522964609046e-06
3.320070990420774e-07,3.376357246915411e-07,3.7582458618241257e-07,9.422632297293167e-06
3.291977683150637e-07,3.405716197350245e-07,3.8909772890526686e-07,9.715075475792926e-06
3.263672155857838e-07,3.4339257670189336e-07,4.027385455008242e-07,1.0021911236990504e-05
3.235254776321469e-07,3.460830382438528e-07,4.1669831676339347e-07,1.0341979945488695e-05
3.206832724204483e-07,3.486277684907664e-07,4.3092601155978596e-07,1.0673892624901736e-05
3.178513316221137e-07,3.5101091461611234e-07,4.4536546219480135e-07,1.1016041067507553e-05
3.150400299776756e-07,3.532164874708347e-07,4.5995422896503133e-07,1.1366655221541355e-05
3.1225969413276354e-07,3.552296436611928e-07,4.746276092657804e-07,1.172389474488166e-05
3.095206165212745e-07,3.5703687919751e-07,4.893249583740268e-07,1.208594408699523e-05
3.068322331919228e-07,3.5862542664916796e-07,5.039936212679521e-07,1.2451085650249009e-05
3.042030347809084e-07,3.5998331430152814e-07,5.185899985453007e-07,1.2817736284818714e-05
3.016415386221281e-07,3.611005209961051e-07,5.330786610356621e-07,1.3184454914727334e-05
2.991566277092284e-07,3.619701498596076e-07,5.474294651159014e-07,1.3549941975769125e-05
2.967571738458377e-07,3.6258801756142797e-07,5.616136826858071e-07,1.3913028006040506e-05
2.9445241418611216e-07,3.6295116872879594e-07,5.756004840522878e-07,1.4272634602412853e-05
2.922534432075407e-07,3.6305717090320576e-07,5.893544965219371e-07,1.4627724695653214e-05
2.901738566792444e-07,3.629044291404901e-07,6.028353202217531e-07,1.4977278324383303e-05
2.8822835554633604e-07,3.6249250356672136e-07,6.159999241401971e-07,1.5320283952631047e-05
2.8643140982685216e-07,3.618216691618689e-07,6.288072362980397e-07,1.5655707764496694e-05
2.847964438153183e-07,3.6089196971992824e-07,6.412217734929089e-07,1.5982462622246653e-05
2.8333398142010534e-07,3.597028001214916e-07,6.532141122302681e-07,1.6299418283890625e-05
2.820503311686153e-07,3.582535978129664e-07,6.647592697371496e-07,1.6605428183298003e-05
2.8094861318920697e-07,3.5654581715437453e-07,6.758343174667689e-07,1.6899352300557412e-05
2.800306046876941e-07,3.5458525838751133e-07,6.864160586452121e-07,1.718011233781736e-05
2.792976345537857e-07,3.52382025817696e-07,6.964800575959778e-07,1.744677649817422e-05
2.7875003812503774e-07,3.499477385072406e-07,7.060010570517348e-07,1.7698596521783015e-05
2.783857940387819e-07,3.4729343759029843e-07,7.149537923556219e-07,1.793495581597666e-05
2.782003841632541e-07,3.4442995361681554e-07,7.233142797918899e-07,1.815528459517496e-05
2.781882360938117e-07,3.413689377097692e-07,7.310622341477213e-07,1.8359004362812993e-05
2.783433058346773e-07,3.381229332876677e-07,7.38183167919127e-07,1.8545505426564035e-05
2.786579383506169e-07,3.3470487327776735e-07,7.446676585375461e-07,1.871415297281134e-05
2.791216923970497e-07,3.3112780225890737e-07,7.505085990057624e-07,1.886434316736568e-05
2.7972162944618413e-07,3.274047472954123e-07,7.556994627790573e-07,1.8995600700885688e-05
2.804440093254873e-07,3.235487465600588e-07,7.602342835401724e-07,1.910763943876324e-05
2.812753121000329e-07,3.195734290795641e-07,7.64107817227263e-07,1.9200325793790667e-05
2.822014887368899e-07,3.1549366948737857e-07,7.673153249873221e-07,1.9273590742082987e-05
2.832074068302803e-07,3.113256027680592e-07,7.698530292674244e-07,1.932737806346224e-05
2.8427733209136977e-07,3.0708609509668934e-07,7.717187013742417e-07,1.9361650857620152e-05
2.853952671630123e-07,3.0279197473292997e-07,7.729108688529123e-07,1.93764192107377e-05
2.8654510874854353e-07,2.9845942313743577e-07,7.734277430719962e-07,1.9371754249917763e-05
2.877115524998872e-07,2.941034471066299e-07,7.732671015226915e-07,1.934779865882003e-05
2.8888197200940697e-07,2.8973726431248996e-07,7.724264956907541e-07,1.930485528274744e-05
2.90048050418789e-07,2.853725517210284e-07,7.709033592079645e-07,1.9243574454027294e-05
2.912063741887409e-07,2.810205084299511e-07,7.686952110642649e-07,1.9165061871679326e-05
2.923586320865176e-07,2.766926827744076e-07,7.658002279630788e-07,1.9070761757143067e-05
2.935111047029882e-07,2.7240216966563106e-07,7.622181926374916e-07,1.896222685663162e-05
2.946724421498457e-07,2.681656555005849e-07,7.579519943650103e-07,1.8840946724669386e-05
2.9585058158924443e-07,2.640041931022666e-07,7.530093753390654e-07,1.870830620510506e-05
2.9705087953899326e-07,2.599409920304604e-07,7.474028663110704e-07,1.8565715792459385e-05
2.9827584292963216e-07,2.559981095270819e-07,7.411478749332526e-07,1.8414847474708967e-05
2.99525708918705e-07,2.5219430832526017e-07,7.34261883018023e-07,1.825776257438297e-05
3.007996102565206e-07,2.485441507774249e-07,7.267651661484283e-07,1.8096824077277907e-05
3.020964101066264e-07,2.450580943071705e-07,7.186813000458395e-07,1.793449462911686e-05
3.0341463350594216e-07,2.4174327634818027e-07,7.100369227436141e-07,1.777314433505893e-05
3.0475175637384497e-07,2.3860487536723297e-07,7.008611241070186e-07,1.7614910917636034e-05
3.061028376787692e-07,2.3564813742413892e-07,6.911850678576646e-07,1.7461608808469872e-05
3.074595717621132e-07,2.328798149412909e-07,6.810413850204949e-07,1.7314682511324947e-05
3.0881099564573745e-07,2.3030848794270979e-07,6.704632363558085e-07,1.7175209788497278e-05
3.1014502777011385e-07,2.2794452471069287e-07,6.594844236692393e-07,1.7043950462491185e-05
3.114494122253169e-07,2.257991796952209e-07,6.481399977859714e-07,1.6921409185933288e-05
3.1271177185368424e-07,2.2388285246252646e-07,6.364659397684646e-07,1.680786438217548e-05
3.139194215858172e-07,2.222039233511148e-07,6.244981461513203e-07,1.670335268286546e-05
3.150596202213157e-07,2.2076833423616735e-07,6.122711727079649e-07,1.6607653601695605e-05
3.1612065949927395e-07,2.195794281952149e-07,5.998178780887887e-07,1.6520314893785835e-05
3.1709387471430824e-07,2.1863854249794003e-07,5.871710314667413e-07,1.6440725762766422e-05
3.179752650409913e-07,2.179464067910889e-07,5.743650866200446e-07,1.6368223922399066e-05
3.187652295682217e-07,2.1750385322718073e-07,5.614360580844475e-07,1.630219663879978e-05
3.194669573145952e-07,2.173108462883573e-07,5.484207171841311e-07,1.6242135632396415e-05
3.20085120920886e-07,2.1736511551532456e-07,5.353569695918525e-07,1.6187650212181124e-05
3.2062601088264514e-07,2.17662355731977e-07,5.222846586526586e-07,1.6138462203916878e-05
3.210979052153954e-07,2.181978336689661e-07,5.092445580949654e-07,1.609438152100075e-05
3.215095578127711e-07,2.1896749820659648e-07,4.962758365890896e-07,1.6055266205811827e-05
3.218685985338639e-07,2.1996792861837238e-07,4.834150328565211e-07,1.602099105395688e-05
3.2218243633651516e-07,2.2119527622159143e-07,4.7069644307906683e-07,1.5991418833385668e-05
3.224594582972149e-07,2.2264324197401406e-07,4.5815170671806784e-07,1.5966354799385048e-05
3.2270839460566763e-07,2.243018137200337e-07,4.458098029034436e-07,1.5945520097267578e-05
3.229370583992029e-07,2.261583389353967e-07,4.336982423692567e-07,1.5928572389838578e-05
3.231510039012672e-07,2.2819960044679627e-07,4.21843900987557e-07,1.5915124253801725e-05
3.233523604860405e-07,2.3041365560591158e-07,4.102737625978217e-07,1.5904730486201525e-05
3.2354029282999557e-07,2.327921018212503e-07,3.9901643506179976e-07,1.5896884207673214e-05
3.2371390449707785e-07,2.3533131113674851e-07,3.8810407152543824e-07,1.5891040704591005e-05
3.238755677388321e-07,2.380300678038983e-07,3.775736197892908e-07,1.5886634505526032e-05
3.2403085208639693e-07,2.4088551612162416e-07,3.674664463711114e-07,1.5883069179124577e-05
3.241856403372826e-07,2.4389136303073625e-07,3.5782755289257567e-07,1.587971805028967e-05
3.243447251294576e-07,2.470388355435064e-07,3.487065064324166e-07,1.5875957683270932e-05
3.2451262267152827e-07,2.503181158617577e-07,3.401606757872016e-07,1.5871201494141018e-05
3.246945014174583e-07,2.5371866566765524e-07,3.3225870265672666e-07,1.5864931651017566e-05
3.2489567314600246e-07,2.572286738651843e-07,3.250788130301941e-07,1.5856759842200917e-05
3.2511985600137394e-07,2.608349952714349e-07,3.186996752648852e-07,1.584649605321632e-05
3.2536824514612234e-07,2.645242930797731e-07,3.131908157975173e-07,1.5834145671301564e-05
3.256398173765556e-07,2.682835823120809e-07,3.0860963284287237e-07,1.5819799655244706e-05
3.2593166007474234e-07,2.720988254695575e-07,3.0500252099348603e-07,1.5803510279913628e-05
3.262391895545474e-07,2.759534701936145e-07,3.0240545683914606e-07,1.5785265308471216e-05
3.2655689740484337e-07,2.7982863202834373e-07,3.008436356476537e-07,1.5765042636204384e-05
3.2687972117868363e-07,2.8370450639325545e-07,3.003313352141469e-07,1.5742853565962532e-05
3.272035051527501e-07,2.875623111563833e-07,3.0087312664580124e-07,1.5718736473794768e-05
3.275239272231427e-07,2.9138597658387625e-07,3.024652891485641e-07,1.5692721861229118e-05
3.278358047721392e-07,2.951624376957836e-07,3.050951602056467e-07,1.56648441041522e-05
3.2813337156536565e-07,2.988799969488189e-07,3.08740132079413e-07,1.5635260710676197e-05
3.284104951272745e-07,3.025260246900417e-07,3.133698206750811e-07,1.5604361406949504e-05
3.2866055390085546e-07,3.060865881783182e-07,3.189497145441067e-07,1.557270114976944e-05
3.2887613203705284e-07,3.0954842331567786e-07,3.2544201608371765e-07,1.5540820282307933e-05
3.2904917431455185e-07,3.129012554173747e-07,3.328044989315963e-07,1.550913226343405e-05
3.2917171854017357e-07,3.161390307385646e-07,3.4098959492278013e-07,1.5477965217264223e-05
3.292362230524923e-07,3.192588766660808e-07,3.499437960532791e-07,1.544776704272727e-05
3.2923571508771637e-07,3.222583510911019e-07,3.5960953445258546e-07,1.541936783054693e-05
3.29164217918548e-07,3.251343770977572e-07,3.69929679638706e-07,1.5394075086686972e-05
3.290166432894812e-07,3.2788481191610216e-07,3.808493202902351e-07,1.5373520703922315e-05
3.2878843815191734e-07,3.3051011439884124e-07,3.923134210842129e-07,1.5359416571021703e-05
3.284755069900732e-07,3.3301379272644005e-07,4.042651191638537e-07,1.5353371703401708e-05
3.280736227677715e-07,3.354019984637557e-07,4.1664599441464565e-07,1.5356788186135242e-05
3.275776450305356e-07,3.376829680009687e-07,4.293959925577074e-07,1.5370792802087102e-05
3.269814346346447e-07,3.3986654524931737e-07,4.424525888716864e-07,1.5396174925402332e-05
3.262784983801024e-07,3.419626629825698e-07,4.557494365217628e-07,1.5433340726199014e-05
3.254632888836837e-07,3.43978954344328e-07,4.692150555793747e-07,1.548230929047175e-05
3.245320779644913e-07,3.4591960415677464e-07,4.827731986861722e-07,1.5542747989048363e-05
3.234825991764309e-07,3.477858671117267e-07,4.963451466435772e-07,1.5614027248412033e-05
3.2231352544654884e-07,3.4957706767035827e-07,5.098522597862436e-07,1.5695297213659813e-05
3.2102460272897547e-07,3.512914910501381e-07,5.232176857928237e-07,1.578559006973721e-05
3.196171064526782e-07,3.5292715975916746e-07,5.363683563722811e-07,1.5883921163179887e-05
3.1809388503927546e-07,3.5448220455802884e-07,5.492383283493219e-07,1.5989366473067132e-05
3.1645959442003906e-07,3.5595479103827596e-07,5.617714914460654e-07,1.6101120946027042e-05
3.1472243583637425e-07,3.5734325067858894e-07,5.739206713756876e-07,1.621853860943013e-05
3.128953117125222e-07,3.586462546217741e-07,5.856435325082445e-07,1.6341148165061856e-05
3.10993861383343e-07,3.598621391098826e-07,5.968990859427673e-07,1.6468647622342918e-05
3.0903345426698763e-07,3.609879128866501e-07,6.076468362702428e-07,1.660088458779336e-05
3.0702777876214146e-07,3.6201944605988434e-07,6.178470983670233e-07,1.6737827311949744e-05
3.0498897267201763e-07,3.629521239735861e-07,6.274613818718032e-07,1.6879527542781037e-05
3.029281235826383e-07,3.637806658298936e-07,6.364532439848186e-07,1.7026065746915937e-05
3.0085539765474375e-07,3.644995227043546e-07,6.447907007137519e-07,1.7177468029340224e-05
2.9878052427003413e-07,3.651043698677693e-07,6.524496822001182e-07,1.7333615942698753e-05
2.9671330430496265e-07,3.6559259147026884e-07,6.594147351797285e-07,1.7494218576250522e-05
2.946627590224908e-07,3.659621859185569e-07,6.656760277227951e-07,1.7658873990820138e-05
2.926360684111661e-07,3.6621078425297325e-07,6.712263785605969e-07,1.782713911077948e-05
2.906386684262982e-07,3.6633600020023973e-07,6.760596947071394e-07,1.799854844296475e-05
2.8867492760508215e-07,3.663364500332513e-07,6.801698157752392e-07,1.817262011827692e-05
2.867486569065549e-07,3.66211986720634e-07,6.8355029947769e-07,1.834888431203434e-05
2.848631402105177e-07,3.659632756456581e-07,6.861956764599324e-07,1.852691001141936e-05
2.830214897339808e-07,3.6559160717270476e-07,6.881041179951043e-07,1.870628360632221e-05
2.812280444007937e-07,3.6509853889217096e-07,6.89281580321624e-07,1.888654294262081e-05
2.7948900726978266e-07,3.6448520867363046e-07,6.89745094061826e-07,1.9067126839898677e-05
2.7781089327693375e-07,3.6375226023173255e-07,6.895225807525049e-07,1.924734839585823e-05
2.761988185498093e-07,3.629008177017778e-07,6.886501882546054e-07,1.94263640496027e-05
2.7465628122982784e-07,3.619337033166082e-07,6.871682899183876e-07,1.9603190957563647e-05
2.7318527824342017e-07,3.6085533648009455e-07,6.851169353258285e-07,1.977682446876889e-05
2.7178614915749824e-07,3.5967019855597524e-07,6.825331125230715e-07,1.994636388824305e-05
2.7045775724158604e-07,3.5838220607326006e-07,6.7945054191725e-07,2.011101727892717e-05
2.6919768531175976e-07,3.569959132484834e-07,6.759014343052701e-07,2.0270007018095788e-05
2.6800195898746013e-07,3.555172109457783e-07,6.719194561265487e-07,2.042250184779375e-05
2.668648900960086e-07,3.5395221880091684e-07,6.675414463646449e-07,2.056763403684721e-05
2.657795121710817e-07,3.5230589302672134e-07,6.628068776993615e-07,2.070455724393477e-05
2.647385705196352e-07,3.50581731017953e-07,6.577568685691505e-07,2.083247435520408e-05
2.637358236848502e-07,3.487825182457933e-07,6.524335065130043e-07,2.0950613658663392e-05
2.627664780046874e-07,3.469117827158346e-07,6.468783178700043e-07,2.105823597935271e-05
2.618267076580493e-07,3.449750839797913e-07,6.411305734130317e-07,2.1154776813834013e-05
2.609139587438036e-07,3.429800021133779e-07,6.352293629333383e-07,2.124003146259159e-05
2.600271968877925e-07,3.4093562506860013e-07,6.292200169772944e-07,2.131417409154758e-05
2.591655058449673e-07,3.388523032305668e-07,6.231588599299921e-07,2.137760757522916e-05
2.583268053104033e-07,3.3674077123885194e-07,6.171117320024975e-07,2.1430798631654413e-05
2.575077921999077e-07,3.346111021805124e-07,6.111477366780339e-07,2.147418190456141e-05
2.567037386454457e-07,3.3247211038516286e-07,6.053315949076261e-07,2.150819321977395e-05
2.559083358047261e-07,3.303306085916992e-07,5.997173291337686e-07,2.1533462349280398e-05
2.551152035864584e-07,3.281912757906145e-07,5.943455083822045e-07,2.1551004996233866e-05
2.543204929124865e-07,3.260576422346441e-07,5.892450158662836e-07,2.1562214265366667e-05
2.535237608986157e-07,3.239328603169005e-07,5.844376792674922e-07,2.1568684271181727e-05
2.527260741151261e-07,3.2181955452950394e-07,5.79941853715775e-07,2.1572014409800707e-05
2.519276555756063e-07,3.1971968129941547e-07,5.757726341993744e-07,2.1573650066025927e-05
2.5112732888760084e-07,3.176357134213437e-07,5.719401269280018e-07,2.157475881166235e-05
2.5032344994006204e-07,3.155729487691486e-07,5.684476652248105e-07,2.157615533855849e-05
2.495147371286265e-07,3.1354082582521117e-07,5.652909187430031e-07,2.1578282344257385e-05
2.4870056331364786e-07,3.115518707035439e-07,5.624584710332578e-07,2.158123069774863e-05
2.4788178343185766e-07,3.096196135830727e-07,5.599334073599468e-07,2.1584783567501247e-05
2.47061996439324e-07,3.077575098007222e-07,5.576959829263684e-07,2.158847816202433e-05
2.462473406475794e-07,3.059791132281689e-07,5.557267599869675e-07,2.1591666793824813e-05
2.454445768114669e-07,3.0429832741036164e-07,5.540073594783225e-07,2.159355390460565e-05
2.44659578297336e-07,3.027289139723748e-07,5.525185076101705e-07,2.1593214696957845e-05
2.438975205995553e-07,3.0128338393020004e-07,5.51238449890051e-07,2.158962830574259e-05
2.43163526107188e-07,2.9997163751049534e-07,5.501430509769032e-07,2.1581744935208746e-05
2.424623132707417e-07,2.988005778156591e-07,5.492063076345935e-07,2.156857758673468e-05
2.417980676009593e-07,2.977755940385577e-07,5.484002803100347e-07,2.154928812136296e-05
2.4117520278028734e-07,2.9690192876093805e-07,5.476949798797658e-07,2.152323965094845e-05
2.405980558157781e-07,2.961841982229931e-07,5.470595972760448e-07,2.14900189625862e-05
2.400694728796937e-07,2.956252524079673e-07,5.464645293159747e-07,2.144943787389391e-05
2.395902656352701e-07,2.952253514118549e-07,5.458816972065307e-07,2.140149905609262e-05
2.3916024621455045e-07,2.9498162026119e-07,5.452841369165603e-07,2.134632759558528e-05
2.387798139851307e-07,2.9488872812866357e-07,5.446478624672344e-07,2.128409562712219e-05
2.3845003757791856e-07,2.9494107052545015e-07,5.439536123605011e-07,2.12149564403532e-05
2.3817110607454254e-07,2.951343353421825e-07,5.431851898908862e-07,2.113900820098326e-05
2.379412318892204e-07,2.95464903188134e-07,5.423273240853594e-07,2.105631245643845e-05
2.3775668994854287e-07,2.9592851166404045e-07,5.413660256459445e-07,2.096693382331165e-05
2.3761271254918648e-07,2.9652026616901544e-07,5.402901608472923e-07,2.0870942300142688e-05
2.3750481312939092e-07,2.9723606428156497e-07,5.390923726658235e-07,2.0768391125332207e-05
2.374290911018094e-07,2.9807419208984196e-07,5.377681940177642e-07,2.0659321445817555e-05
2.3738135637867407e-07,2.990358388767904e-07,5.36314114390704e-07,2.0543797904526362e-05
2.3735671858806015e-07,3.0012373730215483e-07,5.347266955126648e-07,2.0421920044593493e-05
2.373502559137744e-07,3.0134022461339176e-07,5.330027492056568e-07,2.0293769612566212e-05
2.3735762816016048e-07,3.0268712180889577e-07,5.311395129007286e-07,2.0159339593044e-05
2.3737543772815123e-07,3.041663669547071e-07,5.291348432371725e-07,2.001851967152901e-05
2.374026633277871e-07,3.0577855148848624e-07,5.269875166898651e-07,1.9871166916423656e-05
2.374417195861868e-07,3.0752050392248666e-07,5.246971103746261e-07,1.971723044184744e-05
2.3749694281572642e-07,3.093847851071333e-07,5.222634514767732e-07,1.9556831307116346e-05
2.3757240553051253e-07,3.1136069021044424e-07,5.196866582254167e-07,1.9390218389183106e-05
2.3767085402275444e-07,3.134352721928909e-07,5.169689513757683e-07,1.9217658895677303e-05
2.3779353986034088e-07,3.155943725679218e-07,5.141176550276054e-07,1.9039396217282638e-05
2.3794146584372e-07,3.178234387972713e-07,5.111463331992529e-07,1.8855716338450923e-05
2.3811733090695576e-07,3.2010760824185557e-07,5.080724229070837e-07,1.866703546840229e-05
2.3832607174829332e-07,3.224309963449134e-07,5.049134640953875e-07,1.8473914606448473e-05
2.385741626008139e-07,3.247758520096912e-07,5.016848653967236e-07,1.827699799586593e-05
2.388689727936625e-07,3.2712323058011407e-07,4.98399859985955e-07,1.8076923767094337e-05
2.3921814330820176e-07,3.2945554322029386e-07,4.950696414379068e-07,1.7874280421715852e-05
2.396286528673476e-07,3.3175840349228346e-07,4.917034536954002e-07,1.7669707021599693e-05
2.4010580756115687e-07,3.3401954284263394e-07,4.883105524768966e-07,1.7464088902022348e-05
2.406526040327971e-07,3.362267877270299e-07,4.849018642807304e-07,1.7258626837690467e-05
2.412692933923932e-07,3.3836846469509055e-07,4.814889861793222e-07,1.705470796948377e-05
2.4195304889307576e-07,3.4043562541660506e-07,4.78083679920241e-07,1.6853731342551148e-05
2.4269914022041266e-07,3.424228284995313e-07,4.7469865360539294e-07,1.6657030017619067e-05
2.4350367569682496e-07,3.4432698011765554e-07,4.713461653939429e-07,1.6465924872096693e-05
2.443647391931179e-07,3.461468442956434e-07,4.680352306243992e-07,1.6281799168263408e-05
2.452805116279542e-07,3.478834065798849e-07,4.647711879528738e-07,1.6106049766455217e-05
2.462472336090653e-07,3.495384261755317e-07,4.615579881938224e-07,1.5939952858871407e-05
2.4725991617940266e-07,3.511118731727368e-07,4.584008949993942e-07,1.5784564485844532e-05
2.4831544404520094e-07,3.526023067814157e-07,4.553074315282457e-07,1.5640691274325463e-05
2.494147138347669e-07,3.5401073608304994e-07,4.5228622650597974e-07,1.5508906018126928e-05
2.505619700394003e-07,3.5534389893221027e-07,4.4934557538031967e-07,1.5389566113791178e-05
2.5176332502561996e-07,3.5661391961630524e-07,4.4649290156388424e-07,1.5282815425980272e-05
2.530254634069706e-07,3.5783477137045337e-07,4.4373433058608894e-07,1.518858696052174e-05
2.5435380706862697e-07,3.590183359767132e-07,4.4107427527966965e-07,1.5106624086122098e-05
2.557515468233447e-07,3.601727998265315e-07,4.3851597158604964e-07,1.5036517583537756e-05
2.572216796875202e-07,3.6130359788428796e-07,4.360616433082136e-07,1.4977739658881855e-05
2.5877034116239924e-07,3.624156678952033e-07,4.337106979610651e-07,1.4929656970677975e-05
2.604073902352807e-07,3.6351534930305206e-07,4.3145817605306156e-07,1.4891525750611304e-05
2.6214483206029085e-07,3.646109285215361e-07,4.292961974217693e-07,1.486248822228836e-05
2.639959671952274e-07,3.6571231409354366e-07,4.2721735766888967e-07,1.4841596822366793e-05
2.659738103864523e-07,3.668294417523934e-07,4.2521612599936575e-07,1.482787345680798e-05
2.680885243790657e-07,3.679694702005219e-07,4.2328695500129706e-07,1.4820360417724105e-05
2.7034756105776503e-07,3.691351551284252e-07,4.214223650322438e-07,1.4818125236119858e-05
2.7275770370485444e-07,3.7032523811637173e-07,4.1961300213698394e-07,1.48202421044797e-05
2.7532483052281997e-07,3.715351735493873e-07,4.178491322137996e-07,1.4825792147625696e-05
2.78051853121168e-07,3.7275793546436923e-07,4.1612363615546496e-07,1.4833887417501984e-05
2.809374043565751e-07,3.7398611752421326e-07,4.14435428022978e-07,1.484368467854924e-05
2.839755112677463e-07,3.7521468623168076e-07,4.1278974794559313e-07,1.4854369895732361e-05
2.871557823263822e-07,3.764421837424925e-07,4.111944633572575e-07,1.4865126426874048e-05
2.904638157022076e-07,3.776690471233696e-07,4.0965642001014964e-07,1.4875110434111663e-05
2.938822161863161e-07,3.788942559968425e-07,4.0818030456071843e-07,1.4883467971244595e-05
2.9739356296640577e-07,3.801135228979813e-07,4.067681791496544e-07,1.4889402062094815e-05
3.0098382547586014e-07,3.813203283648035e-07,4.054186439779264e-07,1.4892229223658701e-05
3.046423587485529e-07,3.8250803541059093e-07,4.0412671852737104e-07,1.4891366893368836e-05
3.083595400252457e-07,3.8367151102926543e-07,4.0288538421530107e-07,1.4886275117669953e-05
3.121257071298973e-07,3.8480897626655344e-07,4.0168935212734534e-07,1.4876406909115909e-05
3.1593078043855376e-07,3.8592402725085564e-07,4.0053915685963433e-07,1.4861193939463385e-05
3.197635909272204e-07,3.8702468020739603e-07,3.9944186881377116e-07,1.4840066651491028e-05
3.23611356313045e-07,3.8811918051679995e-07,3.984082478583497e-07,1.481248341271214e-05
3.2745901521001237e-07,3.892126383569105e-07,3.9744917462186986e-07,1.4777957521639334e-05
3.3128917269742926e-07,3.9030639812724046e-07,3.96575406204064e-07,1.4736104384362396e-05
3.350827181760817e-07,3.9139900192176635e-07,3.958040650012046e-07,1.4686713724304226e-05
3.388192139903216e-07,3.924870080031769e-07,3.9516779435704996e-07,1.4629824132239747e-05
3.424778068132562e-07,3.9356487600631743e-07,3.9471840545790634e-07,1.456579362546188e-05
3.46038541086276e-07,3.9462473215762524e-07,3.9452260301872e-07,1.4495350870894535e-05
3.494825320706685e-07,3.9565667784676814e-07,3.946521997508375e-07,1.4419566196963462e-05
3.527912494123222e-07,3.9664905638973993e-07,3.951733590742678e-07,1.4339709918468554e-05
3.5594621128477547e-07,3.975881967608959e-07,3.9613972897489254e-07,1.4257054138045712e-05
3.5892925014392226e-07,3.984583918523676e-07,3.975902879456548e-07,1.4172717763889319e-05
3.617228984618652e-07,3.992428184712537e-07,3.995497851332335e-07,1.408761071933736e-05
3.6431091446026075e-07,3.9992492133807786e-07,4.0202995555466423e-07,1.4002444445674319e-05
3.666795569690815e-07,4.004894931522106e-07,4.050313952353525e-07,1.3917750578445422e-05
3.6881934851354205e-07,4.0092339842439703e-07,4.085467260469222e-07,1.3833917301391974e-05
3.707253957403709e-07,4.01216125871295e-07,4.125630911124453e-07,1.3751302192499801e-05
3.723961817797253e-07,4.013603656822433e-07,4.1706254272667217e-07,1.3670377376543351e-05
3.738335211544718e-07,4.0135240822585385e-07,4.220224116160761e-07,1.3591743555149453e-05
3.750432408490764e-07,4.0119120915661994e-07,4.2741695355107975e-07,1.3515986294837116e-05
3.7603360122389606e-07,4.0087679843529145e-07,4.3321995666295136e-07,1.3443547216135664e-05
3.768126042081362e-07,4.004097194776312e-07,4.39407609418616e-07,1.3374728532366188e-05
3.773868633638969e-07,3.997912573756634e-07,4.459601937080085e-07,1.3309836160881267e-05
3.777616329028018e-07,3.990247156640668e-07,4.5286198454961526e-07,1.3249442714275344e-05
3.779410799372011e-07,3.9811704971918223e-07,4.600992164243761e-07,1.3194628148217864e-05
3.7792875513653153e-07,3.9707796582492685e-07,4.676559222748382e-07,1.3146989519918608e-05
3.777284657982547e-07,3.959169562232338e-07,4.755093384454978e-07,1.3108433935712614e-05
3.773454486938497e-07,3.946416631861026e-07,4.83627807124134e-07,1.3080946483462331e-05
3.767872013139065e-07,3.9325843649144466e-07,4.919722044879237e-07,1.3066431718608875e-05
3.760639524114162e-07,3.9177316424536576e-07,5.00498672636894e-07,1.3066610761830767e-05
3.751880267015917e-07,3.901912872843257e-07,5.09160299367257e-07,1.3082948326625772e-05
3.741716310180812e-07,3.885183531245022e-07,5.179088995819585e-07,1.3116601403398433e-05
3.7302543960656244e-07,3.8676189356745367e-07,5.266981301556717e-07,1.3168383187261916e-05
3.717588967882924e-07,3.849329371536571e-07,5.35485666373249e-07,1.3238738279412759e-05
3.703803944449164e-07,3.830452557731158e-07,5.442323429803512e-07,1.3327728737953118e-05
3.6889731108090267e-07,3.811127131899945e-07,5.528993306755464e-07,1.3435042437930615e-05
3.6731660060142133e-07,3.7914692996373475e-07,5.614463109814716e-07,1.3560048219514165e-05
3.656448063843224e-07,3.7715637252351633e-07,5.698329188736302e-07,1.3701892235468142e-05
3.6388723265758474e-07,3.7514637049394677e-07,5.780227071665322e-07,1.3859602265520513e-05
3.620474455780357e-07,3.731198367372106e-07,5.859860693096539e-07,1.4032189435940073e-05
3.601274576849071e-07,3.710784980056971e-07,5.936995889849638e-07,1.4218738621676864e-05
3.581279112660757e-07,3.6902337270128283e-07,6.011432923978038e-07,1.4418449679805179e-05
3.5604804980894397e-07,3.6695392657403543e-07,6.082990173678804e-07,1.4630612707237045e-05
3.538868552681768e-07,3.648677935826287e-07,6.1515087950447e-07,1.4854559600941088e-05
3.516459053370832e-07,3.6276254040960327e-07,6.216857770924278e-07,1.5089629712788474e-05
3.493317478068176e-07,3.606381955260185e-07,6.278924264182164e-07,1.5335134867536896e-05
3.4695570411674085e-07,3.5849863814394406e-07,6.337601736734279e-07,1.559031160842002e-05
3.445314079722411e-07,3.563513832220729e-07,6.392787579403855e-07,1.5854272163061884e-05
3.420719707512541e-07,3.5420667051218657e-07,6.444392354318325e-07,1.6125965061901207e-05
3.395885421936357e-07,3.5207688831978125e-07,6.492356520691143e-07,1.6404180851016587e-05
3.370908402876168e-07,3.4997643747575607e-07,6.536657507088372e-07,1.668762763889849e-05
3.345889531747425e-07,3.479213045811296e-07,6.577304793130655e-07,1.697501974041917e-05
3.3209462953095505e-07,3.459272522590848e-07,6.614328024355293e-07,1.7265112372457854e-05
3.296209851834978e-07,3.440070623133039e-07,6.647746737210354e-07,1.755669031972849e-05
3.2718144150452213e-07,3.421690108732708e-07,6.677536816777643e-07,1.7848556655022494e-05
3.2478860796587306e-07,3.4041707008461736e-07,6.703624587804511e-07,1.8139545861193435e-05
3.224536651702117e-07,3.387515308910916e-07,6.725898707909103e-07,1.8428526839058497e-05
3.201871136088935e-07,3.371695340825979e-07,6.744216765955203e-07,1.8714344919886768e-05
3.179996319938496e-07,3.356659032737448e-07,6.758413958771494e-07,1.8995737406053744e-05
3.159012865220049e-07,3.3423464416794446e-07,6.768327806880973e-07,1.927130702552989e-05
3.1390026401680733e-07,3.328701413882801e-07,6.773820379275113e-07,1.9539576378602727e-05
3.120028493555812e-07,3.315664456357063e-07,6.774774823676195e-07,1.979909570459945e-05
3.1021394434610426e-07,3.3031607984043353e-07,6.771079648839021e-07,2.0048580274528147e-05
3.085371791751481e-07,3.291114225626006e-07,6.76262268357555e-07,2.0287041837212152e-05
3.0697529005519465e-07,3.2794714572231734e-07,6.749299890113582e-07,2.0513843923737487e-05
3.055303991901642e-07,3.2681999601089787e-07,6.731035513158666e-07,2.0728635599258665e-05
3.04203249747968e-07,3.2572708337874776e-07,6.707800804437646e-07,2.0931205904551086e-05
3.029925427988644e-07,3.246654325783301e-07,6.679616423004972e-07,2.1121345344529364e-05
3.018951903706862e-07,3.236324986223977e-07,6.646539148748032e-07,2.1298764428216285e-05
3.009067056520841e-07,3.22626351584207e-07,6.608645892272121e-07,2.1463060982197486e-05
3.0002150894204424e-07,3.216449316078272e-07,6.566019519548297e-07,2.1613710679052263e-05
2.992333596256962e-07,3.206853331193666e-07,6.518736036897513e-07,2.1750093609705586e-05
2.985357768138937e-07,3.197441095261516e-07,6.466860070675958e-07,2.1871614490057174e-05
2.979224618403155e-07,3.1881808081330554e-07,6.410451748111433e-07,2.197790663624048e-05
2.973876402751174e-07,3.179052141974192e-07,6.349575921635886e-07,2.206895157179924e-05
2.969260821623948e-07,3.1700532635873104e-07,6.284306638935358e-07,2.2144988432207807e-05
2.965326387495065e-07,3.161203110857688e-07,6.214735640444675e-07,2.220631675293484e-05
2.962010776909924e-07,3.1525376443625306e-07,6.140989185293994e-07,2.2253157561203327e-05
2.959229809532628e-07,3.1440974062996697e-07,6.063236525001348e-07,2.2285672979496675e-05
2.956878869899302e-07,3.135912609309455e-07,5.981682703746366e-07,2.230419197407025e-05
2.954842640118007e-07,3.1279995003939945e-07,5.896556440735051e-07,2.2309506075846742e-05
2.9530067623828484e-07,3.120366912869219e-07,5.808106223902968e-07,2.2302970750776283e-05
2.9512703624798125e-07,3.113026723124012e-07,5.716617661967023e-07,2.228635593754729e-05
2.949549544269142e-07,3.10600728722845e-07,5.622433537791e-07,2.2261617086598155e-05
2.947771611875575e-07,3.0993608047653444e-07,5.525940719775717e-07,2.223070827563894e-05
2.9458767407064485e-07,3.093169829831757e-07,5.427538731842668e-07,2.219544500606144e-05
2.943824989956782e-07,3.0875608377877697e-07,5.327633252155397e-07,2.215741541410801e-05
2.9415906765663306e-07,3.082696919797425e-07,5.226658186544144e-07,2.2117939390118053e-05
2.939149436471966e-07,3.078737671776427e-07,5.125087488320801e-07,2.207804752971143e-05
2.936480503854914e-07,3.075806241561144e-07,5.023417921486676e-07,2.203847085182208e-05
2.933590218067995e-07,3.0739887064697265e-07,4.922150112297424e-07,2.199965813438394e-05
2.9305339590185353e-07,3.0733408495458107e-07,4.821782649981153e-07,2.1961801470475807e-05
2.927408043102347e-07,3.073881584265101e-07,4.722817301036994e-07,2.1924838801278197e-05
2.9243196106759556e-07,3.0755841156722423e-07,4.6257809362924883e-07,2.1888455642708325e-05
2.921366340763065e-07,3.078374683357481e-07,4.531237000351963e-07,2.185213672410898e-05
2.9186296682247125e-07,3.082136535677741e-07,4.439752714191365e-07,2.1815279911491423e-05
2.9161731537219344e-07,3.08672064633979e-07,4.351855205078656e-07,2.1777320258109452e-05
2.914058724155304e-07,3.091968093624333e-07,4.268035187593979e-07,2.1737791005528932e-05
2.912372950235228e-07,3.0977317298345853e-07,4.1887947551884405e-07,2.1696308235211728e-05
2.911223624347649e-07,3.103877155888148e-07,4.114686566041882e-07,2.1652536921006925e-05
2.910704508400016e-07,3.110273021521429e-07,4.0463072982390756e-07,2.160618110141193e-05
2.9108700170777175e-07,3.116791326885921e-07,3.9842493536112365e-07,2.155697578793435e-05
2.9117370199772647e-07,3.12331871233496e-07,3.9290425077527755e-07,2.1504654424079722e-05
2.913300086049088e-07,3.129773742957685e-07,3.881119150282442e-07,2.1448910057960995e-05
2.9155473124502895e-07,3.1361152689645207e-07,3.8408083459111993e-07,2.1389370836938588e-05
2.918462398886279e-07,3.1423288032202313e-07,3.808330283481303e-07,2.1325604467467064e-05
2.922016298363447e-07,3.148414869276936e-07,3.783783157508434e-07,2.125718012667422e-05
2.9261724391668e-07,3.154394821727862e-07,3.7671488475490665e-07,2.1183753506037822e-05
2.930895946072535e-07,3.1603015687162945e-07,3.758314817943218e-07,2.1105084659620835e-05
2.936144083888388e-07,3.166147449838181e-07,3.757088938399162e-07,2.102098692604457e-05
2.941853687351577e-07,3.171906027948813e-07,3.7632183087525174e-07,2.0931280251297453e-05
2.947943296188149e-07,3.1775181704287747e-07,3.77641922606279e-07,2.083578080623154e-05
2.954325348700348e-07,3.182903914542427e-07,3.7963967083194215e-07,2.073430697696921e-05
2.960920542031709e-07,3.187971401955196e-07,3.8228566431662993e-07,2.062668079908776e-05
2.967668611103585e-07,3.192624824961609e-07,3.855525541855432e-07,2.051273215633947e-05
2.974529536639825e-07,3.196771461710375e-07,3.8941586010011783e-07,2.039231240260105e-05
2.9814717338394423e-07,3.20032479486083e-07,3.9385122267388616e-07,2.026530810699635e-05
2.988456969114541e-07,3.203204859371252e-07,3.988300176919127e-07,2.0131656385080672e-05
2.995434342528182e-07,3.205337013987846e-07,4.043173191490606e-07,1.999138892628125e-05
3.002343341720497e-07,3.206650366896256e-07,4.1027240685202046e-07,1.984472431630665e-05
3.009121961787745e-07,3.2070837313872265e-07,4.1664949912919296e-07,1.9692144644031785e-05
3.015710445188803e-07,3.2065937388558196e-07,4.233989946405511e-07,1.953436149156369e-05
3.0220420320055707e-07,3.205148752302456e-07,4.304699001112644e-07,1.9372180669746657e-05
3.028031905586041e-07,3.202718850564576e-07,4.378111759280013e-07,1.9206352388952757e-05
3.033580602207703e-07,3.199283305405345e-07,4.453710915295678e-07,1.903747722873876e-05
3.038588570128191e-07,3.194844654583036e-07,4.5309745155660993e-07,1.8865982907192598e-05
3.0429650244272645e-07,3.189425730712761e-07,4.6094114324727604e-07,1.869213465171189e-05
3.0466238143516226e-07,3.183053349209366e-07,4.68861552154085e-07,1.8516058320171213e-05
3.049477242673037e-07,3.1757463475957265e-07,4.7682893429556104e-07,1.8337824427968968e-05
3.051438189631294e-07,3.167509848905588e-07,4.8482115024502e-07,1.815762803585702e-05
3.052423853357348e-07,3.158331226614653e-07,4.92818503209323e-07,1.7975947578462978e-05
3.052352544003789e-07,3.148185140845679e-07,5.008013565290017e-07,1.7793522673348277e-05
3.051139046753564e-07,3.1370480473537867e-07,5.087508534418291e-07,1.761118230361908e-05
3.0486990337440357e-07,3.1249036058518854e-07,5.1665082656857e-07,1.7429671385156846e-05
3.044967270832872e-07,3.111734293818705e-07,5.244886063930103e-07,1.7249587144707003e-05
3.0399169239812164e-07,3.09751739865103e-07,5.322529601314166e-07,1.7071505894970944e-05
3.033555699094832e-07,3.0822363096134425e-07,5.399306608743138e-07,1.6896246626570585e-05
3.0259021605409587e-07,3.06590543141168e-07,5.475046111324423e-07,1.6725046355353038e-05
3.0169693719969354e-07,3.048591999071543e-07,5.549544929189979e-07,1.655951994418443e-05
3.006767166796211e-07,3.0304062860131467e-07,5.622587428219593e-07,1.6401497552268013e-05
2.9953200154653217e-07,3.0114660484647585e-07,5.693953673353654e-07,1.625286005025882e-05
2.982683473303847e-07,2.9918730026844266e-07,5.763410579529128e-07,1.6115416558735748e-05
2.9689376649614813e-07,2.971711554093407e-07,5.830711843173727e-07,1.5990828763004832e-05
2.954169533873896e-07,2.9510515490209787e-07,5.895617047386313e-07,1.5880558146546085e-05
2.93846155098418e-07,2.929947459877692e-07,5.957900552324718e-07,1.578581106913932e-05
2.9218853048372674e-07,2.9084413775941104e-07,6.017336848365741e-07,1.5707495552039586e-05
2.9045046567439424e-07,2.886571077864707e-07,6.073690920737209e-07,1.5646213759247552e-05
2.8863807850015e-07,2.864372417636781e-07,6.126724825623675e-07,1.560227029608913e-05
2.867564210201097e-07,2.8418726416390747e-07,6.176201361954e-07,1.5575662749795855e-05
2.8480863960634817e-07,2.819089122894326e-07,6.221883131891923e-07,1.5566072521373346e-05
2.8279611762662377e-07,2.796042872309248e-07,6.263542100359814e-07,1.5572901546056422e-05
2.807187483066781e-07,2.772768437154696e-07,6.300973962418745e-07,1.5595361361181408e-05
2.785752276589634e-07,2.749307492718709e-07,6.333999393007093e-07,1.563257815234195e-05
2.763638178824124e-07,2.7257075202354607e-07,6.362455958685839e-07,1.5683675194408365e-05
2.7408312456919336e-07,2.702035120546185e-07,6.386192856792516e-07,1.5747817227774605e-05
2.7173236376685896e-07,2.67838460919056e-07,6.405068544970977e-07,1.5824224503478832e-05
2.693115244802229e-07,2.654874683931791e-07,6.418955974724065e-07,1.5912173556152766e-05
2.6682190505857866e-07,2.6316402537454534e-07,6.427761335380075e-07,1.6010995049810463e-05
2.642668966097129e-07,2.608820231593527e-07,6.431445081381457e-07,1.6120073591189384e-05
2.6165217993886554e-07,2.586551752203065e-07,6.430027054982402e-07,1.6238845072332034e-05
2.589849099114574e-07,2.5649836244644977e-07,6.423566369385795e-07,1.636676358594777e-05
2.562733121927124e-07,2.544283166157165e-07,6.412131143450725e-07,1.6503228121961253e-05
2.535272154406812e-07,2.524613135130491e-07,6.395786448442655e-07,1.664752371995951e-05
2.507574394569523e-07,2.5061030334780865e-07,6.374598758167346e-07,1.6798823280607425e-05
2.4797375376186984e-07,2.48883854730006e-07,6.348638494140615e-07,1.6956203138411347e-05
2.451838284512337e-07,2.4728698234036e-07,6.317993886035575e-07,1.7118616452950333e-05
2.423937127489645e-07,2.458228671451428e-07,6.28280491385112e-07,1.7284860658220818e-05
2.3960839434628826e-07,2.4449372285172984e-07,6.243275521740242e-07,1.7453601458146343e-05
2.3683220983943e-07,2.433002692176672e-07,6.19963918197359e-07,1.762344387289524e-05
2.3407009384451212e-07,2.422408654773038e-07,6.152118004443429e-07,1.7792978125418312e-05
2.313291296686875e-07,2.4131104381141427e-07,6.100910552503629e-07,1.7960765391239402e-05
2.2861802610574685e-07,2.4050376642418337e-07,6.046196145824019e-07,1.812531827832742e-05
2.2594493026517202e-07,2.398105046497754e-07,5.988145227964429e-07,1.8285133035759247e-05
2.233172264976892e-07,2.3922210104204104e-07,5.926952328609684e-07,1.8438757850158475e-05
2.2074392473292032e-07,2.387289047806926e-07,5.86288876078636e-07,1.8584859841765395e-05
2.1823746362237634e-07,2.3832100660459968e-07,5.796339269197817e-07,1.8722280631119266e-05
2.158135405436942e-07,2.3798858340765342e-07,5.727797932993873e-07,1.885005792622785e-05
2.134901702926967e-07,2.3772251278700885e-07,5.657817673198184e-07,1.896737607014115e-05
2.112867722605372e-07,2.375153856929311e-07,5.586933068835893e-07,1.907348340527669e-05
2.09223292928469e-07,2.3736124420468397e-07,5.515617383690107e-07,1.9167679177957887e-05
2.0731921391398e-07,2.372539327441121e-07,5.44431593629837e-07,1.9249384837302245e-05
2.0559231258695614e-07,2.371863567903224e-07,5.373525362062943e-07,1.931820931764908e-05
2.0405750289125408e-07,2.371516122381312e-07,5.303851066147487e-07,1.937395875382425e-05
2.0272621759508051e-07,2.371447753962211e-07,5.235996584414998e-07,1.9416593893710504e-05
2.0160652488530024e-07,2.3716336541302885e-07,5.170698010919439e-07,1.944616616321403e-05
2.0070437236326405e-07,2.372061028177824e-07,5.108653335195454e-07,1.9462838278622147e-05
2.0002534297044672e-07,2.3727165338323198e-07,5.050468133792287e-07,1.946699555458488e-05
1.995748603590507e-07,2.373583637085365e-07,4.9966168310053e-07,1.9459271928821008e-05
1.9935674840027896e-07,2.3746448599681863e-07,4.947432255398953e-07,1.944043466513077e-05
1.9937234142939275e-07,2.375885652971954e-07,4.903126644960734e-07,1.9411250067524845e-05
1.9962086818069657e-07,2.37730497098066e-07,4.863818198141178e-07,1.937241328061999e-05
2.0010045444716797e-07,2.3789264894794612e-07,4.829540190833766e-07,1.932458276299392e-05
2.0080897497814371e-07,2.3807914512089248e-07,4.800246290999908e-07,1.9268530020608616e-05
2.017439251248493e-07,2.382936328252531e-07,4.775832940442678e-07,1.920527582940052e-05
2.029022565512563e-07,2.3853830229858907e-07,4.756168229540162e-07,1.9136052062102128e-05
2.0428113991475106e-07,2.388150877281845e-07,4.7411032307486925e-07,1.9062123605985807e-05
2.0587804719413645e-07,2.3912688481042013e-07,4.730464648299159e-07,1.898461931132144e-05
2.076892168565641e-07,2.3947724221054875e-07,4.724054961448454e-07,1.8904436859744347e-05
2.0970812799113128e-07,2.3987018955792407e-07,4.7216639905713776e-07,1.88222162729404e-05
2.1192538988055398e-07,2.403118035296601e-07,4.72306919038647e-07,1.8738371709057125e-05
2.1432952262102696e-07,2.408112116796759e-07,4.728029728648528e-07,1.8653153743484807e-05
2.1690757355472345e-07,2.41378983645158e-07,4.736285423329401e-07,1.856670140725836e-05
2.1964520196881547e-07,2.420249366850316e-07,4.747551168965353e-07,1.8479066020741632e-05
2.2252642721319327e-07,2.4275711414227554e-07,4.7615094717935926e-07,1.839020845450848e-05
2.2553394586323142e-07,2.4358114187742557e-07,4.777813957545007e-07,1.8299982120419295e-05
2.2865022867625962e-07,2.444992518524125e-07,4.796100664248949e-07,1.8208126007324945e-05
2.31858059176805e-07,2.455094161300172e-07,4.815994001383977e-07,1.8114274337825765e-05
2.3513988469845977e-07,2.466052360739457e-07,4.83710774303943e-07,1.801797264564789e-05
2.38477148021264e-07,2.477769427486745e-07,4.859053335397235e-07,1.79187070529526e-05
2.418513043749303e-07,2.4901354916331313e-07,4.881465220213989e-07,1.7815950773528312e-05
2.452461024111953e-07,2.50305027844574e-07,4.904030070819824e-07,1.7709202173218406e-05
2.486482547657377e-07,2.5164273563860923e-07,4.926489256780693e-07,1.7597998718643587e-05
2.520457593077815e-07,2.530181844596639e-07,4.948621849103766e-07,1.748192825787147e-05
2.5542622798085307e-07,2.544221561546104e-07,4.970245147539704e-07,1.7360647712069533e-05
2.587766717209373e-07,2.558450879843873e-07,4.991232251051225e-07,1.7233890812122346e-05
2.620842307000387e-07,2.5727773573491826e-07,5.011519800128825e-07,1.7101471972686598e-05
2.653364316888073e-07,2.5871113397292597e-07,5.031099800460691e-07,1.6963306227356674e-05
2.6852041294185107e-07,2.601359533598801e-07,5.049997997933217e-07,1.6819417010167418e-05
2.716224260331081e-07,2.615424397855439e-07,5.068239566017932e-07,1.6669908414042562e-05
2.746283949064918e-07,2.6292192425739565e-07,5.085817684563789e-07,1.651493974943977e-05
2.775254131389143e-07,2.642684644099608e-07,5.102681510369867e-07,1.6354719668006198e-05
2.8030407657804197e-07,2.6557851310924605e-07,5.11874332749672e-07,1.6189489424052467e-05
2.8295983166987893e-07,2.668493444958069e-07,5.133891071478596e-07,1.6019491471795193e-05
2.854918371338017e-07,2.680782649111144e-07,5.147995427392593e-07,1.5844950034578248e-05
2.8790102484847665e-07,2.6926261328424077e-07,5.160918380320575e-07,1.566607208362664e-05
2.901888274832625e-07,2.703994795878656e-07,5.172526955579368e-07,1.5483065214526715e-05
2.9235589660238373e-07,2.714855352827168e-07,5.18269529764829e-07,1.529621270403877e-05
2.9440099568806646e-07,2.725174238277711e-07,5.191296298408398e-07,1.5106013897634998e-05
2.963211877983136e-07,2.734923618301019e-07,5.19821114142995e-07,1.4913274132873829e-05
2.981126558351944e-07,2.744090185436811e-07,5.203352338432593e-07,1.4719069721064594e-05
2.997710086785988e-07,2.752678392328938e-07,5.206668661912088e-07,1.4524649493856955e-05
3.012913576757873e-07,2.760699344184676e-07,5.20812701813637e-07,1.4331330755039538e-05
3.026682959911291e-07,2.768156228672472e-07,5.207687699636933e-07,1.4140395945739637e-05
3.038957147998088e-07,2.775042445036697e-07,5.205290965306906e-07,1.3952995531021177e-05
3.049668520294655e-07,2.781358992609893e-07,5.20086405078562e-07,1.3770086890935282e-05
3.0587436054579146e-07,2.787136794031852e-07,5.194337842988689e-07,1.3592453637812586e-05
3.0661035785356907e-07,2.792437517146582e-07,5.185655666347011e-07,1.3420790118047326e-05
3.0716747114629397e-07,2.797331964818637e-07,5.174770359278539e-07,1.3255762526902946e-05
3.075408444103304e-07,2.801879826530004e-07,5.161637661626062e-07,1.3097999076478393e-05
3.0772911184755225e-07,2.806127467355364e-07,5.146217013550534e-07,1.2948037267459233e-05
3.07733471420934e-07,2.8101277001360673e-07,5.128478512858121e-07,1.2806292648115192e-05
3.075570171000453e-07,2.813965470526267e-07,5.108400899586524e-07,1.2673132010945046e-05
3.072060306492144e-07,2.8177609806572214e-07,5.085962549513351e-07,1.2549015541183925e-05
3.06691701027224e-07,2.82164932414627e-07,5.061138135214414e-07,1.243455906336634e-05
3.060299755399526e-07,2.82576109063142e-07,5.033901875077751e-07,1.2330500713519867e-05
3.052391782135166e-07,2.8302203095902966e-07,5.004233876174082e-07,1.2237640776369004e-05
3.0433731170824805e-07,2.835151074446683e-07,4.972120854935304e-07,1.2156756333112085e-05
3.033410114027232e-07,2.840673481944954e-07,4.937552049317978e-07,1.2088516130219887e-05
3.0226526881972514e-07,2.846890061472705e-07,4.900527602666028e-07,1.2033433106397991e-05
3.011225202337545e-07,2.853875009657229e-07,4.861080111555945e-07,1.199184007223122e-05
2.999224038697523e-07,2.8616669797965497e-07,4.819293486449882e-07,1.1963875130277756e-05
2.986731346745449e-07,2.870265400130621e-07,4.775311985574037e-07,1.1949477960588671e-05
2.973824722429261e-07,2.879633981195834e-07,4.7293332653991175e-07,1.194839837745629e-05
2.960572952291931e-07,2.8897074348918966e-07,4.6815779681592294e-07,1.1960215986128011e-05
2.947036320808849e-07,2.900398926748421e-07,4.6322512689124833e-07,1.1984356494038292e-05
2.9332748321669286e-07,2.911607785878847e-07,4.581525348599225e-07,1.2020097376424976e-05
2.91935409400187e-07,2.9232195258264607e-07,4.529545822269018e-07,1.2066582984722315e-05
2.9053496558446523e-07,2.93510181146525e-07,4.47644183964508e-07,1.2122864684634704e-05
2.891346196264933e-07,2.9471073849307837e-07,4.4223332846773044e-07,1.2187941796203841e-05
2.877431871003911e-07,2.959080651597723e-07,4.3673506039666643e-07,1.2260769544225287e-05
2.863698778428101e-07,2.9708645887635324e-07,4.311669384220096e-07,1.234024568355523e-05
2.8502462460824513e-07,2.982310673398639e-07,4.2555289846951277e-07,1.2425204777687014e-05
2.8371726948757074e-07,2.99328748122993e-07,4.1992139047012883e-07,1.2514421516136495e-05
2.8245582589177577e-07,3.003678533581112e-07,4.1430139239876407e-07,1.2606623095431411e-05
2.81245931851336e-07,3.013368315796048e-07,4.0871896919472646e-07,1.2700511279766907e-05
2.800926905141491e-07,3.022230115351647e-07,4.0319591771359103e-07,1.2794787328708224e-05
2.790032139723624e-07,3.0301291377106965e-07,3.9775028555345895e-07,1.2888190333495415e-05
2.779869444410921e-07,3.036935871410742e-07,3.923976780429154e-07,1.2979561469381922e-05
2.770533241472707e-07,3.042533232351747e-07,3.8715283547809847e-07,1.3067920099368044e-05
2.762093099690425e-07,3.046816532039853e-07,3.8203108889340436e-07,1.315251397955873e-05
2.754585361722544e-07,3.0496974243727285e-07,3.770490146969231e-07,1.3232807352237054e-05
2.748016688823047e-07,3.0511076670987124e-07,3.722232593774823e-07,1.3308413471980595e-05
2.742368454388711e-07,3.050997197484758e-07,3.675677617155745e-07,1.3379018340431585e-05
2.737598327197158e-07,3.0493302586479357e-07,3.630918289349037e-07,1.3444329333613408e-05
2.733645815534051e-07,3.046083998688242e-07,3.5880038144287564e-07,1.3504062888720856e-05
2.73044864529016e-07,3.041263013380932e-07,3.546960644123819e-07,1.3557973402443276e-05
2.7279568752674854e-07,3.0349230329453894e-07,3.5078312381744605e-07,1.3605874085964374e-05
2.7261269140098987e-07,3.027173407569745e-07,3.4707102950261736e-07,1.3647603377928406e-05
2.7249051795153124e-07,3.018161765381159e-07,3.435741501910894e-07,1.3682972699483451e-05
2.724220174442813e-07,3.008061958965509e-07,3.4030769681444713e-07,1.3711751434303725e-05
2.723983805966486e-07,2.9970661296364484e-07,3.3728548486907285e-07,1.373371543684621e-05
2.724094832212083e-07,2.9853819127380316e-07,3.3452351559492195e-07,1.3748741408378927e-05
2.724448624420769e-07,2.9732306301901394e-07,3.320471709555934e-07,1.3756867537314695e-05
2.724965236219597e-07,2.960834419268731e-07,3.298970404616837e-07,1.3758267404510333e-05
2.725616001148755e-07,2.948398948461125e-07,3.2812967831906965e-07,1.3753170510583741e-05
2.72640971697087e-07,2.936099406369426e-07,3.268114697480845e-07,1.374177985215828e-05
2.7273532295930104e-07,2.924068343349505e-07,3.2600710955760824e-07,1.372423129698807e-05
2.728434157271494e-07,2.912395018796825e-07,3.257693104015073e-07,1.3700642657917082e-05
2.729630551944991e-07,2.9011398956304923e-07,3.2613576443017613e-07,1.3671221940720834e-05
2.730916779779827e-07,2.890348819660964e-07,3.2713099987629573e-07,1.3636319667541755e-05
2.732252771990874e-07,2.8800566024815056e-07,3.287676129406675e-07,1.3596373730600095e-05
2.733576636379453e-07,2.870287246119357e-07,3.310471845212436e-07,1.3551813740665406e-05
2.7348152864485e-07,2.861062865437573e-07,3.3396331019410617e-07,1.3503002232965734e-05
2.7358980273810925e-07,2.8524193756006376e-07,3.3750536682397034e-07,1.3450222408142133e-05
2.736763767547494e-07,2.844411655840578e-07,3.416600652820116e-07,1.3393685726965636e-05
2.7373693709528625e-07,2.8371017166124964e-07,3.4641061058554094e-07,1.3333549115752217e-05
2.7376897875315125e-07,2.8305442293880683e-07,3.517361532292634e-07,1.3269970991818452e-05
2.737703812778104e-07,2.8247784858567855e-07,3.576124901916964e-07,1.3203250679658513e-05
2.737388087638327e-07,2.819822348152579e-07,3.640124405874191e-07,1.3133986129601704e-05
2.73672819655226e-07,2.815668516565946e-07,3.709061470304832e-07,1.3063079407233784e-05
2.735724768145805e-07,2.812288393747232e-07,3.7826245153784215e-07,1.2991561691959664e-05
2.734383131541205e-07,2.809646503260484e-07,3.8604978551686454e-07,1.2920388561661874e-05
2.7326989236923663e-07,2.807721416522831e-07,3.9423553656917885e-07,1.2850329895635505e-05
2.7306542334551857e-07,2.806516140635163e-07,4.027854297398264e-07,1.2782013507612513e-05
2.7282281916899947e-07,2.806049116677342e-07,4.116628245778952e-07,1.271613016373222e-05
2.725404571743875e-07,2.806343542680448e-07,4.2082713824906494e-07,1.2653663558730895e-05
2.722162214034553e-07,2.80743210118443e-07,4.3023306794524384e-07,1.2595948478648522e-05
2.718465818417611e-07,2.8093676145695e-07,4.398314605057308e-07,1.2544538391937836e-05
2.714269321003712e-07,2.812222727289446e-07,4.495706735626272e-07,1.2501023347358493e-05
2.709522920281061e-07,2.816077754048101e-07,4.5939764283860674e-07,1.2466895683780854e-05
2.7041807521090714e-07,2.821006691185743e-07,4.6925804712896613e-07,1.2443464504887987e-05
2.698209277221862e-07,2.8270718768752127e-07,4.790957987317147e-07,1.2431790598743685e-05
2.691591967477836e-07,2.834325128811968e-07,4.888532580335874e-07,1.2432637945891707e-05
2.684324924357538e-07,2.842807211741879e-07,4.984724263493737e-07,1.2446456763547916e-05
2.676404045456063e-07,2.852551440120757e-07,5.078959648740975e-07,1.2473392277893873e-05
2.667819702285496e-07,2.8635914838394607e-07,5.170676749988995e-07,1.2513299966200608e-05
2.6585722528525853e-07,2.8759569174144557e-07,5.259335706427404e-07,1.2565779490065543e-05
2.6486925018034575e-07,2.889654753942684e-07,5.344439060024384e-07,1.2630244507283064e-05
2.638237759847157e-07,2.904655588757435e-07,5.425551891013643e-07,1.2705999088882859e-05
2.6272674795799953e-07,2.920891017338745e-07,5.502309927769736e-07,1.279229631280898e-05
2.615829634096917e-07,2.938258872473115e-07,5.574402387402293e-07,1.288839775184414e-05
2.6039635442158983e-07,2.956636983948052e-07,5.641540712080606e-07,1.2993638458025195e-05
2.591702329046481e-07,2.9758927130741055e-07,5.703445125874389e-07,1.3107466600473266e-05
2.57906979161735e-07,2.9958794232144e-07,5.759853543675193e-07,1.3229442797928578e-05
2.566077325913281e-07,3.0164313291715396e-07,5.810537796468222e-07,1.3359222461742626e-05
2.5527242212960767e-07,3.037365112663036e-07,5.855323724923998e-07,1.349652767652961e-05
2.539003852563932e-07,3.0584909194401307e-07,5.894118687339639e-07,1.364107667622486e-05
2.524915702239312e-07,3.079629166841104e-07,5.926937152531618e-07,1.3792481661337106e-05
2.5104719968954556e-07,3.100627166840012e-07,5.953896555308557e-07,1.3950178964425455e-05
2.4956951013381924e-07,3.1213703510297325e-07,5.975179249639139e-07,1.4113413535348765e-05
2.48061993349806e-07,3.141776017524701e-07,5.990993204687503e-07,1.4281270215894784e-05
2.4652999377075186e-07,3.161770438661327e-07,6.001549182698961e-07,1.4452763503562909e-05
2.449798580205868e-07,3.1812686904856445e-07,6.007044470475683e-07,1.4626949626080548e-05
2.4341723751647694e-07,3.200173045865889e-07,6.007645912194245e-07,1.4802980530897924e-05
2.4184659565049875e-07,3.218383755416588e-07,6.003481585513314e-07,1.4980080082626584e-05
2.402719091537005e-07,3.23580231074758e-07,5.994650543131161e-07,1.5157492581012436e-05
2.386980504349716e-07,3.2523306949500105e-07,5.981239427985962e-07,1.533445750442707e-05
2.371328983926459e-07,3.267885578677432e-07,5.96332851063335e-07,1.551020784649178e-05
2.355885816818646e-07,3.282426621888445e-07,5.940986712303463e-07,1.5683945851105096e-05
2.3408044046782003e-07,3.2959795860331996e-07,5.914268292589714e-07,1.5854823359719608e-05
2.3262500332743225e-07,3.308629565695879e-07,5.883220004342894e-07,1.6022015779867288e-05
2.312386101515975e-07,3.320481025736564e-07,5.847892823219553e-07,1.6184865098396232e-05
2.2993680926398102e-07,3.331615030128198e-07,5.808350401216234e-07,1.634295260794904e-05
2.2873458595685677e-07,3.3420694160494034e-07,5.764680634782456e-07,1.6496032680292913e-05
2.2764729096535802e-07,3.351842467402761e-07,5.717009720720575e-07,1.6643892424767348e-05
2.266905996766673e-07,3.3609116673171696e-07,5.665501808885137e-07,1.6786234216801002e-05
2.2587860393623629e-07,3.3692570857203987e-07,5.610342085475653e-07,1.6922628171592395e-05
2.2522225988388877e-07,3.376875388728964e-07,5.551724124796252e-07,1.7052533673112648e-05
2.2473021571214585e-07,3.383777585651192e-07,5.489869011033434e-07,1.7175359274788455e-05
2.2440990921807628e-07,3.3899825707824677e-07,5.425074289561428e-07,1.7290516991141533e-05
2.2426650652455092e-07,3.395517484376666e-07,5.357738002657418e-07,1.739745078072053e-05
2.243019233678877e-07,3.4004174104674826e-07,5.288319573648254e-07,1.74956427468276e-05
2.2451640647031736e-07,3.4047244318837944e-07,5.217274133336298e-07,1.7584607495059343e-05
2.2491069717943248e-07,3.4084979099071845e-07,5.145013639516848e-07,1.7663927308520278e-05
2.2548674033827205e-07,3.411830568547367e-07,5.071900459697966e-07,1.7733359975128618e-05
2.2624809927298145e-07,3.414854160890821e-07,4.998249865877993e-07,1.7792904688413015e-05
2.272002541413325e-07,3.417726715578964e-07,4.924333060664156e-07,1.784275739246424e-05
2.2834906807340997e-07,3.420604804954436e-07,4.850386251695379e-07,1.7883322922869158e-05
2.2969804294042893e-07,3.4236189483420537e-07,4.776622477795986e-07,1.7915338475559728e-05
2.312468988363571e-07,3.426866553024968e-07,4.703242568072218e-07,1.7939900571115476e-05
2.3299229727813602e-07,3.430415020379121e-07,4.6304547072046366e-07,1.7958334890639034e-05
2.349293696266344e-07,3.4343013149105173e-07,4.5584963886660783e-07,1.797204701402879e-05
2.370526848372538e-07,3.43852820291658e-07,4.487630629156024e-07,1.798240850406851e-05
2.393564203195232e-07,3.4430739957735865e-07,4.4181246589978114e-07,1.7990658033614417e-05
2.4183421515962466e-07,3.4479227915908424e-07,4.350257307581125e-07,1.7997816946514507e-05
2.4447912454494307e-07,3.453090075174767e-07,4.2843637865166213e-07,1.800462935965317e-05
2.47283491225328e-07,3.4586206266289097e-07,4.2208763160776157e-07,1.801154583904792e-05
2.5023835346185716e-07,3.464568619477449e-07,4.160325584261396e-07,1.8018754207480475e-05
2.533323825297366e-07,3.470977202753537e-07,4.103303435061667e-07,1.802622683460088e-05
2.565508081948641e-07,3.477866642701655e-07,4.05040447790935e-07,1.8033753629864692e-05
2.598751937165474e-07,3.485232985030481e-07,4.002163559810451e-07,1.804095355335357e-05
2.6328485387406287e-07,3.493047567051037e-07,3.959010627143887e-07,1.804728549999617e-05
2.667592547667821e-07,3.5012533481504346e-07,3.921253747680979e-07,1.805208884599977e-05
2.7027918684758084e-07,3.5097627868917325e-07,3.889078917814151e-07,1.8054658339240416e-05
2.738264085915966e-07,3.518457961993417e-07,3.862558456956053e-07,1.8054335263566018e-05
2.773841826160482e-07,3.527196477282493e-07,3.8416734224264325e-07,1.8050584707391247e-05
2.8093862335583484e-07,3.5358250879732954e-07,3.8263531471129363e-07,1.804302851768625e-05
2.844779120622416e-07,3.5441889572371176e-07,3.8165092486735093e-07,1.8031429781326614e-05
2.8799005537428174e-07,3.5521285729971144e-07,3.8120433813242456e-07,1.801563998380324e-05
2.91462222792135e-07,3.559478295630708e-07,3.8128513886792977e-07,1.7995527078993986e-05
2.948810681014625e-07,3.5660791716196946e-07,3.8188384844924564e-07,1.79709269194952e-05
2.982325817976927e-07,3.571797272092533e-07,3.8299142809818653e-07,1.794164177157546e-05
3.0150208272395226e-07,3.5765314785489935e-07,3.845955478962893e-07,1.7907450351847275e-05
3.0467435760294147e-07,3.5802021960345187e-07,3.866775028393615e-07,1.786809365929486e-05
3.0773362583173144e-07,3.582731962611792e-07,3.892122855444529e-07,1.7823251353405512e-05
3.106639800728675e-07,3.584045097333108e-07,3.9216973049233935e-07,1.7772544437749124e-05
3.134508633190009e-07,3.5840907442164175e-07,3.9551471897359e-07,1.7715582325248706e-05
3.160828209190977e-07,3.582858297950309e-07,3.99207297087184e-07,1.7652036132731935e-05
3.1855145412716504e-07,3.5803643576509657e-07,4.0320426240540274e-07,1.758168376073554e-05
3.208491585322982e-07,3.5766276772307367e-07,4.074618529839947e-07,1.7504385880814966e-05
3.229672610796556e-07,3.57165518231745e-07,4.11937859959585e-07,1.7420028059210936e-05
3.248967972842996e-07,3.565438226614089e-07,4.165921744921445e-07,1.7328491440466966e-05
3.266309236890709e-07,3.5579520389111367e-07,4.213859957048358e-07,1.7229658870348763e-05
3.281655753185899e-07,3.5491629026021206e-07,4.262813225674272e-07,1.7123443917061214e-05
3.2949772831129445e-07,3.5390393973388253e-07,4.3124208121704e-07,1.700982032881849e-05
3.3062490637557847e-07,3.527558074667596e-07,4.362361174451586e-07,1.6888802346115598e-05
3.3154693072700055e-07,3.5147069095919326e-07,4.4123613797087156e-07,1.6760395011496862e-05
3.322668355002259e-07,3.5004877972007717e-07,4.462181441725413e-07,1.6624592898881018e-05
3.327897561779378e-07,3.4849169552101666e-07,4.51158320697214e-07,1.6481439956047464e-05
3.331213351223137e-07,3.4680322898317673e-07,4.560310055079773e-07,1.6331122017510794e-05
3.3326676732662876e-07,3.4498997123439024e-07,4.6080845244251643e-07,1.617407003991913e-05
3.332307459802596e-07,3.4306004439036954e-07,4.6546132879938823e-07,1.6011005923836752e-05
3.330184947314175e-07,3.41021543980396e-07,4.699594009411643e-07,1.5842859429947278e-05
3.326369161664876e-07,3.388828320725436e-07,4.742727542185999e-07,1.5670604159763387e-05
3.320945406842817e-07,3.366538613015877e-07,4.783738371512565e-07,1.549515111360733e-05
3.314010362813441e-07,3.343468698520379e-07,4.822391222951767e-07,1.531734735646546e-05
3.305670904730432e-07,3.3197511620926897e-07,4.858485659953653e-07,1.5137989655507773e-05
3.296037134200493e-07,3.2955060019376767e-07,4.891837761927746e-07,1.4957799239028488e-05
3.285206734044186e-07,3.270844529449389e-07,4.922276887562492e-07,1.4777409864743838e-05
3.2732536004455627e-07,3.245901094272681e-07,4.949659208152816e-07,1.4597436320112039e-05
3.2602320021695554e-07,3.2208485663192657e-07,4.973874434390255e-07,1.441862087871008e-05
3.246193347934466e-07,3.1958875031860555e-07,4.994831977350931e-07,1.4241929447758014e-05
3.231205871002756e-07,3.171233742866725e-07,5.012437409557429e-07,1.4068484213201742e-05
3.215368885354542e-07,3.1471034823217e-07,5.026581783626612e-07,1.3899401705273876e-05
3.1988124135397446e-07,3.1236907596861306e-07,5.03714870448816e-07,1.3735660962320054e-05
3.181679012994477e-07,3.10115882148261e-07,5.044026437155778e-07,1.3578094437698165e-05
3.1641023984951e-07,3.079652051110809e-07,5.047123186914888e-07,1.3427575580076985e-05
3.146206245077352e-07,3.059302447395843e-07,5.046389728609478e-07,1.3285296888849111e-05
3.128118669045116e-07,3.040216504909646e-07,5.041835975322332e-07,1.3152878944526789e-05
3.1099723731277586e-07,3.02246115287124e-07,5.033521419787968e-07,1.303223154974566e-05
3.091889516014481e-07,3.0060657389007593e-07,5.021525562251565e-07,1.2925328900081875e-05
3.073979634739549e-07,2.9910334512102643e-07,5.005928304277031e-07,1.2834040068592815e-05
3.05635327917159e-07,2.977349492753583e-07,4.986811893028357e-07,1.2760019662789148e-05
3.039122837170981e-07,2.964982569097437e-07,4.964267773559792e-07,1.2704620077417786e-05
3.0223878012782787e-07,2.953884319999876e-07,4.938394339650325e-07,1.2668826864684356e-05
3.0062326814877016e-07,2.943994200767821e-07,4.909290650904307e-07,1.2653236904893813e-05
2.9907354980045625e-07,2.935261092514564e-07,4.877059024311199e-07,1.2658071303259715e-05
2.975963802116848e-07,2.927680658999527e-07,4.841813044478091e-07,1.2683197533459532e-05
2.9619601505940397e-07,2.921311011995409e-07,4.803672985919285e-07,1.272814317852321e-05
2.9487327715953217e-07,2.916240044329411e-07,4.762752879368785e-07,1.2792111393941076e-05
2.9362599518385077e-07,2.912538908515235e-07,4.7191675825393677e-07,1.2874026159597604e-05
2.924499728852694e-07,2.910244681782561e-07,4.673061784224987e-07,1.2972610183397682e-05
2.913391228392784e-07,2.9093716929046177e-07,4.6246302274829223e-07,1.3086482078362613e-05
2.9028515464799237e-07,2.9099318306568713e-07,4.57411151027971e-07,1.3214268970524824e-05
2.8927793976760513e-07,2.9119509097731015e-07,4.521762161306533e-07,1.3354706333533368e-05
2.883066528384443e-07,2.915467588034748e-07,4.467828159632552e-07,1.3506678785311627e-05
2.8736062738608984e-07,2.920511792240901e-07,4.4125274337261684e-07,1.3669204143466055e-05
2.86429442465804e-07,2.9270804673787214e-07,4.3560432469679204e-07,1.3841402288425272e-05
2.85503445055286e-07,2.9351269505212606e-07,4.29852539414346e-07,1.4022464426264567e-05
2.845747245336267e-07,2.944569632910853e-07,4.240096795908021e-07,1.4211600563604935e-05
2.83636940036696e-07,2.955309175542491e-07,4.180860614618834e-07,1.4407951671772467e-05
2.8268407286086197e-07,2.9672327015340627e-07,4.120906308231047e-07,1.461050584559808e-05
2.8170978105264537e-07,2.980209888960876e-07,4.060315824911168e-07,1.4818087666131964e-05
2.807079954677084e-07,2.9941118354581216e-07,3.999172783085642e-07,1.5029440236755688e-05
2.79673630286981e-07,3.0088569437658856e-07,3.937573144237797e-07,1.5243329930683364e-05
2.78602484157825e-07,3.024435224552502e-07,3.87562781200144e-07,1.5458590298192583e-05
2.7749062543866896e-07,3.0408738669907854e-07,3.81345770346381e-07,1.5674100038395725e-05
2.7633361530196764e-07,3.058182691480636e-07,3.7511947814521496e-07,1.5888741481761754e-05
2.7512588318844466e-07,3.0763295947294804e-07,3.688989512579049e-07,1.61013757262099e-05
2.738610032823365e-07,3.0952404969868905e-07,3.62701442198491e-07,1.6310843866409836e-05
2.725331888751345e-07,3.114804943352248e-07,3.565464281053656e-07,1.6515995855945027e-05
2.711388420040309e-07,3.1348848247248396e-07,3.5045543522818606e-07,1.671576662011543e-05
2.6967660336884905e-07,3.155321760401894e-07,3.4445094469815523e-07,1.6909271091978567e-05
2.681461956864265e-07,3.175940250055972e-07,3.385541003514925e-07,1.7095835239505842e-05
2.6654736746716016e-07,3.196549404723125e-07,3.327823863056564e-07,1.7274956644735292e-05
2.648795290491932e-07,3.2169459201151467e-07,3.2714907150615225e-07,1.7446241433365774e-05
2.6314237506618546e-07,3.2369234641442235e-07,3.216648478990766e-07,1.7609324728437452e-05
2.613366172317258e-07,3.2562872157648465e-07,3.163401614149655e-07,1.776378948590158e-05
2.5946365793759215e-07,3.27486589603348e-07,3.111859146627381e-07,1.790912421297093e-05
2.575252544764214e-07,3.292520731634244e-07,3.062120290685276e-07,1.804473649022028e-05
2.5552371818262336e-07,3.3091505877084124e-07,3.0142674633354487e-07,1.81700066703202e-05
2.5346168925025364e-07,3.324685971273673e-07,2.968393486918313e-07,1.8284344250507647e-05
2.5134178601335733e-07,3.3390706936154443e-07,2.924643375157248e-07,1.8387216473328045e-05
2.491666917216914e-07,3.352245374280948e-07,2.8832303356003253e-07,1.8478154549096287e-05
2.4693949892839924e-07,3.364146282153014e-07,2.844430869921193e-07,1.8556746882776464e-05
2.446637316535233e-07,3.3747090132670606e-07,2.8085784609794095e-07,1.8622643307838205e-05
2.423426144216487e-07,3.3838642076283696e-07,2.7760319464997967e-07,1.867560683874528e-05
2.399788072245809e-07,3.391539091815907e-07,2.747119480524731e-07,1.871556235221791e-05
2.37575630168092e-07,3.397671866580285e-07,2.7221035302407324e-07,1.874259080693459e-05
2.3513849223007025e-07,3.4022208866276576e-07,2.7011736210768123e-07,1.875690233895721e-05
2.326754697466683e-07,3.405167172462348e-07,2.6844430497588263e-07,1.8758788393440507e-05
2.3019707275814772e-07,3.406518629108671e-07,2.671945824735355e-07,1.874855522129225e-05
2.2771517805079914e-07,3.406307753542872e-07,2.663644989232966e-07,1.872648926069425e-05
2.252422589815013e-07,3.4045878988786345e-07,2.659463006064704e-07,1.869286454786979e-05
2.2279131140607772e-07,3.4014383744827966e-07,2.659325041561696e-07,1.8647954029112383e-05
2.2037497897461492e-07,3.396965553782967e-07,2.663178727697931e-07,1.859200923983576e-05
2.1800418130873736e-07,3.3912891750739643e-07,2.670974458335037e-07,1.852521935883989e-05
2.1568774264056182e-07,3.384524669889817e-07,2.682646631833785e-07,1.8447692448966298e-05
2.1343316088527762e-07,3.376777339409193e-07,2.698139708329957e-07,1.8359472567275118e-05
2.112477196982756e-07,3.368145464913907e-07,2.7174655490123594e-07,1.826056972154157e-05
2.091392212250188e-07,3.358718505950475e-07,2.740755533355268e-07,1.815097987848275e-05
2.0711665159155555e-07,3.348568699968693e-07,2.768293841645933e-07,1.803068866982817e-05
2.0519059487556465e-07,3.337743261098593e-07,2.8005046032250446e-07,1.7899667466697495e-05
2.033720835387803e-07,3.3262634583239925e-07,2.8378632501186554e-07,1.7757878653077498e-05
2.0167053987855695e-07,3.3141332515215996e-07,2.880776672704764e-07,1.7605287277546073e-05
2.000934010308787e-07,3.3013491159101245e-07,2.929509260983076e-07,1.7441861977939944e-05
1.986483193543596e-07,3.287907090075702e-07,2.984166885659712e-07,1.7267573995477162e-05
1.973454769481196e-07,3.273821014740881e-07,3.044708191323681e-07,1.7082410648705385e-05
1.9619677099467328e-07,3.259141179541261e-07,3.1109710918628967e-07,1.688639781467081e-05
