1.3330483322895777e-06,3.390403194937732e-06,1.1428091236059865e-06,1.415850438952064e-05
1.3397038241039815e-06,3.400463625698785e-06,1.155815627190799e-06,1.4141546004042173e-05
1.345910025203299e-06,3.4136152145502387e-06,1.1694213467030845e-06,1.4119492044162308e-05
1.3516062403941364e-06,3.4296485700491787e-06,1.183584497711506e-06,1.4092248426766065e-05
1.3567353557700085e-06,3.4483551618640297e-06,1.1982447410095492e-06,1.4059743894190146e-05
1.361238719849775e-06,3.4695315855783898e-06,1.2133254736779993e-06,1.402194675984384e-05
1.3650560710725736e-06,3.4929823249716485e-06,1.228737292090329e-06,1.3978830703394253e-05
1.3681289417895138e-06,3.518541528917556e-06,1.244383141992797e-06,1.3930352946503265e-05
1.3704036062707352e-06,3.5460954346476477e-06,1.2601645889866129e-06,1.3876485831217633e-05
1.3718321243367953e-06,3.5755830025768892e-06,1.275987776158699e-06,1.3817303394156046e-05
1.3723747797431298e-06,3.6069782985891264e-06,1.2917705033597886e-06,1.3753091620702145e-05
1.372004552501407e-06,3.640265643208468e-06,1.307450489733018e-06,1.3684396086695387e-05
1.370708002207607e-06,3.6754110870276015e-06,1.322988013176295e-06,1.3611940228892155e-05
1.3684808039391086e-06,3.7123365452364233e-06,1.3383585221760906e-06,1.3536473137885933e-05
1.3653227555478816e-06,3.7509148758815375e-06,1.3535404749094782e-06,1.3458672354332864e-05
1.3612355854447728e-06,3.790996135410843e-06,1.3685049135305957e-06,1.3379137362339619e-05
1.3562240164565509e-06,3.832449022722346e-06,1.3832092748188373e-06,1.3298395881140636e-05
1.350298137152058e-06,3.875191961997631e-06,1.39759689146463e-06,1.3216874236293687e-05
1.3434727877538144e-06,3.9191993145311264e-06,1.4116015601433969e-06,1.3134890964086893e-05
1.3357650741045462e-06,3.9644815103205486e-06,1.4251527693720194e-06,1.3052747539596181e-05
1.3271952035057422e-06,4.011048602953337e-06,1.4381784762139731e-06,1.2970890966975685e-05
1.317788812671e-06,4.0588762293723644e-06,1.4506068890376883e-06,1.2890009622660789e-05
1.307576206217887e-06,4.107889315563261e-06,1.4623690174269628e-06,1.281096324055012e-05
1.2965893591144742e-06,4.1579596164645915e-06,1.473401364537646e-06,1.2734623675496464e-05
1.2848591515812945e-06,4.208906835970842e-06,1.4836470671144276e-06,1.2661746654952513e-05
1.272414533235603e-06,4.260508310207122e-06,1.4930541707809662e-06,1.2592940626807346e-05
1.259285305252913e-06,4.312525709912928e-06,1.5015716450509138e-06,1.2528806076102313e-05
1.245506700641712e-06,4.364734754706108e-06,1.5091469185700953e-06,1.247019432107304e-05
1.2311209179973098e-06,4.416932256483648e-06,1.5157295138806974e-06,1.2418345184187335e-05
1.2161756591005473e-06,4.468917245223072e-06,1.521278072150574e-06,1.2374778054950102e-05
1.2007247845314148e-06,4.52046741920886e-06,1.525761782719195e-06,1.2341069208344255e-05
1.1848326509340617e-06,4.5713309889956406e-06,1.5291558803062197e-06,1.2318671247949346e-05
1.168578932245643e-06,4.6212364301662236e-06,1.5314388030760256e-06,1.2308808500578393e-05
1.1520588451137348e-06,4.669908903039627e-06,1.5325916361776811e-06,1.2312422439159593e-05
1.1353744234753426e-06,4.717083013007176e-06,1.5325967812121886e-06,1.2330142748446034e-05
1.118620992799335e-06,4.762506858200428e-06,1.5314383704403611e-06,1.2362278576181074e-05
1.1018786695627649e-06,4.8059342473351526e-06,1.5291067332549549e-06,1.2408834381353215e-05
1.085211227341019e-06,4.847110720633831e-06,1.5256030960396812e-06,1.2469540505555913e-05
1.068667985253864e-06,4.8857673420724495e-06,1.520940320940783e-06,1.2543873055802756e-05
1.052286318179718e-06,4.9216291213886455e-06,1.515140370618472e-06,1.2631060019132174e-05
1.0360949477953672e-06,4.954433933691291e-06,1.508230170113146e-06,1.273010636987334e-05
1.0201181723976795e-06,4.983954498462626e-06,1.5002382767091432e-06,1.2839856831650102e-05
1.004381745047616e-06,5.010014565060782e-06,1.4911981343957848e-06,1.2959078733184315e-05
9.889214736748185e-07,5.03248941056502e-06,1.4811572524050302e-06,1.3086543468338405e-05
9.73792810446007e-07,5.051287654359221e-06,1.4701815545346785e-06,1.3221086068906143e-05
9.59075600436905e-07,5.066326472049836e-06,1.458350779824482e-06,1.336162745020126e-05
9.448676738327707e-07,5.0775183952547215e-06,1.4457522542563429e-06,1.3507183238852068e-05
9.312689668130936e-07,5.084778690026968e-06,1.4324774200670669e-06,1.3656886882964266e-05
9.183675078065883e-07,5.088051948390163e-06,1.4186187173003309e-06,1.3809996643675382e-05
9.062349760093764e-07,5.087340485182696e-06,1.4042646894954092e-06,1.3965850066862478e-05
8.949290067616621e-07,5.082705302723812e-06,1.3894948828215365e-06,1.412378183389194e-05
8.844958405674637e-07,5.074243443611458e-06,1.3743779274568608e-06,1.4283043671950684e-05
8.74969308806327e-07,5.06208759572499e-06,1.3589732329594024e-06,1.4442775946124015e-05
8.663683455747817e-07,5.046443764794043e-06,1.3433333376092278e-06,1.4602066782809744e-05
8.58697887029707e-07,5.027619683517748e-06,1.3275046566271808e-06,1.4760047803573594e-05
8.519539588423358e-07,5.0060029783201035e-06,1.3115262130383991e-06,1.4915931562433042e-05
8.461309770519067e-07,4.9820074086304675e-06,1.2954274955466071e-06,1.5068984356923105e-05
8.412258518509105e-07,4.9560250327038656e-06,1.2792281843212018e-06,1.5218502193170343e-05
8.37234165451596e-07,4.9283985367287735e-06,1.2629419346254916e-06,1.5363816743053718e-05
8.341473868710216e-07,4.899418097106247e-06,1.2465824979195705e-06,1.5504303588828795e-05
8.319653738233742e-07,4.869342957751799e-06,1.23016664103115e-06,1.5639361551137855e-05
8.307184176661675e-07,4.838429428636518e-06,1.2137114276764375e-06,1.5768368174448132e-05
8.304740083412801e-07,4.806944516222676e-06,1.1972306671815828e-06,1.5890652205004608e-05
8.313172269198074e-07,4.775158838145687e-06,1.180734634468916e-06,1.6005505693655645e-05
8.333252377591692e-07,4.743322859216064e-06,1.1642310360663711e-06,1.6112232201111238e-05
8.365581790499639e-07,4.711642525421146e-06,1.1477261983431078e-06,1.621023741063653e-05
8.410631785266026e-07,4.680272198653572e-06,1.1312289634239686e-06,1.62991460979916e-05
8.468795739146376e-07,4.649320052600181e-06,1.1147563318451671e-06,1.6378858834780882e-05
8.540421795270973e-07,4.61884967481259e-06,1.0983350298804368e-06,1.6449472284836576e-05
8.625820670801952e-07,4.58887943262075e-06,1.081995979108045e-06,1.6511120716227265e-05
8.72522197233599e-07,4.559388106652828e-06,1.065767129251231e-06,1.6563869819371383e-05
8.838681923249965e-07,4.530326240264091e-06,1.049671854265296e-06,1.6607704250986587e-05
8.966002682043266e-07,4.501628246021173e-06,1.033733424947582e-06,1.6642553215221203e-05
9.106713359179731e-07,4.473216053520453e-06,1.017981392501157e-06,1.6668306566753154e-05
9.260095029784792e-07,4.444992194092125e-06,1.0024549827113847e-06,1.6684820959871578e-05
9.425220228597412e-07,4.416835278838913e-06,9.87200112734528e-07,1.66919793066924e-05
9.601030870652277e-07,4.38860627773562e-06,9.72261763735831e-07,1.6689876940417583e-05
9.78644894063428e-07,4.360158148043745e-06,9.576793710192105e-07,1.667902659871694e-05
9.980422478110962e-07,4.3313393822849625e-06,9.434905136617355e-07,1.6660359667282685e-05
1.0181872385287429e-06,4.301993147566462e-06,9.297379195237058e-07,1.6635015885353067e-05
1.038963632852171e-06,4.271958421909266e-06,9.1647245123121e-07,1.660410431670214e-05
1.060246744917491e-06,4.241074978995528e-06,9.037510542129393e-07,1.6568574798888097e-05
1.0819051807196505e-06,4.209191621427837e-06,8.916308275790682e-07,1.6529293569168544e-05
1.1038026208661478e-06,4.176173555719941e-06,8.801626024991651e-07,1.648731069706539e-05
1.125801658024574e-06,4.141903395360755e-06,8.693916908120503e-07,1.6444087773218232e-05
1.1477703320352e-06,4.106283714092792e-06,8.593672091928248e-07,1.6401480218127105e-05
1.1695891466550523e-06,4.069258045985764e-06,8.501508054550155e-07,1.6361544438843727e-05
1.1911540990884442e-06,4.0308489150268265e-06,8.418152170056755e-07,1.6326337332913135e-05
1.2123737701511655e-06,3.991187615224039e-06,8.344326242022605e-07,1.6297766198624092e-05
1.2331651348024096e-06,3.950509051080828e-06,8.280657249748347e-07,1.6277484523587986e-05
1.2534531305073422e-06,3.9091062807040516e-06,8.227708194905007e-07,1.6266826715018616e-05
1.2731710245375185e-06,3.867272822707759e-06,8.186046100209762e-07,1.6266775816883135e-05
1.2922568527533279e-06,3.825278873019658e-06,8.156257078273239e-07,1.6277977001616823e-05
1.310652244996297e-06,3.783398318028562e-06,8.138899666667055e-07,1.6300793606718484e-05
1.3283108728303827e-06,3.7419560402771963e-06,8.134421560487758e-07,1.6335345885632316e-05
1.3452078170230386e-06,3.701357854303412e-06,8.143129093900303e-07,1.6381497595537736e-05
1.361337643059099e-06,3.6620883709337945e-06,8.165253703593813e-07,1.6438831510846713e-05
1.3767030708549722e-06,3.6246777590757033e-06,8.201023449942454e-07,1.650665479180459e-05
1.3913047738987616e-06,3.589647869505619e-06,8.250664016647425e-07,1.658405435004588e-05
1.4051371745417666e-06,3.557460919677932e-06,8.314343033066403e-07,1.6670016443853025e-05
1.4181877013821755e-06,3.5285004287477247e-06,8.392088008569027e-07,1.6763577816787885e-05
1.430438510473063e-06,3.5030914317744942e-06,8.483720943726756e-07,1.6863937370290418e-05
1.4418698140903688e-06,3.4815269742999672e-06,8.588860929373912e-07,1.6970494866817326e-05
1.4524609293629832e-06,3.4640661005787033e-06,8.706970467263309e-07,1.7082843816812065e-05
1.462188993093139e-06,3.4509121411401346e-06,8.837375729380209e-07,1.720073723029552e-05
1.4710278609312236e-06,3.442203503229748e-06,8.979279405623724e-07,1.7324015758891705e-05
1.478947026633763e-06,3.43801863519362e-06,9.131798672416813e-07,1.7452521406786116e-05
1.48591029747692e-06,3.4383735682928284e-06,9.293973964853241e-07,1.758603427720518e-05
1.4918754148034686e-06,3.4432126207846498e-06,9.464737494577807e-07,1.7724219940419987e-05
1.4967970541131932e-06,3.4524106766696214e-06,9.642900701329895e-07,1.786657344342808e-05
1.5006349627824813e-06,3.465802076133052e-06,9.827179137394869e-07,1.8012405086976166e-05
1.503362038776535e-06,3.483232522164647e-06,1.001623419043935e-06,1.8160881783391505e-05
1.5049652444905976e-06,3.504594552170939e-06,1.0208714126993128e-06,1.831105102321521e-05
1.5054437789189704e-06,3.5298095740983565e-06,1.040329332820177e-06,1.8461823437299647e-05
1.5048119545631252e-06,3.558778159443261e-06,1.059871259419805e-06,1.8611986437221266e-05
1.5031017403414214e-06,3.5913531101425887e-06,1.0793804369024172e-06,1.876028028134872e-05
1.5003570322292938e-06,3.627352766348778e-06,1.0987489323291729e-06,1.8905462504421937e-05
1.4966237663040154e-06,3.666585128826249e-06,1.1178751621335284e-06,1.9046293189050688e-05
1.4919450604288382e-06,3.708850587503202e-06,1.1366601985586617e-06,1.9181489804806243e-05
1.48636120309186e-06,3.7539206590764937e-06,1.1550052377908495e-06,1.93097360169458e-05
1.4799097702874545e-06,3.801517681940193e-06,1.1728133558263504e-06,1.9429743050271137e-05
1.4726255576780219e-06,3.851312662482958e-06,1.1899926741311787e-06,1.9540331739397646e-05
1.4645410312932225e-06,3.902932248913817e-06,1.206456412856515e-06,1.964054060181347e-05
1.4556894300180427e-06,3.955967172321119e-06,1.2221235293725607e-06,1.972971418300082e-05
1.446111820738999e-06,4.009986874090089e-06,1.236925421441209e-06,1.9807465867440645e-05
1.4358613747423966e-06,4.064556940323024e-06,1.2508155567373295e-06,1.9873536434311638e-05
1.4249983690202547e-06,4.119246279181948e-06,1.2637729937737534e-06,1.992771769670845e-05
1.413580532705216e-06,4.173622801317955e-06,1.2757954207356784e-06,1.996990322277844e-05
1.4016572387810541e-06,4.2272505749164005e-06,1.2868869550088529e-06,2.000014688124337e-05
1.3892688967435698e-06,4.279695286836109e-06,1.2970483781425304e-06,2.001864377114589e-05
1.3764482488327926e-06,4.330538059720764e-06,1.3062728117710569e-06,2.0025662790610666e-05
1.3632222912847521e-06,4.379394049745723e-06,1.3145457713894528e-06,2.0021493610227305e-05
1.3496146284017396e-06,4.425920222429173e-06,1.321847553649916e-06,2.0006480550556665e-05
1.335647166905165e-06,4.4698057915911006e-06,1.3281569808811718e-06,1.998112758471332e-05
1.3213407251573923e-06,4.510768266065567e-06,1.333455468121322e-06,1.9946120976782403e-05
1.3067145816009385e-06,4.54857423894811e-06,1.3377304485275576e-06,1.9902206489421983e-05
1.2917851181637659e-06,4.583063711885284e-06,1.3409776336709645e-06,1.985003712510776e-05
1.2765651333040938e-06,4.614143658400666e-06,1.3432014840096873e-06,1.9790109708777184e-05
1.2610657759032272e-06,4.64175554965763e-06,1.3444153714066749e-06,1.972286343916004e-05
1.245302340970193e-06,4.665852950432527e-06,1.3446425350390773e-06,1.964894089028456e-05
1.2293028571670437e-06,4.686401804087836e-06,1.3439158670563713e-06,1.95694251642745e-05
1.2131135219375915e-06,4.703381670979725e-06,1.3422747399467785e-06,1.9485834215321168e-05
1.1967948450860778e-06,4.716775965127067e-06,1.339758777716082e-06,1.9399901197416112e-05
1.180410636858192e-06,4.726564387742334e-06,1.3364012029424177e-06,1.9313328643271586e-05
1.1640182201526282e-06,4.7327268796478525e-06,1.3322256380914357e-06,1.922762058532948e-05
1.1476642714017131e-06,4.7352543956288695e-06,1.3272466624088156e-06,1.9143997289340048e-05
1.1313843475602741e-06,4.734160391527188e-06,1.3214718081193865e-06,1.9063367436014825e-05
1.1152034842573592e-06,4.729489441086144e-06,1.314903668338309e-06,1.8986333239406573e-05
1.0991372571497018e-06,4.7213234571164805e-06,1.307541685364718e-06,1.8913212482763653e-05
1.0831937495774107e-06,4.7097878471323665e-06,1.2993836706570986e-06,1.884406068812441e-05
1.0673761449817144e-06,4.695051673482329e-06,1.2904288021994685e-06,1.877869739863597e-05
1.0516842973588266e-06,4.677313112639951e-06,1.2806845098294885e-06,1.871675900390678e-05
1.0361153018632744e-06,4.656780662713442e-06,1.2701761030347264e-06,1.8657771284271728e-05
1.0206663187164677e-06,4.633670594153671e-06,1.2589528189010356e-06,1.860121967524336e-05
1.0053416275188291e-06,4.608213069074693e-06,1.247083680563904e-06,1.854661282133176e-05
9.901611588098696e-07,4.580641623386999e-06,1.2346444861827777e-06,1.8493538495900307e-05
9.751647501978286e-07,4.551169592907711e-06,1.2217055764027476e-06,1.8441708144066005e-05
9.604075081663321e-07,4.51998017311568e-06,1.2083288447699222e-06,1.8390980697818908e-05
9.459492961811732e-07,4.487236405775603e-06,1.194574690921388e-06,1.8341358049947824e-05
9.318497987824544e-07,4.453091511130291e-06,1.1805104611148199e-06,1.829296635291512e-05
9.181741676215559e-07,4.41768619861063e-06,1.166209463863465e-06,1.8246031518483205e-05
9.049984025670036e-07,4.381141061232154e-06,1.151742202938396e-06,1.8200828471110547e-05
8.924043911900127e-07,4.343554249026936e-06,1.1371711971015685e-06,1.815759143429081e-05
8.80468501382394e-07,4.305001255202977e-06,1.1225516932026423e-06,1.8116413911469346e-05
8.69253080167506e-07,4.2655347995833285e-06,1.107932162889736e-06,1.807720495121908e-05
8.588053178064438e-07,4.225190622440338e-06,1.0933540905349658e-06,1.8039751817441173e-05
8.491606543218679e-07,4.184000039357766e-06,1.0788559718196986e-06,1.8003847906112815e-05
8.403480415519265e-07,4.142007536838765e-06,1.0644814312891622e-06,1.796937702487679e-05
8.323965796324096e-07,4.099291949143876e-06,1.0502853753187892e-06,1.7936305857138308e-05
8.253373038684499e-07,4.0559796657091115e-06,1.036335465268847e-06,1.7904643708910966e-05
8.191961932194567e-07,4.0122363211302815e-06,1.0227096699818492e-06,1.7874438183053934e-05
8.139865680499979e-07,3.9682427027268335e-06,1.009489073868117e-06,1.784580330577298e-05
8.097085646406992e-07,3.924175566847517e-06,9.96749445918638e-07,1.781890646267671e-05
8.063532315950784e-07,3.880207424148205e-06,9.845600617771878e-07,1.779386295878556e-05
8.039059380730573e-07,3.8365216639204215e-06,9.729927911237513e-07,1.777061129793361e-05
8.023466415734935e-07,3.7933198295884986e-06,9.621342641616957e-07,1.7748872783999492e-05
8.016480264900702e-07,3.7508042334486197e-06,9.520880143028904e-07,1.772819058946419e-05
8.017763168408345e-07,3.7091594996849648e-06,9.429615335719835e-07,1.7708009387850086e-05
8.026971819288558e-07,3.668561805167098e-06,9.348500329839774e-07,1.768781103947071e-05
8.043813448601744e-07,3.6292051570253893e-06,9.278290139049977e-07,1.7667272773225328e-05
8.068035430551844e-07,3.5913247868778198e-06,9.219533037619059e-07,1.7646316091124405e-05
8.099361091835159e-07,3.5552100204580896e-06,9.172563318490221e-07,1.7624992065546445e-05
8.137444967815206e-07,3.5212015365935472e-06,9.137494465735138e-07,1.7603315136405412e-05
8.181910911121509e-07,3.4896808814118044e-06,9.114231287512345e-07,1.7581174695643907e-05
8.232464930596334e-07,3.4610619018776803e-06,9.102497527851335e-07,1.7558342430156378e-05
8.288976272264573e-07,3.4357692820115564e-06,9.101859110880781e-07,1.7534510756037865e-05
8.351429034446879e-07,3.4141921682046006e-06,9.111736391473051e-07,1.7509306568881065e-05
8.419789980247359e-07,3.3966388552503887e-06,9.131415541591992e-07,1.7482301325200746e-05
8.493905938427235e-07,3.3833222531530927e-06,9.160065586409864e-07,1.7453102130999333e-05
8.573492603314921e-07,3.3743678402786544e-06,9.196770596569618e-07,1.7421511150305718e-05
8.658219801458599e-07,3.369821030510916e-06,9.2405854591644e-07,1.738759053087294e-05
8.747835830071919e-07,3.369648751477428e-06,9.290598021049923e-07,1.7351563222189008e-05
8.842237491801494e-07,3.373745323393083e-06,9.345968210530157e-07,1.731366455652408e-05
8.941434249763071e-07,3.3819537884358082e-06,9.40592168254969e-07,1.72740506772815e-05
9.045435822391605e-07,3.394099797820756e-06,9.469698482667313e-07,1.723280987272179e-05
9.154160054352993e-07,3.410019628630568e-06,9.536513129409666e-07,1.719011901647536e-05
9.267424047262476e-07,3.429566767967503e-06,9.605581597644234e-07,1.7146457856436763e-05
9.384961559325422e-07,3.452597963537743e-06,9.676172738522396e-07,1.7102665675355007e-05
9.506406278814979e-07,3.4789518445307456e-06,9.747605273017123e-07,1.7059797283671108e-05
9.631295721673064e-07,3.5084331830288215e-06,9.819194168396718e-07,1.7018936963529633e-05
9.75915613549528e-07,3.5408113400958114e-06,9.890206865919958e-07,1.6981063645359245e-05
9.889603363503357e-07,3.5758336599199014e-06,9.959856758295401e-07,1.6946956748211546e-05
1.0022346149576456e-06,3.613241947941651e-06,1.0027319410190556e-06,1.6917141059579826e-05
1.015709981827548e-06,3.6527777170684195e-06,1.0091754114851664e-06,1.6891876832369178e-05
1.0293542482229851e-06,3.6941721912424612e-06,1.0152323679278367e-06,1.687117196024726e-05
1.0431387920089012e-06,3.7371319235051942e-06,1.0208210206554231e-06,1.6854793157480722e-05
1.0570494998134744e-06,3.78134191684057e-06,1.0258632409816022e-06,1.6842282216577167e-05
1.0710902900491666e-06,3.826493896873593e-06,1.0302872383180096e-06,1.6832991262733325e-05
1.0852773912549775e-06,3.8723158754752095e-06,1.03403002524983e-06,1.6826138560411582e-05
1.0996295766667258e-06,3.918574225866037e-06,1.037038057774223e-06,1.682087093193058e-05
1.114160593195853e-06,3.9650493020124985e-06,1.039266526112665e-06,1.681630815616222e-05
1.128875734824576e-06,4.011512218219056e-06,1.0406774956056506e-06,1.6811565656033958e-05
1.1437686516758568e-06,4.057723085707929e-06,1.04123809465847e-06,1.6805785480363802e-05
1.1588164595058954e-06,4.10344109083172e-06,1.0409229240283864e-06,1.6798183911091215e-05
1.1739775734158294e-06,4.148426064327111e-06,1.0397192837221745e-06,1.678808354191528e-05
1.1891948333870102e-06,4.192431051875899e-06,1.0376281334289935e-06,1.677491801770363e-05
1.2043995152638322e-06,4.2352016168147555e-06,1.0346626061525431e-06,1.6758222655204388e-05
1.219512792749333e-06,4.2764868758605325e-06,1.0308519999733292e-06,1.673760646054295e-05
1.2344472987790668e-06,4.31604680065097e-06,1.0262499267427808e-06,1.6712706402617223e-05
1.249110887501515e-06,4.353646434990104e-06,1.020938940981453e-06,1.6683147981307668e-05
1.2634118501741837e-06,4.389053485587841e-06,1.0150272155477277e-06,1.664852915601933e-05
1.2772659553305227e-06,4.422050719031757e-06,1.008636984689579e-06,1.6608452210402046e-05
1.2906048974499448e-06,4.4524455614217e-06,1.0018890450536429e-06,1.6562617417883118e-05
1.3033814252817422e-06,4.480063180374333e-06,9.94892005385207e-07,1.651090705511446e-05
1.3155652321666864e-06,4.504735746378491e-06,9.877424292990058e-07,1.6453376786272575e-05
1.3271312564702495e-06,4.5263006614978325e-06,9.805322913280822e-07,1.6390185460626732e-05
1.338050174498696e-06,4.544613291848298e-06,9.733544522315413e-07,1.632154952287766e-05
1.3482860232115298e-06,4.559583469600589e-06,9.66302478673552e-07,1.624774624324754e-05
1.3577968065722205e-06,4.571225693051114e-06,9.594689170456198e-07,1.6169109812148345e-05
1.3665357120085115e-06,4.579683328756587e-06,9.529437258615702e-07,1.6085974772443538e-05
1.3744553673779744e-06,4.585196034407009e-06,9.468090059816908e-07,1.5998620838984855e-05
1.38151318691334e-06,4.588028003110589e-06,9.411307507771776e-07,1.590727704243015e-05
1.3876724563977371e-06,4.5884084397343045e-06,9.359550429101498e-07,1.5812160061032496e-05
1.392902119715439e-06,4.5865103674119545e-06,9.313123788364878e-07,1.5713537527927317e-05
1.3971809999850715e-06,4.5824520039213705e-06,9.272254789214449e-07,1.561182724745276e-05
1.4005028053189186e-06,4.576303730888741e-06,9.23713770880425e-07,1.5507672440653174e-05
1.4028768086380505e-06,4.5681013362055945e-06,9.207934465753313e-07,1.540192502835311e-05
1.4043252420527724e-06,4.557868872456315e-06,9.184764714644631e-07,1.5295548628216552e-05
1.404879249133843e-06,4.5456481259434805e-06,9.167684945143948e-07,1.5189487019448487e-05
1.4045736402170452e-06,4.531526867287146e-06,9.156644216281012e-07,1.5084543358464291e-05
1.403441211561147e-06,4.5156555400537806e-06,9.151451236699024e-07,1.4981326564129794e-05
1.4015087321317631e-06,4.498244230859221e-06,9.151790590327496e-07,1.4880274488060165e-05
1.3987973426949024e-06,4.479538256720365e-06,9.157292248580595e-07,1.478169003043e-05
1.3953274415852372e-06,4.459779552207334e-06,9.167629928956007e-07,1.4685763593189224e-05
1.3911234943289482e-06,4.43917110498754e-06,9.182601066661034e-07,1.4592667442056375e-05
1.3862141821539622e-06,4.417859394190351e-06,9.202164887698627e-07,1.4502744164650867e-05
1.3806279050039288e-06,4.395934044743312e-06,9.22645058259469e-07,1.441660122698548e-05
1.374387783999833e-06,4.3734386338589035e-06,9.255731663622568e-07,1.4334985223926785e-05
1.367510538352579e-06,4.350392460374364e-06,9.290350001824848e-07,1.4258577785600051e-05
1.360009005552915e-06,4.3268203433619325e-06,9.330607237384451e-07,1.4187893621974764e-05
1.3518940677200857e-06,4.302777431376868e-06,9.376672470160877e-07,1.4123355008241422e-05
1.343173873056165e-06,4.27835269322938e-06,9.428545114401907e-07,1.4065502222035996e-05
1.3338530870305885e-06,4.253649374645688e-06,9.486068925770578e-07,1.4015138195572696e-05
1.3239364655069157e-06,4.228767555361025e-06,9.548959137663817e-07,1.3973265298018796e-05
1.3134375593466014e-06,4.203816016907779e-06,9.61682130416442e-07,1.394091456603695e-05
1.3023857510747395e-06,4.1789471019393515e-06,9.68916156621805e-07,1.3919002067659512e-05
1.2908226005901584e-06,4.154386542115257e-06,9.765382248269388e-07,1.3908239020475173e-05
1.2787905296284574e-06,4.130439608383808e-06,9.844775111608972e-07,1.3909086115693051e-05
1.2663256683095215e-06,4.1074653616269036e-06,9.926540176596131e-07,1.3921743072168314e-05
1.253457593035636e-06,4.0858260573608715e-06,1.0009831085464349e-06,1.394615868374396e-05
1.2402107904156583e-06,4.0658516302989344e-06,1.0093808732414357e-06,1.3982048161459298e-05
1.226605832176859e-06,4.0478512903808895e-06,1.0177694892719685e-06,1.402891669324847e-05
1.212660119567063e-06,4.032142306264682e-06,1.0260821326684223e-06,1.4086083595208518e-05
1.1983879946944356e-06,4.01904438761958e-06,1.0342652132072928e-06,1.4152689475080755e-05
1.1838015638695522e-06,4.008838732128439e-06,1.0422751921615317e-06,1.422769067736806e-05
1.1689129287202222e-06,4.001742459047133e-06,1.0500712074021064e-06,1.4309868150283673e-05
1.153737338671909e-06,3.9979290003732735e-06,1.0576093279552091e-06,1.4397867561814526e-05
1.138295517829355e-06,3.99756196920906e-06,1.0648423993927295e-06,1.4490264151973254e-05
1.1226119194908465e-06,4.000801738290111e-06,1.0717227618305608e-06,1.4585619298143866e-05
1.106709900877295e-06,4.007781478554596e-06,1.0782032782306733e-06,1.468249867405159e-05
1.0906105776985912e-06,4.018572369249473e-06,1.0842373567100822e-06,1.4779465772112347e-05
1.0743403235606965e-06,4.03316531263251e-06,1.0897807266375686e-06,1.4875078624352682e-05
1.0579434145810563e-06,4.051478903279171e-06,1.0947935756447644e-06,1.4967896462745153e-05
1.041489423169372e-06,4.073372162405778e-06,1.099242231945173e-06,1.5056498089376867e-05
1.0250683274884908e-06,4.098645887470048e-06,1.1031020552429752e-06,1.51395115566935e-05
1.0087764330243617e-06,4.127040539216078e-06,1.1063580256420228e-06,1.5215642899855276e-05
9.92702757847353e-07,4.158238800067632e-06,1.108999158220699e-06,1.5283689132835167e-05
9.769243890150179e-07,4.191873754313306e-06,1.111011891039813e-06,1.5342549607277302e-05
9.615102956544858e-07,4.227544061481749e-06,1.1123784213308785e-06,1.5391270783468607e-05
9.465249667716345e-07,4.2648342402668644e-06,1.1130793164736737e-06,1.5429097544336606e-05
9.320277615350784e-07,4.303332365251782e-06,1.1130984963130092e-06,1.5455456861393555e-05
9.180722234576807e-07,4.342636962405106e-06,1.112427922030099e-06,1.546988019056262e-05
9.047064220158356e-07,4.382351387013071e-06,1.1110673023581059e-06,1.5471948275370585e-05
8.919704820277281e-07,4.4220740135219595e-06,1.1090190690044585e-06,1.5461302470418425e-05
8.798928554404934e-07,4.4613943973797055e-06,1.1062843673578236e-06,1.5437687804563102e-05
8.684893444427582e-07,4.499895945893208e-06,1.1028637808304772e-06,1.5400974725825568e-05
8.577642211683369e-07,4.537162160695984e-06,1.0987617550664513e-06,1.5351154562617522e-05
8.477124112262209e-07,4.572788467505594e-06,1.093990052898247e-06,1.5288338394510235e-05
8.383239299499521e-07,4.606395950281461e-06,1.088566199951143e-06,1.5212788771262674e-05
8.295922813637659e-07,4.637636447963636e-06,1.0825085862052577e-06,1.51250022786208e-05
8.215232725276321e-07,4.6661888806413985e-06,1.0758334523019532e-06,1.5025798329428e-05
8.141339560701045e-07,4.691755609995894e-06,1.068556306644225e-06,1.4916318255862754e-05
8.074409791319135e-07,4.714060560543541e-06,1.0606954657278008e-06,1.4797915465720667e-05
8.014526574835854e-07,4.732847001687029e-06,1.0522748234634891e-06,1.467200749681392e-05
7.961730011218838e-07,4.747878722340164e-06,1.0433255789773605e-06,1.453994833367492e-05
7.916078895648833e-07,4.758947299911979e-06,1.0338881474901928e-06,1.4402960701414004e-05
7.87763814570509e-07,4.765881144261963e-06,1.0240157931935092e-06,1.4262146570328354e-05
7.846457643191071e-07,4.768548543632136e-06,1.0137770396482055e-06,1.4118532773698174e-05
7.822590600637131e-07,4.766849477033167e-06,1.0032504714678163e-06,1.3973102110803845e-05
7.806068720224776e-07,4.760703147750549e-06,9.925143078640671e-07,1.3826795639267484e-05
7.796824004605383e-07,4.750047410102611e-06,9.81639903890363e-07,1.3680517317527165e-05
7.794645659336054e-07,4.734854021240034e-06,9.706924588717052e-07,1.3535203469885507e-05
7.799194221901666e-07,4.715143106602965e-06,9.59735798413753e-07,1.3391901662087234e-05
7.810038365097965e-07,4.690979714882263e-06,9.488344141487043e-07,1.32517229908385e-05
7.82669042624386e-07,4.66245747004973e-06,9.380491600349381e-07,1.3115707930716053e-05
7.848625884576094e-07,4.629687884138422e-06,9.274333906668123e-07,1.298478570552538e-05
7.875282396720468e-07,4.59279740764317e-06,9.170351797008919e-07,1.2859908758767917e-05
7.906049867763846e-07,4.551920361718337e-06,9.069010403969228e-07,1.2742241476436616e-05
7.940265718125022e-07,4.507190159047086e-06,8.970761194433279e-07,1.2633202263108417e-05
7.977224110114404e-07,4.458738922477728e-06,8.876012523490721e-07,1.2534335267175607e-05
8.01621415236999e-07,4.406702835143466e-06,8.785087594912676e-07,1.2447153540173786e-05
8.056601497897468e-07,4.3512295873623385e-06,8.698195806703655e-07,1.2373042511384165e-05
8.09794985880955e-07,4.292490970920974e-06,8.61544959657818e-07,1.2313224769467686e-05
8.140148093325413e-07,4.230694691694564e-06,8.536922414648006e-07,1.2268751100473767e-05
8.183451428704396e-07,4.166082358752021e-06,8.462692047007823e-07,1.2240472114148885e-05
8.228353592158664e-07,4.098911458358053e-06,8.392824160763719e-07,1.2228981700904272e-05
8.275358166623047e-07,4.029435823566121e-06,8.3273247291427e-07,1.2234564406319045e-05
8.324813821309781e-07,3.957906172687941e-06,8.266113541238729e-07,1.2257173014392465e-05
8.376875829266764e-07,3.8845931735762185e-06,8.209021408532437e-07,1.2296441985337692e-05
8.431552373025866e-07,3.809802875171699e-06,8.155799699991728e-07,1.2351741184181407e-05
8.488797745979894e-07,3.7338605706904257e-06,8.106148401835206e-07,1.2422261709835651e-05
8.548612090722294e-07,3.657082491692392e-06,8.059753491285827e-07,1.2507099121996795e-05
8.611087194622097e-07,3.5797665640806467e-06,8.016307750338304e-07,1.2605315254383859e-05
8.676367533515396e-07,3.5022003026046068e-06,7.97550956232668e-07,1.2715993701757853e-05
8.744566076584446e-07,3.424663617148788e-06,7.937060655358824e-07,1.2838286541278265e-05
8.815707831649059e-07,3.3474235399363084e-06,7.900670682278286e-07,1.2971423388670951e-05
8.8897272272451e-07,3.2707353540970382e-06,7.866058676658416e-07,1.3114676740150584e-05
8.966499608431164e-07,3.194850305816932e-06,7.832958627388136e-07,1.3267312921756936e-05
9.045888499623949e-07,3.1200156897344837e-06,7.801130583884369e-07,1.342856462338921e-05
9.127788088392223e-07,3.046462778282977e-06,7.77034986365566e-07,1.3597631898933205e-05
9.212145293848268e-07,2.9743930070149938e-06,7.74037236704362e-07,1.377368575632306e-05
9.298961089278557e-07,2.9039739418068902e-06,7.710911281940134e-07,1.3955853717126765e-05
9.388258675923864e-07,2.83534698065022e-06,7.681643345300312e-07,1.4143185751524493e-05
9.480017217368751e-07,2.7686439864993528e-06,7.652238375514588e-07,1.433462734848397e-05
9.574131856036823e-07,2.7040093189635504e-06,7.622401590693669e-07,1.4529053662768295e-05
9.6704512071781e-07,2.641615393790909e-06,7.591914501199677e-07,1.4725353043428446e-05
9.768846360075569e-07,2.581658829285314e-06,7.56065267806447e-07,1.4922468666808276e-05
9.869250658321199e-07,2.524342605639101e-06,7.528564936117094e-07,1.5119364704638131e-05
9.971659604149086e-07,2.46985916599518e-06,7.495648931118601e-07,1.5314967104916548e-05
1.0076078660474978e-06,2.4183778110926617e-06,7.461972605886493e-07,1.5508128669620936e-05
1.0182438300743428e-06,2.370034530461237e-06,7.427710901322053e-07,1.5697643393701928e-05
1.0290545193926717e-06,2.324928901710019e-06,7.393137610909702e-07,1.5882299352343062e-05
1.0400078489913655e-06,2.283130488274693e-06,7.358568598161402e-07,1.6060925954347267e-05
1.0510592657042735e-06,2.2446892909932484e-06,7.324286622281822e-07,1.6232424973281568e-05
1.0621533691289594e-06,2.209645239848639e-06,7.290485342266826e-07,1.639581380536373e-05
1.073227637404517e-06,2.1780302475438048e-06,7.257255965445494e-07,1.6550274647804376e-05
1.084216007372666e-06,2.149857396562819e-06,7.224603146443616e-07,1.6695168850782164e-05
1.0950510114348057e-06,2.1251109085930234e-06,7.19246633586601e-07,1.6829993710097787e-05
1.1056645758352378e-06,2.1037550165004435e-06,7.160743599107498e-07,1.695430234433803e-05
1.115989093778076e-06,2.0857583801127356e-06,7.129317817907586e-07,1.7067641361738195e-05
1.1259594581580424e-06,2.0711182487183586e-06,7.098072997919777e-07,1.7169559779683928e-05
1.1355149513355732e-06,2.0598668202328547e-06,7.066899224919903e-07,1.725968662723094e-05
1.1446014941154378e-06,2.0520537889520027e-06,7.035691206223639e-07,1.7337805175941173e-05
1.1531729604787589e-06,2.047723319565041e-06,7.004348623949972e-07,1.740387775077387e-05
1.1611897405701625e-06,2.0469029067441523e-06,6.972810576320973e-07,1.7458033628046655e-05
1.1686210251700542e-06,2.0496014107475664e-06,6.941123685095063e-07,1.7500521270489855e-05
1.175455607171336e-06,2.05580905572656e-06,6.909478222000208e-07,1.7531668586500557e-05
1.181709897533265e-06,2.0654951683442933e-06,6.878183748125347e-07,1.7551929685108067e-05
1.1874222719025905e-06,2.078600393031707e-06,6.84762795308951e-07,1.7561952284328582e-05
1.1926403412622422e-06,2.095029285561816e-06,6.818241418336517e-07,1.756256076107062e-05
1.1974105606809128e-06,2.1146516894261726e-06,6.790452180525898e-07,1.7554700195506154e-05
1.201771522176082e-06,2.137308192561765e-06,6.764632991811005e-07,1.753938368673534e-05
1.2057517833789988e-06,2.162813025761404e-06,6.741058331598558e-07,1.7517620136999052e-05
1.2093729180839793e-06,2.1909583213354816e-06,6.719879133481447e-07,1.7490339604638322e-05
1.212653311182159e-06,2.2215250105125287e-06,6.701122234369837e-07,1.7458340040555034e-05
1.2156073535765795e-06,2.254301113210026e-06,6.684714042393839e-07,1.7422250177358495e-05
1.2182424116277669e-06,2.28910454886912e-06,6.670515532379009e-07,1.7382501175143728e-05
1.2205606300549954e-06,2.325798594483018e-06,6.658353091370189e-07,1.7339312779988407e-05
1.2225641552070407e-06,2.364282898759273e-06,6.648043878775697e-07,1.7292703774162736e-05
1.2242555133391242e-06,2.4044609031859337e-06,6.63943524828935e-07,1.7242525300195583e-05
1.225632677109022e-06,2.4462081637157293e-06,6.63246036028595e-07,1.7188508357533388e-05
1.2266861356739825e-06,2.4893605658508863e-06,6.62718180946478e-07,1.7130309610615612e-05
1.22740099179358e-06,2.533716345533073e-06,6.623798918392255e-07,1.706753813990207e-05
1.2277610438051386e-06,2.57903983451534e-06,6.622610145126261e-07,1.699976705311937e-05
1.2277524669459478e-06,2.62507264251134e-06,6.623950828176478e-07,1.6926548264770206e-05
1.2273655205178088e-06,2.67156378061882e-06,6.628137725290886e-07,1.684743358171707e-05
1.2265924250633712e-06,2.7183073064565917e-06,6.635420310783084e-07,1.6761995674872806e-05
1.225423178734276e-06,2.7651552947374617e-06,6.645941587386928e-07,1.6669846415211532e-05
1.223843241103641e-06,2.811994571873677e-06,6.659730392264492e-07,1.6570651557334455e-05
1.2218338357303452e-06,2.858719667485542e-06,6.67671725014413e-07,1.646414341134102e-05
1.2193738269257514e-06,2.9052292091245262e-06,6.696752486028353e-07,1.6350126255681038e-05
1.216443027466891e-06,2.951426853827384e-06,6.71962458035829e-07,1.6228468251189638e-05
1.2130262638466064e-06,2.997211247767947e-06,6.74507192590646e-07,1.6099088974344314e-05
1.2091161140298429e-06,3.04247265079612e-06,6.772787351765662e-07,1.5961954006882354e-05
1.2047113206972528e-06,3.087098649028105e-06,6.802432744534964e-07,1.5817074331198763e-05
1.199812133569669e-06,3.1309693465645853e-06,6.833658614309861e-07,1.566449684368932e-05
1.1944199207731319e-06,3.173945078831185e-06,6.866117628161453e-07,1.5504283991848043e-05
1.1885415231236574e-06,3.21586581424346e-06,6.899490122963264e-07,1.533650218348435e-05
1.1821906513135531e-06,3.2565617439971853e-06,6.933530100375639e-07,1.5161236622122693e-05
1.1753871904110777e-06,3.295862993988697e-06,6.968104016934157e-07,1.4978640758653906e-05
1.168160165017607e-06,3.333610885569832e-06,7.003184989156605e-07,1.4789007171572967e-05
1.160551943430585e-06,3.3696807349229723e-06,7.038803730955952e-07,1.4592796739050574e-05
1.1526192044196614e-06,3.40400662029636e-06,7.075027455791731e-07,1.4390581205811578e-05
1.1444294218821464e-06,3.436581401472425e-06,7.112031695754097e-07,1.4182965527184149e-05
1.1360552025988402e-06,3.467431528013276e-06,7.150194362030805e-07,1.3970562834434907e-05
1.1275733455934929e-06,3.496608394753192e-06,7.190071273615805e-07,1.3753990818231867e-05
1.1190700673689072e-06,3.5242150156121977e-06,7.232256987927551e-07,1.3533863321650431e-05
1.1106434260874887e-06,3.550424479428518e-06,7.277266998785776e-07,1.3310803781916073e-05
1.1023960902652001e-06,3.5754541597600204e-06,7.325499953981455e-07,1.308546838217672e-05
1.0944232346131306e-06,3.5995160810603136e-06,7.377234726655375e-07,1.2858542023543901e-05
1.0868058266561658e-06,3.6227803196823195e-06,7.43262810070693e-07,1.2630711716154366e-05
1.0796139410376649e-06,3.645362512039315e-06,7.491706372106455e-07,1.2402663015972452e-05
1.072913612832496e-06,3.667322211266009e-06,7.554355081454946e-07,1.217514396726707e-05
1.066766834687073e-06,3.6886626624736314e-06,7.620329645102605e-07,1.194906119910316e-05
1.0612273046149212e-06,3.709335507707103e-06,7.689303070808879e-07,1.1725506493417254e-05
1.0563432050533714e-06,3.729251447623716e-06,7.7609320919473e-07,1.1505674906648635e-05
1.052165327969942e-06,3.7482931114684853e-06,7.834901359760019e-07,1.129073024409007e-05
1.048747901217416e-06,3.766325086555368e-06,7.910930177496104e-07,1.1081694628934514e-05
1.0461379253661148e-06,3.7831968052211563e-06,7.988772480427419e-07,1.0879400922593917e-05
1.0443642924332876e-06,3.7987421419471137e-06,8.068228183321867e-07,1.068449772582672e-05
1.0434403659022305e-06,3.812781641868408e-06,8.149134015930577e-07,1.0497474126903411e-05
1.0433790959849794e-06,3.825126015610045e-06,8.231319957747041e-07,1.0318673713900133e-05
1.044207219519008e-06,3.8355794680194485e-06,8.31456366539122e-07,1.0148318000229124e-05
1.0459659254912922e-06,3.843945860467601e-06,8.398567968815423e-07,9.986613010350693e-06
1.0486991147947329e-06,3.850040033055288e-06,8.482960111215961e-07,9.833909161209942e-06
1.0524489342374044e-06,3.853706049552248e-06,8.567299757993041e-07,9.69075963719658e-06
1.0572689556156858e-06,3.854840216894634e-06,8.651085323263039e-07,9.557846005917948e-06
1.0632334249574926e-06,3.853403536621364e-06,8.73376393998233e-07,9.435869418716459e-06
1.070423811894253e-06,3.8494080090317905e-06,8.814753613172009e-07,9.3254699355849e-06
1.0789069773424996e-06,3.842885037788668e-06,8.89346950772397e-07,9.2272612031938e-06
1.0887237636001806e-06,3.833861343809687e-06,8.969353482733612e-07,9.141989398224534e-06
1.0998856110328372e-06,3.822360676186353e-06,9.041913678229878e-07,9.070626800293353e-06
1.11237274395344e-06,3.808431242717975e-06,9.110747636745095e-07,9.014306032666694e-06
1.1261348955898451e-06,3.792181273330992e-06,9.175519353798599e-07,8.974208293035778e-06
1.1410942141828451e-06,3.7737999272088186e-06,9.235911369856144e-07,8.951490808041603e-06
1.1571492505775336e-06,3.7535500240011735e-06,9.291607539048159e-07,8.947232488132596e-06
1.1741818804457871e-06,3.731733481829856e-06,9.342344652063265e-07,8.962356773634583e-06
1.192067582202443e-06,3.708650370183595e-06,9.388001001454015e-07,8.997539052217015e-06
1.2106856996499455e-06,3.684581345233409e-06,9.428634437155466e-07,9.053145344010886e-06
1.2299253751288664e-06,3.6597940757585344e-06,9.46442445465348e-07,9.12922974414956e-06
1.249683874330575e-06,3.6345441745478067e-06,9.495561982426792e-07,9.22556921226138e-06
1.2698589705673828e-06,3.609059175297329e-06,9.522171744393721e-07,9.341689763603843e-06
1.2903447679581482e-06,3.5835264691651133e-06,9.544316272676702e-07,9.476862812510258e-06
1.3110377409517416e-06,3.5581022659505585e-06,9.562042142545174e-07,9.630093297852064e-06
1.331848858495593e-06,3.532929685230101e-06,9.575397761218821e-07,9.800137400711456e-06
1.3527134449166894e-06,3.5081434643496696e-06,9.58442370290365e-07,9.985553179328907e-06
1.3735922867639941e-06,3.4838626503573565e-06,9.58915640006695e-07,1.0184741158563609e-05
1.3944608601062559e-06,3.460195107589382e-06,9.589645294467987e-07,1.0395956975218627e-05
1.4152923083249331e-06,3.4372616649632246e-06,9.585977881340835e-07,1.0617337283503266e-05
1.436047172740339e-06,3.415218794580545e-06,9.57833898451228e-07,1.0846970584914e-05
1.4566735344340888e-06,3.3942597542087493e-06,9.567088902554096e-07,1.1082995052748967e-05
1.477108059583514e-06,3.3745939160075926e-06,9.552782161806691e-07,1.1323676352289775e-05
1.4972745978812053e-06,3.356414556256532e-06,9.536088747845288e-07,1.1567420059564031e-05
1.517086419751047e-06,3.3398685046071486e-06,9.517661188437886e-07,1.181272501208749e-05
1.5364521328940069e-06,3.325044255426525e-06,9.498026916171558e-07,1.2058136648603625e-05
1.5552794257730916e-06,3.31198805381325e-06,9.477560519075643e-07,1.2302231440740887e-05
1.5734755090713357e-06,3.300732502738265e-06,9.456513108056246e-07,1.2543618381870607e-05
1.5909492986094675e-06,3.2913081089705447e-06,9.43504432610476e-07,1.2780952927040351e-05
1.6076191221975713e-06,3.283731473861994e-06,9.413242461111372e-07,1.301294951305823e-05
1.623420768834184e-06,3.2779937426934207e-06,9.39114562725202e-07,1.3238366846448465e-05
1.6383063413215797e-06,3.2740687722241088e-06,9.368768321847431e-07,1.3455983372355998e-05
1.6522338705423697e-06,3.2719318300446963e-06,9.346112165231859e-07,1.366459337493768e-05
1.665158273726289e-06,3.2715703155243406e-06,9.323145557204214e-07,1.3863031353141186e-05
1.6770294814367902e-06,3.2729893104687665e-06,9.299781655761739e-07,1.4050218487183308e-05
1.6877936247359854e-06,3.276224643437829e-06,9.275881529077795e-07,1.4225212880556104e-05
1.697394554219079e-06,3.281359245540475e-06,9.251269710851095e-07,1.4387254242173182e-05
1.7057769938440545e-06,3.288526319465724e-06,9.22576107390398e-07,1.4535806736911387e-05
1.7128922922985206e-06,3.297889321282267e-06,9.19920360096266e-07,1.4670617310751267e-05
1.7187070463233647e-06,3.3096040345560954e-06,9.171496265847229e-07,1.479178625482739e-05
1.7232095336142173e-06,3.3237789586449812e-06,9.14256481478496e-07,1.489976827611704e-05
1.7264055299396824e-06,3.340450295481956e-06,9.112343902388572e-07,1.4995247023475891e-05
1.728305450472756e-06,3.3595804677553844e-06,9.080774216790206e-07,1.5078957372425384e-05
1.7289141783786426e-06,3.381073961913232e-06,9.047784686114322e-07,1.5151555446056494e-05
1.7282289203197131e-06,3.404794741533565e-06,9.013292514982599e-07,1.5213573262487986e-05
1.7262414454395993e-06,3.430582366210349e-06,8.977247069652939e-07,1.5265449512894565e-05
1.7229416491067086e-06,3.458272128165133e-06,8.939653755567032e-07,1.5307588130400285e-05
1.7183218331685958e-06,3.4877152519897318e-06,8.90053804524777e-07,1.5340394504275258e-05
1.7123785085762345e-06,3.5187937161502863e-06,8.859911091724004e-07,1.536427540160479e-05
1.7051103020112688e-06,3.5514258865748407e-06,8.817792748825727e-07,1.5379646908411262e-05
1.6965162810898576e-06,3.5855589029320334e-06,8.774256055697651e-07,1.5387043672485313e-05
1.686597423973894e-06,3.6211513010491737e-06,8.729425023100841e-07,1.5387283503620848e-05
1.675358770942203e-06,3.6581546324501914e-06,8.683432239515733e-07,1.5381477933445167e-05
1.6628092706596525e-06,3.6965017939970054e-06,8.636406910192779e-07,1.5370845110523653e-05
1.6489601268249072e-06,3.7361028251070837e-06,8.588501130322589e-07,1.5356516605989544e-05
1.6338244053137713e-06,3.7768386255257837e-06,8.539901578139767e-07,1.5339526462478436e-05
1.6174179076022258e-06,3.818551504048048e-06,8.490821426299462e-07,1.532100145822431e-05
1.5997602068133903e-06,3.861047468355363e-06,8.441486642529506e-07,1.5302353541959485e-05
1.5808757926117639e-06,3.904113168823019e-06,8.392113173348024e-07,1.5285280805458774e-05
1.560794042440602e-06,3.947532697397538e-06,8.342888937067725e-07,1.5271618851048094e-05
1.539547478667602e-06,3.991098344739369e-06,8.293964618910976e-07,1.5263174820189272e-05
1.5171703195568472e-06,4.034620631794721e-06,8.245442368648036e-07,1.526160049268309e-05
1.4936982734357175e-06,4.077935160382244e-06,8.197366639628956e-07,1.526831061120574e-05
1.4691690515190526e-06,4.120899679872749e-06,8.14972621369463e-07,1.528443415970835e-05
1.4436235968036855e-06,4.16338647464898e-06,8.102489019248071e-07,1.531078154408223e-05
1.4171071880897357e-06,4.205276667048987e-06,8.055680341124291e-07,1.5347826761391455e-05
1.389668848440308e-06,4.246450125772543e-06,8.009451921267246e-07,1.5395718902342022e-05
1.3613600898501877e-06,4.286767580638504e-06,7.96408199032022e-07,1.5454317969114456e-05
1.3322352815899929e-06,4.3260590976791605e-06,7.919913560552823e-07,1.5523221580187867e-05
1.3023541292658677e-06,4.364134030278943e-06,7.877275178298434e-07,1.560177075367398e-05
1.271786133671734e-06,4.4008065239201805e-06,7.836422449921308e-07,1.568906874728689e-05
1.2406153416802952e-06,4.435917119413462e-06,7.797526036080296e-07,1.5784046805540007e-05
1.2089424370634943e-06,4.469341379404879e-06,7.760707151547504e-07,1.588555843994549e-05
1.1768851290918587e-06,4.500988154715499e-06,7.726079616110684e-07,1.599245696188908e-05
1.1445794546436659e-06,4.530790297125615e-06,7.693743086766059e-07,1.610364163087928e-05
1.1121790560198908e-06,4.5586911201343945e-06,7.663739367432155e-07,1.6218081093347562e-05
1.0798475167691578e-06,4.584630194318739e-06,7.636044425580176e-07,1.633482542327263e-05
1.0477477488938742e-06,4.6085320937386875e-06,7.610621758577564e-07,1.6453020549253874e-05
1.0160412506499235e-06,4.63030458447797e-06,7.587498091316595e-07,1.6571921355650632e-05
9.84900005332988e-07,4.649845875673619e-06,7.566808268335972e-07,1.6690883388340425e-05
9.54515100902807e-07,4.667048958662303e-06,7.548769991724452e-07,1.6809326039936095e-05
9.250916819098265e-07,4.681796589818408e-06,7.533603055583495e-07,1.6926674280581687e-05
8.968392609130522e-07,4.693956229929305e-06,7.521448396113279e-07,1.7042302049299452e-05
8.699660879818336e-07,4.703385893809604e-06,7.512329776656433e-07,1.7155528811342874e-05
8.44675342874777e-07,4.70994588745448e-06,7.506172885564078e-07,1.726568669640717e-05
8.21159493370302e-07,4.713502295613428e-06,7.502849010101469e-07,1.7372183727795943e-05
7.99592732822913e-07,4.713921847119218e-06,7.502192777801116e-07,1.7474500645938618e-05
7.801240718040592e-07,4.711069460930271e-06,7.503995859266076e-07,1.7572151271001385e-05
7.628737913487527e-07,4.704812500545625e-06,7.508008312612397e-07,1.7664636919634423e-05
7.479346213057128e-07,4.6950274226105774e-06,7.513947241180959e-07,1.775140016406213e-05
7.353770285847116e-07,4.6816029117716905e-06,7.521492402759595e-07,1.783181548087778e-05
7.252533558262335e-07,4.6644397139145204e-06,7.530284065163175e-07,1.7905223372156423e-05
7.175986349217179e-07,4.64345488981404e-06,7.539957662655806e-07,1.79709499782875e-05
7.124336734812921e-07,4.618590336765511e-06,7.550187877860516e-07,1.8028318300290816e-05
7.097704879015828e-07,4.589815393856517e-06,7.560696534284173e-07,1.807674358701776e-05
7.09612562365975e-07,4.5571225566600445e-06,7.571261680969417e-07,1.8115927377149867e-05
7.119474529515287e-07,4.5205273615674085e-06,7.581765756664392e-07,1.8146025201042085e-05
7.167382922183934e-07,4.4800741677718246e-06,7.592223336025085e-07,1.8167662790248372e-05
7.239226865981303e-07,4.4358366147405685e-06,7.602724148255054e-07,1.818179798820592e-05
7.334210369842341e-07,4.387909455894162e-06,7.613329491087264e-07,1.818951129558971e-05
7.451481445614182e-07,4.336399571582827e-06,7.624011264207029e-07,1.8191828415058955e-05
7.590187857695219e-07,4.2814212421295435e-06,7.634660476577937e-07,1.818965513323336e-05
7.749435277484535e-07,4.2230957533527295e-06,7.645129352212709e-07,1.8183801981007908e-05
7.928197491847745e-07,4.161553425276326e-06,7.655284065170967e-07,1.8175011577288212e-05
8.125252720672348e-07,4.096937474827194e-06,7.665065030653029e-07,1.816395329947467e-05
8.339200823136869e-07,4.029414745597524e-06,7.674523664974142e-07,1.815120523560704e-05
8.568582124744824e-07,3.959190066913862e-06,7.683792913796484e-07,1.813728420363516e-05
8.812044705973575e-07,3.886506373466935e-06,7.69301155519712e-07,1.812273951465408e-05
9.068462604724531e-07,3.811627180006202e-06,7.702279911746645e-07,1.8108180864242755e-05
9.33696835139385e-07,3.734823487213677e-06,7.711683952666973e-07,1.809416862884457e-05
9.616901700321849e-07,3.656379568478328e-06,7.721344417122857e-07,1.8081131828215802e-05
9.907669157099051e-07,3.5766043019833574e-06,7.731426829356113e-07,1.8069505455395464e-05
1.020859553986284e-06,3.4958281525729035e-06,7.742094352844205e-07,1.8060063782467365e-05
1.0518867833037027e-06,3.414383567222098e-06,7.753452540242887e-07,1.8054206655767853e-05
1.083754534160563e-06,3.332583962628676e-06,7.765535415678939e-07,1.8053938674943527e-05
1.116358443611186e-06,3.2507139292918584e-06,7.77832427167393e-07,1.8061517180352654e-05
1.1495861962320223e-06,3.1690270175277275e-06,7.791773267473456e-07,1.8078993633272526e-05
1.1833165572899125e-06,3.087744495180508e-06,7.805817925578019e-07,1.8107899553945067e-05
1.2174154432310128e-06,3.0070573940004496e-06,7.82035312662459e-07,1.8149156835760825e-05
1.2517335520679695e-06,2.927135540087323e-06,7.835210594987533e-07,1.8203122339258222e-05
1.2861072819365443e-06,2.8481443777604787e-06,7.850164453300061e-07,1.8269662720624656e-05
1.3203619926075836e-06,2.7702654673734053e-06,7.86495137591586e-07,1.834822815186444e-05
1.3543163771299068e-06,2.6937054095956363e-06,7.879300950929102e-07,1.8437931916331172e-05
1.3877861844614285e-06,2.6186814333900865e-06,7.892980594170074e-07,1.853762967713034e-05
1.4205859575994937e-06,2.545395685640858e-06,7.905818755653872e-07,1.8645973783543718e-05
1.4525298592046155e-06,2.4740178538372872e-06,7.917678007848814e-07,1.876144149991765e-05
1.4834343607560137e-06,2.404682113495854e-06,7.928407952952768e-07,1.888236629488941e-05
1.5131234123151003e-06,2.3374975897854406e-06,7.937820498484528e-07,1.9006991325942613e-05
1.5414337202284167e-06,2.272568741837301e-06,7.94570119112724e-07,1.9133537180843456e-05
1.5682176282782963e-06,2.210015242873045e-06,7.951853935482535e-07,1.9260262234883614e-05
1.5933427418190148e-06,2.1499806651277845e-06,7.956162609667979e-07,1.9385503162661603e-05
1.6166903695125945e-06,2.092628237705004e-06,7.958618757820296e-07,1.9507755068618854e-05
1.6381562718074603e-06,2.038131209246325e-06,7.959276829554727e-07,1.9625891159181408e-05
1.6576529389280144e-06,1.9866653167594425e-06,7.958178983066737e-07,1.9739405984675242e-05
1.6751088511029603e-06,1.9384042176863558e-06,7.955319180011531e-07,1.984838905344692e-05
1.6904649724788817e-06,1.893514971173101e-06,7.950654985513295e-07,1.9953212171415504e-05
1.7036742858169172e-06,1.852151116045239e-06,7.944142866883752e-07,2.005420806397901e-05
1.714705797175606e-06,1.8144424178084648e-06,7.935788923728736e-07,2.0151532305714725e-05
1.7235473202482681e-06,1.7804829003139256e-06,7.925681071524953e-07,2.024519702382983e-05
1.7302034536809468e-06,1.7503258485213104e-06,7.913954575461612e-07,2.033515074710248e-05
1.734691425980733e-06,1.7239916697625104e-06,7.900723971570139e-07,2.042131783612178e-05
1.737037327814408e-06,1.7014771150621369e-06,7.886073493656539e-07,2.050363759356391e-05
1.7372723975014526e-06,1.6827535475233102e-06,7.870125436395552e-07,2.058214500543564e-05
1.7354306651670147e-06,1.6677589894046924e-06,7.853103640583306e-07,2.0657051775072008e-05
1.7315513565299843e-06,1.6563966239097628e-06,7.835328982154515e-07,2.0728800175048897e-05
1.725685053954138e-06,1.648546071858429e-06,7.817165616975232e-07,2.0798112280613992e-05
1.7178964019131812e-06,1.6440793352110272e-06,7.798954432693325e-07,2.0866021988362977e-05
1.708259147085848e-06,1.6428658314519203e-06,7.780972479732271e-07,2.0933857591879958e-05
1.6968481894547517e-06,1.6447642519291171e-06,7.763442766441015e-07,2.1003207822573307e-05
1.6837351614607353e-06,1.6496185749815071e-06,7.746562761918223e-07,2.1075904123220746e-05
1.6689883473626042e-06,1.6572723543574037e-06,7.730520133546723e-07,2.1153991428932223e-05
1.6526750432145618e-06,1.6675946484057447e-06,7.7155023347949e-07,2.123967374095384e-05
1.6348670532175797e-06,1.6805051060965568e-06,7.701714511580997e-07,2.133522339742348e-05
1.6156484607512709e-06,1.6959879458259149e-06,7.689399750691023e-07,2.1442814876256664e-05
1.595119517530084e-06,1.7140798991242325e-06,7.678827135807845e-07,2.1564303526100408e-05
1.5733923881488541e-06,1.7348316648765243e-06,7.670237417791755e-07,2.170104263424324e-05
1.5505827212042155e-06,1.7582682135289155e-06,7.663784420732495e-07,2.1853826865471786e-05
1.5268043039693017e-06,1.7843677319476731e-06,7.659506094517291e-07,2.202298369041473e-05
1.502168084645134e-06,1.8130592877766e-06,7.657332366053348e-07,2.22085414867926e-05
1.4767817027112837e-06,1.8442395468247009e-06,7.657118423705057e-07,2.2410379037554365e-05
1.450748285335354e-06,1.877803792127152e-06,7.658673670937375e-07,2.2628306293482752e-05
1.4241661989355244e-06,1.9136679897131304e-06,7.661765680695476e-07,2.2862037845288046e-05
1.3971306850181243e-06,1.9517651976834747e-06,7.6661127769485e-07,2.3111066196539152e-05
1.3697369857276413e-06,1.992023734032534e-06,7.671382078689613e-07,2.337455518082744e-05
1.3420836122872707e-06,2.0343442991769922e-06,7.677199262033357e-07,2.365134100870893e-05
1.3142727298785783e-06,2.0785925948669813e-06,7.683178704657824e-07,2.393999710103426e-05
1.2864055651708167e-06,2.1246113256035e-06,7.688958258251231e-07,2.4238905343188046e-05
1.2585765553636982e-06,2.1722326868127564e-06,7.694208433270638e-07,2.454632680081975e-05
1.2308704312970813e-06,2.2212765743009573e-06,7.698627786049824e-07,2.4860539479773824e-05
1.203361684587268e-06,2.271550233824442e-06,7.701956333488159e-07,2.5180056227108584e-05
1.176115482860028e-06,2.322862096484898e-06,7.703990571884272e-07,2.5503759408443986e-05
1.1491884223778223e-06,2.37502907009182e-06,7.704568088323593e-07,2.583087078380433e-05
1.122627816330878e-06,2.4278617227769955e-06,7.7035398856185e-07,2.616086526853085e-05
1.0964720884527893e-06,2.4811461193882616e-06,7.700760504199713e-07,2.649340659620299e-05
1.070753927352612e-06,2.534642646749449e-06,7.696099897284277e-07,2.682829165954497e-05
1.045504795204371e-06,2.5880961267949163e-06,7.689456018814793e-07,2.716537556690908e-05
1.0207591249557587e-06,2.6412437445983835e-06,7.680741028477594e-07,2.750447671888091e-05
9.965561817952128e-07,2.6938237714041883e-06,7.669872712191284e-07,2.784529299050929e-05
9.729389319407905e-07,2.7455946748495376e-06,7.656817978272534e-07,2.8187357477121112e-05
9.499513267438757e-07,2.796360041277351e-06,7.641650007933572e-07,2.8530030961520067e-05
9.276354850811865e-07,2.845980901379193e-06,7.624555369647351e-07,2.8872501002752845e-05
9.06031290638373e-07,2.8943613144039037e-06,7.605786090602781e-07,2.921375303396062e-05
8.851777484580743e-07,2.941420427399545e-06,7.585596119803995e-07,2.955252659761784e-05
8.651108488608099e-07,2.9870829384971697e-06,7.564219245149417e-07,2.9887331520714184e-05
8.458587472772279e-07,3.0312952233678035e-06,7.5418988158811e-07,3.0216550804231872e-05
8.274412554543272e-07,3.074042225611794e-06,7.518898859874819e-07,3.053855670213551e-05
8.09875770740515e-07,3.1153444288436764e-06,7.49546108393983e-07,3.085176945091128e-05
7.931839199427407e-07,3.1552356460869613e-06,7.471778672957533e-07,3.115465609605743e-05
7.773915612502434e-07,3.193735539180847e-06,7.448044638289973e-07,3.144571361359161e-05
7.62523225381772e-07,3.2308342943220395e-06,7.424506828962091e-07,3.172348521246525e-05
7.485993732198928e-07,3.266497662709007e-06,7.401441850616691e-07,3.1986615853621296e-05
7.356382874484745e-07,3.3006824396242992e-06,7.379100713309116e-07,3.2233903614273285e-05
7.236581115886116e-07,3.333344634732895e-06,7.357715111293069e-07,3.246430859052013e-05
7.126783032514221e-07,3.364435617975924e-06,7.33752460372276e-07,3.2676923148265354e-05
7.027220563983984e-07,3.393898451043253e-06,7.318759775473052e-07,3.2870916154660106e-05
6.938199335828576e-07,3.421672095721329e-06,7.301605478717235e-07,3.3045461494425546e-05
6.860110220871572e-07,3.4476955853339372e-06,7.286177788032086e-07,3.319969074397868e-05
6.793358663278671e-07,3.4719062395504355e-06,7.272514542514089e-07,3.3332698585093905e-05
6.738253284207029e-07,3.4942358297641645e-06,7.260595306640275e-07,3.34435664677858e-05
6.694973054857715e-07,3.514609794828688e-06,7.250399753686215e-07,3.353136290294501e-05
6.663642761373887e-07,3.5329524999261315e-06,7.241954781637556e-07,3.359513237946727e-05
6.644431960513622e-07,3.549192490162632e-06,7.235316211911405e-07,3.3633912590928324e-05
6.637602662797446e-07,3.5632574140436965e-06,7.230508556749723e-07,3.364677368617113e-05
6.643508314811613e-07,3.5750635585478546e-06,7.227494925074873e-07,3.363283745588775e-05
6.6625501951464e-07,3.5845138796176177e-06,7.226199103341587e-07,3.3591292949157544e-05
6.695072635105422e-07,3.5915093246154298e-06,7.226529391675759e-07,3.352144940333704e-05
6.741236789159838e-07,3.5959675435022635e-06,7.228367805373781e-07,3.3422822816933836e-05
6.80094847029259e-07,3.597834824101473e-06,7.23154922831566e-07,3.329523717271258e-05
6.873858685801293e-07,3.597080752066913e-06,7.235857795257166e-07,3.313889284243932e-05
6.959416616165992e-07,3.5936830983914392e-06,7.241038879247924e-07,3.295434270478517e-05
7.056958343474029e-07,3.5876182273818483e-06,7.246819890750244e-07,3.2742380083600904e-05
7.165798959943748e-07,3.578862640149536e-06,7.252929652523285e-07,3.250390262756221e-05
7.285281515877836e-07,3.567399174536374e-06,7.259102619237461e-07,3.2239838488351384e-05
7.414764083171615e-07,3.553219288196486e-06,7.265068318117565e-07,3.195116748934097e-05
7.553568496516071e-07,3.5363248657819086e-06,7.270535636145784e-07,3.163896694364945e-05
7.700942113684567e-07,3.5167383962314455e-06,7.27518200938138e-07,3.130442649502843e-05
7.856095148349134e-07,3.4945180360503395e-06,7.278658746239666e-07,3.094884562141298e-05
8.018322512135069e-07,3.469766760489357e-06,7.280603989896713e-07,3.05736028632514e-05
8.187113715311215e-07,3.442629939010093e-06,7.280648905632857e-07,3.018011022585146e-05
8.362142238620254e-07,3.413282104809358e-06,7.278428247366687e-07,2.976984101904496e-05
8.543135042013119e-07,3.3819082626959594e-06,7.273600707710569e-07,2.934439984087328e-05
8.729721265564941e-07,3.348689830302764e-06,7.265866026205274e-07,2.890548277444482e-05
8.921354050588625e-07,3.313806805059012e-06,7.254974528822986e-07,2.845474964794777e-05
9.117314200480692e-07,3.2774566217626613e-06,7.240739057309294e-07,2.7993797397012834e-05
9.316747699512657e-07,3.239871467320957e-06,7.223060621803107e-07,2.752430834546689e-05
9.518704101659922e-07,3.2013121446195607e-06,7.201947333480381e-07,2.704822897211568e-05
9.722175310562535e-07,3.162040216115744e-06,7.177487805274836e-07,2.6567788377634197e-05
9.926146687221063e-07,3.1222928998668136e-06,7.14979893374972e-07,2.608534702425448e-05
1.0129667916399457e-06,3.082277348167301e-06,7.119024167185007e-07,2.5603211418916864e-05
1.0331944054708106e-06,3.0421868703626037e-06,7.085408031888745e-07,2.5123505386771908e-05
1.0532410260135685e-06,3.0022335135593134e-06,7.049377977462553e-07,2.464810509962612e-05
1.0730718999856206e-06,2.962674768810596e-06,7.011556112474119e-07,2.4178623375757106e-05
1.0926629536371552e-06,2.923809560442305e-06,6.972694111595486e-07,2.3716438584894406e-05
1.111989332915853e-06,2.885945806386148e-06,6.933574869734093e-07,2.3262748424563808e-05
1.1310245763332815e-06,2.849371533136965e-06,6.894931508043652e-07,2.2818600990722172e-05
1.1497499719388349e-06,2.814351873568808e-06,6.857422488739665e-07,2.2384885632004918e-05
1.1681606653025278e-06,2.781137188430772e-06,6.821664983129864e-07,2.196230827208308e-05
1.1862598830651926e-06,2.7499643023310296e-06,6.788282781023417e-07,2.1551367232387475e-05
1.2040483160708077e-06,2.7210543996604697e-06,6.757924089348135e-07,2.1152348214393226e-05
1.2215184654267738e-06,2.694618207621914e-06,6.731239043869619e-07,2.0765370221262398e-05
1.2386544862335907e-06,2.6708752598341943e-06,6.708828917629645e-07,2.0390479950859806e-05
1.2554329545002803e-06,2.6500743304766768e-06,6.691203179801708e-07,2.0027753888070504e-05
1.2718223622451428e-06,2.632484564006861e-06,6.678767315651014e-07,1.9677361219309446e-05
1.287781821009576e-06,2.6183520906101693e-06,6.671808879771122e-07,1.9339567751162075e-05
1.3032611161626802e-06,2.607854603288562e-06,6.670473592254075e-07,1.901471211828032e-05
1.3182056272285264e-06,2.6010818824855617e-06,6.67477186214513e-07,1.8703192555583983e-05
1.3325649992081689e-06,2.598041416125316e-06,6.684617829067636e-07,1.8405460242498173e-05
1.346298067314108e-06,2.598673564471002e-06,6.699872259708458e-07,1.812199020748254e-05
1.3593703163028843e-06,2.6028633423295817e-06,6.720373022174306e-07,1.7853210236398308e-05
1.3717501762880607e-06,2.6104492609380106e-06,6.745935214317326e-07,1.759940345480572e-05
1.38341092791677e-06,2.621239084004061e-06,6.776320578630765e-07,1.736063759739607e-05
1.3943371726644189e-06,2.635031441838977e-06,6.811213053522801e-07,1.7136778989755808e-05
1.4045316183921657e-06,2.6516287679629376e-06,6.850245441639873e-07,1.6927597627289418e-05
1.414016471638528e-06,2.6708359585885e-06,6.893090701358664e-07,1.6732876876802474e-05
1.4228246526956163e-06,2.692452174767908e-06,6.939556960587613e-07,1.655242904584405e-05
1.4309855519497674e-06,2.7162630222485496e-06,6.989600145106243e-07,1.6386034285371538e-05
1.4385155645163284e-06,2.742041838705891e-06,7.043248569550907e-07,1.6233383457132538e-05
1.4454173404310214e-06,2.7695674643376234e-06,7.100496387170604e-07,1.609404764124051e-05
1.4516834002230292e-06,2.7986508661198868e-06,7.161229856090162e-07,1.5967479281269313e-05
1.4572986224582237e-06,2.829151264067937e-06,7.225225391733279e-07,1.585305928759206e-05
1.4622417381896258e-06,2.860966053853495e-06,7.292189363014222e-07,1.5750145023478147e-05
1.4664884626289238e-06,2.8940022634357718e-06,7.361788163225831e-07,1.565806639902711e-05
1.4700159520327596e-06,2.928167060473447e-06,7.433667452560586e-07,1.557609872989259e-05
1.4728062286123977e-06,2.9633982543334067e-06,7.507482136659236e-07,1.5503484428248892e-05
1.4748469385943017e-06,2.9997044725824736e-06,7.582925711885097e-07,1.5439528320107026e-05
1.4761312902260936e-06,3.037176100648421e-06,7.659721518210525e-07,1.5383697054101036e-05
1.4766586553794246e-06,3.075955319305926e-06,7.737585441377578e-07,1.533563509314829e-05
1.4764332328229861e-06,3.1161792477244805e-06,7.816210417765953e-07,1.5295088998179315e-05
1.4754607275451896e-06,3.1579326820626394e-06,7.895272580818981e-07,1.5261789224905804e-05
1.473745727669306e-06,3.2012367270814497e-06,7.974427688565513e-07,1.5235350154772116e-05
1.471289827479765e-06,3.2460626794278215e-06,8.053302449107265e-07,1.5215232390623315e-05
1.468091751456769e-06,3.292347266745849e-06,8.131498971266803e-07,1.520075720422017e-05
1.4641521262104539e-06,3.33999625910114e-06,8.208608476632913e-07,1.5191133150140989e-05
1.4594800965417754e-06,3.3888796860966804e-06,8.28422023555906e-07,1.5185499286710474e-05
1.4540960826902848e-06,3.4388287924259867e-06,8.357922083585034e-07,1.5183046760222994e-05
1.4480298931384927e-06,3.489636400385092e-06,8.429297424670969e-07,1.5183229343213498e-05
1.4413167038868797e-06,3.5410615299573488e-06,8.497924167645428e-07,1.5185911802710876e-05
1.4339923558822806e-06,3.592838561645246e-06,8.56338311946571e-07,1.519130374745189e-05
1.426089346489361e-06,3.6446805510172095e-06,8.625271052880005e-07,1.519975410562085e-05
1.4176346364619136e-06,3.6962764626571113e-06,8.683203743518381e-07,1.5211590008722745e-05
1.4086508646236956e-06,3.7472989030866905e-06,8.736827957498155e-07,1.5227117776191928e-05
1.3991626305219538e-06,3.797426417214679e-06,8.785851734710432e-07,1.5246777010377395e-05
1.389204661914612e-06,3.846363424954885e-06,8.830040245045199e-07,1.52712703965574e-05
1.378825344579303e-06,3.893840314549701e-06,8.869171849261645e-07,1.5301534709988812e-05
1.3680827404966766e-06,3.939595304726388e-06,8.903030620068165e-07,1.5338620233639402e-05
1.357037387375779e-06,3.983357779227032e-06,8.931458867261404e-07,1.5383566542521675e-05
1.345747926202757e-06,4.024848595801987e-06,8.95440524465983e-07,1.543729017774419e-05
1.3342695465830834e-06,4.063793738910471e-06,8.971909883948618e-07,1.5500497392505757e-05
1.3226521235362177e-06,4.0999374540534105e-06,8.984048804112756e-07,1.5573639117429384e-05
1.3109374904127344e-06,4.1330478433531264e-06,8.990900618733419e-07,1.5656903156272867e-05
1.2991568695408626e-06,4.162918845133271e-06,8.992543230573731e-07,1.5750223447293458e-05
1.2873293783515636e-06,4.189373123255741e-06,8.989048215070044e-07,1.5853295841805662e-05
1.2754628201075136e-06,4.212264063163487e-06,8.980467523829589e-07,1.5965601482065256e-05
1.2635567485855946e-06,4.231472250779455e-06,8.966835531912546e-07,1.608643001334099e-05
1.2516057128589731e-06,4.246897347155872e-06,8.948199702218519e-07,1.6214889934582713e-05
1.23960275660332e-06,4.258456099965012e-06,8.92464690010079e-07,1.634991257126146e-05
1.227544940560619e-06,4.266092207974262e-06,8.896294322681473e-07,1.649027741929913e-05
1.215438628690917e-06,4.269785632409262e-06,8.863271087177513e-07,1.6634679894439085e-05
1.2033011669525296e-06,4.2695490828114376e-06,8.82570783715946e-07,1.678182754895665e-05
1.1911582907017914e-06,4.2654145819486965e-06,8.783719178203535e-07,1.6930531477128697e-05
1.17903771163747e-06,4.257418148773782e-06,8.737395362649009e-07,1.7079764562153287e-05
1.166961837771528e-06,4.2455905974717975e-06,8.686842439735277e-07,1.7228662802924343e-05
1.1549439333098243e-06,4.229961124504731e-06,8.632258003954668e-07,1.7376480758912905e-05
1.1429896618495709e-06,4.21056971318656e-06,8.573961816544694e-07,1.7522544808720848e-05
1.1311017930564705e-06,4.187477078152797e-06,8.512336307206727e-07,1.7666215502168563e-05
1.119282524812033e-06,4.1607674056253605e-06,8.447744727195773e-07,1.78068424687615e-05
1.1075321258997757e-06,4.130545024207572e-06,8.380500870145442e-07,1.794371488789542e-05
1.095847473620594e-06,4.096926310017003e-06,8.310880562472732e-07,1.807604550127749e-05
1.084221608548785e-06,4.060030030787717e-06,8.239169517638963e-07,1.820303567811573e-05
1.0726439490524948e-06,4.019971196698983e-06,8.165755672585805e-07,1.8323980000713085e-05
1.0611026335828694e-06,3.976862539475797e-06,8.091196747658223e-07,1.8438291384170348e-05
1.0495898801056356e-06,3.930820411319341e-06,8.016188129261034e-07,1.854542996856995e-05
1.0381061052536077e-06,3.8819664886979465e-06,7.941459838892641e-07,1.8644830348049938e-05
1.0266600080290094e-06,3.830426389256057e-06,7.867681191281275e-07,1.873587375476245e-05
1.0152723313888755e-06,3.77633064463778e-06,7.795413445137159e-07,1.88178880990064e-05
1.0039878397500871e-06,3.7198145485775085e-06,7.725114607867121e-07,1.8890160280116518e-05
9.928845063239592e-07,3.661015946534577e-06,7.657182545374277e-07,1.8951950051986404e-05
9.820669033945426e-07,3.6000811615449922e-06,7.591989944358258e-07,1.9002507452888065e-05
9.7164562089018e-07,3.537189918048944e-06,7.529876858299584e-07,1.90411160003965e-05
9.617179250536792e-07,3.472594483503196e-06,7.471137176365295e-07,1.906717893100608e-05
9.523606982180577e-07,3.4066508641072013e-06,7.41603371671718e-07,1.9080326069888826e-05
9.436327483024988e-07,3.339823782777285e-06,7.364814491079704e-07,1.908046924500749e-05
9.355798099330929e-07,3.272665035196122e-06,7.317702589553571e-07,1.9067756520057583e-05
9.282389474987276e-07,3.20577677357547e-06,7.274864104190573e-07,1.904245844036976e-05
9.216401153431822e-07,3.1397718553743742e-06,7.236381113306149e-07,1.900485866687443e-05
9.158060778157637e-07,3.075235428908793e-06,7.202261321346575e-07,1.8955205100523893e-05
9.1075383480378e-07,3.0126919496899523e-06,7.172474242560762e-07,1.889372016888576e-05
9.064956347094248e-07,2.952592178392748e-06,7.146973215363842e-07,1.882062161216137e-05
9.030364857105517e-07,2.8953254615289416e-06,7.125690075449107e-07,1.873612898448624e-05
9.003717555296974e-07,2.84124199175724e-06,7.108525371856996e-07,1.864046017892908e-05
8.98490092959289e-07,2.7906736818186526e-06,7.095349123335577e-07,1.8533859379961982e-05
8.973808616642903e-07,2.743950881260889e-06,7.086007206798439e-07,1.8416718689309563e-05
8.970411260011824e-07,2.7014069385869066e-06,7.080349510401677e-07,1.828971036679788e-05
8.974764954506357e-07,2.6633677472594786e-06,7.078282188637388e-07,1.8153758250722105e-05
8.986941231579216e-07,2.630138838209721e-06,7.079777121964569e-07,1.8009873464914614e-05
9.006930264274241e-07,2.602003536544655e-06,7.084805473791542e-07,1.785903204562181e-05
9.034573544942728e-07,2.5792276274953688e-06,7.093268614902168e-07,1.770222022352583e-05
9.069547263623829e-07,2.562054027260921e-06,7.104984954615212e-07,1.7540622779418972e-05
9.111394630844507e-07,2.550683924740422e-06,7.119709687897943e-07,1.7375746182328636e-05
9.159574254606388e-07,2.5452551783819088e-06,7.137158289482145e-07,1.720933569258175e-05
9.213480603605595e-07,2.545824265707469e-06,7.157026201712281e-07,1.7043198380147273e-05
9.2724431211819e-07,2.55235380511957e-06,7.179000694488284e-07,1.6879071757527114e-05
9.335765649449068e-07,2.5647128245189946e-06,7.202776033573808e-07,1.671856001818021e-05
9.402840047751156e-07,2.5826984329454096e-06,7.228069475804045e-07,1.6563109143331275e-05
9.473288513093895e-07,2.6060767207750802e-06,7.25461145973395e-07,1.641397828280595e-05
9.54704013027032e-07,2.63461960273615e-06,7.282131983835095e-07,1.6272188954296694e-05
9.624262285675415e-07,2.6681106670785112e-06,7.310386929249646e-07,1.6138481259326763e-05
9.70518162964833e-07,2.7063255527397357e-06,7.339184171334156e-07,1.6013304659418655e-05
9.78995518533181e-07,2.749017362440386e-06,7.368355496653341e-07,1.5896834176699553e-05
9.87866973691665e-07,2.795918613224944e-06,7.397717805802651e-07,1.5788995078127646e-05
9.971358929043005e-07,2.846745953730292e-06,7.427069636871656e-07,1.5689501428308538e-05
1.006795590663049e-06,2.9011980231282916e-06,7.456195550290015e-07,1.5597921560140546e-05
1.0168236264553887e-06,2.9589483339261014e-06,7.484866013693362e-07,1.551376501213429e-05
1.0271804120239865e-06,3.019636299029462e-06,7.512862455249659e-07,1.5436565844406462e-05
1.037812048051743e-06,3.082863185495583e-06,7.540024904854654e-07,1.5365926594835226e-05
1.0486550716312485e-06,3.148200127309925e-06,7.566264845837426e-07,1.5301502956770275e-05
1.059639943904128e-06,3.2152067729573464e-06,7.591522134410736e-07,1.524295503458561e-05
1.0706935939938766e-06,3.283455754219237e-06,7.615737497412703e-07,1.5189910571532256e-05
1.0817439229501815e-06,3.3525547476997747e-06,7.638882083868081e-07,1.514196643422361e-05
1.092724525595545e-06,3.422154113934065e-06,7.660994300946767e-07,1.5098722305083189e-05
1.1035761732203041e-06,3.4919354976482727e-06,7.682186525084924e-07,1.5059801721927088e-05
1.1142484111298625e-06,3.561588907038675e-06,7.702615451379949e-07,1.5024822760522986e-05
1.1247038819508328e-06,3.630796708911834e-06,7.722420235138023e-07,1.4993344148520322e-05
1.1349185685510986e-06,3.699241473799141e-06,7.741673634857955e-07,1.496485997855039e-05
1.1448737878684831e-06,3.76663000483788e-06,7.760388520929836e-07,1.493889052379437e-05
1.154546484375179e-06,3.832706679502687e-06,7.778561519123277e-07,1.491511443168178e-05
1.1639058341680672e-06,3.897242449663198e-06,7.796202706534309e-07,1.4893425751272808e-05
1.1729183756803922e-06,3.960010691004544e-06,7.813326018992966e-07,1.4873877733466812e-05
1.1815563069483973e-06,4.0207711897614836e-06,7.829930538172438e-07,1.4856569328972485e-05
1.1897994840088198e-06,4.079276101180308e-06,7.846008507165128e-07,1.4841531048785462e-05
1.1976288029979393e-06,4.1352947477566085e-06,7.861560187750531e-07,1.4828653165310406e-05
1.2050199801633314e-06,4.188640115222327e-06,7.87659438853981e-07,1.4817680884842105e-05
1.211946412728054e-06,4.239176583427294e-06,7.891126529824745e-07,1.4808255704283793e-05
1.2183882560515305e-06,4.286801707070272e-06,7.905165934931833e-07,1.4799992043571057e-05
1.224340410313002e-06,4.331423312423142e-06,7.918697530905208e-07,1.4792591300904473e-05
1.2298178634913144e-06,4.372962564459663e-06,7.931692522474754e-07,1.47859325976905e-05
1.2348553955140195e-06,4.411377622178318e-06,7.944145148216917e-07,1.4780074113980453e-05
1.2394967857083872e-06,4.446669894661784e-06,7.95609964043994e-07,1.477519047696311e-05
1.24378056711235e-06,4.4788627352485004e-06,7.967632004604159e-07,1.4771506081997238e-05
1.247735074014653e-06,4.5079815519738e-06,7.978794154258442e-07,1.4769228042359603e-05
1.2513834519121401e-06,4.534047579354223e-06,7.989575171833141e-07,1.4768467811239065e-05
1.2547482327677357e-06,4.557074408464447e-06,7.999898557442764e-07,1.4769202044164355e-05
1.2578477787421708e-06,4.577070671368681e-06,8.009633942771703e-07,1.4771310727280553e-05
1.260689290963919e-06,4.5940504134563485e-06,8.018613842982469e-07,1.4774642380946606e-05
1.2632681078213288e-06,4.608033133928048e-06,8.026653896346161e-07,1.4779053573702356e-05
1.2655722738593186e-06,4.619030362969943e-06,8.03357794589622e-07,1.4784407406805694e-05
1.267584595015713e-06,4.627038593642719e-06,8.039233969446666e-07,1.4790550928807587e-05
1.2692830212753198e-06,4.632046165340168e-06,8.043479548712645e-07,1.4797370381294593e-05
1.270646267419125e-06,4.634040064830857e-06,8.046159570755338e-07,1.4804934751744476e-05
1.2716641027077609e-06,4.633002364466529e-06,8.047104236531306e-07,1.4813540275078455e-05
1.2723446778412217e-06,4.628906396774184e-06,8.046136507737217e-07,1.4823593504138073e-05
1.2727137552034998e-06,4.621729684625172e-06,8.043080380373006e-07,1.48354942473781e-05
1.2728058090514229e-06,4.6114834748804905e-06,8.037781689210486e-07,1.4849582540309925e-05
1.2726518970494885e-06,4.5982396527149235e-06,8.030133302730045e-07,1.4866095477189587e-05
1.2722714668324141e-06,4.582134796436939e-06,8.02006625853398e-07,1.4885137626126957e-05
1.2716728465689508e-06,4.563345738888118e-06,8.007514748303913e-07,1.4906683679457846e-05
1.2708635882242628e-06,4.542054882154475e-06,7.992411918651032e-07,1.4930596219646045e-05
1.2698636373211737e-06,4.518432928275687e-06,7.974716410275717e-07,1.495664436976368e-05
1.2687079964127028e-06,4.492639783884139e-06,7.95442179215556e-07,1.4984514623279862e-05
1.2674364255619043e-06,4.464821508976038e-06,7.931543168923855e-07,1.5013802808478153e-05
1.2660831016936798e-06,4.435099022609601e-06,7.90611565083232e-07,1.5043994594345435e-05
1.264676812089033e-06,4.403564082664206e-06,7.878216038922944e-07,1.5074462727426041e-05
1.2632475044522275e-06,4.3702886089383055e-06,7.84797292630154e-07,1.5104495794350726e-05
1.2618287174916622e-06,4.335341238580132e-06,7.815534933974788e-07,1.5133342136635406e-05
1.260454984995334e-06,4.298807924149221e-06,7.781019943000773e-07,1.5160239182939033e-05
1.259162128538071e-06,4.260810482547554e-06,7.744491432438579e-07,1.518441424316935e-05
1.2579929275851434e-06,4.221506739916882e-06,7.705968929018788e-07,1.5205077974054714e-05
1.257001534905432e-06,4.181066423604148e-06,7.665448732991779e-07,1.5221440023104612e-05
1.2562488084916198e-06,4.139641206540995e-06,7.622931967148207e-07,1.5232735677738784e-05
1.2557892435112271e-06,4.097349282792585e-06,7.578454611689849e-07,1.5238232351083298e-05
1.2556594605983619e-06,4.054275131151412e-06,7.532089293470363e-07,1.5237215803637274e-05
1.2558741688124632e-06,4.010474788784684e-06,7.483921031699072e-07,1.52289795831431e-05
1.256427741880565e-06,3.965984514815712e-06,7.43402647859906e-07,1.52128411149323e-05
1.2572990301827619e-06,3.920843631099396e-06,7.382459866119731e-07,1.5188194685524606e-05
1.258455177747392e-06,3.8751366264179905e-06,7.329243962150136e-07,1.5154586943365295e-05
1.2598523476595924e-06,3.829027944192415e-06,7.274379107192556e-07,1.5111782509221396e-05
1.261437527868984e-06,3.7827555666563997e-06,7.217862310833241e-07,1.5059781969530841e-05
1.2631517280466127e-06,3.736587897873127e-06,7.159690242525189e-07,1.4998770906531271e-05
1.2649322313855464e-06,3.690780025165252e-06,7.099854513842127e-07,1.4929022127675372e-05
1.2667158195219012e-06,3.6455565637970423e-06,7.038353352879247e-07,1.4850811876514554e-05
1.2684416693789137e-06,3.601115125059837e-06,6.975204196036128e-07,1.4764412329295264e-05
1.2700506492830455e-06,3.5576266879209967e-06,6.910439306208857e-07,1.4670163778041876e-05
1.271485313776262e-06,3.515226884876993e-06,6.844098045811678e-07,1.456853997269162e-05
1.2726954058226264e-06,3.4740127282277978e-06,6.776233317701257e-07,1.4460124207579526e-05
1.2736448321923431e-06,3.434052056030735e-06,6.706940826672062e-07,1.4345527217025854e-05
1.274314544706445e-06,3.3953977873072886e-06,6.636397902304025e-07,1.4225342363569781e-05
1.2747001023577177e-06,3.3580980584031483e-06,6.564881162202246e-07,1.4100183882154983e-05
1.2748043388938602e-06,3.322197260752663e-06,6.492752416958427e-07,1.3970769025575643e-05
1.274628902691848e-06,3.2877270961100862e-06,6.420437685851239e-07,1.3837959092499769e-05
1.2741696024671286e-06,3.2546957946789737e-06,6.348416427912703e-07,1.3702706776504691e-05
1.2734149497212937e-06,3.2230852856683827e-06,6.277189645884565e-07,1.3565949177853904e-05
1.27234600620385e-06,3.1928568845325853e-06,6.207214926139092e-07,1.3428547329156038e-05
1.270939468745392e-06,3.1639616618616543e-06,6.138863406192104e-07,1.329133702870654e-05
1.2691741510734837e-06,3.1363501574669566e-06,6.072436774959707e-07,1.3155239447623842e-05
1.267036350305659e-06,3.109976753014653e-06,6.008216860125042e-07,1.3021311304238944e-05
1.2645203907162015e-06,3.084801807203508e-06,5.94649546633987e-07,1.2890685607527631e-05
1.2616253076988527e-06,3.0607958532173013e-06,5.887565354233671e-07,1.276444967830048e-05
1.2583506515977528e-06,3.037943021052017e-06,5.831712105688851e-07,1.2643537705098875e-05
1.2546924937210487e-06,3.016237124299491e-06,5.779227871519471e-07,1.2528694631430314e-05
1.2506405746711745e-06,2.9956679782990594e-06,5.730400713259792e-07,1.24204881872005e-05
1.246179067032606e-06,2.976206016964947e-06,5.685470569895955e-07,1.23193048916201e-05
1.241290173380526e-06,2.9577960322993803e-06,5.644616016120458e-07,1.2225335506092801e-05
1.2359565331007278e-06,2.9403592649040335e-06,5.607986014758259e-07,1.2138615606890676e-05
1.2301614696269844e-06,2.923796274020413e-06,5.575715751811545e-07,1.2059166756496538e-05
1.223888622874503e-06,2.9079899882150397e-06,5.547922492540515e-07,1.1987186074443753e-05
1.2171220252535065e-06,2.8928147082239962e-06,5.524743555808272e-07,1.1923125051218742e-05
1.209848100133734e-06,2.8781545705990365e-06,5.506395351900589e-07,1.1867581920754608e-05
1.2020595813706088e-06,2.8639271117043824e-06,5.493165951890068e-07,1.1821136319488139e-05
1.193758340233207e-06,2.8501020354249627e-06,5.485341694494315e-07,1.178430423329637e-05
1.1849546284185237e-06,2.83670594541575e-06,5.483133683312437e-07,1.1757671307779215e-05
1.1756641378888908e-06,2.823806610013354e-06,5.486633235416444e-07,1.1742065712394009e-05
1.1659077776921863e-06,2.8114809590115503e-06,5.495802945742014e-07,1.1738567466613906e-05
1.1557167753307528e-06,2.799787823761501e-06,5.510510333576595e-07,1.1748360255866412e-05
1.1451388516416944e-06,2.788761388339609e-06,5.530583318483354e-07,1.1772576096420292e-05
1.134238913568826e-06,2.7784175154698607e-06,5.55585056099966e-07,1.1812187936484402e-05
1.1230926279176392e-06,2.7687599074529314e-06,5.586156848496127e-07,1.1867923755640789e-05
1.1117772208523405e-06,2.7597823076048985e-06,5.621357726198236e-07,1.194019071175457e-05
1.1003644791501574e-06,2.751466329918921e-06,5.661297224146721e-07,1.2029022651880672e-05
1.0889172465675391e-06,2.7437763920837426e-06,5.705793513066171e-07,1.2134069446855169e-05
1.0774885463788806e-06,2.7366552617523997e-06,5.754636439004026e-07,1.225462690446982e-05
1.0661228905944357e-06,2.730024841659661e-06,5.80757004510109e-07,1.2389684161511232e-05
1.0548587976054371e-06,2.723795409135593e-06,5.864270323683765e-07,1.253797742563631e-05
1.0437308382265946e-06,2.7178794359755417e-06,5.924349460715063e-07,1.269806177242853e-05
1.032772994816822e-06,2.7122000956425644e-06,5.987383502666076e-07,1.2868395787194105e-05
1.0220263659314944e-06,2.7066880474129267e-06,6.052930604142839e-07,1.304741051089251e-05
1.0115464075690095e-06,2.7012737720916515e-06,6.12052325322984e-07,1.3233558983027353e-05
1.0014003453085389e-06,2.695890930469111e-06,6.189665057704193e-07,1.3425365368733348e-05
9.916564663787305e-07,2.690490755006542e-06,6.259855667659489e-07,1.3621471776795975e-05
9.823804158515757e-07,2.6850472507104758e-06,6.330611823784653e-07,1.3820661730436544e-05
9.73645011649163e-07,2.6795443410746843e-06,6.401454930960293e-07,1.4021848765689715e-05
9.655400804959065e-07,2.67396550404373e-06,6.471886676580172e-07,1.4224044676060885e-05
9.58171580533333e-07,2.668301980993789e-06,6.541382854451164e-07,1.4426331304372e-05
9.51655030234832e-07,2.6625648254626116e-06,6.609405042591512e-07,1.4627829447847312e-05
9.461079883434715e-07,2.656782284068594e-06,6.675413390328711e-07,1.4827643569393607e-05
9.416412912940264e-07,2.6509835480556883e-06,6.738870340713554e-07,1.502480150957488e-05
9.383516702455559e-07,2.6451806333759493e-06,6.799239818941828e-07,1.5218236578867654e-05
9.363169129428968e-07,2.6393597875657083e-06,6.855993157863204e-07,1.5406838358799013e-05
9.355924067434877e-07,2.633488703075686e-06,6.908624546522191e-07,1.5589555904022958e-05
9.362123828683106e-07,2.627536414742057e-06,6.956675186672565e-07,1.5765481552549012e-05
9.381966147490709e-07,2.6214915538202332e-06,6.999765661720271e-07,1.593384822667489e-05
9.4155517028066e-07,2.6153644066416358e-06,7.037612505233907e-07,1.6093971004611372e-05
9.462857882334236e-07,2.609174048248213e-06,7.070000294744431e-07,1.624519937057041e-05
9.523678423687763e-07,2.60293305192438e-06,7.096736336237627e-07,1.6386886848710322e-05
9.597614045602128e-07,2.5966377062537563e-06,7.117639003790575e-07,1.6518382480237867e-05
9.684122515271605e-07,2.5902658439657377e-06,7.132553456854647e-07,1.6639059991554636e-05
9.782556558841349e-07,2.5837804368343045e-06,7.141363288119493e-07,1.6748337137983556e-05
9.892177252090941e-07,2.577134631623003e-06,7.143993370531884e-07,1.684565620580431e-05
1.0012181855723798e-06,2.570276955122573e-06,7.140402980715866e-07,1.6930502983275932e-05
1.0141749025025342e-06,2.5631541703766568e-06,7.130574664570743e-07,1.700251675594551e-05
1.0280095960823731e-06,2.5557079908353103e-06,7.114513667589958e-07,1.7061614745010208e-05
1.042652929298056e-06,2.547869930839048e-06,7.092256417486729e-07,1.7108017983166235e-05
1.058043407889135e-06,2.539563542808308e-06,7.063880336799188e-07,1.7142163988178393e-05
1.074118295426887e-06,2.530716245622664e-06,7.029515059157278e-07,1.7164584018851126e-05
1.0908029065579406e-06,2.5212715196362048e-06,6.98934774205629e-07,1.7175797388851943e-05
1.1080064213547358e-06,2.511190083337513e-06,6.943611825354624e-07,1.7176234630016702e-05
1.1256286257470465e-06,2.5004400500013057e-06,6.892576872674141e-07,1.7166225517939926e-05
1.1435748752337023e-06,2.488987988593827e-06,6.836567566602104e-07,1.7146063043896724e-05
1.1617675952461576e-06,2.476798061108414e-06,6.776001808964509e-07,1.7116060407054552e-05
1.1801449299654108e-06,2.46383399571047e-06,6.711413626675308e-07,1.7076538815218128e-05
1.1986503619771593e-06,2.450061481505315e-06,6.643434931955507e-07,1.702784140295783e-05
1.217222613608344e-06,2.435453241277499e-06,6.57274356019368e-07,1.6970460622269922e-05
1.2357919968481585e-06,2.4199926614658267e-06,6.500027120786535e-07,1.6905135076903698e-05
1.2542838022120743e-06,2.403676207918732e-06,6.425986866734532e-07,1.683275704892992e-05
1.272623583973336e-06,2.3865229931276595e-06,6.351349936007656e-07,1.6754199884015758e-05
1.2907403726665405e-06,2.368587043834699e-06,6.276855103665879e-07,1.667027289621286e-05
1.3085665816804682e-06,2.349956331459686e-06,6.203205824862665e-07,1.6581864052708952e-05
1.3260341139838483e-06,2.3307366762898628e-06,6.131021476869443e-07,1.6490146454230412e-05
1.3430704540379946e-06,2.31103476950101e-06,6.060829867447574e-07,1.6396659748700726e-05
1.3595979296174143e-06,2.2909503752777318e-06,5.993107882549132e-07,1.6303226740150838e-05
1.3755360371028744e-06,2.270574484542521e-06,5.928325307491892e-07,1.6211802180426934e-05
1.3908086494349442e-06,2.249986890975634e-06,5.866947340514236e-07,1.6124322578676732e-05
1.4053516545970944e-06,2.229256817187497e-06,5.809409210881962e-07,1.6042590014869007e-05
1.4191112922859115e-06,2.208452655407145e-06,5.756089403211107e-07,1.5968196919946404e-05
1.4320360617590566e-06,2.18765100569637e-06,5.707283675188815e-07,1.5902464384633088e-05
1.444071930268583e-06,2.166932209128865e-06,5.663202820081336e-07,1.58463896727051e-05
1.4551626458397294e-06,2.1463685298758642e-06,5.624025390286961e-07,1.5800624949978585e-05
1.465254042091986e-06,2.1260186223159586e-06,5.589959711961499e-07,1.5765486277923316e-05
1.4743010470109438e-06,2.1059353920549742e-06,5.561224775267749e-07,1.5740975194224915e-05
1.4822719438084724e-06,2.0861901141650587e-06,5.537966385320604e-07,1.572680482423384e-05
1.4891455252928787e-06,2.066902433683829e-06,5.520215235940009e-07,1.5722434589002222e-05
1.494903879070748e-06,2.048246473704527e-06,5.50791651368556e-07,1.5727124122113057e-05
1.4995266435872695e-06,2.03042101880984e-06,5.500966367985876e-07,1.574000959094475e-05
1.5029891277909059e-06,2.0136195832693955e-06,5.499218630008999e-07,1.5760186939118832e-05
1.5052635294604176e-06,1.9980305107614315e-06,5.502502744252676e-07,1.578677422737859e-05
1.5063228115311813e-06,1.983847494611714e-06,5.510691321859222e-07,1.5818946972996014e-05
1.5061466426747808e-06,1.971266699250742e-06,5.523765326212275e-07,1.5855970379019753e-05
1.5047277269542162e-06,1.9604710180643434e-06,5.541788234409577e-07,1.589723034792614e-05
1.5020759287070446e-06,1.9516090280189344e-06,5.564805637394492e-07,1.59422414358211e-05
1.4982161683044873e-06,1.9447811790216256e-06,5.592772539753407e-07,1.5990635651447542e-05
1.4931803790016638e-06,1.940040846440075e-06,5.625544103147853e-07,1.6042146301326478e-05
1.4870019496710143e-06,1.9374023897809813e-06,5.662886092638385e-07,1.6096578105425252e-05
1.4797169298122715e-06,1.9368539651315758e-06,5.704480995653953e-07,1.6153747167613667e-05
1.471365277818448e-06,1.9383778977223333e-06,5.749950947767692e-07,1.6213405677776706e-05
1.4619879714332688e-06,1.9419654949815627e-06,5.798907699485664e-07,1.627521043065525e-05
1.451624156549403e-06,1.94761478628984e-06,5.851000215946991e-07,1.633875352611186e-05
1.440310206443579e-06,1.9553169962817392e-06,5.905931771794429e-07,1.640358675529712e-05
1.4280790052862958e-06,1.965042254188261e-06,5.963445566668175e-07,1.6469203397135046e-05
1.4149619566918648e-06,1.976734593578914e-06,6.023290126452021e-07,1.653501391142929e-05
1.4009960796788578e-06,1.9903181710382043e-06,6.085184847469644e-07,1.6600333482781778e-05
1.386230582940787e-06,2.005703975921376e-06,6.148813256314562e-07,1.6664385162727106e-05
1.3707270452834357e-06,2.0227916169143496e-06,6.213854846521656e-07,1.6726337333766737e-05
1.3545556805454097e-06,2.04146906889867e-06,6.280026431480816e-07,1.6785365528256398e-05
1.3377909135607715e-06,2.061611247077649e-06,6.347092637391963e-07,1.6840706770161488e-05
1.3205057754677256e-06,2.083086616861513e-06,6.414850346061978e-07,1.6891685309060888e-05
1.3027684782938923e-06,2.105780860924947e-06,6.483120173906896e-07,1.6937703722051153e-05
1.2846453240990989e-06,2.1296208426027405e-06,6.55174394780285e-07,1.6978219769481712e-05
1.266205229795788e-06,2.154577620699694e-06,6.620567305315064e-07,1.7012722997978546e-05
1.2475193313902205e-06,2.1806539358329498e-06,6.689415883000771e-07,1.7040699709694525e-05
1.228657199141555e-06,2.2078737461476738e-06,6.758087490574338e-07,1.7061608834421014e-05
1.2096836452423644e-06,2.236278676159757e-06,6.826361048766547e-07,1.707491922232432e-05
1.1906571122801652e-06,2.265924260019045e-06,6.893998603965661e-07,1.7080187890950522e-05
1.171629693577996e-06,2.296870836069022e-06,6.960727585795507e-07,1.7077100183152053e-05
1.1526486700853635e-06,2.329167378481557e-06,7.026228258961473e-07,1.7065453897870532e-05
1.1337590315907508e-06,2.3628325384899e-06,7.09016456185844e-07,1.7045119665919342e-05
1.1150045115081438e-06,2.397851787022719e-06,7.15225645825514e-07,1.7016002826190844e-05
1.0964246417558114e-06,2.434196844838984e-06,7.212324156935755e-07,1.697808226694034e-05
1.078050515201577e-06,2.471838527346252e-06,7.270258683085335e-07,1.6931575044554052e-05
1.0599032902821713e-06,2.51073343454774e-06,7.325978174485684e-07,1.687706736997185e-05
1.0419957252352145e-06,2.550807060199466e-06,7.37943196213014e-07,1.6815449600014988e-05
1.0243355716472984e-06,2.5919606166868973e-06,7.430631463903394e-07,1.674777096915436e-05
1.0069303936256383e-06,2.634098859006162e-06,7.479666601449219e-07,1.667515320124833e-05
9.89795003918052e-07,2.6771589431558937e-06,7.526692980897885e-07,1.6598726561029652e-05
9.729616211102831e-07,2.7211221921005323e-06,7.571884636913811e-07,1.651957561814245e-05
9.564878800743588e-07,2.765997710600713e-06,7.615377496049868e-07,1.643872011064748e-05
9.404570638423534e-07,2.811784507180315e-06,7.657253893417638e-07,1.6357105222533282e-05
9.249685045487446e-07,2.8584396246470266e-06,7.697560197147372e-07,1.62755866432319e-05
9.101219840365044e-07,2.9058742969209712e-06,7.736310416145571e-07,1.6194916369250573e-05
8.960074991111221e-07,2.953974525076256e-06,7.77349562561404e-07,1.6115725217046976e-05
8.827048238310545e-07,3.0026309383679177e-06,7.80913377691711e-07,1.603849493752941e-05
8.702831775619116e-07,3.0517645387334882e-06,7.843303143552132e-07,1.5963521096537204e-05
8.587976951763246e-07,3.101336342845722e-06,7.876113689080369e-07,1.589088699932465e-05
8.48290334946733e-07,3.151335061117223e-06,7.907674542477098e-07,1.5820471513863487e-05
8.387959222057823e-07,3.201747455281905e-06,7.938084739344733e-07,1.5751990550341704e-05
8.303451463075356e-07,3.252525941947073e-06,7.96740586584083e-07,1.56850465958969e-05
8.229602978449307e-07,3.303570682641148e-06,7.99563194860144e-07,1.561916054296127e-05
8.166497808214398e-07,3.3547316742167614e-06,8.022699733489566e-07,1.5553793761122655e-05
8.114085405130833e-07,3.4058218188291493e-06,8.048532333769362e-07,1.5488375610776065e-05
8.072223902644864e-07,3.4566293786083985e-06,8.073093184723275e-07,1.5422323094245727e-05
8.04071713642932e-07,3.506926382601465e-06,8.096427432388019e-07,1.5355046809663518e-05
8.019341288599262e-07,3.556481758889828e-06,8.118658802839257e-07,1.5285960145331927e-05
8.007847849987904e-07,3.6050868360189897e-06,8.139937207862871e-07,1.5214495493061935e-05
8.005940416905531e-07,3.6525784798440217e-06,8.160379337050121e-07,1.5140118639016479e-05
8.013266854898028e-07,3.698837818772351e-06,8.180033937798005e-07,1.5062350078696632e-05
