7.316276441111842e-07,2.85508454406087e-07,2.418203857842101e-07,1.7108111351272854e-05
7.31628963801036e-07,2.841672191831921e-07,2.428094522723315e-07,1.7195881051570412e-05
7.312056154568237e-07,2.8310222803553125e-07,2.438608053006755e-07,1.727449255512229e-05
7.303673930456064e-07,2.8232059860700695e-07,2.4496997675136446e-07,1.7343674144787015e-05
7.291266116705356e-07,2.8182442104421895e-07,2.46131577909941e-07,1.7403100479695608e-05
7.274941202434771e-07,2.816114432628897e-07,2.4733887346999807e-07,1.7452408376555315e-05
7.254782662946667e-07,2.8167516828240646e-07,2.4858447578147704e-07,1.7491244930161726e-05
7.230861780385836e-07,2.820055882169467e-07,2.4986196239337905e-07,1.7519432183703297e-05
7.203249663302658e-07,2.8259089194369433e-07,2.511663849304745e-07,1.753717812284584e-05
7.172007389039868e-07,2.834181987605289e-07,2.5249365735259386e-07,1.7545095080782673e-05
7.13718067447648e-07,2.844732779470665e-07,2.538396712949827e-07,1.754400987844036e-05
7.098817711315617e-07,2.8574024435480553e-07,2.551992521796549e-07,1.753485407465907e-05
7.056978378470882e-07,2.872009389329917e-07,2.5656569554560926e-07,1.7518717103284313e-05
7.011720065832425e-07,2.8883479932381764e-07,2.579319032446468e-07,1.749685457557253e-05
6.963083302987846e-07,2.906203644340205e-07,2.59292919309308e-07,1.7470593734352733e-05
6.911091209416126e-07,2.925368248569573e-07,2.6064770280186e-07,1.7441236582277458e-05
6.855764218773703e-07,2.945638516384646e-07,2.619977756959346e-07,1.7409994263159758e-05
6.797144342986633e-07,2.966808512873518e-07,2.633439884474085e-07,1.737793921398085e-05
6.735308244498681e-07,2.988674045650955e-07,2.646845934783809e-07,1.734596243627819e-05
6.670360694314194e-07,3.0110472719030015e-07,2.6601573740444806e-07,1.7314737538441494e-05
6.602420290434111e-07,3.033766474459416e-07,2.6733377327780126e-07,1.7284703848286616e-05
6.531607331229958e-07,3.056692817208508e-07,2.686372543665267e-07,1.725606377768391e-05
6.458041810154216e-07,3.0797004226542764e-07,2.6992704815417034e-07,1.7228784001647225e-05
6.381851857991005e-07,3.102667019191461e-07,2.7120625927595485e-07,1.720260787383868e-05
6.303177346113962e-07,3.1254702811186626e-07,2.7248102128981e-07,1.7177091845527242e-05
6.222160268111224e-07,3.147994963961627e-07,2.737601925964477e-07,1.715165704717724e-05
6.138934031150674e-07,3.1701456361477237e-07,2.750528319711848e-07,1.7125638452252508e-05
6.053621904991885e-07,3.1918490114780896e-07,2.7636545806925396e-07,1.709833809366593e-05
5.966341755111801e-07,3.21304271579205e-07,2.777012087773999e-07,1.7069086569244776e-05
5.877213242849983e-07,3.233662423760952e-07,2.790605662254933e-07,1.7037277758121397e-05
5.786363261156949e-07,3.253633633498468e-07,2.804421780424119e-07,1.7002350946657193e-05
5.693929807180044e-07,3.2728749965332964e-07,2.818426974728077e-07,1.6963745766982426e-05
5.600073283207714e-07,3.291309296046789e-07,2.832560336510914e-07,1.692086741414283e-05
5.504995654843712e-07,3.308864854724835e-07,2.8467345732167713e-07,1.6873078095051875e-05
5.408954962870888e-07,3.3254782627315807e-07,2.860845664414998e-07,1.6819715826178886e-05
5.312269061066583e-07,3.341112475112536e-07,2.874777742374459e-07,1.6760129241411442e-05
5.215310523169285e-07,3.3557654688750853e-07,2.8884001348387787e-07,1.669370114256763e-05
5.118487192148304e-07,3.369453668248605e-07,2.901569181721886e-07,1.6619848690402967e-05
5.022210929141404e-07,3.3821952939776784e-07,2.9141452844903324e-07,1.6538024404244792e-05
4.926874702087945e-07,3.3940169265301553e-07,2.9260156299911106e-07,1.6447748144642686e-05
4.832850263983864e-07,3.4049719815604444e-07,2.9371081474629197e-07,1.6348684865352245e-05
4.7404961988763895e-07,3.41514660500684e-07,2.947393269385669e-07,1.6240741004159485e-05
4.650150818797004e-07,3.424655335463379e-07,2.956869076770443e-07,1.6124097903823734e-05
4.5621099301821654e-07,3.433638317940574e-07,2.965533808177824e-07,1.599914092656051e-05
4.476621925913029e-07,3.442245458071353e-07,2.9733673470972186e-07,1.5866353796395237e-05
4.393900287418602e-07,3.4506058062840234e-07,2.980333494943993e-07,1.5726252450802855e-05
4.314124439089936e-07,3.4588099750771514e-07,2.9863929511320825e-07,1.5579339787803435e-05
4.2374319113288776e-07,3.466911143975338e-07,2.991517007021484e-07,1.5426073520424298e-05
4.163921248243344e-07,3.474929013057496e-07,2.995700736159678e-07,1.5266911233020693e-05
4.0936645049334953e-07,3.482856842844691e-07,2.9989699610450697e-07,1.510240963582361e-05
4.026715854778515e-07,3.490675086004677e-07,3.001376514834077e-07,1.49332591489514e-05
3.963106815265511e-07,3.4983586229525307e-07,3.0029844762609985e-07,1.4760239410575302e-05
3.9028420895014157e-07,3.505870895360908e-07,3.003850940600784e-07,1.4584169123696475e-05
3.845925322464551e-07,3.513155377582284e-07,3.0040113858897373e-07,1.4405866843206033e-05
3.7924050142138107e-07,3.520136489914712e-07,3.00348104293074e-07,1.4226107461803034e-05
3.742388286686361e-07,3.526741051157261e-07,3.002262700964247e-07,1.4045580267122569e-05
3.6960068792683883e-07,3.532930394164748e-07,3.000347360045463e-07,1.3864867601605588e-05
3.6533820377210045e-07,3.538710096694659e-07,2.997715043781604e-07,1.368447677257704e-05
3.61461772171816e-07,3.544113996759673e-07,2.994341504649028e-07,1.3504921330258625e-05
3.579795135240278e-07,3.549188694291779e-07,2.990204508633136e-07,1.3326775453452996e-05
3.548951034320075e-07,3.5539843995116074e-07,2.9852955266528337e-07,1.3150641351345133e-05
3.522067267038772e-07,3.5585444655485463e-07,2.979640262536201e-07,1.2977063525234712e-05
3.499083856952016e-07,3.562895045060711e-07,2.9733049108163466e-07,1.2806492146195635e-05
3.4799081821134164e-07,3.5670385673379885e-07,2.966376739286305e-07,1.2639349888181932e-05
3.464410334390296e-07,3.570951215196197e-07,2.958940516825728e-07,1.2476113682395705e-05
3.452424498784336e-07,3.574584407787669e-07,2.951067373550145e-07,1.2317314870193655e-05
3.4437644443184025e-07,3.5778709616376866e-07,2.942813879267945e-07,1.2163482306027693e-05
3.438245937427496e-07,3.580733823533925e-07,2.9342251401938684e-07,1.2015074957635596e-05
3.435704351096032e-07,3.583100669407197e-07,2.9253374969069447e-07,1.1872423990415096e-05
3.435995541412126e-07,3.584925728540315e-07,2.9161822619481073e-07,1.1735704878769804e-05
3.438983594383473e-07,3.5862017594299296e-07,2.906797532989939e-07,1.1604937913962371e-05
3.444529543429028e-07,3.586947179339673e-07,2.897242067835946e-07,1.1479999265847625e-05
3.4524932902897297e-07,3.5871809238461573e-07,2.887591340695752e-07,1.1360634323334254e-05
3.462753198946821e-07,3.5869104637349635e-07,2.8779218200322e-07,1.1246477217452645e-05
3.475228332630979e-07,3.586132993801936e-07,2.8683077864705085e-07,1.1137078423445582e-05
3.489888222557757e-07,3.584834358143433e-07,2.858830772531834e-07,1.1031929240333155e-05
3.506752098358345e-07,3.5829890297300243e-07,2.849594412313128e-07,1.0930478492547881e-05
3.525877827521529e-07,3.5805636820484573e-07,2.840736435249749e-07,1.0832153844769264e-05
3.5473470423223866e-07,3.577518093534963e-07,2.8324156328371945e-07,1.073639614454422e-05
3.571259880004522e-07,3.5738094284903826e-07,2.8247755712391785e-07,1.0642704785677983e-05
3.597724205609291e-07,3.569399681606097e-07,2.8179167100469644e-07,1.0550671241256172e-05
3.626818400326307e-07,3.5642566758005216e-07,2.811889205444009e-07,1.0459963154315747e-05
3.6585531498809857e-07,3.5583530911845297e-07,2.806697225397757e-07,1.037026729531212e-05
3.6928731309992547e-07,3.551664596729041e-07,2.802311088547143e-07,1.0281244981786527e-05
3.7296876893412743e-07,3.544162991940608e-07,2.798681688918971e-07,1.0192525046950079e-05
3.7688821760801775e-07,3.535817724523426e-07,2.79574969329593e-07,1.0103717087302762e-05
3.8103042087978724e-07,3.526611059571811e-07,2.79344805694902e-07,1.0014426547672474e-05
3.8537620911949024e-07,3.516548834938467e-07,2.791696991152813e-07,9.924270316271491e-06
3.899043091618018e-07,3.505658876655189e-07,2.790399724258101e-07,9.832898056801218e-06
3.9459366244886117e-07,3.4939799354895604e-07,2.789451410517916e-07,9.740020859997167e-06
3.9942559510678103e-07,3.481542862008064e-07,2.7887593298211324e-07,9.64544264736167e-06
4.0438473156083606e-07,3.4683599592109537e-07,2.7882638434988647e-07,9.549075365318706e-06
4.0945853281478893e-07,3.454435243338656e-07,2.7879485442314505e-07,9.450916999991563e-06
4.1463650852389453e-07,3.439781409229286e-07,2.787833381697684e-07,9.351010485187487e-06
4.199091055433403e-07,3.424421151501432e-07,2.787959574673886e-07,9.249427042948379e-06
4.252667781261045e-07,3.408371745966633e-07,2.7883845034843464e-07,9.146284755603244e-06
4.3070026769515e-07,3.391633274445745e-07,2.789188847349433e-07,9.041778429986447e-06
4.362009180048368e-07,3.3741911902537387e-07,2.7904742082712324e-07,8.93618656678024e-06
4.417589248199965e-07,3.3560229489894307e-07,2.7923389565542487e-07,8.829832013309868e-06
4.4736006399015893e-07,3.337101928305443e-07,2.794849437628609e-07,8.723021430242003e-06
4.5298439988138934e-07,3.3174016734723713e-07,2.798030584639592e-07,8.616008341833977e-06
4.586092534690219e-07,3.296897008593033e-07,2.8018782037711945e-07,8.508986433879311e-06
4.64213983513752e-07,3.2755633066675054e-07,2.806372963255981e-07,8.402116896409943e-06
4.697832408520515e-07,3.253386039745565e-07,2.8114826366057574e-07,8.295593563101159e-06
4.7530846981350203e-07,3.230374949116776e-07,2.817155759332859e-07,8.189696059404883e-06
4.807874628498514e-07,3.206568528585741e-07,2.8233128902870217e-07,8.084799125002878e-06
4.862209421589655e-07,3.182034520728003e-07,2.8298442885369283e-07,7.981383499450748e-06
4.91607554248296e-07,3.156869517063988e-07,2.836622307666043e-07,7.880071287702145e-06
4.969405781553925e-07,3.1311922138145924e-07,2.84352114835178e-07,7.781645003263277e-06
5.02207764282243e-07,3.1051377117214194e-07,2.850425436061414e-07,7.687012628551661e-06
5.073922236786305e-07,3.078855064482388e-07,2.857229540082181e-07,7.597117145338661e-06
5.124728022817302e-07,3.0525015305043566e-07,2.863843664221796e-07,7.512823306495192e-06
5.174251237736624e-07,3.0262344948054764e-07,2.870199889651244e-07,7.434833943405949e-06
5.222228114994745e-07,3.000202249776989e-07,2.876248774995461e-07,7.363674872975893e-06
5.268372404028619e-07,2.974536768725683e-07,2.8819503303596537e-07,7.299731138061256e-06
5.312373501282905e-07,2.949352210669292e-07,2.887260353811416e-07,7.243275759442067e-06
5.353915718874171e-07,2.92474437101668e-07,2.892119043050593e-07,7.194474284056148e-06
5.392710730154457e-07,2.900787764533875e-07,2.8964502517035284e-07,7.1533898172318725e-06
5.428517068376461e-07,2.877533206732609e-07,2.9001691043419704e-07,7.120002813158411e-06
5.461142656233877e-07,2.855009427963484e-07,2.903188156934016e-07,7.094286285146182e-06
5.490465429082603e-07,2.833233133362191e-07,2.905416178626269e-07,7.076337174824437e-06
5.516470845089104e-07,2.812230351129416e-07,2.906757806511891e-07,7.066440080276738e-06
5.539249143413871e-07,2.792061001285071e-07,2.9071224797898325e-07,7.065031536061967e-06
5.558941984949253e-07,2.772829316682261e-07,2.906439942292078e-07,7.072667817729712e-06
5.575690213419365e-07,2.754676310441575e-07,2.9046713882312986e-07,7.0899857277474484e-06
5.589612312402528e-07,2.737767053601248e-07,2.901809840860715e-07,7.11760692841534e-06
5.600797150353213e-07,2.722275233002273e-07,2.897881301448949e-07,7.15603675681118e-06
5.6092969964553e-07,2.708359041299283e-07,2.892958768519896e-07,7.205599773165163e-06
5.615131150792753e-07,2.696135923301733e-07,2.887178622006088e-07,7.2664051704045865e-06
5.618297229581949e-07,2.6856695898569267e-07,2.880736593170157e-07,7.338335007663478e-06
5.618774422984679e-07,2.6769713509384186e-07,2.873862559578132e-07,7.4210532242550735e-06
5.616525624009919e-07,2.670010636906747e-07,2.8667922503287183e-07,7.514023527099356e-06
5.611506859445402e-07,2.664729904565606e-07,2.859744466225866e-07,7.61652610320712e-06
5.603673464931807e-07,2.661053958421179e-07,2.8529099226453705e-07,7.727679360514102e-06
5.592978744620174e-07,2.658887939594482e-07,2.8464543303547724e-07,7.846476762243819e-06
5.579375155101651e-07,2.658113582811501e-07,2.8405297323684766e-07,7.97184508457706e-06
5.562829618636457e-07,2.658590399988976e-07,2.835287098793064e-07,8.10271779567733e-06
5.543350743280711e-07,2.660159214660384e-07,2.830875537344445e-07,8.238090464939133e-06
5.521005052180745e-07,2.662650811598353e-07,2.8274217612564337e-07,8.377020480602651e-06
5.495910606251965e-07,2.665903756866018e-07,2.8250076102724683e-07,8.518579536515893e-06
5.468218276006851e-07,2.6697835971170324e-07,2.8236621446515866e-07,8.661810822943493e-06
5.438087549699593e-07,2.67419436074028e-07,2.823366846431659e-07,8.805718875538281e-06
5.405673600847403e-07,2.679080943263891e-07,2.824069412699994e-07,8.949274280310624e-06
5.371146776536476e-07,2.684419389048209e-07,2.825704406650763e-07,9.091418951327569e-06
5.334718103754597e-07,2.690198021010566e-07,2.828212427307362e-07,9.231080976885592e-06
5.296627402822423e-07,2.6963992764781463e-07,2.831550117667689e-07,9.367202713895993e-06
5.257115981584366e-07,2.702987160197458e-07,2.8356963237843297e-07,9.498775414692333e-06
5.216430075462297e-07,2.7099069028470586e-07,2.840661712948609e-07,9.624872771297992e-06
5.174840453372929e-07,2.717103046191926e-07,2.846489734040321e-07,9.744665936070468e-06
5.132642888267471e-07,2.724541723289269e-07,2.8532371316374665e-07,9.85741002163259e-06
5.090142264001697e-07,2.7322125730390374e-07,2.8609530955727217e-07,9.962419623166949e-06
5.047638217626178e-07,2.740114205865672e-07,2.8696703741361533e-07,1.0059051724469163e-05
5.005424508568185e-07,2.7482444005478877e-07,2.879402168700205e-07,1.0146709557718012e-05
4.963811951089018e-07,2.756596846751226e-07,2.890146820362105e-07,1.0224883454062436e-05
4.923171588809585e-07,2.7651557671427645e-07,2.901890221571759e-07,1.0293202538323115e-05
4.883973083687847e-07,2.7738962376800666e-07,2.914593064509195e-07,1.0351448648060266e-05
4.84678533118748e-07,2.782811911201015e-07,2.9281789719298496e-07,1.0399540544803506e-05
4.81223025160436e-07,2.791953354585783e-07,2.942539643004776e-07,1.0437507422882773e-05
4.780920180905922e-07,2.801424227821565e-07,2.957548056640486e-07,1.046544877428508e-05
4.753412485932068e-07,2.811334439131545e-07,2.9730672661262906e-07,1.0483523788380087e-05
4.730180109829548e-07,2.82176219042251e-07,2.988955525616336e-07,1.04919859466127e-05
4.711586217540289e-07,2.8327496396734876e-07,3.0050720287869445e-07,1.0491185024208438e-05
4.6978716928982384e-07,2.8443136853566533e-07,3.0212844547219354e-07,1.0481506635074893e-05
4.6891601044956615e-07,2.856451635360992e-07,3.0374741693681177e-07,1.0463310427548856e-05
4.6854680646412117e-07,2.869143817298396e-07,3.053543251624434e-07,1.0436917652068766e-05
4.686719312540586e-07,2.882361349646024e-07,3.06942790224388e-07,1.0402674460384443e-05
4.6927720258684337e-07,2.8960785966421854e-07,3.085092965796195e-07,1.0361082836510178e-05
4.703451418290574e-07,2.910287884937189e-07,3.100501650484716e-07,1.031290339648574e-05
4.718556956338763e-07,2.9250068448663827e-07,3.115599727705239e-07,1.0259126076909603e-05
4.73783877859634e-07,2.9402679085613214e-07,3.130333340379571e-07,1.0200830656822874e-05
4.760985756053115e-07,2.956103619943934e-07,3.144674631000683e-07,1.0139042835878447e-05
4.78765375669585e-07,2.9725447246331e-07,3.1586185052289076e-07,1.0074658121065227e-05
4.817507795895696e-07,2.989621353133882e-07,3.172152709241134e-07,1.0008440689444881e-05
4.85023692035974e-07,3.007357622746963e-07,3.185238834004494e-07,9.941054498992826e-06
4.885537901933443e-07,3.0257653925393057e-07,3.197816067459701e-07,9.873099246873981e-06
4.923093926983357e-07,3.0448350490557186e-07,3.2098088613444556e-07,9.80519978321516e-06
4.962568588630362e-07,3.064521120164719e-07,3.221129104194063e-07,9.738167062059494e-06
5.003624739320622e-07,3.0847373438824073e-07,3.2316796259769013e-07,9.673095448876019e-06
5.045954288590243e-07,3.1053689014035137e-07,3.2413652412249365e-07,9.611276361762234e-06
5.089286250228221e-07,3.126283519614657e-07,3.250103705695416e-07,9.554008097441014e-06
5.133374302933715e-07,3.1473308030770056e-07,3.257828392543491e-07,9.502438265489456e-06
5.177989244238547e-07,3.1683462097995273e-07,3.2644903995318277e-07,9.457520814075346e-06
5.222913750797999e-07,3.1891621213413293e-07,3.270058950893698e-07,9.420163903941215e-06
5.267925523146073e-07,3.209611136075796e-07,3.2745125817007627e-07,9.391501509357477e-06
5.312783542105373e-07,3.229523025122284e-07,3.277833173196113e-07,9.373028674818743e-06
5.357244793425811e-07,3.248728736362577e-07,3.280008220189661e-07,9.36648249127964e-06
5.401101640396705e-07,3.267079399657564e-07,3.281031614974269e-07,9.37362983905337e-06
5.444205782318866e-07,3.2844691235271873e-07,3.280900225043357e-07,9.396112837721276e-06
5.486479648338272e-07,3.3008389964104534e-07,3.279608142067865e-07,9.435353236341589e-06
5.527925569524336e-07,3.316164841472869e-07,3.277143100812264e-07,9.492489620408333e-06
5.568606241293697e-07,3.33045340243094e-07,3.273490105982006e-07,9.568346197119436e-06
5.608587074719184e-07,3.3437396683730185e-07,3.2686343324258236e-07,9.663430728393367e-06
5.647884597940926e-07,3.356065235492851e-07,3.2625552719766497e-07,9.777957640845352e-06
5.686451532884424e-07,3.367460702141828e-07,3.2552213801470454e-07,9.91187576634371e-06
5.724182842558896e-07,3.377944844485545e-07,3.246590716872073e-07,1.0064866696415159e-05
5.760925972599646e-07,3.387522586766166e-07,3.2366119644368647e-07,1.023632026885057e-05
5.7964883936106e-07,3.396187243459396e-07,3.225227018155992e-07,1.0425323491817624e-05
5.830638104534478e-07,3.40393055849662e-07,3.2123838683269263e-07,1.0630675065331617e-05
5.863105119284805e-07,3.41074190826777e-07,3.198058642260244e-07,1.0850928379344473e-05
5.893592666900015e-07,3.4166013292421925e-07,3.182265805479496e-07,1.108447124258596e-05
5.92180368745043e-07,3.421486203666693e-07,3.1650477001851286e-07,1.1329622825332616e-05
5.947479539404417e-07,3.425381573414596e-07,3.1464664678170986e-07,1.158470961804622e-05
5.970421800613838e-07,3.428276573865264e-07,3.126611224119829e-07,1.1848114646886086e-05
5.990472903709332e-07,3.43015352324138e-07,3.105608620920453e-07,1.2118316681471566e-05
6.007485777093761e-07,3.430981615321391e-07,3.083620908074746e-07,1.2393911948512365e-05
6.021333092307229e-07,3.430717447463251e-07,3.060822316284239e-07,1.267359503972757e-05
6.031937117917317e-07,3.42930910431618e-07,3.0373733842333534e-07,1.295609985693973e-05
6.039262051230868e-07,3.4267057030770477e-07,3.013420841047514e-07,1.3240129740275432e-05
6.043277434874395e-07,3.4228728772357825e-07,2.9891127328497945e-07,1.3524320017314712e-05
6.043937145047544e-07,3.4178038503016576e-07,2.964605667651663e-07,1.3807275247741507e-05
6.041176322879536e-07,3.411520395281818e-07,2.940064052666649e-07,1.4087656319311926e-05
6.03491356837301e-07,3.40406461117882e-07,2.9156555123838304e-07,1.4364221842123734e-05
6.025069426611975e-07,3.395486232899346e-07,2.891538200286693e-07,1.463579440622467e-05
6.011598616032099e-07,3.385835354122031e-07,2.8678452147435197e-07,1.4901218049778796e-05
5.994495713824489e-07,3.375158003990021e-07,2.844683576152118e-07,1.5159341988496472e-05
5.973766835658087e-07,3.363485743394064e-07,2.822159699575479e-07,1.5409023417010302e-05
5.949412175814949e-07,3.3508267888857693e-07,2.8004111864218977e-07,1.5649185990882328e-05
5.92143225408989e-07,3.3371678303257745e-07,2.77960002466823e-07,1.5878937739325006e-05
5.889838799289747e-07,3.3224844437836336e-07,2.759869201748132e-07,1.609764289858394e-05
5.854664532544342e-07,3.306758717751061e-07,2.7413154424107783e-07,1.6304895292993006e-05
5.815962608281754e-07,3.289994004595997e-07,2.723997318031727e-07,1.650045179929458e-05
5.773793764615968e-07,3.272208441163221e-07,2.7079518781341694e-07,1.66841507004638e-05
5.728222489967008e-07,3.2534158108907853e-07,2.69319801106656e-07,1.6855813951095327e-05
5.679331742697286e-07,3.2336174062827966e-07,2.6797295628635125e-07,1.701517933540801e-05
5.627240363303877e-07,3.212809026780125e-07,2.667511069450081e-07,1.7161892538729276e-05
5.572107906648932e-07,3.1909967494786574e-07,2.65648171580376e-07,1.7295526916774108e-05
5.51412358852194e-07,3.168207025912323e-07,2.64656416578984e-07,1.7415603060612517e-05
5.453487366565169e-07,3.144480551897787e-07,2.637676238542543e-07,1.7521616128658425e-05
5.390399230982213e-07,3.1198641104362477e-07,2.6297443677226236e-07,1.7613064614273447e-05
5.32505915880839e-07,3.0944110859826143e-07,2.622711054081788e-07,1.768946091212756e-05
5.257683125266901e-07,3.068181648880993e-07,2.616530367576821e-07,1.7750338918816813e-05
5.188565558413341e-07,3.041234945205383e-07,2.611159159998357e-07,1.779531714456446e-05
5.118169035610717e-07,3.013617595125887e-07,2.606557919108361e-07,1.7824211257098197e-05
5.04716065609999e-07,2.9853608348784514e-07,2.6026966930877533e-07,1.7837072815976514e-05
4.976378959802342e-07,2.956493622104104e-07,2.5995537830659016e-07,1.783412916034582e-05
4.906777847791821e-07,2.927061733590994e-07,2.597113285818833e-07,1.78157355087104e-05
4.839358161361062e-07,2.8971336296267326e-07,2.595360121371123e-07,1.7782357730104504e-05
4.775086068800029e-07,2.866788678486177e-07,2.59426467072092e-07,1.7734541146981727e-05
4.714817579493495e-07,2.8361039218742465e-07,2.593771258145897e-07,1.7672883968602648e-05
4.6592481666976243e-07,2.8051563015116055e-07,2.5938006463204477e-07,1.7598039584959862e-05
4.608897906770329e-07,2.7740390113457013e-07,2.594260901053445e-07,1.7510736361635282e-05
4.564123277178213e-07,2.742874665177877e-07,2.595062744823482e-07,1.7411808355277443e-05
4.5251374948951084e-07,2.711816127644712e-07,2.5961304621293807e-07,1.7302218772496248e-05
4.4920342610826046e-07,2.681042859997633e-07,2.5974053873121857e-07,1.7183025790063198e-05
4.464829474106353e-07,2.6507536610055045e-07,2.5988524827745263e-07,1.705529219400946e-05
4.4435209938287887e-07,2.621148803429702e-07,2.600464472640639e-07,1.6920030168928025e-05
4.428129152965089e-07,2.5924109951006514e-07,2.602252888842066e-07,1.67782411815491e-05
4.4187539678502226e-07,2.564694923596066e-07,2.6042402420506804e-07,1.663096226010344e-05
4.4157501636761493e-07,2.5381200217282355e-07,2.606471388209017e-07,1.6479207793333636e-05
4.419922566572897e-07,2.5127679934706857e-07,2.6090322808023855e-07,1.6323864450579613e-05
4.432528331443634e-07,2.488689308432555e-07,2.6120417065432853e-07,1.6165645165367404e-05
4.455107071803357e-07,2.465909668023065e-07,2.615614878920619e-07,1.600509279613036e-05
4.489284794930726e-07,2.444430290784123e-07,2.619837900644443e-07,1.584259884531903e-05
4.536602879440837e-07,2.4242317491378925e-07,2.624764437544174e-07,1.5678436742138346e-05
4.5983833914640523e-07,2.405286424610711e-07,2.630418349911795e-07,1.5512792760817146e-05
4.6756355266941136e-07,2.3875667189612194e-07,2.6368023300984484e-07,1.5345781312769344e-05
4.769010434673139e-07,2.3710435144982037e-07,2.6439134229418396e-07,1.5177471462754678e-05
4.878810327140055e-07,2.3556830311508125e-07,2.651758775824034e-07,1.5007978496303644e-05
5.005017261335548e-07,2.341450686437841e-07,2.660367790035063e-07,1.4837648684072309e-05
5.147309814742591e-07,2.3283305720733585e-07,2.6697969301326186e-07,1.46672439713602e-05
5.305086245159142e-07,2.3163497086939892e-07,2.680129273762219e-07,1.4497952321784763e-05
5.477520276479076e-07,2.3055791839394755e-07,2.691467030960967e-07,1.4331208086932004e-05
5.663634459824519e-07,2.296115791461305e-07,2.703915538016681e-07,1.4168529291912225e-05
5.862373596894563e-07,2.288071289408939e-07,2.717578876894257e-07,1.4011507347249966e-05
6.072701193864511e-07,2.2815626436457839e-07,2.7325883163102604e-07,1.386183620924108e-05
6.293707214094807e-07,2.2766890763583842e-07,2.749151383083364e-07,1.3721255029837453e-05
6.524648424337472e-07,2.273517008770454e-07,2.7675714880540337e-07,1.3591430738692931e-05
6.764898009138786e-07,2.272082086101057e-07,2.788202416700119e-07,1.3473859696397075e-05
7.013870053067589e-07,2.2723929380476303e-07,2.8113714629973093e-07,1.3369847032501515e-05
7.270968404663626e-07,2.2744375602018728e-07,2.8373344408928925e-07,1.3280533831831516e-05
7.535565343497359e-07,2.278192189052714e-07,2.866285884808514e-07,1.3206879030862895e-05
7.807008226705808e-07,2.2836234721224648e-07,2.898391793554895e-07,1.3149588159197685e-05
8.084629331795503e-07,2.290702095764635e-07,2.9337917819458754e-07,1.3109046316915926e-05
8.367715724898209e-07,2.2994370146507039e-07,2.9725701892281014e-07,1.3085293940095411e-05
8.655453140024417e-07,2.3098864197196488e-07,3.0147405358837444e-07,1.3078074521375779e-05
8.946901927549412e-07,2.322125645056475e-07,3.0602510863565697e-07,1.3086939629039908e-05
9.241008317048788e-07,2.3362136912048942e-07,3.108993528161174e-07,1.31113362193784e-05
9.536624600287857e-07,2.352179364564786e-07,3.160808675960113e-07,1.3150641551739052e-05
9.832551912730455e-07,2.370014103338523e-07,3.215485897135041e-07,1.3204191283138147e-05
1.0127602847640256e-06,2.389673645174675e-07,3.272763552695554e-07,1.3271315810205126e-05
1.0420635546104118e-06,2.4110929167799804e-07,3.3323366446386857e-07,1.335133211363027e-05
1.0710550834887734e-06,2.4341982009731067e-07,3.3938623860015867e-07,1.3443478325921594e-05
1.0996290989206464e-06,2.4589012624405906e-07,3.4569629080389967e-07,1.3546848063356235e-05
1.1276845467277157e-06,2.4850873138242807e-07,3.521232928305229e-07,1.3660402950006078e-05
1.1551241011053269e-06,2.512619582817412e-07,3.5862513143341214e-07,1.3783126028926044e-05
1.1818515329979414e-06,2.5413594778013983e-07,3.651592158939128e-07,1.3914249807497644e-05
1.2077691658632047e-06,2.5711819846924015e-07,3.716838306828737e-07,1.4053363671800501e-05
1.2327774581703727e-06,2.601970009250484e-07,3.781595643256498e-07,1.4200313504820919e-05
1.256777485326561e-06,2.633594269875463e-07,3.845492779882224e-07,1.4354997815245096e-05
1.279673268074974e-06,2.6659014367598205e-07,3.908168590870774e-07,1.4517191694653298e-05
1.3013715958057944e-06,2.698713975492533e-07,3.969267429506826e-07,1.4686506863146167e-05
1.3217829653207563e-06,2.7318311718035263e-07,4.028441706537638e-07,1.4862586592429447e-05
1.3408249729984218e-06,2.765033048577687e-07,4.0853617126172255e-07,1.5045425211440494e-05
1.358423792987767e-06,2.7980924564370716e-07,4.1397363458359204e-07,1.523550169169892e-05
1.3745128758739402e-06,2.830793770938288e-07,4.191317832053841e-07,1.543362899163929e-05
1.389031392248564e-06,2.8629469120301927e-07,4.239877540640686e-07,1.5640682485426378e-05
1.4019240871504272e-06,2.894386560153485e-07,4.285188707103657e-07,1.5857339296437037e-05
1.4131430301814532e-06,2.924965768603039e-07,4.327041275827422e-07,1.6083902934133968e-05
1.422648965210304e-06,2.9545546381293895e-07,4.365271989575165e-07,1.6320254953214593e-05
1.430411663579733e-06,2.9830401829239586e-07,4.399785110868856e-07,1.6565889661776254e-05
1.4364120241935048e-06,3.010321915130459e-07,4.4305525891903027e-07,1.6819965303331856e-05
1.4406443223106488e-06,3.036303426306121e-07,4.457597380112957e-07,1.708134718238307e-05
1.4431145185525905e-06,3.0608885779171163e-07,4.4809761308986084e-07,1.7348642811517483e-05
1.443836283400397e-06,3.083992715359478e-07,4.500769068678426e-07,1.7620237086265602e-05
1.4428298979244237e-06,3.105563172979715e-07,4.5170740799337465e-07,1.789434511032443e-05
1.4401249000533018e-06,3.1255843156346867e-07,4.5299971177065927e-07,1.8169084024168718e-05
1.4357624814669496e-06,3.144060779737592e-07,4.539637677454363e-07,1.844253564746141e-05
1.4297941789511622e-06,3.161004986385068e-07,4.5460942454145776e-07,1.871278689592416e-05
1.4222774141534815e-06,3.1764351757192467e-07,4.549487072937501e-07,1.897795901954012e-05
1.413271162997014e-06,3.1903702253332056e-07,4.5499580519296465e-07,1.9236220404576592e-05
1.4028335646065592e-06,3.202823874273817e-07,4.5476548302969207e-07,1.948577596421036e-05
1.391021315978863e-06,3.2138038170236664e-07,4.542731198921648e-07,1.9724860455329346e-05
1.377890332975913e-06,3.223312888933927e-07,4.535349390977354e-07,1.9951772262765217e-05
1.3634967340688284e-06,3.231345593751156e-07,4.5256665515895576e-07,2.0164948294341454e-05
1.3478977865388318e-06,3.2378792225944444e-07,4.5138301315625326e-07,2.0363044960413188e-05
1.3311550905091394e-06,3.242872617336102e-07,4.499994965542029e-07,2.054498488322857e-05
1.3133433611355224e-06,3.2462805770993236e-07,4.48433089969067e-07,2.0709931690525305e-05
1.2945598665935517e-06,3.248067710970248e-07,4.46700520784163e-07,2.085719194023448e-05
1.2749220989958263e-06,3.2482077469304106e-07,4.4481613783115595e-07,2.098612801922506e-05
1.2545539134008658e-06,3.24668364997774e-07,4.427911445825224e-07,2.109615551398556e-05
1.23357535975917e-06,3.243496767116484e-07,4.406339424172057e-07,2.1186780408145418e-05
1.2121029186525087e-06,3.238668097729876e-07,4.3835058714207174e-07,2.125760338125006e-05
1.1902528031326198e-06,3.2322297221037147e-07,4.3594494973725433e-07,2.130830127677934e-05
1.168142447279792e-06,3.224223040662441e-07,4.3341879547347145e-07,2.1338633047227162e-05
1.1458923509370657e-06,3.214707626393609e-07,4.307720831132715e-07,2.1348455118061608e-05
1.1236284240977407e-06,3.2037706444592484e-07,4.280042042601608e-07,2.133769718914657e-05
1.101481513789648e-06,3.19153055284922e-07,4.251159575204456e-07,2.130632047041899e-05
1.0795861219796046e-06,3.1781397456366075e-07,4.221102581316115e-07,2.1254309298348747e-05
1.0580861033444186e-06,3.163783306485423e-07,4.1899078695427887e-07,2.1181684684104405e-05
1.0371475010616151e-06,3.148660876347864e-07,4.157604627201533e-07,2.1088521942697987e-05
1.0169654913266329e-06,3.132966680635534e-07,4.124212620783109e-07,2.0975004681840424e-05
9.977543609398096e-07,3.1168899039165877e-07,4.0897465910498645e-07,2.0841517370215052e-05
9.797264341573142e-07,3.100623006923145e-07,4.054216557380098e-07,2.0688687140341974e-05
9.630738009981802e-07,3.0843660973372504e-07,4.0176297859305686e-07,2.051731382138897e-05
9.479601480560601e-07,3.0683321614554924e-07,3.979999835016325e-07,2.032827698452716e-05
9.3452622112543e-07,3.052747688711993e-07,3.941350045160641e-07,2.0122519837603768e-05
9.229067072500774e-07,3.037843151455323e-07,3.9017065911873884e-07,1.9901072418563118e-05
9.132451167587544e-07,3.023847092635355e-07,3.861095388945596e-07,1.966504709700981e-05
9.056969353166172e-07,3.0109868995646306e-07,3.8195425914795844e-07,1.941559742353857e-05
9.004255384228539e-07,2.9994777337960057e-07,3.7770708559640577e-07,1.915387731875206e-05
8.975986903750015e-07,2.989507820798985e-07,3.7337008612569853e-07,1.8881106475115187e-05
8.973869792380436e-07,2.9812434003578173e-07,3.689457593400505e-07,1.8598774941303297e-05
8.999593062738354e-07,2.974843512269531e-07,3.6443750684631705e-07,1.83087918890874e-05
9.054733868603699e-07,2.9704595291230256e-07,3.598512045978501e-07,1.8013401718980138e-05
9.140716279503204e-07,2.968211446978409e-07,3.551968277259051e-07,1.771494890631121e-05
9.258952826966671e-07,2.9681642564223466e-07,3.5048714389579237e-07,1.741566107417423e-05
9.411103485462301e-07,2.9703328335145716e-07,3.457349973287497e-07,1.711757587260337e-05
9.599203876514332e-07,2.9747057653910434e-07,3.4095268586471015e-07,1.6822687683158315e-05
9.825537028446823e-07,2.981262473257429e-07,3.361535390749936e-07,1.6533189856976348e-05
1.0092345311796322e-06,2.9899745911172763e-07,3.313535988752407e-07,1.6251550190744995e-05
1.040147741303007e-06,3.0007949882400175e-07,3.2657138110816465e-07,1.5980367125557388e-05
1.07540789312842e-06,3.0136458435186897e-07,3.218258289484008e-07,1.5722180673338364e-05
1.1150530973626785e-06,3.028415564448207e-07,3.1713485482128464e-07,1.5479345714913987e-05
1.15906705726018e-06,3.044962901966536e-07,3.125151265263893e-07,1.5253943730107205e-05
1.2074094851310056e-06,3.063123231918515e-07,3.079815260474624e-07,1.5047709986341384e-05
1.2600397949280395e-06,3.08271944658185e-07,3.035462308234028e-07,1.4861993302044595e-05
1.316928041738245e-06,3.103577515872215e-07,2.992184959289164e-07,1.4697756518838944e-05
1.378049938732609e-06,3.1255346259871067e-07,2.950054574027455e-07,1.4555599933830606e-05
1.443373139442171e-06,3.1484341225791997e-07,2.909134863800274e-07,1.4435780349973858e-05
1.5128459948146309e-06,3.172114314529159e-07,2.8694870228239694e-07,1.433821481226771e-05
1.586390929985886e-06,3.196397695683928e-07,2.831160226658527e-07,1.426249994346633e-05
1.6639005142722716e-06,3.2210883944153883e-07,2.7941797593176537e-07,1.4207970846667315e-05
1.7452378529158573e-06,3.245985554069521e-07,2.758542546499765e-07,1.4173767645192014e-05
1.8302415779257145e-06,3.270903087030166e-07,2.724219361187429e-07,1.4158889656025413e-05
1.918730400131033e-06,3.2956727206862995e-07,2.691161208444968e-07,1.4162261186588915e-05
2e-07,3.3201270658536265e-07,2.659308971009304e-07,1.4182804851351792e-05
2e-07,3.344083753954201e-07,2.628605966872009e-07,1.4219491351011353e-05
2e-07,3.367343721260256e-07,2.599005128686905e-07,1.4271366364126929e-05
2e-07,3.389700668812171e-07,2.570465061363911e-07,1.4337571689608713e-05
2e-07,3.410960312626081e-07,2.542944263382755e-07,1.4417356099824317e-05
2e-07,3.430972551612961e-07,2.516401808348344e-07,1.4510049301376766e-05
2e-07,3.449657105572092e-07,2.490808156913887e-07,1.461498351763021e-05
2e-07,3.466989647469863e-07,2.4661609794153297e-07,1.4731391761186078e-05
2e-07,3.4829657982638577e-07,2.4424873307052623e-07,1.4858345716741946e-05
2e-07,3.49758295582052e-07,2.4198276203461947e-07,1.4994784145422933e-05
2e-07,3.510833136304264e-07,2.3982184938866644e-07,1.5139598224851282e-05
2e-07,3.522697777789041e-07,2.3776872468145838e-07,1.5291676767554042e-05
2e-07,3.533159193853667e-07,2.3582554711208695e-07,1.5449891469868703e-05
2e-07,3.542225887037048e-07,2.3399415895620627e-07,1.561307737282824e-05
2e-07,3.5499564353556926e-07,2.3227551438531512e-07,1.5780031178306063e-05
2e-07,3.5564642907580866e-07,2.306689648448781e-07,1.5949516873020088e-05
2e-07,3.561897546142292e-07,2.2917270684844532e-07,1.6120261061512422e-05
2e-07,3.5664225915855995e-07,2.277851971864396e-07,1.6290932747859353e-05
2e-07,3.570229221380744e-07,2.2650588551923798e-07,1.6460133336360445e-05
2e-07,3.5735364696821117e-07,2.2533454669041962e-07,1.6626413177464288e-05
2e-07,3.576581897575145e-07,2.2427018446765236e-07,1.6788299684058774e-05
2e-07,3.5795957341947755e-07,2.2331075872663942e-07,1.6944341877720794e-05
2e-07,3.5827759873547476e-07,2.2245376091618767e-07,1.7093199662068258e-05
2e-07,3.586281702672673e-07,2.216965181264697e-07,1.7233735989080227e-05
2e-07,3.5902355192626797e-07,2.2103601490170397e-07,1.736501359979829e-05
2e-07,3.594720452654133e-07,2.204693146263596e-07,1.7486211338846334e-05
2e-07,3.5997836611904617e-07,2.1999455794721303e-07,1.7596591769468005e-05
2e-07,3.6054544156546285e-07,2.1961109373764638e-07,1.7695560476374627e-05
2e-07,3.611751652396475e-07,2.1931850169139093e-07,1.7782723483988305e-05
2e-07,3.618670540031187e-07,2.1911595260507907e-07,1.7857873055711248e-05
2e-07,3.6261672758252397e-07,2.190030404969069e-07,1.7920917028210744e-05
2e-07,3.6341564775830677e-07,2.1898121331542525e-07,1.7971837126264146e-05
2e-07,3.6425189626311775e-07,2.1905369712091645e-07,1.8010772117765258e-05
2e-07,3.651114754752703e-07,2.1922388994819655e-07,1.8038151540624635e-05
2e-07,3.6598003330407293e-07,2.1949396803083587e-07,1.805469727294411e-05
2e-07,3.668439792540093e-07,2.198644673172821e-07,1.8061291329732208e-05
2e-07,3.67690468583997e-07,2.2033470651065558e-07,1.8058835691313017e-05
2e-07,3.685078677084951e-07,2.2090328451154112e-07,1.8048168567711893e-05
2e-07,3.6928654801002666e-07,2.2156825653629088e-07,1.803009063270706e-05
2e-07,3.7001849441228314e-07,2.2232790805250158e-07,1.800551658667261e-05
2e-07,3.7069675358321726e-07,2.2318195515602068e-07,1.7975608370958343e-05
2e-07,3.713154561169091e-07,2.2413148452371522e-07,1.7941734046147633e-05
2e-07,3.7186922306327563e-07,2.2517809250280167e-07,1.7905294813048047e-05
2e-07,3.723522927615393e-07,2.263239414339184e-07,1.7867559341229418e-05
2e-07,3.727583101175624e-07,2.2757131593318477e-07,1.7829563107923732e-05
2e-07,3.7308001100634887e-07,2.28920505928198e-07,1.779205856749689e-05
2e-07,3.7330910427542725e-07,2.303690306151566e-07,1.7755500032665893e-05
2e-07,3.734376456288142e-07,2.3191368120880972e-07,1.7720059962954608e-05
2e-07,3.734594372099911e-07,2.3355199686659108e-07,1.7685666395735486e-05
2e-07,3.733698304958966e-07,2.35280904074039e-07,1.765204814975731e-05
2e-07,3.7316500211089713e-07,2.3709463817424606e-07,1.7618775980254465e-05
2e-07,3.7284188060550826e-07,2.38984182453368e-07,1.758528726276751e-05
2e-07,3.723991992898458e-07,2.4093816824461365e-07,1.7550905975914803e-05
2e-07,3.7183894187025403e-07,2.429445698659144e-07,1.7514878051469558e-05
2e-07,3.7116669308955005e-07,2.449922643680488e-07,1.7476420276127793e-05
2e-07,3.7039079447995247e-07,2.470716475867161e-07,1.7434778959479882e-05
2e-07,3.695208701461384e-07,2.491746916496792e-07,1.738929084012045e-05
2e-07,3.685662925859329e-07,2.51294537749419e-07,1.7339427778760204e-05
2e-07,3.675348391638296e-07,2.5342422184935817e-07,1.7284822085749375e-05
2e-07,3.6643189770377975e-07,2.5555570211231193e-07,1.722527589341381e-05
2e-07,3.6526136741670496e-07,2.576802785567293e-07,1.716074306895761e-05
2e-07,3.640278725070042e-07,2.5978956138253466e-07,1.709128160643138e-05
2e-07,3.627383446050618e-07,2.618760114591179e-07,1.701699399334546e-05
2e-07,3.6140179701961495e-07,2.639324967806893e-07,1.6937966908324654e-05
2e-07,3.6002722701316975e-07,2.659509298535589e-07,1.6854233483334007e-05
2e-07,3.586210949192721e-07,2.679217205301376e-07,1.6765807005167213e-05
2e-07,3.571862827096619e-07,2.6983521116483217e-07,1.667276874707922e-05
2e-07,3.5572292802725577e-07,2.716835926835016e-07,1.6575316534422134e-05
2e-07,3.542309975215932e-07,2.734613296185545e-07,1.6473753224509413e-05
2e-07,3.527133432179908e-07,2.751640573289784e-07,1.636846793237345e-05
2e-07,3.511764509834215e-07,2.7678707634262844e-07,1.62599259411732e-05
2e-07,3.496289584087449e-07,2.7832437101165644e-07,1.6148650412830872e-05
1.9934958436359662e-06,3.480802684910595e-07,2.797688296166878e-07,1.6035173462048817e-05
1.9116998827483465e-06,3.465392603981302e-07,2.8111336213771964e-07,1.5919957871583054e-05
1.8328734192621528e-06,3.450127477151341e-07,2.8235136586324e-07,1.580333342456314e-05
1.7572139178099793e-06,3.435046725246381e-07,2.834760809816704e-07,1.568548185410932e-05
1.684896133752874e-06,3.420162426898877e-07,2.8448042047936496e-07,1.5566468779418193e-05
1.616077831233346e-06,3.405466806031504e-07,2.853583513818561e-07,1.5446319601526868e-05
1.5509012962842275e-06,3.3909437596593836e-07,2.8610722690801213e-07,1.5325141003036155e-05
1.4894963553160082e-06,3.3765844964024484e-07,2.86729172116302e-07,1.5203231816254249e-05
1.431984618454567e-06,3.362406272781977e-07,2.8722971687361076e-07,1.5081081727698282e-05
1.3784777475577677e-06,3.348454425973993e-07,2.876155320751791e-07,1.4959251372989502e-05
1.3290682053277485e-06,3.334778446921322e-07,2.878944454392883e-07,1.4838243588549067e-05
1.2838187732493937e-06,3.321413385287241e-07,2.88077011204235e-07,1.4718447471253446e-05
1.2427568601447486e-06,3.30839339901977e-07,2.881777726111279e-07,1.4600135684300068e-05
1.205875375880718e-06,3.295784487359373e-07,2.882152726299346e-07,1.4483464150360568e-05
1.173137341091167e-06,3.283694622852756e-07,2.8820994837153764e-07,1.4368467721195972e-05
1.1444792810935325e-06,3.2722474260295673e-07,2.8818134370131075e-07,1.4255106334397376e-05
1.1198127342577922e-06,3.261562460188093e-07,2.8814648088335445e-07,1.4143413785288435e-05
1.0990272224251536e-06,3.251760876581241e-07,2.881190893440435e-07,1.4033656121619271e-05
1.0819955694249502e-06,3.24296493774936e-07,2.8810950660575647e-07,1.39263289997755e-05
1.0685816175072859e-06,3.235280794315351e-07,2.8812526540389856e-07,1.3822003951809768e-05
1.0586506902471953e-06,3.228781694164414e-07,2.881716783995308e-07,1.3721169828051485e-05
1.0520774385309628e-06,3.2235011126033447e-07,2.8825228993129694e-07,1.3624166817142465e-05
1.048745336029157e-06,3.219436241483284e-07,2.883693494104354e-07,1.3531290688397964e-05
1.0485404145794024e-06,3.216557867565539e-07,2.885235419707325e-07,1.3443063100139275e-05
1.0513438897412054e-06,3.2148224699059284e-07,2.88712957452572e-07,1.3360463084809678e-05
1.0570254231579359e-06,3.2141872234503215e-07,2.8893282596081664e-07,1.3284929511595896e-05
1.0654385487498112e-06,3.214616999200033e-07,2.891766707709927e-07,1.3218182769680978e-05
1.0764184409617675e-06,3.2160722158693233e-07,2.894378753285268e-07,1.3162013679998473e-05
1.0897810209928659e-06,3.218493204218359e-07,2.897104926529428e-07,1.3118112564677008e-05
1.1053242992057758e-06,3.2217954261802136e-07,2.89989325611531e-07,1.3087939204522995e-05
1.1228330459137122e-06,3.2258744664619866e-07,2.9026960671051804e-07,1.307261776696996e-05
1.142086025731982e-06,3.23062067096366e-07,2.905465985741848e-07,1.3072863555101487e-05
1.1628637559387755e-06,3.2359315552563075e-07,2.908162089751737e-07,1.3088958615582068e-05
1.1849543355059463e-06,3.241706265104333e-07,2.910757266116469e-07,1.3120779862046902e-05
1.2081570127446771e-06,3.2478331597013657e-07,2.913234844236212e-07,1.3167879936512612e-05
1.2322838901889835e-06,3.2541958422112424e-07,2.915588896189758e-07,1.3229608876145305e-05
1.2571592921437023e-06,3.260695154373077e-07,2.917822563585871e-07,1.3305239381114847e-05
1.2826186249143033e-06,3.2672540334523037e-07,2.919930899444925e-07,1.3394063397290006e-05
1.3085088237844368e-06,3.2737945546282377e-07,2.9218885693094374e-07,1.3495455043215938e-05
1.3346902184755116e-06,3.280215472312032e-07,2.923661295827636e-07,1.360891000897644e-05
1.3610392062042928e-06,3.2863922144620106e-07,2.925229710021545e-07,1.3734072924683955e-05
1.3874503985330536e-06,3.292196207645005e-07,2.926596775627805e-07,1.3870748144618887e-05
1.413836636944893e-06,3.297514104788276e-07,2.9277713746945874e-07,1.4018880633494455e-05
1.4401271394372141e-06,3.302246110251585e-07,2.9287506155250767e-07,1.4178512304365204e-05
1.4662661031945283e-06,3.306295174928458e-07,2.9295156927529345e-07,1.4349716882934115e-05
1.4922135206780291e-06,3.3095821583102003e-07,2.930043642081033e-07,1.4532501084417285e-05
1.5179470997669754e-06,3.312082368434125e-07,2.930323659064532e-07,1.4726687304682788e-05
1.5434629605355656e-06,3.313839502391563e-07,2.9303569648267515e-07,1.4931823525102005e-05
1.5687724036240798e-06,3.314944744627882e-07,2.930150561701664e-07,1.5147165811476473e-05
1.5938915299559611e-06,3.315507122334175e-07,2.929730711645056e-07,1.5371762831853548e-05
1.6188271068350651e-06,3.3156314738045037e-07,2.929169782574247e-07,1.5604604777372626e-05
1.6435703670027228e-06,3.315405784960534e-07,2.9286022496913747e-07,1.5844737389428512e-05
1.668100209476185e-06,3.3148978260959586e-07,2.928213511315577e-07,1.6091299315460786e-05
1.6923839837611043e-06,3.314157577311448e-07,2.928203814153784e-07,1.6343523302760468e-05
1.7163752200949563e-06,3.3132201833011626e-07,2.928752600131569e-07,1.6600732346438785e-05
1.740018139883271e-06,3.312112374446093e-07,2.9300025644168127e-07,1.6862324598747446e-05
1.763259274556018e-06,3.310866499388537e-07,2.9320632064576893e-07,1.7127724648426514e-05
1.786059466237829e-06,3.3095303102915177e-07,2.9350261354322317e-07,1.739628757775727e-05
1.8084014997252395e-06,3.308160617686851e-07,2.938972961675221e-07,1.7667193978939996e-05
1.8302915512176792e-06,3.3068039352318895e-07,2.943964451517437e-07,1.7939405743317503e-05
1.8517556179653927e-06,3.3054755926422964e-07,2.9500291162118194e-07,1.8211708773993515e-05
1.8728342748026005e-06,3.304154019365627e-07,2.957166107345817e-07,1.848282602595852e-05
1.8935806041682088e-06,3.302796249192485e-07,2.96535035008537e-07,1.8751573133366e-05
1.914067138882845e-06,3.30135629759686e-07,2.9745322316949547e-07,1.9016977132918217e-05
1.934402183634688e-06,3.299792891763459e-07,2.9846398041622e-07,1.9278266095858497e-05
1.954740262425101e-06,3.298081112991569e-07,2.9955875879269574e-07,1.953474951752868e-05
1.975268371054229e-06,3.2962275200080663e-07,3.007291351310371e-07,1.9785684644741736e-05
1.9961737986961388e-06,3.2942636074521285e-07,3.0196797220573017e-07,2.00301980319332e-05
2e-07,3.292221609056107e-07,3.032686680904778e-07,2.0267284765714543e-05
2e-07,3.290117655602653e-07,3.0462290340886104e-07,2.0495848765315988e-05
2e-07,3.287953231899344e-07,3.06019579763347e-07,2.071473230261488e-05
2e-07,3.2857288534426624e-07,3.074459624334025e-07,2.0922752146719054e-05
2e-07,3.283450727838036e-07,3.088887081284573e-07,2.1118814961736292e-05
2e-07,3.281124302450721e-07,3.103336719282743e-07,2.130207390570221e-05
2e-07,3.278743028278689e-07,3.117671035961433e-07,2.1471950790998333e-05
2e-07,3.276278639998403e-07,3.131791034939998e-07,2.1627991230077285e-05
2e-07,3.273682951699945e-07,3.145656172322157e-07,2.1769721840392453e-05
2e-07,3.270898591966004e-07,3.159267162333489e-07,2.189662974585609e-05
2e-07,3.2678651746070926e-07,3.1726371030689177e-07,2.2008296575597604e-05
2e-07,3.264518249208453e-07,3.1857777613582074e-07,2.2104657915567326e-05
2e-07,3.2607837532121305e-07,3.198694134225918e-07,2.2186199526851398e-05
2e-07,3.25657333363446e-07,3.211374161851571e-07,2.2253906039108565e-05
2e-07,3.251784441236679e-07,3.2237803171717127e-07,2.2309036054675917e-05
2e-07,3.246303149774109e-07,3.235851039931659e-07,2.2352909976070955e-05
2e-07,3.2400099434385445e-07,3.2475149665026393e-07,2.238678068522405e-05
2e-07,3.2327909875763225e-07,3.258715222586247e-07,2.2411762128306627e-05
2e-07,3.2245532926718785e-07,3.269422620562007e-07,2.242877754785908e-05
2e-07,3.2152358222625013e-07,3.279625990905607e-07,2.243851445045603e-05
2e-07,3.204804767298638e-07,3.289323029203048e-07,2.2441400441568523e-05
2e-07,3.193235367731414e-07,3.298534468593255e-07,2.243761242213746e-05
2e-07,3.1805029191150286e-07,3.3073292444577175e-07,2.242711283726948e-05
2e-07,3.166589047994853e-07,3.3158394666157194e-07,2.2409702774313795e-05
2e-07,3.151482291280343e-07,3.3242595966970694e-07,2.238508778714941e-05
2e-07,3.13516653735576e-07,3.3328231627442487e-07,2.2352943056060362e-05
2e-07,3.117612620311632e-07,3.341756753110409e-07,2.231296719822484e-05
2e-07,3.098782669828664e-07,3.351237586140909e-07,2.2264941729132293e-05
2e-07,3.078650497148711e-07,3.361381430410713e-07,2.2208803036028416e-05
2e-07,3.057228610008285e-07,3.3722551663167074e-07,2.2144680842329733e-05
2e-07,3.034575700466545e-07,3.38388899592503e-07,2.20728699374266e-05
2e-07,3.0107843493063714e-07,3.396276359130931e-07,2.1993773636144405e-05
2e-07,2.9859720805787847e-07,3.4093687971630764e-07,2.1907865801542696e-05
2e-07,2.9602793172316433e-07,3.423075068693737e-07,2.1815674047489943e-05
2e-07,2.933866675972003e-07,3.437264820399464e-07,2.171776144846908e-05
2e-07,2.906904549096724e-07,3.451778289130627e-07,2.161468638820946e-05
2e-07,2.879554298802984e-07,3.4664444968986697e-07,2.1506945385554333e-05
2e-07,2.8519534517810587e-07,3.4810931112661126e-07,2.1394941549406386e-05
2e-07,2.824213622994713e-07,3.4955507136875164e-07,2.1279012721253132e-05
2e-07,2.796429952934544e-07,3.509642158919116e-07,2.1159471543809555e-05
2e-07,2.768690478627082e-07,3.523204352985996e-07,2.103659220234161e-05
2e-07,2.741076129401221e-07,3.53609157900314e-07,2.0910568599781226e-05
2e-07,2.7136661654888003e-07,3.5481710198495814e-07,2.0781498442303744e-05
2e-07,2.686562066673069e-07,3.5593230902972805e-07,2.0649396974690152e-05
2e-07,2.6599080285973745e-07,3.56944152785091e-07,2.051420976537028e-05
2e-07,2.633884123045568e-07,3.5784257313566926e-07,2.0375800491741266e-05
2e-07,2.608681745367204e-07,3.5861743183298704e-07,2.0233934401241028e-05
2e-07,2.584478857101444e-07,3.592586537393343e-07,2.008829672415782e-05
2e-07,2.5614249191436127e-07,3.5975663982923067e-07,1.993854168367836e-05
2e-07,2.539639340391717e-07,3.6010234681833546e-07,1.978435009874574e-05
2e-07,2.519215271966796e-07,3.602871266336001e-07,1.9625507876641705e-05
2e-07,2.500235811959877e-07,3.6030285960968655e-07,1.9461993012786025e-05
2e-07,2.482805964752993e-07,3.601427652792336e-07,1.9293996052429826e-05
2e-07,2.467059910066344e-07,3.5980293925173666e-07,1.9121840345530326e-05
2e-07,2.453132821395457e-07,3.5928399745970566e-07,1.8945865260932767e-05
2e-07,2.441141682222778e-07,3.5859156214147243e-07,1.8766365145912072e-05
2e-07,2.431185048749772e-07,3.577349194009723e-07,1.858361879031685e-05
2e-07,2.423340242529342e-07,3.567247288926401e-07,1.839795827366726e-05
2e-07,2.4176575040776125e-07,3.555715600652594e-07,1.820980707927472e-05
2e-07,2.4141634842646715e-07,3.542859265692235e-07,1.8019667375968973e-05
2e-07,2.412879589480813e-07,3.5287834595886565e-07,1.7828111565411467e-05
2e-07,2.413836536037072e-07,3.5135862421656735e-07,1.7635832013760158e-05
1.998027589220995e-06,2.4170659126696137e-07,3.497357305167824e-07,1.7443669224197877e-05
1.9667184990354437e-06,2.422584859918889e-07,3.480180680476264e-07,1.7252516404019366e-05
1.93736967526926e-06,2.4303881656444976e-07,3.462129792693859e-07,1.706316688019931e-05
1.910296449357962e-06,2.440439580003452e-07,3.443270442872995e-07,1.6876239359513356e-05
1.8857451208646298e-06,2.452673613913677e-07,3.4236832662368257e-07,1.6692254152559406e-05
1.8638944573142528e-06,2.46702603008741e-07,3.403484548224748e-07,1.6511857863450414e-05
1.8448714332215984e-06,2.483470671293941e-07,3.382824112172996e-07,1.6336047605073465e-05
1.8287710551339526e-06,2.5020221566925306e-07,3.3618717735824626e-07,1.6166197397743876e-05
1.815668638569812e-06,2.5227020371867656e-07,3.340814866922142e-07,1.600389183495871e-05
1.8056217098712524e-06,2.545507227935593e-07,3.3198575581157605e-07,1.5850725523439872e-05
1.7986741041354282e-06,2.570402389316454e-07,3.299204570728693e-07,1.5708158368345252e-05
1.794875776669953e-06,2.5973178662340564e-07,3.279039370430939e-07,1.5577415429775436e-05
1.794305801424451e-06,2.626147970434875e-07,3.259510780816679e-07,1.5459402118674475e-05
1.7970764166646324e-06,2.656766387784461e-07,3.240730700348088e-07,1.535464633662146e-05
1.8033209830637798e-06,2.6890484663607344e-07,3.222780112589518e-07,1.526330077852568e-05
1.8131781881397862e-06,2.722872290062108e-07,3.2057158225172865e-07,1.5185202881472226e-05
1.8267748373656158e-06,2.758100401178868e-07,3.1895732911077263e-07,1.5119947193289735e-05
1.8442086961488574e-06,2.794572654819879e-07,3.1743704287695797e-07,1.5066931935187045e-05
1.8655342646271129e-06,2.832125029855857e-07,3.160118894108201e-07,1.5025399237064233e-05
1.8907543797967202e-06,2.8706196328809253e-07,3.1468314741848286e-07,1.4994502171709534e-05
1.919819631817369e-06,2.9099735949197304e-07,3.134512388819248e-07,1.497338045420305e-05
1.9526339117393844e-06,2.950186221740825e-07,3.1231477476868783e-07,1.4961224252538471e-05
1.9890623858366767e-06,2.991355277883887e-07,3.1127170975912963e-07,1.4957337513677967e-05
2e-07,3.03365860359656e-07,3.103220156531537e-07,1.4961187469149374e-05
2e-07,3.077290590417737e-07,3.094693177696397e-07,1.497240969049248e-05
2e-07,3.122392008819361e-07,3.0871942170646036e-07,1.4990783333881891e-05
2e-07,3.1690259360169337e-07,3.0807727751420714e-07,1.5016209383908234e-05
2e-07,3.217201106752391e-07,3.0754535577772586e-07,1.5048685082010236e-05
2e-07,3.2668990515230107e-07,3.071234515987993e-07,1.508825046980864e-05
2e-07,3.318078509399446e-07,3.068087881823045e-07,1.5134914518763641e-05
2e-07,3.370679893387725e-07,3.065961554950133e-07,1.5188585228502545e-05
2e-07,3.424652401493128e-07,3.06477967558412e-07,1.5249023362670008e-05
2e-07,3.4799765020978644e-07,3.0644521099831164e-07,1.5315859329085864e-05
2e-07,3.5366492322715525e-07,3.064899452007402e-07,1.538867142548756e-05
2e-07,3.594645936173243e-07,3.066067485178918e-07,1.546703882741192e-05
2e-07,3.653890948903235e-07,3.067908444523726e-07,1.555052910266998e-05
2e-07,3.714252556808754e-07,3.070354402118668e-07,1.5638667758885396e-05
2e-07,3.7755618149380424e-07,3.0733158038083856e-07,1.573092877293945e-05
2e-07,3.837651888379054e-07,3.076702665954791e-07,1.582674306047477e-05
2e-07,3.900408811518743e-07,3.080446820864218e-07,1.5925493393000736e-05
2e-07,3.963793299926421e-07,3.084507557712399e-07,1.6026483123402705e-05
2e-07,4.027797235719094e-07,3.088866029127306e-07,1.6128909029056922e-05
2e-07,4.092378910581128e-07,3.093523221949566e-07,1.623185695998293e-05
2e-07,4.157447529030472e-07,3.0984945983562477e-07,1.6334324538171046e-05
2e-07,4.222886216477809e-07,3.1037954419684065e-07,1.6435301739558284e-05
2e-07,4.2885591041534057e-07,3.109429285437922e-07,1.653390174764845e-05
2e-07,4.3543004330513533e-07,3.115387638421493e-07,1.6629436278948277e-05
2e-07,4.41992649371041e-07,3.121652157269547e-07,1.672135785841975e-05
2e-07,4.485274958225581e-07,3.1281900971126926e-07,1.6809135341304242e-05
2e-07,4.5502289978712166e-07,3.134952122743146e-07,1.6892171912133702e-05
2e-07,4.614708319657192e-07,3.1418750758931067e-07,1.6969791762335494e-05
2e-07,4.678651770576169e-07,3.148880544200334e-07,1.7041254447210987e-05
2e-07,4.742007631342978e-07,3.15587476881615e-07,1.710576383892444e-05
2e-07,4.804725569091638e-07,3.162753906085783e-07,1.716249442315206e-05
2e-07,4.86674493121673e-07,3.1694066243034213e-07,1.7210704551734895e-05
2e-07,4.927989688540278e-07,3.175711976212052e-07,1.7249927925812588e-05
2e-07,4.988375923972498e-07,3.1815417332070194e-07,1.7280074755935126e-05
2e-07,5.047808439500355e-07,3.186782203867763e-07,1.7301334283162446e-05
2e-07,5.106159855664972e-07,3.191365430984837e-07,1.731399318076044e-05
2e-07,5.163265756471553e-07,3.1952696737066867e-07,1.7318313515235677e-05
2e-07,5.218941673539175e-07,3.198487118214925e-07,1.7314541221848436e-05
2e-07,5.272992954183404e-07,3.2010016843204577e-07,1.7303085535920554e-05
2e-07,5.325213155800618e-07,3.202787750578225e-07,1.728475980004388e-05
2e-07,5.375388651918048e-07,3.2038096241697067e-07,1.7260862445489998e-05
2e-07,5.423308712859303e-07,3.2040216162676604e-07,1.723305442366773e-05
2e-07,5.468765661716934e-07,3.203375206201646e-07,1.720317366997818e-05
2e-07,5.511551934108225e-07,3.201826342498703e-07,1.7173076152391813e-05
2e-07,5.551469200578538e-07,3.1993398219033765e-07,1.7144502946076758e-05
2e-07,5.588341345591051e-07,3.195891864283246e-07,1.7118973786540222e-05
2e-07,5.622026099368637e-07,3.191472556026577e-07,1.7097726262437633e-05
2e-07,5.652432998107552e-07,3.186092823825499e-07,1.708170142264369e-05
2e-07,5.679537256851012e-07,3.1797865460704806e-07,1.7071543107915086e-05
2e-07,5.703366493953969e-07,3.1725989736973445e-07,1.7067585824949722e-05
2e-07,5.723961101221202e-07,3.164574759502545e-07,1.7069851896930665e-05
2e-07,5.741340454230851e-07,3.155758769186872e-07,1.7078087222587468e-05
2e-07,5.755498489968532e-07,3.14621065270997e-07,1.7091832930668234e-05
2e-07,5.76641125779237e-07,3.136018201789052e-07,1.7110522095501188e-05
2e-07,5.77403679537004e-07,3.125291865853527e-07,1.7133582940484194e-05
2e-07,5.778321405700321e-07,3.114147974455588e-07,1.71605086214714e-05
2e-07,5.779217714728327e-07,3.1026932236523845e-07,1.7190875020680343e-05
2e-07,5.776694439829665e-07,3.091014865518386e-07,1.722433616204311e-05
2e-07,5.770737770563319e-07,3.079183858876022e-07,1.7260630641478933e-05
2e-07,5.761354079627878e-07,3.0672666119174354e-07,1.7299590004104307e-05
2e-07,5.74856577062445e-07,3.0553257461594386e-07,1.7341120048377962e-05
2e-07,5.732409407225147e-07,3.0434099903908073e-07,1.7385149754071127e-05
2e-07,5.712950778834024e-07,3.031559285208186e-07,1.743157254740461e-05
2e-07,5.690292584769741e-07,3.019820066853587e-07,1.748020403145054e-05
2e-07,5.664555881831519e-07,3.008244531175789e-07,1.7530757824355176e-05
2e-07,5.635859962358614e-07,2.996882833703755e-07,1.7582853434823095e-05
2e-07,5.604320730423455e-07,2.985779251095865e-07,1.763605938906284e-05
2e-07,5.570062232802723e-07,2.9749660800842087e-07,1.768991759121433e-05
2e-07,5.533246630834838e-07,2.9644610270689784e-07,1.7743927636570903e-05
2e-07,5.494119733736064e-07,2.954277554763692e-07,1.779753823374805e-05
2e-07,5.453022564174264e-07,2.9444478305336066e-07,1.7850173634660534e-05
2e-07,5.410339057466615e-07,2.935039815300622e-07,1.7901264725450657e-05
2e-07,5.366427756237116e-07,2.926142308004625e-07,1.7950230483550613e-05
2e-07,5.321587870335159e-07,2.917831723780549e-07,1.799642172427774e-05
2e-07,5.276056871777306e-07,2.910160696034369e-07,1.8039106175040586e-05
2e-07,5.230020229605964e-07,2.903170349740369e-07,1.807752111152908e-05
2e-07,5.183624277586141e-07,2.8969002569413925e-07,1.8110946380466148e-05
2e-07,5.136994490079446e-07,2.891384567794904e-07,1.8138763810100988e-05
2e-07,5.090255213903962e-07,2.886640183384684e-07,1.8160505656935183e-05
2e-07,5.04353533437562e-07,2.882656679697733e-07,1.817586503859285e-05
2e-07,4.996955811294067e-07,2.879394400359457e-07,1.818463043374296e-05
2e-07,4.950612589429568e-07,2.876794532090218e-07,1.8186609347190888e-05
2e-07,4.904572685654502e-07,2.8747927436112963e-07,1.8181643361234907e-05
2e-07,4.858879501640298e-07,2.8733257728595684e-07,1.8169676888512128e-05
2e-07,4.813552663714407e-07,2.872333583211339e-07,1.815076864785972e-05
2e-07,4.768592884914046e-07,2.8717590676518715e-07,1.8125038146693805e-05
2e-07,4.7239961860982636e-07,2.871546318248493e-07,1.8092611675437584e-05
2e-07,4.679755745761397e-07,2.8716405704473074e-07,1.8053632491898308e-05
2e-07,4.635852844102405e-07,2.871992896669829e-07,1.8008371714658136e-05
2e-07,4.5922618381934433e-07,2.872568473528708e-07,1.7957340754958827e-05
2e-07,4.5489680035890895e-07,2.873344622066879e-07,1.7901258812074172e-05
2e-07,4.5059759205317966e-07,2.87429714721798e-07,1.7840908735233786e-05
2e-07,4.4632989896048936e-07,2.8753979351250574e-07,1.777700541143622e-05
2e-07,4.4209422044016334e-07,2.87663333607636e-07,1.7710141605751022e-05
2e-07,4.378894892965585e-07,2.878018205702617e-07,1.764086467347653e-05
2e-07,4.3371297364934167e-07,2.8795805388307073e-07,1.7569855372171318e-05
2e-07,4.29559894849731e-07,2.881339505443645e-07,1.7498034790068718e-05
2e-07,4.2542358692477897e-07,2.883315263604055e-07,1.7426498313396987e-05
2e-07,4.212965136644665e-07,2.88554894844396e-07,1.7356361828874145e-05
2e-07,4.1717094248673975e-07,2.8880930192988183e-07,1.728862611913085e-05
2e-07,4.1303933186828496e-07,2.890991202206596e-07,1.7224089311744283e-05
2e-07,4.088958054798585e-07,2.894278119357039e-07,1.7163296854942295e-05
2e-07,4.047386387827898e-07,2.897990534396024e-07,1.7106520045752113e-05
2e-07,4.005718036737596e-07,2.902175332108472e-07,1.7053768164567153e-05
2e-07,3.964038066252233e-07,2.906894060018332e-07,1.7004829678097318e-05
2e-07,3.922452059062779e-07,2.9122250026736907e-07,1.695931712854055e-05
1.9936689020350584e-06,3.8810780706981366e-07,2.918252915358338e-07,1.6916690995593296e-05
1.946826139860844e-06,3.840051860480932e-07,2.925045197909684e-07,1.6876267010720218e-05
1.9016963387547131e-06,3.7995189629480157e-07,2.932632976001923e-07,1.6837235786241102e-05
1.8583449421771409e-06,3.759609537854813e-07,2.941015515215628e-07,1.6798714707949264e-05
1.816814625288792e-06,3.720419247294962e-07,2.950193474270643e-07,1.675982972679249e-05
1.777126052489957e-06,3.6820096894855593e-07,2.9602118740878746e-07,1.6719798742379292e-05
1.7392800181389885e-06,3.644414852540253e-07,2.971181438450385e-07,1.6677975393872848e-05
1.7032584862957126e-06,3.6076444558029924e-07,2.983274942365199e-07,1.6633848811586246e-05
1.6690255597322262e-06,3.571698283862984e-07,2.9967060385581514e-07,1.658703817935765e-05
1.636529617208249e-06,3.5366017102299963e-07,3.011686954153472e-07,1.6537300637861707e-05
1.605706768441214e-06,3.502436336461927e-07,3.0283844223772323e-07,1.6484523431866335e-05
1.5764849564823587e-06,3.469333266247618e-07,3.046899773416249e-07,1.6428671846777246e-05
1.5487881360232852e-06,3.4374423128896225e-07,3.067270017797604e-07,1.6369709253437507e-05
1.5225393625142745e-06,3.406903171376833e-07,3.0894810400960443e-07,1.630753474938012e-05
1.497660529136675e-06,3.377823869563037e-07,3.113486910001621e-07,1.6241984311872416e-05
1.4740697346425775e-06,3.350280419907575e-07,3.139220250777611e-07,1.617291870950505e-05
1.4516792863607946e-06,3.3243369478101766e-07,3.166584225915216e-07,1.6100346070412522e-05
1.4303951285943994e-06,3.300050653304591e-07,3.195442107893477e-07,1.6024476364263635e-05
1.41011819795028e-06,3.2774525510282165e-07,3.225625474146953e-07,1.5945682983542677e-05
1.390746937292706e-06,3.2565357494623406e-07,3.2569461537050826e-07,1.586444640255745e-05
1.3721789212690137e-06,3.237267737248373e-07,3.28919190621662e-07,1.578134166295167e-05
1.3543121299138778e-06,3.219611586845706e-07,3.3221310409299624e-07,1.569704056050399e-05
1.337046675257199e-06,3.203546817857683e-07,3.355547574084169e-07,1.561225353838422e-05
1.3202863827313363e-06,3.1890969333574357e-07,3.3892698542435064e-07,1.552761042691673e-05
1.3039407550461182e-06,3.1763490422571545e-07,3.423156747400398e-07,1.5443578960553335e-05
1.2879279845029655e-06,3.1654479381257165e-07,3.457070893276788e-07,1.536051377354755e-05
1.2721788466038877e-06,3.1565904718216576e-07,3.4908751275124605e-07,1.5278815948097227e-05
1.2566418314011535e-06,3.150025966565085e-07,3.5244418922788024e-07,1.5199065667837433e-05
1.2412901546198184e-06,3.1460256148286664e-07,3.557660546322039e-07,1.5122017975107114e-05
1.2261295087646356e-06,3.1448368193718055e-07,3.590437787832697e-07,1.5048501968914535e-05
1.211201881058975e-06,3.1466614355298857e-07,3.622686507682665e-07,1.497931784118237e-05
1.1965812344021177e-06,3.151646843189404e-07,3.654315078653997e-07,1.4915150299502374e-05
1.1823629923621582e-06,3.1598774390677464e-07,3.68522772078619e-07,1.4856485712053492e-05
1.1686516840464549e-06,3.171369498521118e-07,3.715329588636424e-07,1.4803561545229184e-05
1.155547982272988e-06,3.186073272295555e-07,3.7445393030476863e-07,1.4756374325664456e-05
1.1431368941994605e-06,3.203886629688613e-07,3.7728016232120575e-07,1.4714719651294985e-05
1.1314825934594863e-06,3.2246685499810855e-07,3.8000771281927217e-07,1.4678232101635568e-05
1.1206315195841622e-06,3.248242726608962e-07,3.826329310460405e-07,1.4646470846280805e-05
1.1106166796062349e-06,3.274402682769777e-07,3.851540115135906e-07,1.4619115129278607e-05
1.1014577134715904e-06,3.302931424190596e-07,3.875723330806976e-07,1.4596163541837313e-05
1.0931594346771363e-06,3.3336213712121283e-07,3.8989042534440927e-07,1.4577933173661551e-05
1.0857126709729326e-06,3.366268632515898e-07,3.921090345313601e-07,1.4564875555157916e-05
1.079099756509376e-06,3.400654897163984e-07,3.9422621649755524e-07,1.4557453537067355e-05
1.0733070834698031e-06,3.436541895499981e-07,3.962381401544625e-07,1.4556209991897934e-05
1.068342736358275e-06,3.473674988813503e-07,3.981398173751369e-07,1.4561885618756668e-05
1.0642511358377486e-06,3.5117933447329445e-07,3.999247357187407e-07,1.4575408888394516e-05
1.0611169604496972e-06,3.550645351081321e-07,4.0158423622981427e-07,1.4597780819859895e-05
1.0590584869743324e-06,3.5900022918141604e-07,4.031078939810196e-07,1.4629959756049081e-05
1.0582173315501642e-06,3.629666558697804e-07,4.04484251474579e-07,1.4672772686992865e-05
1.0587471980764613e-06,3.6694698955107616e-07,4.057013747066332e-07,1.4726843953584326e-05
1.0607975153170305e-06,3.709266365336081e-07,4.067489205315383e-07,1.4792546728050595e-05
1.064495794476297e-06,3.74892578314664e-07,4.076217406156844e-07,1.4869978672001803e-05
1.0699408828353714e-06,3.788326019342286e-07,4.083215374987514e-07,1.4958956967558712e-05
1.0772081406590714e-06,3.8273460965334396e-07,4.0885509034193566e-07,1.5059033412249893e-05
1.0863555383841228e-06,3.8658611958803894e-07,4.0923227749073327e-07,1.5169537415084214e-05
1.0974234139288089e-06,3.903738178317317e-07,4.0946621463684225e-07,1.528964314077715e-05
1.110429696746615e-06,3.9408323582822117e-07,4.0957345589862453e-07,1.541841695533798e-05
1.125366509319354e-06,3.976996007827347e-07,4.095722546114812e-07,1.5554806037019767e-05
1.1421994093323828e-06,4.0121108373196113e-07,4.094797764077194e-07,1.569761205070151e-05
1.1608671396172218e-06,4.0461329140702315e-07,4.093099249970194e-07,1.5845523007577756e-05
1.1812855127914805e-06,4.0791152899189103e-07,4.090725909202096e-07,1.599719792831395e-05
1.2033574986205185e-06,4.1111814842540853e-07,4.087737955210765e-07,1.6151343265975572e-05
1.226981310989752e-06,4.1424706074786675e-07,4.084160831097857e-07,1.630674951670398e-05
1.2520493531285595e-06,4.1730979579384523e-07,4.079993326718051e-07,1.646229836144113e-05
1.2784406699336702e-06,4.203136435014792e-07,4.075215257498408e-07,1.6616957334467947e-05
1.3060135059967988e-06,4.232608109875021e-07,4.06979163144681e-07,1.6769771355915344e-05
1.334603435508055e-06,4.2614872732403095e-07,4.063681108443624e-07,1.6919858658918618e-05
1.3640312487414124e-06,4.289709711971041e-07,4.0568434581636856e-07,1.7066414978015196e-05
1.3941193690570023e-06,4.3171883044782393e-07,4.049235504554661e-07,1.7208715004215555e-05
1.424706058918773e-06,4.3438370319601977e-07,4.040806114842508e-07,1.7346089823576453e-05
1.4556478049840116e-06,4.36958208734855e-07,4.0314991885143755e-07,1.7477880179568094e-05
1.4868123730683744e-06,4.394348032174679e-07,4.021257556943636e-07,1.7603406014736938e-05
1.5180698010635151e-06,4.418042008916586e-07,4.0100228906605464e-07,1.772198791276214e-05
1.549285551724111e-06,4.4405515321361256e-07,3.997732655341672e-07,1.783299064022233e-05
1.5803175766553925e-06,4.4617458590498497e-07,3.9843236346760994e-07,1.7935834171777585e-05
1.6110171391544837e-06,4.481479159820324e-07,3.969749968184362e-07,1.8029965281519267e-05
1.6412315671257758e-06,4.4996046161906517e-07,3.9539957191138356e-07,1.811482130872307e-05
1.6708061102393826e-06,4.515988725266001e-07,3.937063835412882e-07,1.8189826263475484e-05
1.6995851662987966e-06,4.530512201240941e-07,3.9189643983354655e-07,1.8254429811871826e-05
1.727417819346941e-06,4.543073959135768e-07,3.899725582078218e-07,1.830814958161492e-05
1.7541697216582848e-06,4.553606357845975e-07,3.879407817258656e-07,1.8350586583875188e-05
1.7797359212587544e-06,4.562074514430825e-07,3.8580925666723685e-07,1.8381426792003725e-05
1.8040470352324157e-06,4.5684530007662886e-07,3.835858271802702e-07,1.8400442547230263e-05
1.8270651688708927e-06,4.5727092906774855e-07,3.8127688348927885e-07,1.8407476568622024e-05
1.8487725211582558e-06,4.5748091065993635e-07,3.788874863230219e-07,1.840239408829228e-05
1.8691594152268486e-06,4.5747384924656e-07,3.7642245537860995e-07,1.8385034807027263e-05
1.888215779406104e-06,4.5725224575625906e-07,3.738873969555853e-07,1.8355202763474586e-05
1.9059266694329712e-06,4.5682152835919657e-07,3.71287950117713e-07,1.831269641462477e-05
1.922271912139933e-06,4.5618730712059746e-07,3.6862822244067953e-07,1.8257371719717715e-05
1.9372278704415667e-06,4.553534106296045e-07,3.6591035116809456e-07,1.8189212113942176e-05
1.950767651113694e-06,4.5432105480382613e-07,3.6313517347982e-07,1.81083519165406e-05
1.962861389724013e-06,4.530894415648011e-07,3.6030298737448507e-07,1.801503668054645e-05
1.973483784470716e-06,4.516589007953784e-07,3.5741400525807187e-07,1.7909564128481932e-05
1.9826260475221298e-06,4.5003513271369884e-07,3.5446862197436577e-07,1.7792288048967645e-05
1.990298258265858e-06,4.4823089628318615e-07,3.51467797360252e-07,1.7663716533170637e-05
1.996520166720666e-06,4.4626483597641754e-07,3.484143740848982e-07,1.7524590859525952e-05
2e-07,4.4416028079867656e-07,3.453140502429701e-07,1.737585876577056e-05
2e-07,4.419453707806947e-07,3.42173697547718e-07,1.721859475817558e-05
2e-07,4.3965370550090706e-07,3.389992633201373e-07,1.7053904108072026e-05
2e-07,4.3732375164561566e-07,3.3579657526096566e-07,1.6882824396506513e-05
2e-07,4.3499588522000714e-07,3.325731661572247e-07,1.670625756545355e-05
2e-07,4.3270788564968827e-07,3.293378161318143e-07,1.6524939434899988e-05
2e-07,4.304914655546133e-07,3.2609871249967186e-07,1.6339441780964947e-05
1.9966381396020672e-06,4.2837127762643025e-07,3.228629797966062e-07,1.6150194689578657e-05
1.990767523740995e-06,4.2636536450534593e-07,3.19637592811204e-07,1.5957516406736142e-05
1.983661035279157e-06,4.244868962312307e-07,3.1642985661569e-07,1.5761648468070582e-05
1.975355964707831e-06,4.2274679018473026e-07,3.1324742440929215e-07,1.5562783671845707e-05
1.9659042175359415e-06,4.2115454290792344e-07,3.100989732403369e-07,1.5361075278378797e-05
1.95537306552263e-06,4.197167695404544e-07,3.069946502702697e-07,1.515663106368807e-05
1.9438444241607293e-06,4.184370193246728e-07,3.0394476084147987e-07,1.4949505285191067e-05
1.931412609186779e-06,4.173190613934306e-07,3.009576382065576e-07,1.4739702113751974e-05
1.9181773134325085e-06,4.163693633333474e-07,2.9803869565988543e-07,1.4527191342695874e-05
1.9042319114373887e-06,4.1559458067326813e-07,2.951911841768096e-07,1.4311940781650347e-05
1.8896538803919597e-06,4.149979596781009e-07,2.924177368390966e-07,1.4093967509603845e-05
1.8745023509041728e-06,4.145798867336606e-07,2.8972139616839053e-07,1.3873370456296326e-05
1.8588199758704121e-06,4.143422704777115e-07,2.871057191132313e-07,1.3650315558075575e-05
1.8426348401630559e-06,4.142931136755021e-07,2.8457456452954176e-07,1.3425000764215945e-05
1.82596297998867e-06,4.14447382638177e-07,2.821326982028888e-07,1.3197626565529499e-05
1.8088122616367973e-06,4.1482425918082327e-07,2.797872248519271e-07,1.2968374009586106e-05
1.7911851820393192e-06,4.154443114430565e-07,2.775475441489581e-07,1.2737402495403213e-05
1.7730800476657962e-06,4.1632702340872344e-07,2.75423791103932e-07,1.2504877968009598e-05
1.7544924647183984e-06,4.174874657050424e-07,2.7342626818403866e-07,1.2271018805979565e-05
1.7354181881469433e-06,4.189345137640314e-07,2.715652416673751e-07,1.203613043675314e-05
1.715858180100563e-06,4.2067272913728966e-07,2.698494069785631e-07,1.1800601255585085e-05
1.6958242986390302e-06,4.227045546144949e-07,2.6828402858430966e-07,1.1564859254544945e-05
1.6753399639203251e-06,4.25028820461166e-07,2.6687049719151977e-07,1.1329323041295434e-05
1.6544339030420315e-06,4.2763790556338465e-07,2.6560747251317464e-07,1.1094395756288859e-05
1.6331327526518237e-06,4.3051826678133467e-07,2.644917358521781e-07,1.0860519617547943e-05
1.6114575792572652e-06,4.3365365912456753e-07,2.635176248434025e-07,1.0628228639773747e-05
1.5894236591360908e-06,4.3702787894647257e-07,2.6267650753285387e-07,1.039811937588177e-05
1.5670414386465383e-06,4.4062626147439116e-07,2.619570716042058e-07,1.0170773028773888e-05
1.5443184669041368e-06,4.444354310329304e-07,2.613458299382048e-07,9.946729961749293e-06
1.5212632731884536e-06,4.484407434376216e-07,2.6082808929736774e-07,9.726542690296387e-06
1.4978900337313376e-06,4.5262324541743266e-07,2.60389356122301e-07,9.510879754519057e-06
1.474220544639044e-06,4.569592512481797e-07,2.600164226301517e-07,9.300634015776046e-06
1.4502822710002931e-06,4.614231633068608e-07,2.596982798592314e-07,9.096939575765532e-06
1.4261046638065154e-06,4.6599041342289107e-07,2.594271693518147e-07,8.901057348847686e-06
1.4017173654557315e-06,4.706373210358632e-07,2.5919899325681906e-07,8.714215019541528e-06
1.3771516428030542e-06,4.75338710866071e-07,2.5901230827798483e-07,8.537496504975708e-06
1.3524414604291044e-06,4.800661052997816e-07,2.588668419188656e-07,8.371826531449489e-06
1.327621125784884e-06,4.847876201506184e-07,2.587634218350829e-07,8.218061143377431e-06
1.30272227796161e-06,4.89469610363411e-07,2.587050704146808e-07,8.077117874232958e-06
1.277773448664312e-06,4.940788442702588e-07,2.586970867553344e-07,7.950027009263492e-06
1.2528006257239425e-06,4.985838871336228e-07,2.587458110284888e-07,7.837855033968886e-06
1.227827699635416e-06,5.029561234646334e-07,2.5885763704992e-07,7.741554970680372e-06
1.2028785156729336e-06,5.071702036575147e-07,2.5903910904039026e-07,7.661841339928505e-06
1.1779797215629434e-06,5.112039127176012e-07,2.5929772776119697e-07,7.599154394566382e-06
1.153161596666819e-06,5.150382046900505e-07,2.596419970561419e-07,7.553685129525983e-06
1.1284575024205185e-06,5.186569828537604e-07,2.600801146570701e-07,7.525411688014382e-06
1.1039051109325666e-06,5.220475837582319e-07,2.6061877551745e-07,7.514186036794238e-06
1.079549247767477e-06,5.252018636698052e-07,2.6126375286179605e-07,7.519923579297874e-06
1.0554436261051726e-06,5.281145155082537e-07,2.6202257138067653e-07,7.542803830906285e-06
1.0316519570158644e-06,5.30779444143001e-07,2.629062756315188e-07,7.583305348175662e-06
1.0082502188663641e-06,5.331887652426104e-07,2.6392747953926604e-07,7.642052161070526e-06
9.853282849577105e-07,5.353347413626454e-07,2.650977593889939e-07,7.719605556594864e-06
9.62988006009533e-07,5.37211859418e-07,2.664285391138087e-07,7.816306446693328e-06
9.413370908046469e-07,5.3881788345307e-07,2.679342986148333e-07,7.932245095287117e-06
9.20481311216785e-07,5.401535377349609e-07,2.696338064472787e-07,8.067424484657106e-06
9.005195432779753e-07,5.412205523766949e-07,2.715478136821502e-07,8.22201500753e-06
8.815410801750832e-07,5.420199880113069e-07,2.736953538821131e-07,8.396476687031752e-06
8.636205139371277e-07,5.425525543192981e-07,2.760903847256047e-07,8.59148991215251e-06
8.468124988979066e-07,5.428192534891289e-07,2.7873955625902045e-07,8.807795596809544e-06
8.311526151793334e-07,5.428206956845548e-07,2.8164256731267546e-07,9.046014189196557e-06
8.166629854710159e-07,5.425559965650122e-07,2.847947910901249e-07,9.306478087133943e-06
8.033579259571452e-07,5.420227420921712e-07,2.8818908322312145e-07,9.589115509431383e-06
7.912496598911109e-07,5.412184174811662e-07,2.918155479920545e-07,9.893408336746118e-06
7.803542196590953e-07,5.40142657380387e-07,2.956605808416126e-07,1.0218415160334207e-05
7.706935913567889e-07,5.38798907686014e-07,2.997058726103409e-07,1.0562827444282873e-05
7.622918177093845e-07,5.371940895994089e-07,3.039283879573941e-07,1.0925034592475444e-05
7.551688529409838e-07,5.353367849549407e-07,3.0830194123457807e-07,1.130318343392869e-05
7.493376009377404e-07,5.332356667804704e-07,3.1279929618158484e-07,1.169521504750799e-05
7.44804550831716e-07,5.308986302046822e-07,3.1739448745056746e-07,1.2098877006820896e-05
7.415708438468571e-07,5.283326758632704e-07,3.220646938639251e-07,1.251173820490578e-05
7.396335266858019e-07,5.255456187859262e-07,3.2678943811797385e-07,1.293124237903206e-05
7.389894857351584e-07,5.225500349331515e-07,3.315477572739891e-07,1.3354802778829975e-05
7.396396293934205e-07,5.193677516223208e-07,3.363164911078339e-07,1.3779889467574694e-05
7.415856751977603e-07,5.160326948293339e-07,3.410704536728168e-07,1.4204071705076733e-05
7.448206073818152e-07,5.12590466173677e-07,3.457838778943068e-07,1.462503921029802e-05
7.493251123906223e-07,5.090936438034686e-07,3.504328456260763e-07,1.5040620313201858e-05
7.550746333754704e-07,5.055947182608242e-07,3.5499779649566286e-07,1.5448765708097038e-05
7.620474825342483e-07,5.021409584156816e-07,3.594649836707019e-07,1.5847494837974883e-05
7.70227003849342e-07,4.987733464196991e-07,3.6382539557953493e-07,1.6234857077791565e-05
7.796008348900179e-07,4.955290933971301e-07,3.6807122529490033e-07,1.6608935011421333e-05
7.901582793052746e-07,4.924466826048018e-07,3.721934029506835e-07,1.6967873744219587e-05
8.018825142631493e-07,4.895711265624586e-07,3.7618193391822463e-07,1.7309919278491514e-05
8.147404056006354e-07,4.869557576257132e-07,3.8002656197262397e-07,1.763344454332705e-05
8.286769934736864e-07,4.846585141059519e-07,3.837167607009625e-07,1.7936951723452406e-05
8.43616183698028e-07,4.8273494748002e-07,3.8724251017371785e-07,1.821907001857746e-05
8.594636137983446e-07,4.812332539150844e-07,3.905954671922268e-07,1.8478567629077915e-05
8.761094791071095e-07,4.801946981895713e-07,3.9376917400010337e-07,1.871437757652745e-05
8.934319731399538e-07,4.796564757488821e-07,3.9675840196831455e-07,1.892560844620532e-05
9.113013713154259e-07,4.796512316161871e-07,3.995578519543238e-07,1.9111518434689398e-05
9.295843196202112e-07,4.80203183376066e-07,4.021609319485e-07,1.9271491096637256e-05
9.481467027870001e-07,4.813256797665672e-07,4.0456078342508396e-07,1.9405053915552352e-05
9.668537532774876e-07,4.830212208438563e-07,4.067537168721338e-07,1.9511935267787838e-05
9.855706854676242e-07,4.852816672368862e-07,4.0874168422412673e-07,1.959214213823862e-05
1.0041665616780115e-06,4.880883836920389e-07,4.1053146271054795e-07,1.9646014441647545e-05
1.0225183861313409e-06,4.914139036667276e-07,4.1213182775867045e-07,1.9674192881864528e-05
1.0405120734587944e-06,4.95226731477724e-07,4.1355138810667686e-07,1.9677503241403445e-05
1.0580407180877528e-06,4.994970115243615e-07,4.1479921664279096e-07,1.96568284453582e-05
1.075004172712434e-06,5.041985032150975e-07,4.1588693553743616e-07,1.961303690079108e-05
1.0913122063370796e-06,5.093081288468355e-07,4.168279596859385e-07,1.9546987771181085e-05
1.106886736086527e-06,5.148064873759192e-07,4.1763435276820936e-07,1.945956415401516e-05
1.121659110642372e-06,5.206775697639788e-07,4.1831558097564935e-07,1.935167298968373e-05
1.1355652172085123e-06,5.269054453277774e-07,4.1887910460005284e-07,1.922421684392612e-05
1.1485431445907681e-06,5.334697232362874e-07,4.193305904780319e-07,1.9078101775225755e-05
1.1605342043625281e-06,5.403423949746091e-07,4.196737591173145e-07,1.891435468339216e-05
1.1714843816422406e-06,5.474872914714563e-07,4.1991025532153136e-07,1.873432347691527e-05
1.181344820035491e-06,5.548631868309136e-07,4.2003957076264313e-07,1.8539788757255897e-05
1.190072541758588e-06,5.624289493715373e-07,4.200591206892092e-07,1.833287953984246e-05
1.1976321321081965e-06,5.701470084519232e-07,4.1996446192714436e-07,1.8115873851203426e-05
1.2039981796102105e-06,5.779845058447028e-07,4.197500008100354e-07,1.78910284939228e-05
1.2091570106839684e-06,5.859119170369978e-07,4.1941012225808346e-07,1.7660571110704244e-05
1.2131055288322414e-06,5.938988503470417e-07,4.189395689450125e-07,1.7426830480149062e-05
1.215847475441706e-06,6.019108489965185e-07,4.1833272766284474e-07,1.7192289574894253e-05
1.2173904818849665e-06,6.099103056489425e-07,4.175834806502625e-07,1.6959487016917166e-05
1.2177452209187634e-06,6.178599541508161e-07,4.166870753773498e-07,1.6730888787766872e-05
1.216924579161426e-06,6.257251861771387e-07,4.1564217210820727e-07,1.6508801620985356e-05
1.2149428980753245e-06,6.33472629514331e-07,4.144499576117739e-07,1.629531927178573e-05
1.2118160421748458e-06,6.410670377489578e-07,4.131111718748065e-07,1.6092277456371735e-05
1.2075606934061802e-06,6.484700862349404e-07,4.116242115897561e-07,1.5901208031592108e-05
1.2021934901248436e-06,6.55640722042755e-07,4.0998546002510423e-07,1.5723312104525213e-05
1.1957315431262342e-06,6.62535413440798e-07,4.0819155089284675e-07,1.555947395042956e-05
1.1881929519097666e-06,6.691088434644578e-07,4.062422247650793e-07,1.5410310627608762e-05
1.179596830217103e-06,6.753153076731245e-07,4.0414181293131773e-07,1.5276219583794806e-05
1.1699637492966942e-06,6.811098750862586e-07,4.018986267315407e-07,1.5157387791587488e-05
1.1593158761900637e-06,6.864491650850459e-07,3.995227332510085e-07,1.5053769676977566e-05
1.1476768730353745e-06,6.912921631218594e-07,3.9702341874290317e-07,1.4965068134180594e-05
1.135073520859764e-06,6.956012902242139e-07,3.944076338162337e-07,1.4890742465959271e-05
1.121538750655145e-06,6.993433320057657e-07,3.916796433834496e-07,1.4830046308582293e-05
1.1071131430568064e-06,7.024891200144689e-07,3.888414914257099e-07,1.4782075631041215e-05
1.0918439312736125e-06,7.050133149228239e-07,3.8589392126384526e-07,1.4745807712498822e-05
1.0757845140059827e-06,7.068969433099374e-07,3.8283761224397495e-07,1.4720136510786497e-05
1.0589983011567695e-06,7.081299284656703e-07,3.796740774301109e-07,1.4703917514699065e-05
1.0415663033398391e-06,7.08709999632973e-07,3.764054586345604e-07,1.4696017016442013e-05
1.0235921927968514e-06,7.086402344964327e-07,3.7303373167528117e-07,1.4695342857557416e-05
1.0051986165746951e-06,7.07926858154013e-07,3.695601212060098e-07,1.470084592905166e-05
9.865158743527164e-07,7.065772441175152e-07,3.6598550684484894e-07,1.4711502248687518e-05
9.676707264406307e-07,7.046010087787805e-07,3.623129660689535e-07,1.4726285321891269e-05
9.487820053774641e-07,7.020144156023214e-07,3.585514298838058e-07,1.4744155290167071e-05
9.299632932328104e-07,6.988439879083063e-07,3.547174248087317e-07,1.476410768628666e-05
9.11327317050618e-07,6.951277705082918e-07,3.508337993742865e-07,1.4785255097958834e-05
8.929877689217871e-07,6.90915305248123e-07,3.4692693702575806e-07,1.480684898970312e-05
8.750591031824188e-07,6.862663107681115e-07,3.4302516145666176e-07,1.482822434046119e-05
8.576552504227703e-07,6.812467229209392e-07,3.391587713824696e-07,1.484873776911048e-05
8.408860947972646e-07,6.759220278137637e-07,3.353585542680773e-07,1.4867738249005652e-05
8.248513484463035e-07,6.703513678003487e-07,3.3165242850548264e-07,1.4884555229276486e-05
8.096346648317019e-07,6.645854886153769e-07,3.280633123168687e-07,1.489849435865675e-05
7.953009961484679e-07,6.58667489158685e-07,3.2460922750652125e-07,1.4908851803016267e-05
7.818965595905937e-07,6.526341770168251e-07,3.213051268242193e-07,1.4914948911541345e-05
7.694505321689002e-07,6.465175415855313e-07,3.1816542996467924e-07,1.4916180000140833e-05
7.579789589119397e-07,6.403462499940362e-07,3.1520478500434434e-07,1.4912075219802294e-05
7.474890238323309e-07,6.341462234775032e-07,3.124359891900003e-07,1.4902380630793274e-05
7.379812559900353e-07,6.279415995399064e-07,3.098676766704067e-07,1.4887132844555331e-05
7.294495579543933e-07,6.217592318795867e-07,3.075052227664793e-07,1.4866665988218835e-05
7.218794071555008e-07,6.156358605245417e-07,3.0535459049428575e-07,1.4841512422453647e-05
7.152460187820469e-07,6.096233781414502e-07,3.0342422964239613e-07,1.4812247539497756e-05
7.095162738229319e-07,6.037898616820862e-07,3.0172254079774143e-07,1.4779362772930106e-05
7.046549678506305e-07,5.982174563705034e-07,3.002551635815212e-07,1.4743210221454955e-05
7.00630418380548e-07,5.929989806651236e-07,2.990258720287765e-07,1.4704005947986773e-05
6.974153426371686e-07,5.882336583005343e-07,2.9803995308508184e-07,1.4661852387883591e-05
6.949846666629018e-07,5.840196416728464e-07,2.973066080169199e-07,1.461679000988889e-05
6.93312326572603e-07,5.804437703017641e-07,2.9683715298677125e-07,1.4568951283172955e-05
6.923671152310018e-07,5.775741642718005e-07,2.966408623708185e-07,1.451878533313792e-05
6.921106970719504e-07,5.754584432146831e-07,2.9672422126767764e-07,1.4467152212425355e-05
6.925012862363681e-07,5.741254846496157e-07,2.9709335781801013e-07,1.441518894228826e-05
6.935005923174252e-07,5.735875651925942e-07,2.9775434984134864e-07,1.4364080247921945e-05
6.95078816563775e-07,5.738421804358883e-07,2.987112371786451e-07,1.4314876028488147e-05
6.972153726995354e-07,5.748764249843136e-07,2.999646993442339e-07,1.4268432825017263e-05
6.998964383783363e-07,5.766744242526395e-07,3.015111411197154e-07,1.4225556835586389e-05
7.031120032323144e-07,5.792241146746157e-07,3.033417262491446e-07,1.4187279166154215e-05
7.068529730833955e-07,5.825207621666535e-07,3.0544242838974e-07,1.4155005756564053e-05
7.111065787648023e-07,5.865670783981772e-07,3.0779515764361174e-07,1.4130417763563418e-05
7.158519144528369e-07,5.913699542063638e-07,3.1037914985374784e-07,1.4115269308477594e-05
7.210586130479627e-07,5.969336845467148e-07,3.131723570826934e-07,1.4111243062106433e-05
7.266875271539285e-07,6.032525541020125e-07,3.161523014946281e-07,1.4119876485497596e-05
7.326933236765554e-07,6.103072020530257e-07,3.192952890591761e-07,1.4142508292652954e-05
7.390297402831458e-07,6.18065290098209e-07,3.22574779437058e-07,1.4180230176626999e-05
7.456535582482399e-07,6.264844819163269e-07,3.25960896733396e-07,1.4233868960171021e-05
7.52524071802517e-07,6.355155160406078e-07,3.294217244738308e-07,1.4304001971497852e-05
7.596011990584149e-07,6.451025761123335e-07,3.329265617507976e-07,1.4390960857691128e-05
7.668457690332896e-07,6.551812563756901e-07,3.3645022948370447e-07,1.4494793945109879e-05
7.742200855771144e-07,6.656783308232561e-07,3.399750284954227e-07,1.4615212945226819e-05
7.816871096982575e-07,6.765156903045263e-07,3.434884473921774e-07,1.4751563528111536e-05
7.892105241145282e-07,6.876164073390843e-07,3.469790498246613e-07,1.4902838965957386e-05
7.96755449237359e-07,6.989094447578233e-07,3.504336640228572e-07,1.5067744912505438e-05
8.04287451920241e-07,7.103309645514266e-07,3.538370416681654e-07,1.524481197060474e-05
8.11771468331043e-07,7.218222786269221e-07,3.571732455464626e-07,1.5432524881527758e-05
8.19172418735452e-07,7.333263449622435e-07,3.6042687659262867e-07,1.562941909668617e-05
8.264547475465823e-07,7.447851162089034e-07,3.6358320927723544e-07,1.5834121344540154e-05
8.335802954202207e-07,7.56138592175767e-07,3.666275018113771e-07,1.6045352942670244e-05
8.405082407217913e-07,7.673261296960745e-07,3.6954410940534745e-07,1.6261915300835798e-05
8.471972850965231e-07,7.782900436812203e-07,3.723162740015123e-07,1.6482656025526788e-05
8.536073735809406e-07,7.88977993395254e-07,3.749272923357786e-07,1.6706419727550207e-05
8.597004428651384e-07,7.993407835829609e-07,3.773626701214485e-07,1.6931994907935243e-05
8.654404504627644e-07,8.09328285261602e-07,3.796110867621386e-07,1.7158078699506446e-05
8.707932563632687e-07,8.188877640602703e-07,3.8166327565632206e-07,1.7383302134561452e-05
8.757270558279362e-07,8.279643344832784e-07,3.835108309957106e-07,1.7606302282844488e-05
8.80212283373196e-07,8.365024239595131e-07,3.851464101613265e-07,1.7825756417006898e-05
8.842209750264807e-07,8.444487735008887e-07,3.8656528890480256e-07,1.8040353773300978e-05
8.877271999539469e-07,8.517554425008676e-07,3.877672058918636e-07,1.8248758756914692e-05
8.907083183479454e-07,8.58380819430685e-07,3.887563432391915e-07,1.844960146113369e-05
8.931460590788687e-07,8.642892880272842e-07,3.895387473797821e-07,1.864149266791676e-05
8.950263463772369e-07,8.694502814820551e-07,3.901192738792254e-07,1.8823048634612745e-05
8.963376691791654e-07,8.738369658053566e-07,3.9050026108015023e-07,1.8992916481011328e-05
8.97070023452668e-07,8.77425698563178e-07,3.906821101131315e-07,1.9149798164811065e-05
