2.389532474746521e-07,3.453114502319639e-07,2.2242458622021323e-07,1.891457518760561e-05
2.3961149500450604e-07,3.415918329444467e-07,2.2456431497657753e-07,1.894984789450396e-05
2.403574240696949e-07,3.378554913362402e-07,2.2680638475914692e-07,1.8986025182936985e-05
2.4119512385818425e-07,3.3411803686226567e-07,2.2913898219369106e-07,1.9022584936365907e-05
2.4212822188321943e-07,3.303936092246603e-07,2.3154933657990857e-07,1.9058936368831478e-05
2.431588726051362e-07,3.266945454997009e-07,2.340241761375786e-07,1.909438914462297e-05
2.4428673711197e-07,3.2303169008010967e-07,2.365501194656752e-07,1.912816389581644e-05
2.4550878124001717e-07,3.194152059974719e-07,2.3911311815055705e-07,1.915942215477698e-05
2.468192525043675e-07,3.1585613495448286e-07,2.416974539374323e-07,1.918729706236041e-05
2.48209893551166e-07,3.1236802342879837e-07,2.4428613944346404e-07,1.9210931033438026e-05
2.496704418187686e-07,3.089665906148088e-07,2.468632242154035e-07,1.922951491871853e-05
2.511888467460977e-07,3.056674743352019e-07,2.4941580753804677e-07,1.9242330759053972e-05
2.5275184362366464e-07,3.024843713683219e-07,2.519330994339408e-07,1.9248818130766946e-05
2.543464560075341e-07,2.9942880880571536e-07,2.544042318960196e-07,1.924865755372859e-05
2.5596178103415324e-07,2.96510498925204e-07,2.568183017341268e-07,1.924181913082765e-05
2.5759047810083764e-07,2.937374446768364e-07,2.591653586183167e-07,1.9228520619574147e-05
2.5922926263271487e-07,2.9111635616702727e-07,2.6143602529080645e-07,1.920909777096172e-05
2.608775775546085e-07,2.886526913833124e-07,2.6362136331527053e-07,1.9183851701464223e-05
2.625352408567445e-07,2.8634937484728174e-07,2.657135509206255e-07,1.915295799131696e-05
2.642012362068061e-07,2.8420575548147924e-07,2.6770615077633176e-07,1.91164805541832e-05
2.6587424210276873e-07,2.822184339016881e-07,2.695948732555356e-07,1.9074446006098807e-05
2.675534611361669e-07,2.803831721231974e-07,2.7137854520871374e-07,1.902689780962229e-05
2.6923819773493964e-07,2.7869568944986296e-07,2.730581267587318e-07,1.8973907886783662e-05
2.7092652720935987e-07,2.7715079545467923e-07,2.746342785360084e-07,1.891560143682427e-05
2.726152699499177e-07,2.757419634893477e-07,2.7610590882899764e-07,1.885220474074805e-05
2.743009626618653e-07,2.744621709792089e-07,2.774704780614355e-07,1.8784015760450028e-05
2.759795336601753e-07,2.733044101580309e-07,2.7872475620922946e-07,1.871128014261938e-05
2.776452028343568e-07,2.722615019192581e-07,2.798650865075638e-07,1.863410051689737e-05
2.792902389145381e-07,2.713260029044922e-07,2.808876405032978e-07,1.855245987575237e-05
2.809058236171956e-07,2.704904910270981e-07,2.817894842908825e-07,1.846637816601515e-05
2.8248355596434924e-07,2.697481536057223e-07,2.8257044982398053e-07,1.837618569185537e-05
2.840167938695149e-07,2.6909255316399165e-07,2.8323399741747165e-07,1.8282739385600315e-05
2.855015118649193e-07,2.6851635960764e-07,2.837855242132689e-07,1.8187395611238725e-05
2.869367962386235e-07,2.680106614339689e-07,2.842298994070796e-07,1.809180591008572e-05
2.883240210761747e-07,2.675653553199399e-07,2.845709065226853e-07,1.799771616325246e-05
2.8966459737972933e-07,2.671700420480843e-07,2.848124631079676e-07,1.7906819415287987e-05
2.909588477061477e-07,2.6681472652338736e-07,2.849600036724445e-07,1.7820628194160358e-05
2.9220660591956805e-07,2.664899923779076e-07,2.8502115449258317e-07,1.7740366221877757e-05
2.934073808572869e-07,2.661875002056416e-07,2.8500523701176424e-07,1.7666908038738287e-05
2.945599426892015e-07,2.659011646290756e-07,2.8492135734049103e-07,1.760077601850313e-05
2.956622823212373e-07,2.656274757835234e-07,2.847763405070827e-07,1.7542174373928487e-05
2.967114721356544e-07,2.653637210516376e-07,2.845744942177597e-07,1.7491025715701415e-05
2.977036179921004e-07,2.651056633174884e-07,2.843185604807436e-07,1.7446998821923105e-05
2.986353157951529e-07,2.6484711125919626e-07,2.840100454102601e-07,1.740955147666355e-05
2.9950610034538213e-07,2.645814584808293e-07,2.836498169048285e-07,1.7378000345152e-05
3.003195322090881e-07,2.6430286642727785e-07,2.83240190826089e-07,1.7351605434292402e-05
3.010820246985184e-07,2.64005680267076e-07,2.8278657423541737e-07,1.7329663191922548e-05
3.0180030424667787e-07,2.636845286230641e-07,2.822964371017638e-07,1.7311595292456728e-05
3.024791823058593e-07,2.633371840757696e-07,2.817772414266417e-07,1.7296997587443796e-05
3.0312149445530784e-07,2.6296656920047965e-07,2.812359828429649e-07,1.7285637449196114e-05
3.037304874526207e-07,2.625787639255329e-07,2.8067958980289304e-07,1.727743334265195e-05
3.043121583839325e-07,2.6218037435455985e-07,2.801141431663089e-07,1.727243578220946e-05
3.048745147080597e-07,2.6177767675601247e-07,2.795435702703014e-07,1.727078722647677e-05
3.0542489998012525e-07,2.6137574130662305e-07,2.789700071125878e-07,1.7272655571481425e-05
3.059692647530458e-07,2.609784050858523e-07,2.783957346791356e-07,1.7278172956462262e-05
3.0651315586891585e-07,2.6059099383019534e-07,2.7782527133684456e-07,1.7287388464140062e-05
3.0706164116408465e-07,2.6022237647367747e-07,2.772666401462153e-07,1.7300220181001236e-05
3.076186443396371e-07,2.598828500798585e-07,2.7673064577124227e-07,1.7316434579988682e-05
3.081871684187814e-07,2.595808092243293e-07,2.7622896146934977e-07,1.7335673802962907e-05
3.0876970907085926e-07,2.593219039659596e-07,2.757728724102904e-07,1.7357488801446235e-05
3.0936825763351e-07,2.5910981854926944e-07,2.753724163770937e-07,1.7381365041948545e-05
3.0998436951547624e-07,2.589467421030509e-07,2.750357413079861e-07,1.7406774932202482e-05
3.106193047413071e-07,2.5883362089840057e-07,2.747691482427527e-07,1.7433251003465727e-05
3.112743011410806e-07,2.5877059225412445e-07,2.74577136547623e-07,1.746041549008106e-05
3.1195140547555643e-07,2.587576920143821e-07,2.7446210514820297e-07,1.7487918322675438e-05
3.126541496163653e-07,2.587961056646121e-07,2.744245033125844e-07,1.7515332624038855e-05
3.133873736417303e-07,2.5888858695183894e-07,2.74463554936287e-07,1.7542097147765444e-05
3.141567691100183e-07,2.590381215814848e-07,2.7457766430422825e-07,1.756753145831985e-05
3.149686962264628e-07,2.5924632444401303e-07,2.747645717291856e-07,1.759090810609543e-05
3.1583080336848267e-07,2.5951245437307077e-07,2.7502235586678216e-07,1.7611568230036217e-05
3.16752641467768e-07,2.59833350320006e-07,2.753511015368405e-07,1.762903105764251e-05
3.1774391354936137e-07,2.602045499848488e-07,2.757530775338937e-07,1.7643009721137375e-05
3.188112644230509e-07,2.606213237637044e-07,2.762305396708301e-07,1.765331639997618e-05
3.199571134802802e-07,2.610782840759699e-07,2.767836957223537e-07,1.7659750573394464e-05
3.211806072499325e-07,2.615684816413549e-07,2.7741017031762987e-07,1.7662057784474113e-05
3.2247803443897856e-07,2.620839822279916e-07,2.781048887495829e-07,1.7659948906593548e-05
3.238425750207145e-07,2.6261811170086405e-07,2.788606660712844e-07,1.7653118289729498e-05
3.2526553210151594e-07,2.6316742050202627e-07,2.796690226496645e-07,1.7641230222793272e-05
3.267387295966352e-07,2.637311902076066e-07,2.805197266966928e-07,1.762391497176688e-05
3.2825560914020683e-07,2.6430859485805385e-07,2.81400040508948e-07,1.7600872060239482e-05
3.298104367301757e-07,2.64896237757802e-07,2.8229491342770717e-07,1.7572068212438143e-05
3.313969176704485e-07,2.654879109309985e-07,2.8318807441185414e-07,1.7537828161973584e-05
3.330072276833155e-07,2.6607642591568853e-07,2.840638394953759e-07,1.749870826203989e-05
3.346318732413499e-07,2.666563991349297e-07,2.84908353360227e-07,1.7455284761633102e-05
3.3626027781452194e-07,2.6722541743721754e-07,2.8570932553914237e-07,1.740801556721787e-05
3.378814581954732e-07,2.6778222212301824e-07,2.864557547758172e-07,1.7357260933616667e-05
3.394851042666193e-07,2.6832428606521645e-07,2.8713865341508304e-07,1.7303485926864803e-05
3.410630685164253e-07,2.688472501545661e-07,2.877516310429657e-07,1.7247500444721703e-05
3.4260960107120525e-07,2.693456566614077e-07,2.8829079865017045e-07,1.719051816742042e-05
3.4412091199634554e-07,2.698136442801995e-07,2.887543822906924e-07,1.7134015802189932e-05
3.455959890757254e-07,2.702455823635532e-07,2.891419760178409e-07,1.707953980066939e-05
3.470371895625686e-07,2.706366231404816e-07,2.894539568415509e-07,1.702855586909046e-05
3.4844848272489765e-07,2.7098285773005626e-07,2.89691564799843e-07,1.6982348997586938e-05
3.498328190391952e-07,2.7128103099602854e-07,2.898570266783081e-07,1.6941955451951636e-05
3.511910428073011e-07,2.715277558409594e-07,2.899537982697613e-07,1.6908114383790672e-05
3.5252222048451475e-07,2.7171909773396417e-07,2.89987170621553e-07,1.688124013888645e-05
3.5382447844040924e-07,2.718510802480893e-07,2.899643615756861e-07,1.6861431495283433e-05
3.550962450108191e-07,2.719199602720785e-07,2.898939598250247e-07,1.6848518066908348e-05
3.56337003516366e-07,2.719223391663414e-07,2.89785588084368e-07,1.6842103748690898e-05
3.57546139262712e-07,2.7185616178968336e-07,2.896495102556126e-07,1.6841589902785833e-05
3.587207727992765e-07,2.7172165651174144e-07,2.8949600215316573e-07,1.6846206497866598e-05
3.598548174168839e-07,2.7152108870679745e-07,2.8933575605337703e-07,1.6855066955195366e-05
3.60939692622073e-07,2.7125769827029485e-07,2.891803184277628e-07,1.686724390881673e-05
3.6196621360589096e-07,2.7093421812013104e-07,2.8904061067013466e-07,1.688185283529637e-05
3.6292652613918253e-07,2.7055153841456976e-07,2.889254169564084e-07,1.689810469308303e-05
3.6381419387142505e-07,2.7010859658760927e-07,2.888417635577454e-07,1.6915305744150852e-05
3.64622793699794e-07,2.6960408760125705e-07,2.8879556581544836e-07,1.693284349834377e-05
3.653452062218768e-07,2.6903918827480433e-07,2.887914587974733e-07,1.695019904239773e-05
3.6597401474791865e-07,2.684186980296669e-07,2.888333637235004e-07,1.6966967368037813e-05
3.665017902659512e-07,2.6774921131083213e-07,2.8892554451337986e-07,1.698284750704859e-05
3.66920892343711e-07,2.6703667147101997e-07,2.890716353988559e-07,1.6997597222108468e-05
3.672240026568689e-07,2.662856942297322e-07,2.892724399805002e-07,1.7010972207551512e-05
3.6740664950430976e-07,2.655004836667627e-07,2.8952528184318626e-07,1.7022680592560053e-05
3.6747054245893955e-07,2.646862402491492e-07,2.8982454366275823e-07,1.703238956749656e-05
3.67424486943709e-07,2.638502383416296e-07,2.9016210906442863e-07,1.703976651971904e-05
3.672814679499883e-07,2.630021055552928e-07,2.9052798449846194e-07,1.7044483049513002e-05
3.67054667805929e-07,2.621527767492391e-07,2.909111317107111e-07,1.704617058901047e-05
3.667556212753249e-07,2.6131271748067824e-07,2.913004952797727e-07,1.704439638613397e-05
3.663938567738464e-07,2.604909898816185e-07,2.916868760137701e-07,1.7038705222492178e-05
3.6597679372912825e-07,2.5969511611533735e-07,2.9206534045862443e-07,1.7028672521577005e-05
3.6551028318500683e-07,2.589308610238201e-07,2.924359323284523e-07,1.7013895259097776e-05
3.6499899175140096e-07,2.5820193080705197e-07,2.9280131507712736e-07,1.699396205323508e-05
3.6444629484727357e-07,2.575099409792455e-07,2.9316427578416236e-07,1.6968473228000773e-05
3.638554688389429e-07,2.568552081555261e-07,2.935279648924122e-07,1.6937081814475785e-05
3.6323171917132686e-07,2.5623843105194805e-07,2.938966867975505e-07,1.6899516417746743e-05
3.6258185541100285e-07,2.556617362490207e-07,2.942750567332566e-07,1.685562035676096e-05
3.619118215059911e-07,2.551282084478425e-07,2.946670739072491e-07,1.6805419523443385e-05
3.612257556835268e-07,2.5464107452466887e-07,2.950764322080534e-07,1.6749139075303382e-05
3.605273726283594e-07,2.542029887539834e-07,2.955069481837461e-07,1.66871165858641e-05
3.598211122085387e-07,2.5381514437929304e-07,2.959615821098537e-07,1.66196940438199e-05
3.5911209755603226e-07,2.5347680434103195e-07,2.964411855504541e-07,1.6547193012771445e-05
3.584059095059796e-07,2.5318550064949643e-07,2.969452386306675e-07,1.6469959453096962e-05
3.57707917767926e-07,2.52937551024791e-07,2.9747310577645066e-07,1.6388399960848457e-05
3.570218359406807e-07,2.527285298917852e-07,2.980240644830049e-07,1.6302968893760918e-05
3.563486162688589e-07,2.5255326407193825e-07,2.985979336877509e-07,1.6214122667885236e-05
3.556861515699514e-07,2.524057356740217e-07,2.9919645975225875e-07,1.6122329403846023e-05
3.550294116171345e-07,2.5227967720824556e-07,2.998233291897512e-07,1.6028189575730944e-05
3.543707831429647e-07,2.521691346585998e-07,3.00482500102483e-07,1.5932534146838654e-05
3.537003799700253e-07,2.520679353657463e-07,3.0117679540702053e-07,1.583635305371814e-05
3.53006340427988e-07,2.5196886726778816e-07,3.0190891505844285e-07,1.5740621211522488e-05
3.5227535318738005e-07,2.518639686639769e-07,3.0268336813218e-07,1.56461635374077e-05
3.514935792953969e-07,2.517460233348495e-07,3.0350619761430426e-07,1.5553642293012608e-05
3.506483094739862e-07,2.5161007110593466e-07,3.0438337510741684e-07,1.546371767135254e-05
3.497300349855143e-07,2.514537281055333e-07,3.053197741043836e-07,1.5377281019366227e-05
3.4873326003350147e-07,2.5127630735078303e-07,3.063186890591513e-07,1.5295528403040522e-05
3.4765598857759704e-07,2.510773529493357e-07,3.0738232131007e-07,1.5219822665863436e-05
3.465003195811629e-07,2.508552788345018e-07,3.085130790066699e-07,1.515150002811198e-05
3.452736829546369e-07,2.506071425804151e-07,3.097138676937752e-07,1.5091729708886042e-05
3.4398777745964045e-07,2.5032993920550484e-07,3.109864027707137e-07,1.5041432523597027e-05
3.426563898537547e-07,2.500223124032943e-07,3.123289502979477e-07,1.5001244684649469e-05
3.412946284834826e-07,2.496859050901192e-07,3.137358263939663e-07,1.4971518074738265e-05
3.3991848126315645e-07,2.493262793588772e-07,3.151991207666512e-07,1.4952343845353644e-05
3.385435381864399e-07,2.4895194614471445e-07,3.1671057766270197e-07,1.4943585992781601e-05
3.371838804537694e-07,2.4857136435508016e-07,3.1826161389299197e-07,1.4944917629298422e-05
3.358519212156813e-07,2.481905956360312e-07,3.1984216893781557e-07,1.4955844805102355e-05
3.345585951266164e-07,2.47813001409924e-07,3.2144021893287566e-07,1.4975706204485584e-05
3.3331342684649556e-07,2.4744076626475097e-07,3.2304204786596077e-07,1.5003666360368206e-05
3.3212495722047237e-07,2.4707752453773884e-07,3.2463267589845783e-07,1.5038733833412909e-05
3.310010399721266e-07,2.467299644752365e-07,3.2619643291687004e-07,1.5079818938800283e-05
3.299485474536216e-07,2.464066074596651e-07,3.27717334947612e-07,1.5125814531097312e-05
3.2897375473587197e-07,2.461151221778676e-07,3.291787860909426e-07,1.5175657569650974e-05
3.280829862448483e-07,2.4586108511970177e-07,3.305631397077005e-07,1.5228348735862632e-05
3.27281610733677e-07,2.456486799128004e-07,3.31852231526811e-07,1.5282958937992e-05
3.26572321097493e-07,2.4548169328857534e-07,3.3302905332085107e-07,1.533864758091505e-05
3.259546217888218e-07,2.4536330606553864e-07,3.340789432740826e-07,1.539467028313868e-05
3.2542512597016985e-07,2.452947372228342e-07,3.34989418429827e-07,1.5450358122793955e-05
3.249779289771773e-07,2.452748713520177e-07,3.357502192322056e-07,1.550508825561969e-05
3.2460531950506055e-07,2.453025637311496e-07,3.363536046332561e-07,1.555826062714501e-05
3.2429845741406086e-07,2.4538049848853297e-07,3.367938242277815e-07,1.5609278624108542e-05
3.2404737837607777e-07,2.4551788757826537e-07,3.370665782046431e-07,1.565755487955897e-05
3.2384124264197365e-07,2.457295116530767e-07,3.371686585041193e-07,1.5702551271667793e-05
3.236699886890769e-07,2.460313326627118e-07,3.370974572360424e-07,1.5743801958717564e-05
3.2352646533305545e-07,2.464366793038881e-07,3.3685063539625845e-07,1.5780888807252435e-05
3.2340755301938485e-07,2.469552990100432e-07,3.3642595790317996e-07,1.5813404346381494e-05
3.2331382388700337e-07,2.475936434582168e-07,3.358215911872827e-07,1.5840933556653048e-05
3.232475269895083e-07,2.483552086576196e-07,3.350365168612998e-07,1.5863049212458812e-05
3.232097669739371e-07,2.492409115361593e-07,3.340703101223944e-07,1.5879302359903274e-05
3.2319878712738187e-07,2.502489295742491e-07,3.329232168262195e-07,1.588921461557543e-05
3.2320989106003565e-07,2.513741464497765e-07,3.315971621360757e-07,1.5892300138493482e-05
3.2323603036716853e-07,2.5260861034710497e-07,3.3009612582843104e-07,1.588812146265681e-05
3.2326824611999725e-07,2.539425563065594e-07,3.284251917395964e-07,1.5876356640408068e-05
3.2329604689555395e-07,2.5536442828898647e-07,3.265896153228429e-07,1.5856865818890862e-05
3.233083749728161e-07,2.568610548280995e-07,3.2459472507260873e-07,1.5829761032556134e-05
3.2329493728305823e-07,2.5841922581685057e-07,3.2244648115233424e-07,1.579543367235762e-05
3.232465218268053e-07,2.6002736757151305e-07,3.201527186251245e-07,1.575446958046395e-05
3.2315421542634003e-07,2.616771625585404e-07,3.1772491856543426e-07,1.5707488294882705e-05
3.230088580148494e-07,2.633652566918983e-07,3.151786971469495e-07,1.565502530730203e-05
3.22801066854892e-07,2.650921440434011e-07,3.125315688780624e-07,1.5597505182337064e-05
3.225213390440284e-07,2.668584082573612e-07,3.0980013949925716e-07,1.5535258967774453e-05
3.221601325488367e-07,2.686628447659741e-07,3.069992636731826e-07,1.5468543020263346e-05
3.217082900598597e-07,2.7050296955607646e-07,3.0414254366145076e-07,1.5397557167638183e-05
3.2115763094573264e-07,2.723754425526266e-07,3.012432811222877e-07,1.532250382382142e-05
3.205008100089124e-07,2.742764146002892e-07,2.983158295064117e-07,1.5243726757639942e-05
3.1973055050025957e-07,2.7620213933624966e-07,2.953761187213396e-07,1.5161826174690356e-05
3.1883923686291545e-07,2.781485687009085e-07,2.924405293198765e-07,1.5077606184678247e-05
3.1781909023336346e-07,2.801102691083056e-07,2.8952408900625817e-07,1.4991907105658667e-05
3.16662456150253e-07,2.8208088625247477e-07,2.86639308719276e-07,1.4905459800302512e-05
3.153619970878525e-07,2.840545138170041e-07,2.83796209569654e-07,1.4818838075364807e-05
3.1391083162817825e-07,2.8602521494856465e-07,2.810027714704236e-07,1.4732581209950414e-05
3.123026889666871e-07,2.879854288254967e-07,2.78264923692932e-07,1.4647446363874404e-05
3.1053244268141697e-07,2.8992586602068273e-07,2.7558667097198374e-07,1.456456470442366e-05
3.085969083758693e-07,2.918369805616738e-07,2.729711462075435e-07,1.4485366845468702e-05
3.064950028859187e-07,2.937112094998587e-07,2.7042222596232004e-07,1.4411392958045206e-05
3.042271132141757e-07,2.955447182463123e-07,2.6794555661824086e-07,1.4344135391021286e-05
3.017946672470765e-07,2.9733676944355285e-07,2.6554814218435717e-07,1.4284940149798534e-05
2.9920092414501717e-07,2.990874070960963e-07,2.632369303700589e-07,1.4234939107924511e-05
2.964532097381947e-07,3.007954752651147e-07,2.6101759091489393e-07,1.4195003032200895e-05
2.935652111606482e-07,3.024578004506391e-07,2.5889444129331197e-07,1.4165729122006073e-05
2.905568894953208e-07,3.040695026185195e-07,2.568710577461304e-07,1.4147459377938573e-05
2.874512852991066e-07,3.056243714436602e-07,2.5495009456469004e-07,1.4140292361082069e-05
2.842705844343833e-07,3.0711503521123647e-07,2.531324671955004e-07,1.4144076294586045e-05
2.810340263916743e-07,3.0853409098022643e-07,2.514171643792241e-07,1.4158416664263363e-05
2.7775781075951127e-07,3.0987577285008394e-07,2.4980206744482656e-07,1.418271071865467e-05
2.744559153759912e-07,3.111361580625448e-07,2.482855350176121e-07,1.4216186376388024e-05
2.7114049559540484e-07,3.123117189935801e-07,2.46867699031712e-07,1.4257941240398345e-05
2.678214025372939e-07,3.133978293417402e-07,2.4555005612846643e-07,1.4306997924279822e-05
2.645060552023952e-07,3.1438842228972375e-07,2.443339706337561e-07,1.4362366314386031e-05
2.612004730368695e-07,3.1527740974342327e-07,2.4322065049946606e-07,1.4423078027748644e-05
2.579112640122527e-07,3.160610171074994e-07,2.422129932094438e-07,1.4488188964358097e-05
2.5464764811114397e-07,3.167387937031989e-07,2.4131629698844764e-07,1.4556781499322056e-05
2.5142163127282873e-07,3.1731226736242125e-07,2.4053674544429086e-07,1.4627969068927204e-05
2.482460646706688e-07,3.177825311297388e-07,2.3988001786708704e-07,1.4700883240038113e-05
2.451328758834447e-07,3.1814891464465285e-07,2.393505646063297e-07,1.477465960309349e-05
2.4209308080843617e-07,3.1840926481328364e-07,2.389508163517277e-07,1.4848437370962094e-05
2.391375667820128e-07,3.185607809408473e-07,2.386812259834312e-07,1.4921358417401049e-05
2.3627717654249786e-07,3.1860084167983287e-07,2.385408532936793e-07,1.499258710712191e-05
2.3352240781927453e-07,3.185277470368805e-07,2.385274001866117e-07,1.5061364902078657e-05
2.308831495501918e-07,3.183411538852515e-07,2.386370013171992e-07,1.5127039246987912e-05
2.283681460793076e-07,3.180428879172313e-07,2.3886405992223424e-07,1.5189039030211292e-05
2.259846272020496e-07,3.176383741661285e-07,2.39201104004234e-07,1.5246841658066736e-05
2.2373855963811717e-07,3.1713630841726907e-07,2.396386817702773e-07,1.5299957295131153e-05
2.216351696203113e-07,3.1654593754482524e-07,2.4016518706437373e-07,1.5347930824212986e-05
2.1967925200905405e-07,3.158752758706256e-07,2.407668987972435e-07,1.539037970380573e-05
2.1787493829709934e-07,3.1513217512586586e-07,2.41429162443612e-07,1.5427084122289246e-05
2.1622539821785712e-07,3.1432654955836657e-07,2.4213900404708927e-07,1.5458067866000607e-05
2.1473373003670238e-07,3.134706251064313e-07,2.428874121610628e-07,1.548358378454168e-05
2.13404269841474e-07,3.125764094644473e-07,2.4366894314158864e-07,1.5504040866784945e-05
2.1224165614319986e-07,3.116531952417469e-07,2.4447930887043896e-07,1.5519948221745726e-05
2.112482132109564e-07,3.107069978153163e-07,2.453139331043239e-07,1.5531858995879236e-05
2.1042265653126425e-07,3.097411204246237e-07,2.4616764552093e-07,1.5540285076258654e-05
2.0976080549085157e-07,3.087566880677922e-07,2.470344509264991e-07,1.5545610391930666e-05
2.092574260822461e-07,3.077530772060086e-07,2.479085615335263e-07,1.554805110537609e-05
2.0890768446253592e-07,3.0672911591184877e-07,2.4878548996360696e-07,1.554769206504867e-05
2.0870687959796066e-07,3.056845946396749e-07,2.496608742936911e-07,1.5544570139975967e-05
2.0864953463774602e-07,3.046203577786887e-07,2.505298234418605e-07,1.5538727391296687e-05
2.0872933514479614e-07,3.035374526715443e-07,2.513893805691768e-07,1.5530200365625752e-05
2.089398774679997e-07,3.024377206096494e-07,2.522410159486585e-07,1.551898158408511e-05
2.0927527811764e-07,3.013259061412917e-07,2.5308995273867423e-07,1.5505028692716898e-05
2.0972974652456728e-07,3.002103544005183e-07,2.539420840030046e-07,1.5488347142332866e-05
2.102967299837933e-07,2.991011071116976e-07,2.548009450041546e-07,1.5469047187445107e-05
2.1096866377311835e-07,2.9800770755303803e-07,2.556666855350353e-07,1.544733418585853e-05
2.1173744519973787e-07,2.969383790716563e-07,2.56537187529778e-07,1.542349568001935e-05
2.125951015850159e-07,2.958999786203588e-07,2.5740995423927433e-07,1.539787218653695e-05
2.135336273395416e-07,2.9489806313061946e-07,2.582832753556746e-07,1.5370798588995012e-05
2.1454417554291717e-07,2.939371255573861e-07,2.5915594482823824e-07,1.5342555561715393e-05
2.156170293711483e-07,2.930207491756777e-07,2.6002619116542e-07,1.5313335027200935e-05
2.16742126397928e-07,2.921514802128729e-07,2.608913298390365e-07,1.528322063007162e-05
2.1790918215371615e-07,2.9133117584696267e-07,2.617489852174303e-07,1.5252196581491312e-05
2.1910849234802108e-07,2.9056172142395267e-07,2.625985607432552e-07,1.52201808257107e-05
2.2033315011622682e-07,2.89844630342444e-07,2.6344090391540945e-07,1.5187067992877844e-05
2.2158081450280452e-07,2.8917952166688625e-07,2.642768735184017e-07,1.5152765110754263e-05
2.228531941811121e-07,2.8856328875553534e-07,2.651069865753941e-07,1.5117201371575708e-05
2.241538843290854e-07,2.879915091999139e-07,2.6593193276675e-07,1.5080310611559747e-05
2.2548677540656876e-07,2.8746201553105976e-07,2.6675234130184067e-07,1.5042008764727167e-05
2.268554048153687e-07,2.8697768898712894e-07,2.6756797995749524e-07,1.5002181301911167e-05
2.282618411936616e-07,2.8654529265228054e-07,2.683771462426974e-07,1.4960671462510778e-05
2.297058160553294e-07,2.8617158943038127e-07,2.691758973124564e-07,1.4917259572485113e-05
2.3118523367792754e-07,2.858605194646332e-07,2.699580952618172e-07,1.487165149742555e-05
2.3269702073630968e-07,2.8561284371654844e-07,2.707178970861286e-07,1.4823503109544794e-05
2.342374579701531e-07,2.85427207708536e-07,2.714528812796457e-07,1.4772475284864315e-05
2.3580206631133488e-07,2.853013118459135e-07,2.721643803051269e-07,1.471828227208579e-05
2.3738537688378893e-07,2.852324304723403e-07,2.728550591418533e-07,1.46607031109686e-05
2.389812834435872e-07,2.852180525281977e-07,2.735269972343098e-07,1.4599568405526774e-05
2.4058431047006476e-07,2.852580949596791e-07,2.741820400560466e-07,1.4534763149766468e-05
2.4219042301128145e-07,2.8535736662638265e-07,2.7482246663592446e-07,1.4466263101937286e-05
2.437964091010013e-07,2.855253949707553e-07,2.754504858914173e-07,1.4394184258718024e-05
2.454000143734194e-07,2.85773405142064e-07,2.7606835671407284e-07,1.4318807948129569e-05
2.470016395138335e-07,2.861107473542037e-07,2.7667935460115924e-07,1.4240554815382168e-05
2.486045922982889e-07,2.8654323821844304e-07,2.772870820205752e-07,1.4159919157925876e-05
2.5021269940444697e-07,2.870738169534481e-07,2.778944202597743e-07,1.4077390725676414e-05
2.51827631263353e-07,2.877038325923561e-07,2.7850534037143285e-07,1.399339138550156e-05
2.5344781739057944e-07,2.8843463807248684e-07,2.7912698484438444e-07,1.390827659066537e-05
2.550686702731045e-07,2.892701725907705e-07,2.7976884858734326e-07,1.3822387034845678e-05
2.5668323878123245e-07,2.90218799693117e-07,2.8044064538981e-07,1.3736045431622933e-05
2.582830144165771e-07,2.912925640803595e-07,2.811505312812637e-07,1.3649488567860235e-05
2.598589851325972e-07,2.925051826669058e-07,2.8190500323645125e-07,1.3562833820445466e-05
2.6140228145852616e-07,2.9386996639775127e-07,2.827108548265688e-07,1.3476115325279777e-05
2.6290368345715736e-07,2.9539693013729556e-07,2.835766510186625e-07,1.3389363764800874e-05
2.643534133801767e-07,2.9709034193909716e-07,2.8451227753264407e-07,1.33026998141926e-05
2.657426929070968e-07,2.9894940913421564e-07,2.8552764307609656e-07,1.3216383952946733e-05
2.670658060111699e-07,3.009708359319355e-07,2.866311594018922e-07,1.3130784519122127e-05
2.6832070605489433e-07,3.031496082219635e-07,2.8782828348736266e-07,1.3046293440956055e-05
2.695074895300889e-07,3.054780916791989e-07,2.891209439155136e-07,1.2963249979106702e-05
2.706258956073214e-07,3.0794561335726386e-07,2.9050762118485697e-07,1.2881929391593185e-05
2.716742537038019e-07,3.105386030275042e-07,2.919833870332306e-07,1.2802613234667556e-05
2.72650528464571e-07,3.1324112982054854e-07,2.935405366287937e-07,1.2725675101969456e-05
2.7355366422547087e-07,3.160358867096461e-07,2.951698348344661e-07,1.2651584589623814e-05
2.743837423657958e-07,3.1890461879438487e-07,2.9686174857724016e-07,1.258081963020596e-05
2.751409195379374e-07,3.218284943390391e-07,2.986085968843674e-07,1.2513762001487908e-05
2.7582426053607364e-07,3.247897897831424e-07,3.0040663984219105e-07,1.2450634769309872e-05
2.764315323599365e-07,3.277735863849317e-07,3.0225532228859766e-07,1.2391487892370695e-05
2.769596464002241e-07,3.307678574295416e-07,3.041544925654485e-07,1.2336207669534931e-05
2.7740522309467957e-07,3.337626523749397e-07,3.061023677128407e-07,1.228453465437686e-05
2.777649886756299e-07,3.3674919914939925e-07,3.080953512386023e-07,1.2236118498812304e-05
2.780355911146208e-07,3.397189455181e-07,3.101286207914176e-07,1.2190652879551786e-05
2.782136832418488e-07,3.4266358470013065e-07,3.121961381872716e-07,1.2148028313353055e-05
2.7829708487147086e-07,3.455769071799625e-07,3.142905150843073e-07,1.2108350296176833e-05
2.782852894736653e-07,3.484557751694497e-07,3.164034299357981e-07,1.207180763635528e-05
2.78178237834732e-07,3.512984252610676e-07,3.185263625665406e-07,1.2038528385663645e-05
2.779754992758585e-07,3.541026507299908e-07,3.206505237677241e-07,1.2008530120919494e-05
2.7767703774548485e-07,3.568647293091651e-07,3.2276550519798625e-07,1.1981820778656212e-05
2.772843798350812e-07,3.5957855997702186e-07,3.2485824476892226e-07,1.1958630592417655e-05
2.768017511736556e-07,3.622362481944146e-07,3.2691364902795236e-07,1.1939594065548795e-05
2.7623719098432604e-07,3.648295019927941e-07,3.289160829790524e-07,1.1925711624219755e-05
2.756022814688615e-07,3.673496951711747e-07,3.308503653777396e-07,1.1918156506540754e-05
2.749096442273205e-07,3.6978705042135466e-07,3.327019598072682e-07,1.1918087677710764e-05
2.7417024410155857e-07,3.7213083648448045e-07,3.344567772355687e-07,1.1926522674141415e-05
2.733927372105309e-07,3.7437042092024367e-07,3.361014749296203e-07,1.1944262105380292e-05
2.725839289788759e-07,3.7649538980276104e-07,3.376244556172059e-07,1.1971857499069133e-05
2.717485445054255e-07,3.784945788901386e-07,3.3901612956882684e-07,1.2009606528322768e-05
2.7088894745987177e-07,3.803556510978618e-07,3.4026792779892625e-07,1.2057558692350607e-05
2.700064950347621e-07,3.8206630547352024e-07,3.4137166120505925e-07,1.2115523139327707e-05
2.691045419614741e-07,3.8361703707217937e-07,3.423203852844248e-07,1.2183082329844956e-05
2.681910601312069e-07,3.850034590361498e-07,3.4310957779123905e-07,1.2259627885201525e-05
2.6727830699454076e-07,3.862257856855917e-07,3.437368320152432e-07,1.2344416627897369e-05
2.6637959966047765e-07,3.8728626065628844e-07,3.44200292531568e-07,1.2436614921265558e-05
2.6550687942195296e-07,3.881874218688003e-07,3.444972684574771e-07,1.2535334000302016e-05
2.646716445161591e-07,3.8893227090414965e-07,3.446239750797399e-07,1.263969596160609e-05
2.638869067406116e-07,3.8952428370718906e-07,3.445760102382515e-07,1.2748916611659994e-05
2.6316654053038185e-07,3.899659138507897e-07,3.443485546745958e-07,1.286234693584289e-05
2.625223349649789e-07,3.9025740525336906e-07,3.4393650470904923e-07,1.297946533845244e-05
2.619618700745287e-07,3.903972058190162e-07,3.433348764430718e-07,1.3099856593514915e-05
2.61488717254744e-07,3.90383034733121e-07,3.425391474304091e-07,1.322317871258641e-05
2.6110376255804263e-07,3.902122599394357e-07,3.4154609243677375e-07,1.334909683171301e-05
2.6080619493640014e-07,3.898817399487589e-07,3.403555327807429e-07,1.3477212561947473e-05
2.6059416476158177e-07,3.893884812769146e-07,3.389722513936495e-07,1.360703512227715e-05
2.604652934917498e-07,3.8873035185861614e-07,3.374073994843265e-07,1.3737982950470175e-05
2.604165786071817e-07,3.8790537391479625e-07,3.356779520048968e-07,1.3869393144594827e-05
2.604442505340772e-07,3.869110655828397e-07,3.338036147534301e-07,1.4000552862719984e-05
2.605445549982221e-07,3.857454254398187e-07,3.318036482108799e-07,1.4130740401148418e-05
2.6071422757807737e-07,3.844086283664768e-07,3.296950537139028e-07,1.4259240817620953e-05
2.6094972430554545e-07,3.8290346686329094e-07,3.2749168354758964e-07,1.438534076251854e-05
2.6124738111504324e-07,3.812338885975248e-07,3.252046966062332e-07,1.4508327262186013e-05
2.616053815953775e-07,3.7940331514215577e-07,3.228441301307297e-07,1.4627506477745893e-05
2.6202520686288967e-07,3.7741457082937437e-07,3.204199133014736e-07,1.4742220985118273e-05
2.6251100305982337e-07,3.752710760093942e-07,3.179416635079059e-07,1.4851820216336862e-05
2.6306716386078386e-07,3.729776564282361e-07,3.1541861218678225e-07,1.4955607929723919e-05
2.636957136069655e-07,3.7054105086554536e-07,3.128603757796445e-07,1.5052840392434485e-05
2.643953558553029e-07,3.6797074498874577e-07,3.10276868843019e-07,1.5142810246439187e-05
2.651618437398243e-07,3.6527834701204437e-07,3.0767671473843396e-07,1.5224991843995597e-05
2.6598827697141524e-07,3.624750713390414e-07,3.0506616486552894e-07,1.5299150645542902e-05
2.668654012462349e-07,3.595700021630718e-07,3.024491939319141e-07,1.536531691538378e-05
2.677828806069348e-07,3.565706157076321e-07,2.9982790061079213e-07,1.5423647210563993e-05
2.687319467951392e-07,3.534843244683403e-07,2.972034345698112e-07,1.5474284536655235e-05
2.697081249134283e-07,3.5031910059135123e-07,2.945772148389257e-07,1.5517302029420914e-05
2.707127506382205e-07,3.470832376436479e-07,2.9195147758026207e-07,1.5552735677994814e-05
2.717535832287271e-07,3.4378567248240946e-07,2.893298300823669e-07,1.558063851931062e-05
2.728438454889359e-07,3.40436917587842e-07,2.867181639219593e-07,1.5601104575532653e-05
2.7399885415804657e-07,3.370500480031697e-07,2.841245359758947e-07,1.5614260962908702e-05
2.752320576358723e-07,3.33641140728544e-07,2.8155805520357407e-07,1.5620247379822505e-05
2.765528739695485e-07,3.302284817683273e-07,2.790279328055406e-07,1.5619256716129573e-05
2.779666972746499e-07,3.26830994513622e-07,2.7654266695635986e-07,1.5611662421822233e-05
2.794756381619822e-07,3.234668414517609e-07,2.7410908049047444e-07,1.5598085935431424e-05
2.810791901310085e-07,3.201537504404688e-07,2.7173151036363626e-07,1.557929492805562e-05
2.827756205654957e-07,3.1691153322904427e-07,2.6941198647689647e-07,1.5556045882079997e-05
2.8456383935196925e-07,3.137629233079092e-07,2.671517612853733e-07,1.552907478491671e-05
2.864440066147154e-07,3.107305684342649e-07,2.6495276829965763e-07,1.5499300204015454e-05
2.884165228754665e-07,3.078346335769745e-07,2.6281818142785893e-07,1.546803322468195e-05
2.904808885451798e-07,3.050946224394718e-07,2.607526873970402e-07,1.5436956414121663e-05
2.926352553052748e-07,3.0253327330731876e-07,2.587620932489341e-07,1.5407922128485373e-05
2.948759096470046e-07,3.001778851674929e-07,2.568521258770806e-07,1.5382749270608407e-05
2.9719631391330534e-07,2.9805681038661763e-07,2.550276048537338e-07,1.5363077477094356e-05
2.9958653616387174e-07,2.961940463928033e-07,2.5329262908082253e-07,1.5350269356015876e-05
3.020336463963664e-07,2.94606351381662e-07,2.516510438505839e-07,1.5345352056117362e-05
3.045228012823411e-07,2.9330372670711515e-07,2.5010624343167106e-07,1.5348991332348817e-05
3.070384617081048e-07,2.922915084537066e-07,2.4866065978177325e-07,1.5361499025304604e-05
3.0956550993633897e-07,2.9157253822006176e-07,2.473155279750465e-07,1.5382860338053707e-05
3.1209003006755785e-07,2.9114798120338737e-07,2.4607090093079076e-07,1.5412760288676133e-05
3.145989915437647e-07,2.910161313574421e-07,2.449262915697913e-07,1.545061996755482e-05
3.170787703857114e-07,2.9117134129929097e-07,2.438821220997937e-07,1.5495657832092733e-05
3.195137781357919e-07,2.9160506344664136e-07,2.429416319000332e-07,1.554695909687151e-05
3.218863680472121e-07,2.9230792550222997e-07,2.4211200494487765e-07,1.5603538551938125e-05
3.2417796327109147e-07,2.932714516528635e-07,2.4140282653342663e-07,1.5664408006580467e-05
3.263703418328595e-07,2.94488534149337e-07,2.408227794736266e-07,1.572864409422052e-05
3.2844669163641637e-07,2.9595184333228845e-07,2.4037745648012217e-07,1.5795418920853665e-05
3.3039350330425417e-07,2.976518549798939e-07,2.4006890879676034e-07,1.5863980891396767e-05
3.322031018125821e-07,2.9957746754480763e-07,2.398961360601629e-07,1.5933628017977803e-05
3.338742496601697e-07,3.0171818812536265e-07,2.398562156776436e-07,1.6003710860869886e-05
3.354095535003435e-07,3.0406376471894397e-07,2.3994518414636504e-07,1.607364977092759e-05
3.3681175400931537e-07,3.0660130802671705e-07,2.401577591717503e-07,1.6142927261888413e-05
3.380822624462821e-07,3.093136751945053e-07,2.4048702037448184e-07,1.621104440491608e-05
3.392235872083023e-07,3.1218006941598e-07,2.4092546779965945e-07,1.6277462706136254e-05
3.4024294426718523e-07,3.151769756627399e-07,2.4146633267406e-07,1.6341561923399428e-05
3.411527123528768e-07,3.182784413095464e-07,2.4210306197210304e-07,1.640265708719506e-05
3.4196766996146376e-07,3.2145651163179003e-07,2.428278124927241e-07,1.6460092388952762e-05
3.4270182627292405e-07,3.2468260764977925e-07,2.436316536184632e-07,1.6513338754451162e-05
3.4336645815689417e-07,3.279288888029388e-07,2.445058459565909e-07,1.6562003353513178e-05
3.439693736664434e-07,3.3116826260817354e-07,2.4544149687809246e-07,1.6605763445608484e-05
3.4451478085213487e-07,3.3437377267747e-07,2.4642823850568304e-07,1.6644295281072348e-05
3.4500418329752997e-07,3.375190590553005e-07,2.474540967862005e-07,1.667722574125536e-05
3.454383107177896e-07,3.4057973722023857e-07,2.4850636104639266e-07,1.6704107787532986e-05
3.458180830235581e-07,3.435342467728752e-07,2.495724476742808e-07,1.6724425387835255e-05
3.4614399242065427e-07,3.46363858409947e-07,2.506402628853356e-07,1.673762084556401e-05
3.464151251501687e-07,3.49052619301088e-07,2.516976490798213e-07,1.674313686792455e-05
3.466288099121552e-07,3.5158746406006e-07,2.5273157598102584e-07,1.6740480577107215e-05
3.4678229716540643e-07,3.539581519898616e-07,2.537283629911664e-07,1.6729309896628838e-05
3.468764097538004e-07,3.561569008760869e-07,2.546747143808375e-07,1.670953660591577e-05
3.469176622229372e-07,3.581775674742545e-07,2.5555866369584896e-07,1.668141665707806e-05
3.469160169452986e-07,3.60014832746479e-07,2.563703737411697e-07,1.6645547622986855e-05
3.4688047089852647e-07,3.6166470840266025e-07,2.571020542281893e-07,1.660273413354831e-05
3.468164648080416e-07,3.631255880764493e-07,2.5774654928933906e-07,1.655380155668041e-05
3.467261255573184e-07,3.643975744220728e-07,2.582969289159025e-07,1.6499479241515757e-05
3.466106808784591e-07,3.654808678630032e-07,2.5874903517787623e-07,1.644039372307815e-05
3.464731777554882e-07,3.663751646864024e-07,2.5910494156210516e-07,1.6377105873190175e-05
3.463183483992045e-07,3.6707954016244287e-07,2.5937332953728235e-07,1.631011779251149e-05
3.4614995372675517e-07,3.675921995010791e-07,2.5956587827586806e-07,1.6239862367139912e-05
3.459695508279396e-07,3.67910879644314e-07,2.596932288516332e-07,1.6166765078807095e-05
3.457777933916461e-07,3.6803409407211217e-07,2.59763565230316e-07,1.6091389147479932e-05
3.455753176392813e-07,3.6796216162567626e-07,2.5978309841956673e-07,1.601450296501911e-05
3.4536181328658426e-07,3.67696957981542e-07,2.5975705475564016e-07,1.5936965162082005e-05
3.4513524148309643e-07,3.672406076124658e-07,2.596907378417144e-07,1.5859542039443032e-05
3.448926791085841e-07,3.665946218143889e-07,2.5958982076633855e-07,1.578281697267541e-05
3.446323192981341e-07,3.6576043274169576e-07,2.594598076477697e-07,1.5707275495243965e-05
3.4435458617429884e-07,3.6474036673314643e-07,2.5930565838842674e-07,1.5633566397804307e-05
3.4406075751156414e-07,3.6353798739464296e-07,2.591314921439711e-07,1.5562776584237052e-05
3.437509598821689e-07,3.6215780761471573e-07,2.589402793669779e-07,1.5496488167119414e-05
3.434242868830659e-07,3.606044660534455e-07,2.5873425737958106e-07,1.5436596939370096e-05
3.430808965340545e-07,3.588821367574647e-07,2.58515708377179e-07,1.538507100445042e-05
3.427234853129128e-07,3.5699500847528e-07,2.582878142086032e-07,1.5343766601119236e-05
3.423565831982995e-07,3.5494784986520976e-07,2.580557478745592e-07,1.5314300742204495e-05
3.419847279681075e-07,3.527456788215293e-07,2.578262471565616e-07,1.5297967008185338e-05
3.41611092783678e-07,3.503933751145277e-07,2.5760503133941533e-07,1.5295686925087963e-05
3.412379255108017e-07,3.478959282005756e-07,2.573947991942069e-07,1.5307987350640687e-05
3.408682281038645e-07,3.452585795056373e-07,2.571954080812607e-07,1.5335014203302483e-05
3.405066222733409e-07,3.4248646957920764e-07,2.5700517053573807e-07,1.537657853846182e-05
3.401588650652961e-07,3.3958509431902017e-07,2.568222301245646e-07,1.5432193727005843e-05
3.398301659018166e-07,3.365621170739795e-07,2.5664526811369496e-07,1.550109563792727e-05
3.395232734683561e-07,3.3342819708690035e-07,2.5647301574281724e-07,1.558228162074628e-05
3.392380267431633e-07,3.3019565062368394e-07,2.563038214505192e-07,1.5674581249356612e-05
3.3897276955319585e-07,3.268775652629389e-07,2.5613680456483764e-07,1.5776753198601033e-05
3.387262358269909e-07,3.2348835334072144e-07,2.5597369802901374e-07,1.5887597537656517e-05
3.384977412345523e-07,3.2004351297862103e-07,2.558197727147472e-07,1.6006042692877512e-05
3.382859010350929e-07,3.1655844060664137e-07,2.556838071346904e-07,1.6131175774978447e-05
3.380883685695517e-07,3.1304742904537445e-07,2.555771516108502e-07,1.626223460636444e-05
3.379030716711961e-07,3.0952264363215926e-07,2.555118062113709e-07,1.6398585651450825e-05
3.377289965911587e-07,3.0599370029226377e-07,2.554989166731856e-07,1.6539687051816713e-05
3.375652922849904e-07,3.0246852996028855e-07,2.5554823171523644e-07,1.6685033559066533e-05
3.374097064755257e-07,2.989548510362193e-07,2.5566757364296656e-07,1.6834091933613346e-05
3.372583551384641e-07,2.954616533349734e-07,2.558624550070052e-07,1.6986237181488032e-05
3.371072506001226e-07,2.920000886299253e-07,2.561357491314077e-07,1.7140709694278346e-05
3.3695332764944055e-07,2.88583496707334e-07,2.564869195222482e-07,1.7296623999384077e-05
3.367931291050625e-07,2.852269295102435e-07,2.569119423464497e-07,1.745301148011e-05
3.366210838007888e-07,2.819464412301579e-07,2.574048113360311e-07,1.760883766279081e-05
3.364298921639171e-07,2.7875905061965324e-07,2.5795892055983146e-07,1.7762994071965423e-05
3.362120446104573e-07,2.7568293434634986e-07,2.5856685372921637e-07,1.7914313336862423e-05
3.359606398124597e-07,2.7273593918152533e-07,2.59220364635136e-07,1.806161477232445e-05
3.356695085787097e-07,2.699336196346409e-07,2.5991193746541045e-07,1.820374275404404e-05
3.353331351872659e-07,2.6728891127936817e-07,2.606362049931574e-07,1.8339567501371567e-05
3.349466595213537e-07,2.6481278618293963e-07,2.6138969576985304e-07,1.846797992009985e-05
3.34505842763212e-07,2.6251485533337567e-07,2.6216918912232553e-07,1.858795363652315e-05
3.340065219341874e-07,2.604032128253707e-07,2.629697936030649e-07,1.869866933120855e-05
3.334440388183513e-07,2.584832478064544e-07,2.6378393153295193e-07,1.879959132188421e-05
3.328138609672484e-07,2.5675708309369697e-07,2.646017817914439e-07,1.8890425583085293e-05
3.3211296406785076e-07,2.552250437921456e-07,2.654132354730873e-07,1.897101417339424e-05
3.313404368293572e-07,2.5388711095386657e-07,2.6621028353107427e-07,1.9041237853540533e-05
3.304974591335587e-07,2.527426332322878e-07,2.669878928723642e-07,1.9100946530064427e-05
3.295872387218045e-07,2.517902722610573e-07,2.6774319877538534e-07,1.9149948933703407e-05
3.286144891835214e-07,2.510281425811336e-07,2.6847478905077145e-07,1.9188069283109526e-05
3.2758430447178896e-07,2.504522933566307e-07,2.6918293396986445e-07,1.9215203317403635e-05
3.265012032533313e-07,2.5005577422142826e-07,2.6986978445736045e-07,1.9231332185117144e-05
3.253694584760688e-07,2.498299566309471e-07,2.7053923845238704e-07,1.923651701951092e-05
3.241942970107646e-07,2.497653657554727e-07,2.711970474967256e-07,1.9230883262087023e-05
3.229825905892305e-07,2.4985081167619885e-07,2.718504724553751e-07,1.9214615847903208e-05
3.217425239906383e-07,2.500729991285481e-07,2.7250703734729727e-07,1.9188027815916518e-05
3.2048206984847286e-07,2.504176338479909e-07,2.7317301380478054e-07,1.915164087103078e-05
3.192070271894753e-07,2.5087084852985746e-07,2.7385216225166766e-07,1.910614534489516e-05
3.179203144254114e-07,2.5141947285657557e-07,2.745454621453643e-07,1.905234917252722e-05
3.166228187820761e-07,2.520500321512148e-07,2.752516529559737e-07,1.8991252415635016e-05
3.1531442100207336e-07,2.527479316159616e-07,2.759679571824347e-07,1.8924089226727414e-05
3.1399448850523e-07,2.534980373798198e-07,2.7669136032442625e-07,1.8852221821651198e-05
3.126622194612836e-07,2.5428681704205733e-07,2.774195197851705e-07,1.877700149395249e-05
3.113167124290836e-07,2.551039857491108e-07,2.781497913197598e-07,1.8699672291544512e-05
3.0995721175490927e-07,2.5594140060699747e-07,2.7887780919757696e-07,1.8621298314498507e-05
3.0858435440115946e-07,2.56791553429745e-07,2.7959801290584713e-07,1.8542713370760158e-05
3.072013335995326e-07,2.5764907945194806e-07,2.8030526836520465e-07,1.8464502878161928e-05
3.0581428064821486e-07,2.585132451593668e-07,2.809951260124575e-07,1.83870078632639e-05
3.044325088418008e-07,2.593874879510515e-07,2.816628027900644e-07,1.831034026764621e-05
3.030681680815968e-07,2.602770851993975e-07,2.823023859631749e-07,1.8234406689926085e-05
3.017356756544714e-07,2.6118750626425827e-07,2.829070635397209e-07,1.815893674093193e-05
3.004520786363984e-07,2.62122950766222e-07,2.834707620845789e-07,1.8083519760265507e-05
2.992365884444556e-07,2.630850524300189e-07,2.839896999831058e-07,1.800765113224245e-05
2.9810771598082427e-07,2.6407262369923856e-07,2.84461766323803e-07,1.793076725660357e-05
2.970800722866184e-07,2.650818826678609e-07,2.8488505720667145e-07,1.7852258831183646e-05
2.9616285759409924e-07,2.6610688073247556e-07,2.8525795824791194e-07,1.777149967178892e-05
2.953599893431073e-07,2.671409915308645e-07,2.8558025985192407e-07,1.7687913243245958e-05
2.9467163786668283e-07,2.6817871642110927e-07,2.8585355621193057e-07,1.7601028569152862e-05
2.940964405008284e-07,2.692159584727692e-07,2.860800978728858e-07,1.7510486689397093e-05
2.936326499722562e-07,2.702494717131019e-07,2.862609718072461e-07,1.7416022854495254e-05
2.932786091804528e-07,2.712771219076763e-07,2.863954375775892e-07,1.731745543857082e-05
2.9303442020553516e-07,2.7229836222919945e-07,2.8648186092571625e-07,1.7214681869955794e-05
2.929034965756036e-07,2.733135820721997e-07,2.8651915614402854e-07,1.7107675563367655e-05
2.9289206041958087e-07,2.743226395473948e-07,2.865075246326358e-07,1.699648405298449e-05
2.930086664776836e-07,2.7532428972818125e-07,2.864485749320332e-07,1.688122201316755e-05
2.932648120637064e-07,2.763173750750714e-07,2.863456882521084e-07,1.6762056945088513e-05
2.93673802987368e-07,2.773023827223102e-07,2.862039897378312e-07,1.6639191869041804e-05
2.9424852567615197e-07,2.7828143541450986e-07,2.8602912078844496e-07,1.6512844231403627e-05
2.950006361518281e-07,2.7925678571304087e-07,2.8582581237525763e-07,1.6383243413778095e-05
2.959393483708093e-07,2.802292963037293e-07,2.855970511753417e-07,1.6250657122952368e-05
2.970691964881713e-07,2.811978769115025e-07,2.85343443405686e-07,1.611539233327154e-05
2.983896272490865e-07,2.821597499566718e-07,2.850629769749873e-07,1.597775997999402e-05
2.998968322616821e-07,2.831108819274149e-07,2.84751886908902e-07,1.5838061006055943e-05
3.0158515756649685e-07,2.840464367773596e-07,2.844058931154692e-07,1.5696586731756696e-05
3.0344724052794746e-07,2.849616088691637e-07,2.8402051538939443e-07,1.5553611331259413e-05
3.054746642059433e-07,2.858528118712508e-07,2.8359114921770764e-07,1.540940075512546e-05
3.07659833873805e-07,2.8671848941111627e-07,2.831146531077495e-07,1.5264212527935753e-05
3.0999790093222535e-07,2.875588340615964e-07,2.825921605605277e-07,1.5118255200314853e-05
3.1248732434131706e-07,2.883746852715261e-07,2.820305319373752e-07,1.497164354604067e-05
3.1512817941357734e-07,2.891667302822396e-07,2.81440710803238e-07,1.4824382785636246e-05
3.179191898764964e-07,2.8993617859770924e-07,2.808343462344908e-07,1.4676397806977832e-05
3.2085595468921034e-07,2.906863413902892e-07,2.802211198740276e-07,1.4527616194167709e-05
3.2393061847642907e-07,2.9142271606594237e-07,2.796078262166264e-07,1.4378047253283347e-05
3.271314588513457e-07,2.9215118394593356e-07,2.789995235579401e-07,1.4227774255028173e-05
3.3044247678654015e-07,2.9287632694759897e-07,2.7840140560892375e-07,1.4076890290386264e-05
3.338435786146966e-07,2.9360080087997906e-07,2.7781849937397817e-07,1.3925487792351902e-05
3.37311245303763e-07,2.943254763240546e-07,2.772539131749145e-07,1.3773717952946636e-05
3.408196346238475e-07,2.950500019851904e-07,2.767091749784786e-07,1.3621829873079115e-05
3.443419134877805e-07,2.957732173406016e-07,2.761863920019617e-07,1.3470137948212559e-05
3.478516650120313e-07,2.9649293730160396e-07,2.756894260858902e-07,1.3318958475439626e-05
3.5132468004888146e-07,2.9720552831279204e-07,2.752236111058656e-07,1.3168598765678979e-05
3.5474026802515077e-07,2.979057883847078e-07,2.7479473218925554e-07,1.3019447601211626e-05
3.580802485722918e-07,2.9858717540718695e-07,2.74407816852726e-07,1.2872068400053689e-05
3.6132653508737203e-07,2.992428566184113e-07,2.7406709362286304e-07,1.2727147407510249e-05
3.644603002759094e-07,2.9986745986919603e-07,2.73777591188944e-07,1.2585346887364508e-05
3.6746348776977405e-07,3.004582309656948e-07,2.735463325387499e-07,1.244720803748752e-05
3.7032048957233076e-07,3.010147207088069e-07,2.733812272022328e-07,1.231314346804534e-05
3.73018028034753e-07,3.015370641656138e-07,2.732885348274324e-07,1.2183537856966928e-05
3.7554395038760426e-07,3.0202388674574053e-07,2.7327138032421625e-07,1.2058944421975835e-05
3.778865201636525e-07,3.024715809553848e-07,2.7333050068874217e-07,1.1940219034322244e-05
3.800346963472418e-07,3.0287559095960184e-07,2.7346549870314264e-07,1.1828461191193636e-05
3.819787359906005e-07,3.0323219741254933e-07,2.7367457937263216e-07,1.1724833846147705e-05
3.8371000868360367e-07,3.035392435702252e-07,2.739539360679541e-07,1.1630388704619326e-05
3.8522035837716173e-07,3.037960331637871e-07,2.742989290223141e-07,1.1545946168206715e-05
3.865017029206195e-07,3.040030356364923e-07,2.747058857173496e-07,1.1472036512830373e-05
3.875456567892049e-07,3.041616321841204e-07,2.751719321031833e-07,1.1408892926473337e-05
3.8834369284242784e-07,3.0427387546319397e-07,2.7569342688845036e-07,1.1356477582398539e-05
3.888879499770804e-07,3.043418666361913e-07,2.762651158961669e-07,1.1314518567558715e-05
3.891721739947529e-07,3.0436745385782986e-07,2.768801023524555e-07,1.1282545425954066e-05
3.8919265833218347e-07,3.043527641636765e-07,2.775299455085011e-07,1.1259927491182362e-05
3.8894830419619643e-07,3.0429997003966607e-07,2.782050142582709e-07,1.1245919037661328e-05
3.884399475980382e-07,3.042104810040264e-07,2.788953277427244e-07,1.1239708010232894e-05
3.876703283849121e-07,3.040854852839776e-07,2.79591481489568e-07,1.1240458558474447e-05
3.8664431238513386e-07,3.039269925890239e-07,2.802848866542193e-07,1.1247348682176813e-05
3.853683500249875e-07,3.037382911603178e-07,2.809673038623886e-07,1.1259618969548156e-05
3.838497124726889e-07,3.0352394235081676e-07,2.8163059866344127e-07,1.1276621089873427e-05
3.8209674135044474e-07,3.032884632717511e-07,2.822674453924925e-07,1.129783087370224e-05
3.801202917632524e-07,3.030346051176363e-07,2.8287205950630415e-07,1.1322826112149927e-05
3.7793467906476396e-07,3.027634072627326e-07,2.8343977472939985e-07,1.1351262395658775e-05
3.755568638930442e-07,3.0247514263283684e-07,2.839670113547649e-07,1.1382856313331548e-05
3.7300503151169827e-07,3.0216919171463126e-07,2.8445254454351404e-07,1.1417354823390946e-05
3.702975469010165e-07,3.0184349910732923e-07,2.8489736721632533e-07,1.1454481137143406e-05
3.6745242783459844e-07,3.014952085721885e-07,2.853023949095021e-07,1.1493885000319295e-05
3.6448794630582036e-07,3.0112205487202055e-07,2.856668501488277e-07,1.1535147078677105e-05
3.6142352813192507e-07,3.007229228847949e-07,2.859883197604624e-07,1.1577855307132785e-05
3.582791879765947e-07,3.0029776438988535e-07,2.862630780113958e-07,1.1621695051796155e-05
3.550737586322355e-07,2.9984808854378496e-07,2.864860798074345e-07,1.1666467127101033e-05
3.5182368714687177e-07,2.9937688376166854e-07,2.866508562078886e-07,1.1712028406257671e-05
3.485436350690967e-07,2.9888718295131995e-07,2.867498223121207e-07,1.1758226408557914e-05
3.452479112787758e-07,2.983813771225994e-07,2.867754972991662e-07,1.1804878361297427e-05
3.4195028344324306e-07,2.978616274885812e-07,2.867218330385216e-07,1.1851780559351667e-05
3.3866227012926196e-07,2.973299925064394e-07,2.865846979580744e-07,1.1898715897867846e-05
3.353928139452356e-07,2.967885851196093e-07,2.8636138930265497e-07,1.1945488182005232e-05
3.321503422673929e-07,2.962399481490263e-07,2.8604949109507945e-07,1.1991999090355415e-05
3.289446824088396e-07,2.956869685750865e-07,2.8564622383843533e-07,1.2038290775499355e-05
3.2578691207919306e-07,2.951325787881328e-07,2.8514841653674694e-07,1.2084513272245142e-05
3.2268850833670626e-07,2.94579650970482e-07,2.8455233612735145e-07,1.2130856144771831e-05
3.196610540434943e-07,2.940310596368608e-07,2.838537566375858e-07,1.2177471348966165e-05
3.167158801341072e-07,2.9349009246053783e-07,2.830484043497915e-07,1.2224398320074575e-05
3.138631441789228e-07,2.92960198216446e-07,2.821325595770828e-07,1.227152030158658e-05
3.111105970935909e-07,2.924432409130364e-07,2.8110384050542843e-07,1.2318584226451401e-05
3.0846277225738287e-07,2.919380624887062e-07,2.7996144419249096e-07,1.2365275612945695e-05
3.0592099711668524e-07,2.914406026304759e-07,2.7870541841742227e-07,1.2411296990432384e-05
3.034839190614302e-07,2.909447380730742e-07,2.773356984222068e-07,1.2456412752116735e-05
3.0114816971250913e-07,2.90443557626509e-07,2.758516530809316e-07,1.250046015336291e-05
2.9890929804082123e-07,2.8993102641065784e-07,2.742522347188238e-07,1.2543323763491816e-05
2.9676380582837885e-07,2.894025943178378e-07,2.725367203729109e-07,1.258489806933105e-05
2.947116543680299e-07,2.8885425197344627e-07,2.707060292033699e-07,1.2625111954878775e-05
2.9275759637696926e-07,2.88281829117456e-07,2.6876441239777387e-07,1.2663999357379945e-05
2.9091121695232324e-07,2.876813010221452e-07,2.6672184070290484e-07,1.2701727540281027e-05
2.89185162722262e-07,2.870488268940629e-07,2.6459610647726986e-07,1.2738570485860326e-05
2.875914636044324e-07,2.863800994048173e-07,2.624116480864105e-07,1.2774842272678391e-05
2.8613835878311327e-07,2.8567010805282024e-07,2.601951139003388e-07,1.2810808707986204e-05
2.8482942276601855e-07,2.849134406066658e-07,2.57971459759949e-07,1.2846623013190573e-05
2.836649811852277e-07,2.841044408948365e-07,2.557630014076995e-07,1.2882295469263053e-05
2.8264449391471066e-07,2.832376176502413e-07,2.535903108796916e-07,1.291767868019322e-05
2.817676844809572e-07,2.8230841602121856e-07,2.514724192521108e-07,1.295247142331414e-05
2.8103416142639477e-07,2.8131347870748674e-07,2.494260235474567e-07,1.2986250822713298e-05
2.8044353465924685e-07,2.802500062217317e-07,2.474655343131127e-07,1.3018524244211282e-05
2.799967394124743e-07,2.791149156261737e-07,2.456037534294305e-07,1.3048785847366218e-05
2.7969633897910307e-07,2.779051898269929e-07,2.438520180090828e-07,1.3076562860956042e-05
2.795446599269085e-07,2.766192060754107e-07,2.422210881919037e-07,1.31014350665855e-05
2.795422727917675e-07,2.7525706157482273e-07,2.407225269415495e-07,1.3123022793301002e-05
2.796878827611457e-07,2.7381994788267045e-07,2.393677544111705e-07,1.3140953638900767e-05
2.7997800400423644e-07,2.723100184204124e-07,2.381652931430467e-07,1.315482994111122e-05
2.804064227157968e-07,2.7073060386554105e-07,2.3711954127738447e-07,1.3164215599622866e-05
2.809645217199152e-07,2.690864746444982e-07,2.3623212878503928e-07,1.3168640875906827e-05
2.8164260133773034e-07,2.6738402903610876e-07,2.3550371393347486e-07,1.3167611247381164e-05
2.8243159794972674e-07,2.656304291871899e-07,2.3493424150077247e-07,1.3160609450027345e-05
2.8332411083900827e-07,2.6383194490419725e-07,2.3452262582757248e-07,1.3147095919396813e-05
2.843145283030922e-07,2.619934933304005e-07,2.342675547375473e-07,1.312651862240256e-05
2.853994510928691e-07,2.6011981961594664e-07,2.3416858569407567e-07,1.3098332138336215e-05
2.86578775287363e-07,2.582164497398141e-07,2.3422575624765712e-07,1.3062017999460507e-05
2.878555864311101e-07,2.5628983742494544e-07,2.3443843046281237e-07,1.3017104159374159e-05
2.892335117450692e-07,2.5434791080155113e-07,2.3480472968514453e-07,1.2963193719616634e-05
2.907138580103697e-07,2.5240106384025213e-07,2.353211232239913e-07,1.289999934931618e-05
2.9229512611614896e-07,2.504628437003275e-07,2.3598208392576838e-07,1.2827355750897036e-05
2.939734646952888e-07,2.485492565593781e-07,2.3678013247879338e-07,1.2745196573211822e-05
2.957421250286038e-07,2.466761069793785e-07,2.3770594832974373e-07,1.265351525913129e-05
2.9759074672869293e-07,2.448566199225696e-07,2.387482812344512e-07,1.2552350071257734e-05
2.995061202093681e-07,2.431015673018849e-07,2.3989391036788336e-07,1.2441822342325908e-05
3.014747914224967e-07,2.4142072978634674e-07,2.411281724829761e-07,1.23221881825147e-05
3.034852752020721e-07,2.3982340745147773e-07,2.4243568064559585e-07,1.2193828446520552e-05
3.055274182617924e-07,2.3831808861233558e-07,2.4380069140789376e-07,1.2057185773579435e-05
3.0759016943229215e-07,2.3691312474095732e-07,2.452075144328708e-07,1.1912712483847456e-05
3.096608007461172e-07,2.356175247347847e-07,2.466410370553652e-07,1.1760852409520194e-05
3.117269949448889e-07,2.3443987738958481e-07,2.480870864333193e-07,1.1602073535707353e-05
3.137797068797225e-07,2.3338709641286602e-07,2.495325379868975e-07,1.1436943253118784e-05
3.158132230430329e-07,2.3246457874478685e-07,2.5096537657387037e-07,1.1266160132651973e-05
3.178234486634928e-07,2.3167670552828355e-07,2.523752068038732e-07,1.1090497676199153e-05
3.198069778529467e-07,2.310270146085305e-07,2.5375352719900323e-07,1.0910743590847913e-05
3.21760049380774e-07,2.3051805439624586e-07,2.5509257194478987e-07,1.0727717584943276e-05
3.236772936308509e-07,2.3015104682425881e-07,2.563836475968584e-07,1.0542316258956294e-05
3.255514157249916e-07,2.2992550489468926e-07,2.5761654011178225e-07,1.035548828224291e-05
3.2737330536366446e-07,2.298389813438445e-07,2.587798950104755e-07,1.0168152404091383e-05
3.291320128473666e-07,2.2988703207146172e-07,2.598621890478929e-07,9.981130180324164e-06
3.308149042866543e-07,2.3006323086423783e-07,2.608531292772689e-07,9.79513099800484e-06
3.324080551141829e-07,2.3035952115132976e-07,2.617444584658196e-07,9.61079227065672e-06
3.3389678725988674e-07,2.3076695746796762e-07,2.625293926824223e-07,9.428720678249477e-06
3.352666732334889e-07,2.3127658374237079e-07,2.632015568903084e-07,9.24947739782465e-06
3.3650524657865553e-07,2.3188023628135575e-07,2.637544331276412e-07,9.073540730269564e-06
3.3760383386615465e-07,2.3257052168478326e-07,2.641813842495119e-07,8.901301938353116e-06
3.385579757056689e-07,2.3333989815723486e-07,2.6447626711966856e-07,8.733114363245911e-06
3.393656707455661e-07,2.341799659135356e-07,2.646341980652048e-07,8.569417506183221e-06
3.4002525455141395e-07,2.350816478191413e-07,2.646520347366944e-07,8.410880015982214e-06
3.405352070524352e-07,2.360357972565518e-07,2.6452892352311713e-07,8.258416864852373e-06
3.408955277211165e-07,2.3703398119257716e-07,2.64266368157992e-07,8.113069677693938e-06
3.411084631925333e-07,2.380705234855235e-07,2.638674759241712e-07,7.975914199854682e-06
3.4117753585173694e-07,2.391449196138668e-07,2.6333693139889467e-07,7.848087916120893e-06
3.411059857101605e-07,2.402613054516018e-07,2.6268200762560074e-07,7.730837212335393e-06
3.4089632275270316e-07,2.4142590948978965e-07,2.6191269897320124e-07,7.625461129606795e-06
3.405513554121265e-07,2.426462405915203e-07,2.6104012560491037e-07,7.5331772174365675e-06
3.400749593788123e-07,2.439312501065166e-07,2.60074482238198e-07,7.455005766706178e-06
3.3947137288888284e-07,2.452899451069697e-07,2.5902417471450945e-07,7.391719102616612e-06
3.387449818506205e-07,2.467297129879302e-07,2.578965463673828e-07,7.343847861345009e-06
3.379015720629578e-07,2.482563656579097e-07,2.5669940895905034e-07,7.311713873944059e-06
3.369485298857915e-07,2.498745582131077e-07,2.554421657781877e-07,7.295464956652887e-06
3.358935456787053e-07,2.515873734593536e-07,2.541353817928515e-07,7.295092607154781e-06
3.347441834259657e-07,2.5339646286598945e-07,2.52789333693947e-07,7.310423833948292e-06
3.335079168050163e-07,2.5530314231613666e-07,2.514138401445078e-07,7.341101627454628e-06
3.321913273623238e-07,2.573092574868481e-07,2.500193010962109e-07,7.386573561512524e-06
3.308002096250235e-07,2.594171601462769e-07,2.4861651416160697e-07,7.446094921155864e-06
3.2934117398447344e-07,2.616287603352112e-07,2.472159853764348e-07,7.5187439401648684e-06
3.278224070352263e-07,2.63944171246419e-07,2.4582868937937746e-07,7.603450395446472e-06
3.262526920367039e-07,2.6636156454713486e-07,2.4446667073524944e-07,7.699047955883195e-06
3.246402322718906e-07,2.6887891593419644e-07,2.4314203242470307e-07,7.804342947955153e-06
3.2299246520119976e-07,2.714948407628817e-07,2.418659300437027e-07,7.918159218915378e-06
3.2131604210606013e-07,2.74207412847702e-07,2.406486140751965e-07,8.039338471303416e-06
3.1961621812040684e-07,2.770141849993756e-07,2.394998487048137e-07,8.166728232009887e-06
3.1789686929121234e-07,2.7991447135789354e-07,2.3842935712285657e-07,8.299199596547016e-06
3.1616175758770964e-07,2.829121330397219e-07,2.374465548161211e-07,8.435698146913225e-06
3.1441635535218523e-07,2.860172028239214e-07,2.3655956797409854e-07,8.575279968446028e-06
3.126696831488556e-07,2.892443468878441e-07,2.3577604390953583e-07,8.717088067325391e-06
3.109348479648429e-07,2.926081972983069e-07,2.3510540559955893e-07,8.860295538942617e-06
3.0922798186913464e-07,2.9611945558270447e-07,2.3455851348267242e-07,9.004065868242191e-06
3.0756696239155076e-07,2.997846208407433e-07,2.341448745372662e-07,9.14754342513558e-06
3.059697754366327e-07,3.036071790083108e-07,2.3387103942040077e-07,9.289886556474818e-06
3.0445246317740744e-07,3.075876567623464e-07,2.337404086734827e-07,9.43034254503482e-06
3.030280025587072e-07,3.1172437879640805e-07,2.337527882431925e-07,9.568298285415343e-06
3.017062306124661e-07,3.160165807627368e-07,2.3390460776199323e-07,9.703250097086222e-06
3.004939751535077e-07,3.2046619846690694e-07,2.341907750985744e-07,9.83473287488071e-06
2.993948979898985e-07,3.2507567705183713e-07,2.346059497269238e-07,9.96227858944654e-06
2.984093797668744e-07,3.298449588383869e-07,2.3514357019553965e-07,1.0085412576275301e-05
2.975361605831405e-07,3.3477004043951985e-07,2.3579480244391408e-07,1.0203670811865975e-05
2.967758232093695e-07,3.398428513314249e-07,2.3654903742344785e-07,1.0316624720786262e-05
2.9613222879388123e-07,3.450525324099629e-07,2.3739503016127906e-07,1.0423876027743097e-05
2.956105471873941e-07,3.503867056390536e-07,2.3832239126781763e-07,1.0525025324173692e-05
2.952156109637296e-07,3.558314458796615e-07,2.393225318538639e-07,1.0619676353134863e-05
2.949522900982624e-07,3.6137084944492594e-07,2.403874910548033e-07,1.0707491309777609e-05
2.948263376723137e-07,3.66986529343349e-07,2.4150797950869514e-07,1.078826769316273e-05
2.948439276662184e-07,3.72657135975537e-07,2.4267260823124727e-07,1.0862012295526144e-05
2.950096597253795e-07,3.783586875666305e-07,2.4386799344132126e-07,1.0928958816888923e-05
2.953252034516964e-07,3.840653255466693e-07,2.4507920459624517e-07,1.098948873765384e-05
2.9578983771955763e-07,3.897496887578037e-07,2.462905344498901e-07,1.1044004805616521e-05
2.96401562037308e-07,3.953837446985108e-07,2.474860623465126e-07,1.109283816309496e-05
2.971576016083665e-07,4.009405844367762e-07,2.486502510745863e-07,1.1136218265956515e-05
2.9805497031726056e-07,4.063958327490955e-07,2.497696126055288e-07,1.1174283600424691e-05
2.990914697241868e-07,4.11727615760485e-07,2.508339993698082e-07,1.120711051797105e-05
3.002653220412959e-07,4.169150922258821e-07,2.5183553614727146e-07,1.1234776715627465e-05
3.0157361754671997e-07,4.2193673973742244e-07,2.527669610178522e-07,1.1257496602595294e-05
3.0301230380562484e-07,4.267702212813325e-07,2.536213695777192e-07,1.1275778252512273e-05
3.0457670328776986e-07,4.313940674590681e-07,2.5439280243684066e-07,1.1290438440192625e-05
3.062603404347028e-07,4.3578978345619677e-07,2.550772312933827e-07,1.130242334202025e-05
3.080535196235034e-07,4.399428680166479e-07,2.556733114118525e-07,1.1312596081381748e-05
3.099428487533451e-07,4.4384242196177397e-07,2.561819334569291e-07,1.132165176958617e-05
3.1191130610439413e-07,4.474800649589202e-07,2.566051517596229e-07,1.1330209405860812e-05
3.139388714781499e-07,4.508489335987854e-07,2.569456127402423e-07,1.1339062086363985e-05
3.160034526432517e-07,4.539441198212884e-07,2.572068208494776e-07,1.1349434550294344e-05
3.1808167158968054e-07,4.5676414336145793e-07,2.5739300181530625e-07,1.1363030578993833e-05
3.201504843098685e-07,4.593102669053368e-07,2.575075785317826e-07,1.1381859606626716e-05
3.22190591301036e-07,4.6158349430201606e-07,2.5755200149113165e-07,1.1408015529843726e-05
3.241891157011669e-07,4.6358255596328793e-07,2.575259007968592e-07,1.144350395587418e-05
3.2613841159235337e-07,4.65304493131612e-07,2.574276473309929e-07,1.1490111183554375e-05
3.280328880682892e-07,4.6674736255548323e-07,2.5725557349564037e-07,1.1549313250014709e-05
3.298674211649157e-07,4.679131537861246e-07,2.5700949496397534e-07,1.1622232950319944e-05
3.316372580688916e-07,4.6880845423976096e-07,2.5669085413686986e-07,1.1709627337048414e-05
3.333377558551166e-07,4.6944238172111166e-07,2.5630164097451766e-07,1.1811882052707449e-05
3.349639444925757e-07,4.6982348111764936e-07,2.558437689329461e-07,1.192901044122371e-05
3.365106471588342e-07,4.6995777379135025e-07,2.553204069325259e-07,1.2060676573621456e-05
3.379726249936034e-07,4.6984839483130226e-07,2.547387703620894e-07,1.220625282722389e-05
3.39343773104976e-07,4.694955856953664e-07,2.5411103239048624e-07,1.2364886975612233e-05
3.4061599439417336e-07,4.688968231098095e-07,2.534519228307179e-07,1.2535563182361e-05
3.417791439617435e-07,4.6804803179852106e-07,2.527755822593059e-07,1.2717178770085226e-05
3.428222620991086e-07,4.6694604118819094e-07,2.520944483944241e-07,1.290863917688627e-05
3.437350024782381e-07,4.655902702772849e-07,2.514206251253478e-07,1.3108926071149604e-05
3.445080142872768e-07,4.639822228709746e-07,2.507676493925453e-07,1.3317107852613933e-05
3.451325992499153e-07,4.621251430245325e-07,2.501505294991041e-07,1.3532318802279848e-05
3.456011187764293e-07,4.600250395977454e-07,2.4958400269507105e-07,1.3753728622946258e-05
3.459081938850426e-07,4.5769077355327034e-07,2.4908035139419336e-07,1.3980486754709268e-05
3.460512922274351e-07,4.5513300688220776e-07,2.4864819397702233e-07,1.4211647042969803e-05
3.460296746601225e-07,4.523640526781251e-07,2.482922144870286e-07,1.4446109414925491e-05
3.458424186994811e-07,4.493982383615074e-07,2.4801317854381754e-07,1.468260694284436e-05
3.454880156913909e-07,4.462509194001021e-07,2.4780839208492647e-07,1.4919761530855295e-05
3.449662566711378e-07,4.4293678933689356e-07,2.4767247420171107e-07,1.5156205931799994e-05
3.442796743484737e-07,4.394692498115325e-07,2.475981717179433e-07,1.539068950769602e-05
3.434326373634535e-07,4.35860517999419e-07,2.475772937335764e-07,1.5622078349626846e-05
3.424292875500397e-07,4.321216053001343e-07,2.476014173891764e-07,1.584928115647475e-05
3.412722308867295e-07,4.282624974348143e-07,2.476620293025105e-07,1.6071197696595347e-05
3.399634747650427e-07,4.242925494980954e-07,2.477502608023046e-07,1.628672092393459e-05
3.385076792963643e-07,4.202202636973725e-07,2.478567129993465e-07,1.649475514683549e-05
3.369148595163164e-07,4.16052790250761e-07,2.4797196675093907e-07,1.6694224995261693e-05
3.351999207816795e-07,4.117959891237817e-07,2.480880751195951e-07,1.6884090027220413e-05
3.3337975285084617e-07,4.074544608986376e-07,2.482002892570699e-07,1.7063373896301072e-05
3.3147015360049026e-07,4.0303172155412067e-07,2.4830737848508894e-07,1.7231205632828912e-05
3.294846114694127e-07,3.985318769402461e-07,2.484104691389642e-07,1.7386878092971794e-05
3.2743569176967217e-07,3.9396189438121475e-07,2.485115978987739e-07,1.7529920197091917e-05
3.253375083406496e-07,3.8933229679451947e-07,2.4861239686428776e-07,1.7660162380899268e-05
3.2320668680018413e-07,3.84656112799334e-07,2.487134250424682e-07,1.7777740275473024e-05
3.2106100655958897e-07,3.799472849325094e-07,2.488141903729669e-07,1.7882988384809814e-05
3.189177668484251e-07,3.752197490598522e-07,2.489131459360383e-07,1.7976272724355627e-05
3.167937148372449e-07,3.7048744237857594e-07,2.490079064215349e-07,1.805786507569867e-05
3.147052904449341e-07,3.657643170590418e-07,2.4909586854002926e-07,1.812790515291649e-05
3.126676602199763e-07,3.61063737474219e-07,2.4917464881459124e-07,1.8186425653501512e-05
3.1069358745621817e-07,3.5639753789803254e-07,2.4924189431202816e-07,1.8233392025018398e-05
3.087935410521203e-07,3.5177565861938037e-07,2.49294527998614e-07,1.826873636872061e-05
3.069771101913822e-07,3.472064794785181e-07,2.493282376827789e-07,1.8292424259376745e-05
3.052542772853849e-07,3.4269672534643266e-07,2.493374357646601e-07,1.830458499951961e-05
3.036349920100404e-07,3.382511757005829e-07,2.493152881359414e-07,1.8305602459923856e-05
3.02128280925393e-07,3.3387331035131385e-07,2.492542548253993e-07,1.8296043438568808e-05
3.0074273760526926e-07,3.29566201874658e-07,2.491471425329815e-07,1.827648979897948e-05
2.9948701290656073e-07,3.253327189711091e-07,2.489877616140196e-07,1.8247425204467925e-05
2.9836867300499283e-07,3.2117560450061866e-07,2.4877124833854165e-07,1.820925737060438e-05
2.9739333422599465e-07,3.170973451646279e-07,2.484950623070184e-07,1.8162501229174803e-05
2.9656532306116943e-07,3.1309959338140175e-07,2.4815998969130957e-07,1.8108029631757558e-05
2.95887630517276e-07,3.0918336744810373e-07,2.477691296819615e-07,1.804718881105849e-05
2.9536129019671984e-07,3.0534980491424104e-07,2.4732575243781923e-07,1.7981702107194862e-05
2.949870989693062e-07,3.0160054470415613e-07,2.468322764207503e-07,1.7913479017305198e-05
2.94768302953495e-07,2.979389492469466e-07,2.462900429043516e-07,1.7844446392426513e-05
2.9471035233901856e-07,2.943718521748535e-07,2.456991994930919e-07,1.7776427149772713e-05
2.9481828718329763e-07,2.909094556093914e-07,2.450592120026019e-07,1.7711051555733028e-05
2.950947394495225e-07,2.8756397493849623e-07,2.4437061457410195e-07,1.7649683060164898e-05
2.955393132352624e-07,2.843487428349577e-07,2.4363759249581516e-07,1.7593361439404382e-05
2.961491440067686e-07,2.8127664378118803e-07,2.4286939301821965e-07,1.754278220304933e-05
2.969203465627702e-07,2.783580283489949e-07,2.42079195496444e-07,1.7498308888907122e-05
2.978489124689209e-07,2.7560052486157666e-07,2.41281589906611e-07,1.745999809402841e-05
2.989307160790882e-07,2.730099728464932e-07,2.4049050864213467e-07,1.7427639419497244e-05
3.001614928066265e-07,2.705902894426279e-07,2.397180117274279e-07,1.7400816127872493e-05
3.0153621772646546e-07,2.683430887916412e-07,2.389737205906453e-07,1.7378967804403206e-05
3.030477891299672e-07,2.662682921635367e-07,2.3826504238182968e-07,1.7361447878634908e-05
3.046861199769093e-07,2.643649911511604e-07,2.3759749862060319e-07,1.7347587357013316e-05
3.064381840797856e-07,2.6263202597746485e-07,2.369747195897067e-07,1.7336751660501678e-05
3.0828910039400593e-07,2.6106890135028553e-07,2.363991211065525e-07,1.732836553625979e-05
3.102233874792947e-07,2.596768850543515e-07,2.3587265121952528e-07,1.7321913817085562e-05
3.122256157318863e-07,2.584596145339129e-07,2.3539596170679612e-07,1.7316942446351183e-05
3.142803631949996e-07,2.574230172085134e-07,2.3496745950941209e-07,1.731305884502095e-05
3.163713093929131e-07,2.565744903185688e-07,2.3458418072103306e-07,1.7309917158217835e-05
3.1848087300841826e-07,2.5592240951260664e-07,2.3424323302682277e-07,1.7307188381747954e-05
3.205915564748008e-07,2.554772235851825e-07,2.339426873449883e-07,1.7304518096667875e-05
3.226868619551497e-07,2.5525247101029995e-07,2.3368296448051988e-07,1.7301484345427114e-05
3.247507532117218e-07,2.5526288697019467e-07,2.3346811533972501e-07,1.7297601801704787e-05
3.267685552275104e-07,2.555206793308221e-07,2.333048312229181e-07,1.7292379795618257e-05
3.287295563217857e-07,2.560335247287318e-07,2.331998642924297e-07,1.7285360257408328e-05
3.3062724148398964e-07,2.568048723861654e-07,2.3315836893612338e-07,1.72761048638241e-05
3.32456232713484e-07,2.5783488398867195e-07,2.3318365777181336e-07,1.7264184857850567e-05
3.342093075291161e-07,2.591211984113468e-07,2.332777622657504e-07,1.7249196399849367e-05
3.358764801234614e-07,2.606589516721455e-07,2.3344323776666193e-07,1.723076503540816e-05
3.37445664204308e-07,2.624401272915251e-07,2.336854117829619e-07,1.7208517916706482e-05
3.3890446995560696e-07,2.64453492617553e-07,2.3401227071530642e-07,1.718206107957668e-05
3.402424965245252e-07,2.666852235459268e-07,2.3443191142005506e-07,1.7151003950414068e-05
3.414522300605601e-07,2.6911973413244144e-07,2.349504714030077e-07,1.711501738897253e-05
3.425275730858491e-07,2.71740723661248e-07,2.355713385750784e-07,1.7073891883009945e-05
3.4346197293226425e-07,2.745312938482211e-07,2.3629474394981603e-07,1.7027589340877987e-05
3.442480613573237e-07,2.77472741245226e-07,2.3711806706030226e-07,1.6976290424154962e-05
3.4487793373268146e-07,2.8054421221470647e-07,2.3803676021678409e-07,1.6920400976423852e-05
3.453434604933378e-07,2.837242677532381e-07,2.390447149073539e-07,1.6860469670067687e-05
3.456375608602315e-07,2.8699280765453293e-07,2.4013399714899766e-07,1.679705332446208e-05
3.457560693843932e-07,2.903316223299201e-07,2.412948944706618e-07,1.6730635490387578e-05
3.456988391053538e-07,2.9372381536887986e-07,2.4251643024473683e-07,1.6661636520239384e-05
3.454696673224841e-07,2.9715415073200365e-07,2.4378676888268225e-07,1.6590448287394875e-05
3.4507566260619104e-07,3.006097769033541e-07,2.450937320575821e-07,1.651742986359805e-05
3.44526454766648e-07,3.040792156807874e-07,2.464255226642824e-07,1.644286921515605e-05
3.4383264428649247e-07,3.075507246646336e-07,2.477705721483489e-07,1.6366985797377152e-05
3.4300373491242837e-07,3.1101111614981853e-07,2.491165723196527e-07,1.6290051877203256e-05
3.420469235167687e-07,3.144450188290511e-07,2.5045026720779125e-07,1.6212538395377434e-05
3.409672976394796e-07,3.178356074159322e-07,2.5175829582927716e-07,1.613509295983382e-05
3.3976903709182947e-07,3.21165624470158e-07,2.530278909500617e-07,1.6058368620404835e-05
3.384565448024189e-07,3.2441678802616875e-07,2.5424725453167674e-07,1.5982882230533352e-05
3.370350037686092e-07,3.275694142040783e-07,2.554060054815608e-07,1.5908999090946253e-05
3.355113444261976e-07,3.3060434300767786e-07,2.5649533947839715e-07,1.5837068676703475e-05
3.3389557100954185e-07,3.3350579239682e-07,2.575081867347291e-07,1.5767650396126584e-05
3.322009070694882e-07,3.3626258539842945e-07,2.584394478364564e-07,1.5701632839443264e-05
3.304421457535763e-07,3.388669057613604e-07,2.592854325295624e-07,1.564013980066764e-05
3.2863351391634733e-07,3.413116663439283e-07,2.600430361701909e-07,1.5584347442118294e-05
3.2678800164493563e-07,3.435887076445001e-07,2.6070970815119804e-07,1.5535349558877083e-05
3.249176794157658e-07,3.4568933566444503e-07,2.612838955756177e-07,1.5494078431992354e-05
3.2303368456349817e-07,3.476055580826089e-07,2.6176577040125534e-07,1.5461249623927045e-05
3.2114721806993534e-07,3.493300113680159e-07,2.621580527796619e-07,1.543732677471222e-05
3.192723838869625e-07,3.5085598902708156e-07,2.624656732443744e-07,1.5422515147038622e-05
3.174278954470808e-07,3.5217936190502726e-07,2.626942279471312e-07,1.5416781164531162e-05
3.156348834488454e-07,3.5330083939314134e-07,2.6284900987920607e-07,1.5419879472735905e-05
3.1391334096027165e-07,3.5422574071506963e-07,2.629348825768136e-07,1.5431365387653272e-05
3.1228088940540107e-07,3.5496192348197534e-07,2.629557797941605e-07,1.5450599895652e-05
3.107528851261839e-07,3.555181821089001e-07,2.6291434482884784e-07,1.54767862848512e-05
3.093417950208957e-07,3.5590263395191725e-07,2.628128620690675e-07,1.5509048929588808e-05
3.0805671291021266e-07,3.5612129227490885e-07,2.626544170934005e-07,1.554652141512659e-05
3.069045638828317e-07,3.561791938537091e-07,2.6244279543886343e-07,1.5588416383974182e-05
3.058918481364147e-07,3.560833595526247e-07,2.6218161241261485e-07,1.5634063275772012e-05
3.050244990546204e-07,3.5584374931989203e-07,2.618737948117493e-07,1.5682904119231437e-05
3.043062924236204e-07,3.554714361651564e-07,2.6152240695577405e-07,1.5734465579624616e-05
3.037382930511636e-07,3.549773851423833e-07,2.6113293359367063e-07,1.578834709986665e-05
3.033196225857267e-07,3.543729905561554e-07,2.6071458293931407e-07,1.584423227780614e-05
3.030474699063389e-07,3.5366970885921976e-07,2.6027926754270305e-07,1.590188490876875e-05
3.0291601377173305e-07,3.528770748807671e-07,2.598407136351931e-07,1.596110413401964e-05
3.029163901958789e-07,3.5200149026791576e-07,2.594152205758183e-07,1.6021666112375058e-05
3.030386166459636e-07,3.510469408101605e-07,2.590223480940289e-07,1.6083286219373026e-05
3.0327385447175325e-07,3.500164183865596e-07,2.586839935615786e-07,1.6145611914279245e-05
3.036155368458979e-07,3.489130722219477e-07,2.5842260529861414e-07,1.6208254136123317e-05
3.040598867338117e-07,3.47741194935253e-07,2.582595553693005e-07,1.6270831200307386e-05
3.046055363931299e-07,3.465067910723908e-07,2.582138537268978e-07,1.6332979532411114e-05
3.052511708921434e-07,3.4521740390232484e-07,2.583014352903686e-07,1.6394347889983113e-05
3.0599311759279016e-07,3.438818333397255e-07,2.585347418767225e-07,1.6454619274699577e-05
3.068250881217488e-07,3.425103662097455e-07,2.5892275147662694e-07,1.6513554611165393e-05
3.077393237414736e-07,3.4111477896467363e-07,2.5947232115858144e-07,1.657100540186514e-05
3.0872764295221465e-07,3.3970698367846326e-07,2.601898567291177e-07,1.6626862603498592e-05
3.097820403617682e-07,3.3829685934870826e-07,2.610814316652612e-07,1.6680978638904282e-05
3.108957469530541e-07,3.368909645988824e-07,2.6215188324219425e-07,1.6733120063426222e-05
3.120646816805531e-07,3.354935309699201e-07,2.634047548915899e-07,1.6782985222095817e-05
3.13287052022072e-07,3.341093753208971e-07,2.6484322943280694e-07,1.6830267900581737e-05
3.1456085702434486e-07,3.327451284207806e-07,2.664712136351654e-07,1.6874687112146438e-05
3.158824610217401e-07,3.314070666824828e-07,2.682936333083797e-07,1.6915951973399453e-05
3.172473108126583e-07,3.300997748829616e-07,2.703148174131917e-07,1.6953707021832155e-05
3.186504970649067e-07,3.288284590326241e-07,2.7253582962112226e-07,1.6987499421195515e-05
3.200863021656118e-07,3.276013395444852e-07,2.7495314774625216e-07,1.7016790757532802e-05
3.2154814731887923e-07,3.2642844327085033e-07,2.775592958781291e-07,1.7040995371761457e-05
3.2302976050646035e-07,3.253194019565891e-07,2.8034385644457286e-07,1.7059494242155825e-05
3.2452644104809587e-07,3.242838452711369e-07,2.8329402823428105e-07,1.7071624908205348e-05
3.260346752658363e-07,3.233327080842168e-07,2.863958172610339e-07,1.707669401757008e-05
3.275503225023507e-07,3.224791869583619e-07,2.8963543478701574e-07,1.707406033201906e-05
3.290675200335216e-07,3.217396908053361e-07,2.929985954552688e-07,1.7063322337014504e-05
3.3057943491938073e-07,3.211324604502725e-07,2.9646854708318306e-07,1.7044513094678146e-05
3.320795553403137e-07,3.206736638942674e-07,3.0002584148881157e-07,1.7018105288463673e-05
3.335626785985372e-07,3.2037460318630354e-07,3.0364974094733674e-07,1.698481536166339e-05
3.350260906731209e-07,3.202416523945397e-07,3.0731940227897647e-07,1.6945407408019794e-05
3.3646972488742445e-07,3.202774329909428e-07,3.110147870141336e-07,1.690066125826916e-05
3.378942214223783e-07,3.204816608309639e-07,3.1471783604383405e-07,1.6851466133610147e-05
3.3929892459282e-07,3.208518172201199e-07,3.184134598655487e-07,1.6798854782196645e-05
3.4068172771904094e-07,3.213839148706021e-07,3.220898293896923e-07,1.6743913246111104e-05
3.4203939950089304e-07,3.220725475306949e-07,3.2573801186536945e-07,1.6687676299651983e-05
3.4336670254222193e-07,3.2291064619575327e-07,3.293508576385525e-07,1.663108134175354e-05
3.4465539725973656e-07,3.2388973402875826e-07,3.3292088962391546e-07,1.6574964661200063e-05
3.458942252616768e-07,3.249997902432549e-07,3.364381244422547e-07,1.652006855211428e-05
3.470693418973353e-07,3.262285285382313e-07,3.398892850330787e-07,1.6467035347135995e-05
3.481651603666748e-07,3.275614494451199e-07,3.4325844717617877e-07,1.6416385884918427e-05
3.491656879070894e-07,3.289830259354548e-07,3.4652819265580173e-07,1.636849912708821e-05
3.5005542515420423e-07,3.3047755812131986e-07,3.496805045494057e-07,1.6323603884821498e-05
3.508194033595221e-07,3.3202934703880645e-07,3.526969858790848e-07,1.6281780977304777e-05
3.514430853346685e-07,3.336232416474299e-07,3.5555870950929647e-07,1.6242961001515776e-05
3.5191235366507613e-07,3.352445242168996e-07,3.5824637722966135e-07,1.6206907974938888e-05
3.522134316961876e-07,3.368775739094399e-07,3.607407522964592e-07,1.6173214119387798e-05
3.52333111253247e-07,3.3850562325341027e-07,3.6302293398910274e-07,1.614133908898601e-05
3.5225946858214026e-07,3.401118424977732e-07,3.6507471529437325e-07,1.611069180981962e-05
3.519828020497073e-07,3.416803022314984e-07,3.668795838279269e-07,1.608070975294624e-05
3.514961431619537e-07,3.431977250728225e-07,3.6842363311576183e-07,1.6050878471880702e-05
3.507948959644995e-07,3.4465563524331176e-07,3.696950319858514e-07,1.6020692705225854e-05
3.498760163563592e-07,3.460502794164852e-07,3.7068298448810025e-07,1.598962301468679e-05
3.487373428811629e-07,3.473805303841178e-07,3.713784470984783e-07,1.5957132712126024e-05
3.473772788981626e-07,3.4864564309712875e-07,3.7177620945986025e-07,1.5922725853432228e-05
3.45794503035109e-07,3.4984375239312966e-07,3.718757736207789e-07,1.5885973859511667e-05
3.4398751332229575e-07,3.5097173302645423e-07,3.716801439429706e-07,1.584649662803057e-05
3.419544654233787e-07,3.5202604876167433e-07,3.711938333387046e-07,1.5803918848125595e-05
3.396939916247431e-07,3.530037557921614e-07,3.704215349763393e-07,1.5757841614585198e-05
3.372069783567078e-07,3.539034835202615e-07,3.693681891787913e-07,1.5707876997062154e-05
3.344977941430035e-07,3.547256986979123e-07,3.6804004147746993e-07,1.5653736830289316e-05
3.315737655128359e-07,3.55472124683864e-07,3.664450169324702e-07,1.5595275971862705e-05
3.284436793385064e-07,3.561463157166753e-07,3.6459172241393755e-07,1.553243395492039e-05
3.251170428402524e-07,3.567555301096283e-07,3.624885168180479e-07,1.5465147506659253e-05
3.2160539744821845e-07,3.5731100941776684e-07,3.6014377394438723e-07,1.539332007965747e-05
3.179242577515083e-07,3.5782588838405155e-07,3.575674901463232e-07,1.531683930854577e-05
3.140926130232194e-07,3.583126120534553e-07,3.547732960533689e-07,1.5235587277982078e-05
3.101305232834701e-07,3.5878169155646976e-07,3.517788795326356e-07,1.5149436106680484e-05
3.060578199921972e-07,3.592422123142143e-07,3.486055447988025e-07,1.5058256684370416e-05
3.0189398761246927e-07,3.597023042384068e-07,3.4527829318551e-07,1.4961945540492126e-05
2.976574196381317e-07,3.601685032770606e-07,3.4182424354791714e-07,1.4860455124654635e-05
2.933643602794259e-07,3.6064507830736187e-07,3.382692558490709e-07,1.4753836386959693e-05
2.8902902408576896e-07,3.611341053130372e-07,3.3463601102912906e-07,1.4642317208454407e-05
2.846649490054514e-07,3.6163644026838827e-07,3.3094402385814555e-07,1.4526379257104513e-05
2.8028643355571805e-07,3.6215276355616047e-07,3.272100514495658e-07,1.4406744473335297e-05
2.7590913356768346e-07,3.626833862983889e-07,3.234486381654277e-07,1.428425273549082e-05
2.715496094919307e-07,3.6322806535001686e-07,3.196729330412404e-07,1.4159715518058927e-05
2.6722449656977824e-07,3.6378720640343383e-07,3.1589526399892394e-07,1.4033839540875885e-05
2.629505098161191e-07,3.643619479122972e-07,3.121270640119325e-07,1.3907233093984707e-05
2.587450168260684e-07,3.649518630083037e-07,3.083791813772216e-07,1.3780429251876227e-05
2.546258136906226e-07,3.6555345013843653e-07,3.0466332652037625e-07,1.3653878367417818e-05
2.506101295008689e-07,3.661610956422432e-07,3.009925988442713e-07,1.3527952843788894e-05
2.467138568276268e-07,3.667689220193925e-07,2.973798429051321e-07,1.3403037980958473e-05
2.429518244635096e-07,3.673715588288022e-07,2.938360918845017e-07,1.3279659527528552e-05
2.3933869634152755e-07,3.679630185096207e-07,2.9037096699931786e-07,1.3158497417601505e-05
2.3588888598688289e-07,3.68535543547229e-07,2.869941201518022e-07,1.3040264349076632e-05
2.3261521757583781e-07,3.690807694779125e-07,2.8371603791389087e-07,1.2925572773076888e-05
2.29527907017405e-07,3.695920692535988e-07,2.805479163941484e-07,1.281488876349894e-05
2.266349327032413e-07,3.700654510966477e-07,2.775005137951069e-07,1.2708636307441405e-05
2.2394241707570935e-07,3.7049826287446843e-07,2.745821120526711e-07,1.260744765928991e-05
2.2145398155804572e-07,3.708866996143652e-07,2.7179816545725305e-07,1.2512373131707852e-05
2.1917116674988337e-07,3.712240856321913e-07,2.691539965797477e-07,1.2424852024717071e-05
2.1709558976928373e-07,3.71501244824375e-07,2.6665690695541413e-07,1.2346496850972005e-05
2.1523029167187095e-07,3.7170795020295673e-07,2.643148518728581e-07,1.2278881545929816e-05
2.1357908109326488e-07,3.71833693477759e-07,2.6213431658321963e-07,1.2223417110242614e-05
2.1214545292380547e-07,3.7186840316552854e-07,2.6012014399384553e-07,1.2181288216188463e-05
2.1093200477777603e-07,3.7180466541535406e-07,2.5827664447199737e-07,1.2153420327707687e-05
2.099395085953589e-07,3.7163922968924407e-07,2.566083297088309e-07,1.2140463040603716e-05
2.0916646227368195e-07,3.713712862196722e-07,2.551192633250605e-07,1.2142778040887847e-05
2.0861037894910053e-07,3.709999398575388e-07,2.538116193969284e-07,1.2160437008660315e-05
2.0826921173545393e-07,3.705232097426954e-07,2.526847691631033e-07,1.2193236463180074e-05
2.0814119056066893e-07,3.699376961790089e-07,2.517352329641135e-07,1.2240714983046702e-05
2.0822359237380898e-07,3.6923873836312024e-07,2.509571271572408e-07,1.2302170987456626e-05
2.0851157604235488e-07,3.684219185574821e-07,2.503427455568123e-07,1.2376710581216655e-05
2.089976210457328e-07,3.674851585493901e-07,2.498830411378578e-07,1.246333959466998e-05
2.096723745071803e-07,3.664295966815382e-07,2.49567722996617e-07,1.256107148226435e-05
2.1052694238188612e-07,3.652589364991846e-07,2.493848686367159e-07,1.2669014078157096e-05
2.1155397683126012e-07,3.639781358810515e-07,2.4932078030984077e-07,1.2786410653983028e-05
2.1274589807071163e-07,3.625919602464506e-07,2.493610491257239e-07,1.2912623810343715e-05
2.1409262762921732e-07,3.6110381209475094e-07,2.494923904383561e-07,1.3047089505667395e-05
2.1558113354641045e-07,3.5951532631733885e-07,2.497037927357705e-07,1.3189283824134946e-05
2.171962946674245e-07,3.5782718680444046e-07,2.499863832031211e-07,1.3338698136042391e-05
2.1892160785322442e-07,3.56040635516452e-07,2.5033274024091267e-07,1.3494799001194796e-05
2.2073934087970858e-07,3.5415803031936704e-07,2.507362058351572e-07,1.365697363954909e-05
2.2263144582260547e-07,3.521822578519736e-07,2.511898747488025e-07,1.382448096094632e-05
2.2458156593044558e-07,3.5011641809933604e-07,2.516857693588948e-07,1.3996454876332001e-05
2.2657637116575646e-07,3.479643368255924e-07,2.522152667515827e-07,1.4171974518797141e-05
2.286057735734056e-07,3.457311848644727e-07,2.527700911579145e-07,1.4350127982952847e-05
2.3066320250874752e-07,3.4342356010519216e-07,2.533427697227769e-07,1.4530013640041321e-05
2.327459181632564e-07,3.41049121868194e-07,2.539273529882805e-07,1.4710709695468344e-05
2.348542931697443e-07,3.3861618121185624e-07,2.545206314281135e-07,1.4891255098401032e-05
2.3698968253952731e-07,3.361337079562257e-07,2.5512214046731565e-07,1.5070655921210074e-05
2.391520827516212e-07,3.3361118578370336e-07,2.557323342617252e-07,1.5247900886569974e-05
2.413395600429709e-07,3.3105771440999086e-07,2.563506164087463e-07,1.5421952351452318e-05
2.4354955753154374e-07,3.2848160160867266e-07,2.569753850741047e-07,1.5591720629396132e-05
2.4578010958839244e-07,3.258904731229576e-07,2.576060571482972e-07,1.575606725174799e-05
2.480295022425089e-07,3.232910263360257e-07,2.582443983733241e-07,1.5913850807732475e-05
2.5029475590550627e-07,3.2068922932781965e-07,2.588930855166377e-07,1.606399383713698e-05
2.5257036224564404e-07,3.180909276813375e-07,2.5955298264460444e-07,1.620556522869171e-05
2.5484793426349046e-07,3.155023273082473e-07,2.6022184843210657e-07,1.6337864959701614e-05
2.5711639541689327e-07,3.129303496818014e-07,2.6089459075075826e-07,1.6460438918757895e-05
2.593623173112669e-07,3.1038259779733446e-07,2.615641208344466e-07,1.6572987403749977e-05
2.6157024796317374e-07,3.078674461494029e-07,2.622229423752622e-07,1.6675253254090732e-05
2.637233955110274e-07,3.0539438183562185e-07,2.628650493086782e-07,1.6766982080131768e-05
2.6580506082563424e-07,3.029739478905905e-07,2.634865166190728e-07,1.6847941429579794e-05
2.678003592647852e-07,3.006169575902525e-07,2.640847757860489e-07,1.691794322374676e-05
2.6969753690499467e-07,2.983329305962699e-07,2.6465847486503924e-07,1.697684941540175e-05
2.714880557439135e-07,2.9612869121290497e-07,2.652079834841896e-07,1.7024574696384697e-05
2.731650364483784e-07,2.940080013751173e-07,2.6573533950850265e-07,1.706114553340369e-05
2.7472194160340855e-07,2.919721136137393e-07,2.6624362099805816e-07,1.7086831053208433e-05
2.761535133402453e-07,2.900213718413554e-07,2.667357542399179e-07,1.710220733159184e-05
2.774576831659739e-07,2.881574665836637e-07,2.6721354626260554e-07,1.7108051442261285e-05
2.786358122520382e-07,2.863843148270545e-07,2.676782142224929e-07,1.7105158834371904e-05
2.7969089382297763e-07,2.847065282190536e-07,2.6813099787447927e-07,1.7094213521704304e-05
2.806257277940514e-07,2.831273451026955e-07,2.685723986384449e-07,1.7075781031087893e-05
2.814422523563717e-07,2.816483259734127e-07,2.6900149279145827e-07,1.7050462728456952e-05
2.8214144750705337e-07,2.802713552789661e-07,2.6941600533481656e-07,1.7019108911879045e-05
2.827238969114518e-07,2.790008346789556e-07,2.698126137030631e-07,1.69828840232801e-05
2.831908224765647e-07,2.7784295078852744e-07,2.7018793319531196e-07,1.6943146715974883e-05
2.835440764425765e-07,2.7680245595554406e-07,2.7053935853656487e-07,1.6901269096356065e-05
2.8378555821142303e-07,2.758805376250909e-07,2.708643938304248e-07,1.68584793613231e-05
2.8391759621167267e-07,2.750758708781385e-07,2.7115955970516836e-07,1.6815760552473445e-05
2.839433165651005e-07,2.743876609584045e-07,2.714202092471993e-07,1.677381424425693e-05
2.838660225461935e-07,2.738177587884877e-07,2.7164081458515106e-07,1.6733064813515995e-05
2.836885306588364e-07,2.7336989931716643e-07,2.7181509118308764e-07,1.669367983278771e-05
2.8341273449999305e-07,2.7304755874097035e-07,2.719362598285364e-07,1.665560114468867e-05
2.830393758423564e-07,2.7285429087216966e-07,2.7199784914672663e-07,1.6618582186128203e-05
2.825687347247883e-07,2.72796186736141e-07,2.719951087942613e-07,1.6582229181077742e-05
2.8200142689087246e-07,2.72881788070856e-07,2.719265406515858e-07,1.654605032338091e-05
2.813382502575706e-07,2.731194189428163e-07,2.717941206214652e-07,1.6509499467088417e-05
2.805799224765854e-07,2.7351584789914585e-07,2.7160189566128716e-07,1.6472004551835787e-05
2.7972701662853286e-07,2.7407662374940124e-07,2.713546358233133e-07,1.6433005322633956e-05
