2.6657875368225865e-07,2.7808689520118587e-07,2.745563068917783e-07,1.3227589940541827e-05
2.6762466958697896e-07,2.816135130571122e-07,2.759729129233673e-07,1.3104634621072675e-05
2.687877447257204e-07,2.851836602010488e-07,2.7752480417810913e-07,1.2984639378101685e-05
2.700678131097363e-07,2.8878405850997384e-07,2.792353546167049e-07,1.2868111588300536e-05
2.714605215006328e-07,2.924009391375059e-07,2.8112315732837364e-07,1.2755437520033467e-05
2.729575100794267e-07,2.960204124211865e-07,2.83201412387502e-07,1.2647045913086873e-05
2.745479187696446e-07,2.996285181057276e-07,2.854776951600259e-07,1.2543663740975874e-05
2.7622064659432997e-07,3.032111286358337e-07,2.879533957800025e-07,1.2446476859261509e-05
2.7796597581134857e-07,3.0675412012424717e-07,2.906244806308411e-07,1.2357054320199435e-05
2.7977483535000713e-07,3.1024416121379827e-07,2.934836296663926e-07,1.2277134814646046e-05
2.816370202714681e-07,3.1366981026826817e-07,2.965217576276896e-07,1.2208424833303067e-05
2.8354099333222963e-07,3.170215610851736e-07,2.997281384146765e-07,1.215245082256489e-05
2.8547479232166197e-07,3.202905519713517e-07,3.030899788646144e-07,1.211046778426354e-05
2.8742591936502556e-07,3.234677276973754e-07,3.065921430651289e-07,1.2083422193728287e-05
2.8938028594738395e-07,3.265437733209775e-07,3.102173090040773e-07,1.2071946465886313e-05
2.9132198678973545e-07,3.295091938566218e-07,3.139468944135456e-07,1.2076358950362974e-05
2.932343333091329e-07,3.3235492959454536e-07,3.177626258100325e-07,1.209666886903702e-05
2.9510071411115607e-07,3.3507282403293145e-07,3.2164766285682297e-07,1.2132599417988562e-05
2.969046286237156e-07,3.376549062931311e-07,3.2558673599159517e-07,1.2183635915039493e-05
2.986300881544395e-07,3.400923033608148e-07,3.295657843107041e-07,1.2249097431820676e-05
3.0026312309326983e-07,3.423750205336721e-07,3.3357130133051373e-07,1.2328208898396692e-05
3.017932600571813e-07,3.444930309552697e-07,3.375894747899831e-07,1.2420153359221574e-05
3.0321388467102266e-07,3.46438090179048e-07,3.416053629175629e-07,1.252412406661152e-05
3.0452195314998213e-07,3.482041667016835e-07,3.4560216056109805e-07,1.2639391247332404e-05
3.05717346204061e-07,3.497857115685565e-07,3.495609883247496e-07,1.2765353037383458e-05
3.068014574717933e-07,3.51176385590674e-07,3.534621621530338e-07,1.290154360762521e-05
3.077755428786247e-07,3.5236999295621094e-07,3.572877316337849e-07,1.3047605068732301e-05
3.086398078405674e-07,3.53362038861842e-07,3.6102336206795577e-07,1.3203235775405141e-05
3.093935130150917e-07,3.541504615611228e-07,3.6465820278720815e-07,1.3368122726355682e-05
3.100358093276467e-07,3.547354210447556e-07,3.681832034490637e-07,1.3541866914190802e-05
3.105662763996152e-07,3.5511824184193417e-07,3.71589570376779e-07,1.3723915138937353e-05
3.109844451793188e-07,3.5530043218169364e-07,3.748688708954081e-07,1.3913519152492982e-05
3.112895574324711e-07,3.55283868230521e-07,3.78013980443574e-07,1.410974541634708e-05
3.114818682344781e-07,3.550718498614212e-07,3.810190499292985e-07,1.4311538197842379e-05
3.115646755926144e-07,3.546695200761296e-07,3.8387885260328104e-07,1.4517788209665527e-05
3.115453495946569e-07,3.540829145156271e-07,3.8658840716050895e-07,1.4727353373714367e-05
3.114343501686869e-07,3.5331753139547686e-07,3.8914203347665616e-07,1.4939054141659255e-05
3.1124281373226555e-07,3.523773483504921e-07,3.915318284663744e-07,1.5151703106906516e-05
3.1098046394374726e-07,3.512647848003509e-07,3.937475799539605e-07,1.5364166753163822e-05
3.106548071207237e-07,3.499815646288252e-07,3.9577918040376785e-07,1.5575387448444702e-05
3.102711282511495e-07,3.485294677888318e-07,3.976193002225359e-07,1.578432392504935e-05
3.098328926462119e-07,3.469104602083229e-07,3.99262974575541e-07,1.5989874068488485e-05
3.093428541565369e-07,3.451267288105063e-07,4.0070517723337777e-07,1.6190861418710474e-05
3.088044618051929e-07,3.431809246845848e-07,4.0194020548608046e-07,1.6386079163347605e-05
3.0822214397139076e-07,3.4107681450005174e-07,4.029623785424948e-07,1.6574348652915296e-05
3.076004755904941e-07,3.388200706510986e-07,4.037656598358125e-07,1.675458222289856e-05
3.069437172625539e-07,3.3641803564152604e-07,4.043436561886089e-07,1.692582995734946e-05
3.062560903243776e-07,3.338784219150599e-07,4.046920187113686e-07,1.7087261962497858e-05
3.055424608491713e-07,3.312085756976891e-07,4.0481076799767756e-07,1.7238098813909254e-05
3.048087759645466e-07,3.284161349701221e-07,4.04703129453141e-07,1.737756972000759e-05
3.0406118531385413e-07,3.255094474700015e-07,4.0437285693357954e-07,1.750493142382001e-05
3.033044818635087e-07,3.224965500862053e-07,4.0382403022079966e-07,1.7619511518359745e-05
3.025414807948993e-07,3.193843023500592e-07,4.0306265145688464e-07,1.7720738297333872e-05
3.01773554343541e-07,3.1617894596876805e-07,4.0209690898007884e-07,1.7808138763119352e-05
3.0100150826333516e-07,3.1288766724317453e-07,4.009363185162671e-07,1.7881343092105365e-05
3.0022576351419073e-07,3.095197688157289e-07,3.9959225879312616e-07,1.7940192314722284e-05
2.9944602116460525e-07,3.0608608301135065e-07,3.980789787510853e-07,1.7984902525868462e-05
2.9866225106500164e-07,3.025977599513628e-07,3.9641252510921393e-07,1.80160780018855e-05
2.978766652516705e-07,2.990661323731425e-07,3.946093401502764e-07,1.8034534909888567e-05
2.9709417148438385e-07,2.9550334985524545e-07,3.9268649911459457e-07,1.804109606725784e-05
2.963214365729571e-07,2.9192253923746143e-07,3.906612803161084e-07,1.8036472277066502e-05
2.955659457751554e-07,2.883367562022741e-07,3.8854914976907977e-07,1.802130412892392e-05
2.948346302475016e-07,2.847583355341548e-07,3.863630607790127e-07,1.7996388405454417e-05
2.941321962116823e-07,2.812000046525796e-07,3.841154711913521e-07,1.7962911268325916e-05
2.934607204902786e-07,2.7767555158357345e-07,3.818206977790686e-07,1.792246450442263e-05
2.928208125196505e-07,2.741985572006e-07,3.7949495877261894e-07,1.7876867311149677e-05
2.922126691066688e-07,2.707812427405425e-07,3.771548793256288e-07,1.7827957252940537e-05
2.9163590287365535e-07,2.674347756837025e-07,3.748164306020853e-07,1.7777428012529755e-05
2.910888309688497e-07,2.641694995150362e-07,3.724941411973129e-07,1.7726718010537154e-05
2.9056829483894356e-07,2.6099433153746014e-07,3.702004248415306e-07,1.767694397764277e-05
2.900708907752273e-07,2.579168771433e-07,3.6794553156744214e-07,1.7628875943105913e-05
2.8959492699467266e-07,2.549449572450101e-07,3.657379163442894e-07,1.758295315767401e-05
2.891404584746881e-07,2.5208852523542717e-07,3.6358492870615227e-07,1.7539329077940454e-05
2.8870739465074986e-07,2.493609201881296e-07,3.614935931540493e-07,1.7497926344387908e-05
2.8829480226780593e-07,2.467791418547098e-07,3.5947075564998933e-07,1.7458497095852668e-05
2.8790175411916106e-07,2.443627994801439e-07,3.575222537347175e-07,1.7420688555015274e-05
2.875272934402244e-07,2.421313877495724e-07,3.556518480575007e-07,1.7384104210326652e-05
2.871692052825926e-07,2.4010111874402497e-07,3.538614813058661e-07,1.734835538415206e-05
2.868232010803163e-07,2.3828315925110412e-07,3.521532101036428e-07,1.7313110379211822e-05
2.8648329883543787e-07,2.3668408377065865e-07,3.505307997067609e-07,1.727814605229652e-05
2.861429666404624e-07,2.3530797758113604e-07,3.4899912706134554e-07,1.7243377009291598e-05
2.857959658235297e-07,2.3415884999518627e-07,3.475628865676628e-07,1.7208830261437846e-05
2.854367958282876e-07,2.3324314384940748e-07,3.462270085944074e-07,1.7174579718939447e-05
2.850616825318841e-07,2.3257224235129233e-07,3.4499769898955216e-07,1.7140680183456117e-05
2.8466967286428626e-07,2.3216242509997802e-07,3.4388202510714365e-07,1.7107117264764167e-05
2.8426243605328804e-07,2.320312487562604e-07,3.428862992124378e-07,1.7073769417601176e-05
2.8384304163385074e-07,2.321942089171389e-07,3.420144426528074e-07,1.704038905407883e-05
2.8341505542019165e-07,2.326637705706293e-07,3.412669186273522e-07,1.700663432301156e-05
2.829820925852499e-07,2.3344946789923764e-07,3.406400536056448e-07,1.6972175217945458e-05
2.8254754797937215e-07,2.3455868897967173e-07,3.401257889407559e-07,1.693683993250969e-05
2.8211433523634827e-07,2.3599663490849171e-07,3.397123936150855e-07,1.690071391391885e-05
2.816841606458708e-07,2.377646208726122e-07,3.393861212647908e-07,1.6864137625829708e-05
2.812568023358523e-07,2.398588104720047e-07,3.3913270604717694e-07,1.6827634503066543e-05
2.808299578786248e-07,2.422700218943224e-07,3.3893769665881354e-07,1.6791824846439177e-05
2.803998743958712e-07,2.449839459239721e-07,3.387864571170941e-07,1.6757350191063094e-05
2.799630004647719e-07,2.4798187337072217e-07,3.386648659197311e-07,1.672479474490718e-05
2.7951719232052704e-07,2.512415879252772e-07,3.3855979305808356e-07,1.6694592140293727e-05
2.790611226223445e-07,2.547379872689645e-07,3.384585881109732e-07,1.6666985663041393e-05
2.7859297360776524e-07,2.584442032463018e-07,3.383491007755705e-07,1.6642130441470458e-05
2.781098570488128e-07,2.6233353822544514e-07,3.3822112430269603e-07,1.6620281998734145e-05
2.7760815696850773e-07,2.66380737416314e-07,3.380671375600782e-07,1.6601907697564443e-05
2.770843653237063e-07,2.705621680813184e-07,3.378813962208457e-07,1.6587658088206202e-05
2.765362577392231e-07,2.7485646774130604e-07,3.3765970512769647e-07,1.6578274576679935e-05
2.7596375820836054e-07,2.792457479367812e-07,3.374001451635937e-07,1.6574496725431557e-05
2.7536832437212864e-07,2.8371598234023316e-07,3.371021177200964e-07,1.657695972235928e-05
2.7475137844184454e-07,2.882564802313404e-07,3.367640430943084e-07,1.6586080314982228e-05
2.741133772457948e-07,2.928583817648409e-07,3.363825425542728e-07,1.6601979752020984e-05
2.7345361378731536e-07,2.9751225701971485e-07,3.3595343520164033e-07,1.6624477846451266e-05
2.7277045612082897e-07,3.022064959046841e-07,3.354731206436292e-07,1.6653127357995902e-05
2.720624617474227e-07,3.0692701428506685e-07,3.34939328133601e-07,1.6687250973558807e-05
2.7132951072664945e-07,3.116575833219819e-07,3.3435079100156287e-07,1.6726006099015992e-05
2.705728922292117e-07,3.163811523286552e-07,3.3370676346122696e-07,1.6768543760997854e-05
2.697947187392237e-07,3.210812930740114e-07,3.3300697384825174e-07,1.6814233893276222e-05
2.689970716200378e-07,3.25741558492329e-07,3.322509730139856e-07,1.6862764896635616e-05
2.681816303286561e-07,3.303438546383965e-07,3.31437281460924e-07,1.6914026749847096e-05
2.6735064712913016e-07,3.3486914614507944e-07,3.3056417959030105e-07,1.696799637787753e-05
2.6650849090108445e-07,3.3930025640785627e-07,3.296314011595929e-07,1.7024782419600418e-05
2.656617489614243e-07,3.436233462765773e-07,3.2864026960331264e-07,1.7084672303057952e-05
2.6481773738606185e-07,3.47826758870637e-07,3.2759263299431673e-07,1.714806669546167e-05
2.639840828692344e-07,3.518989024975575e-07,3.2649040668154076e-07,1.7215380508602285e-05
2.6316961968223304e-07,3.558266022958803e-07,3.2533514194201105e-07,1.7286969739643604e-05
2.6238403269130267e-07,3.5959437361556567e-07,3.2412701507051354e-07,1.736308420698076e-05
2.6163642170603123e-07,3.6318466617381e-07,3.228647279461662e-07,1.7443847865120244e-05
2.6093420580444307e-07,3.6657852144713247e-07,3.2154671426262697e-07,1.752925579256991e-05
2.6028253744762265e-07,3.697563989193559e-07,3.2017229957505587e-07,1.7619165960343397e-05
2.596846318801282e-07,3.7269923013217346e-07,3.1874238811139694e-07,1.771328719012486e-05
2.591431983217125e-07,3.753893409554971e-07,3.17259642097218e-07,1.7811178160001e-05
2.586623216827928e-07,3.77811728508931e-07,3.157278084948796e-07,1.791226023323065e-05
2.582482293722228e-07,3.7995595284869705e-07,3.1415070997394873e-07,1.8015841776869017e-05
2.579083222272955e-07,3.818167338319476e-07,3.125314669477629e-07,1.812114113867588e-05
2.576503743283333e-07,3.8339246399124177e-07,3.108721986980666e-07,1.8227283901051692e-05
2.574823284651791e-07,3.846835777947489e-07,3.0917498439655746e-07,1.833328129944052e-05
2.574111425709784e-07,3.856922664078507e-07,3.074436360083537e-07,1.843803856669659e-05
2.57441339709217e-07,3.8642332371445066e-07,3.0568410667830556e-07,1.854040754781396e-05
2.5757458850282164e-07,3.8688458370990655e-07,3.039032068884229e-07,1.863923936628906e-05
2.5780995478806987e-07,3.870861089177666e-07,3.0210715800548e-07,1.873341800826271e-05
2.581443083468844e-07,3.8703993712205e-07,3.003004652128176e-07,1.8821899558229238e-05
2.585727538187769e-07,3.8676085816803645e-07,2.984852654794177e-07,1.8903763455311653e-05
2.5908891345469734e-07,3.862659036913413e-07,2.966619408902872e-07,1.8978259641786468e-05
2.5968526097299943e-07,3.8557236367999744e-07,2.9483150278037987e-07,1.904484229988531e-05
2.603536629136095e-07,3.846961825513032e-07,2.929988945940555e-07,1.9103175834204652e-05
2.610853774828396e-07,3.836514297678845e-07,2.9117529484521105e-07,1.915309910235355e-05
2.6187069104957945e-07,3.8245027919008843e-07,2.893779205282544e-07,1.919455811702828e-05
2.627000217363784e-07,3.811027493581538e-07,2.8762703799063625e-07,1.9227524221824702e-05
2.635661881876571e-07,3.796162245890938e-07,2.85942286780113e-07,1.925193122967715e-05
2.6446505800880904e-07,3.7799515088289215e-07,2.8434124132328767e-07,1.9267687574706945e-05
2.653943090177612e-07,3.762411792061167e-07,2.828403872852397e-07,1.927474138172488e-05
2.6635305856725953e-07,3.7435406647306244e-07,2.814568824415201e-07,1.927309366219895e-05
2.673426844678434e-07,3.723332447744742e-07,2.802095028904358e-07,1.9262742018527388e-05
2.683660374888893e-07,3.701790752492029e-07,2.791177646151322e-07,1.924363469544859e-05
2.694246718645427e-07,3.678934097076549e-07,2.781999231144849e-07,1.9215676514324488e-05
2.7051702841690944e-07,3.654803258341886e-07,2.7747118640775946e-07,1.9178788489677405e-05
2.716390679373705e-07,3.6294639271518273e-07,2.769423078830759e-07,1.9132996389380657e-05
2.727857465550009e-07,3.602995250876345e-07,2.766186553657236e-07,1.90784734490545e-05
2.7395132489599704e-07,3.5754819946298964e-07,2.7650059102945964e-07,1.9015494013573115e-05
2.7512892959517324e-07,3.5470200577739454e-07,2.7658509636905174e-07,1.8944339183518007e-05
2.7631144922949376e-07,3.517714940082348e-07,2.7686746459971016e-07,1.886524141460822e-05
2.77493402901836e-07,3.4876677897554397e-07,2.77342655267242e-07,1.877844123902073e-05
2.786717087824725e-07,3.45696790309801e-07,2.780060110311911e-07,1.8684315974903336e-05
2.7984600322774573e-07,3.425692509680178e-07,2.788524308967557e-07,1.8583441947229292e-05
2.810192018626224e-07,3.393903951852996e-07,2.7987475625474174e-07,1.8476524591425333e-05
2.8219644521097e-07,3.3616499179967434e-07,2.810629714568032e-07,1.8364264064483166e-05
2.83382458881241e-07,3.3289693283641355e-07,2.824044241373955e-07,1.824725888559476e-05
2.8458014334469266e-07,3.295895898955767e-07,2.838848557911985e-07,1.8125979656525945e-05
2.857922222133266e-07,3.2624584782876676e-07,2.854907357012157e-07,1.8000771068224936e-05
2.8702457962402937e-07,3.228680466357354e-07,2.872121856478409e-07,1.7871864560405318e-05
2.8828740521396985e-07,3.194580460681437e-07,2.8904370105559784e-07,1.7739423306679596e-05
2.895926620712521e-07,3.1601802660936925e-07,2.909819381862029e-07,1.7603638309975094e-05
2.909514017345468e-07,3.125512192526784e-07,2.930229932861872e-07,1.7464863275524288e-05
2.9237332077596825e-07,3.090618547816592e-07,2.951611103992686e-07,1.7323682180275627e-05
2.9386643403755284e-07,3.0555605263920777e-07,2.973890677467256e-07,1.7180821220016555e-05
2.954360679839918e-07,3.020431574450844e-07,2.9969933321897075e-07,1.7036987636387984e-05
2.9708555814018824e-07,2.985345491322258e-07,3.020845895766448e-07,1.6892770267602533e-05
2.988185917876609e-07,2.9504071336249883e-07,3.045368223803769e-07,1.6748686067449836e-05
3.006395610182972e-07,2.9156986961026676e-07,3.0704547779302876e-07,1.6605395265558553e-05
3.025512795934498e-07,2.881287128819068e-07,3.0959629511267097e-07,1.64639358290802e-05
3.0455431709157575e-07,2.847235431397872e-07,3.1217167114974563e-07,1.6325753728465062e-05
3.066491752300418e-07,2.813608965499246e-07,3.147518441516664e-07,1.6192521465276803e-05
3.0883731937463777e-07,2.7804786325672013e-07,3.173162789286701e-07,1.6065918500225096e-05
3.111192754467043e-07,2.747920675717063e-07,3.198449589007567e-07,1.594749005994022e-05
3.134921416583626e-07,2.716011170402861e-07,3.2231902499510764e-07,1.5838590102211202e-05
3.159489978794077e-07,2.68481605151429e-07,3.2472074908361626e-07,1.574035608186991e-05
3.1848029617170373e-07,2.654387718230227e-07,3.270330777920467e-07,1.5653661540484797e-05
3.21075083499989e-07,2.62477680988662e-07,3.292390424164361e-07,1.557905071908143e-05
3.2372137014923957e-07,2.5960417158139554e-07,3.313216245091321e-07,1.551670563677511e-05
3.2640692173953337e-07,2.568243459901112e-07,3.332640132167035e-07,1.546647262157168e-05
3.2911953243043734e-07,2.5414414901870666e-07,3.350505882658468e-07,1.5427929851834368e-05
3.318461099858747e-07,2.5156962546408293e-07,3.3666882226558726e-07,1.540046354621825e-05
3.345730844405493e-07,2.4910678214079044e-07,3.381098529677525e-07,1.5383333021274048e-05
3.372882398455316e-07,2.467606838504528e-07,3.393671692703279e-07,1.537572522960163e-05
3.399814208188353e-07,2.445345668070896e-07,3.404358366929183e-07,1.5376806387828022e-05
3.426436204480259e-07,2.4242989157435844e-07,3.413122550414229e-07,1.5385764205245007e-05
3.452656225813537e-07,2.4044683870999443e-07,3.4199332138137477e-07,1.5401819457365632e-05
3.478382414257746e-07,2.385845156353985e-07,3.4247565347267254e-07,1.5424207811945498e-05
3.5035455778928105e-07,2.3684147989191194e-07,3.42755404529744e-07,1.5452175636470388e-05
3.5281122391641366e-07,2.352165159508221e-07,3.4282914811924947e-07,1.5485012144413416e-05
3.5520691915227853e-07,2.3370885892407761e-07,3.426957418377618e-07,1.5522076464229057e-05
3.575395982264592e-07,2.3231797684406534e-07,3.42357601173383e-07,1.5562777506850218e-05
3.5980523847219093e-07,2.310429487397618e-07,3.41821234091147e-07,1.5606510433474828e-05
3.619987803320544e-07,2.2988156974670864e-07,3.410974980197781e-07,1.5652585507905745e-05
3.641156089296289e-07,2.288305549213796e-07,3.4020023980282414e-07,1.570020481230437e-05
3.6615211740763067e-07,2.278874834292994e-07,3.3914367659458473e-07,1.574851626891652e-05
3.681062178873789e-07,2.2705239098800488e-07,3.379409394000034e-07,1.5796690213585128e-05
3.6997807713193157e-07,2.263275004191947e-07,3.36604130605209e-07,1.584393864647205e-05
3.7176901198217225e-07,2.257162217434638e-07,3.3514457512111104e-07,1.588948054567171e-05
3.734791437447688e-07,2.2522198990540825e-07,3.3357262592081045e-07,1.5932517589028545e-05
3.751069621915972e-07,2.248472731758697e-07,3.318969983149461e-07,1.5972250312568374e-05
3.7665058804664027e-07,2.2459326545357237e-07,3.301241122278409e-07,1.60079025988363e-05
3.781081161172589e-07,2.2445948017731852e-07,3.282581811800792e-07,1.6038722531130634e-05
3.794776585196126e-07,2.244432432782845e-07,3.263017899848085e-07,1.6063986254712967e-05
3.807592782100478e-07,2.245396550439825e-07,3.242562979355436e-07,1.6083026214236824e-05
3.8195671590076094e-07,2.247418688853528e-07,3.221220224594107e-07,1.6095269596454313e-05
3.830756775008462e-07,2.2504210944185072e-07,3.1989841629114854e-07,1.6100308842250353e-05
3.841206567399379e-07,2.2543318917529326e-07,3.175845414033164e-07,1.6097990011706487e-05
3.850942520087792e-07,2.259089463503233e-07,3.1517991028303e-07,1.608840403685358e-05
3.8599845119538714e-07,2.2646340651214052e-07,3.126855642699903e-07,1.6071747266022236e-05
3.868349636941941e-07,2.270904381600557e-07,3.1010512479755284e-07,1.6048191958397673e-05
3.8760435414554966e-07,2.2778512237356e-07,3.0744549614444123e-07,1.6017883591902285e-05
3.883052527586405e-07,2.285450697175521e-07,3.04716579775206e-07,1.5981020793646303e-05
3.889344496236385e-07,2.2936909160109482e-07,3.019296059448041e-07,1.5937920475782408e-05
3.89487634740281e-07,2.3025492407219268e-07,2.9909600324699066e-07,1.588903493920509e-05
3.8995971130067895e-07,2.3119949251838931e-07,2.9622812419679024e-07,1.58349331272346e-05
3.903452031031971e-07,2.3220033000194742e-07,2.933399155614264e-07,1.577624869715899e-05
3.906395035776047e-07,2.33254955166968e-07,2.904466274042878e-07,1.571363292356024e-05
3.908396524615986e-07,2.3435917917302628e-07,2.875647167178164e-07,1.5647800929393128e-05
3.9094345048559494e-07,2.3550654458637172e-07,2.8471164993103136e-07,1.557962497952378e-05
3.90947690461976e-07,2.366896493269291e-07,2.819044014464288e-07,1.5510108821213978e-05
3.9084726611955305e-07,2.3790357031195645e-07,2.7915742677965296e-07,1.5440249319110765e-05
3.906353789440344e-07,2.391487791449143e-07,2.76481687748388e-07,1.537095670179762e-05
3.903042461682008e-07,2.4043036660098575e-07,2.738847489125794e-07,1.5303134859171267e-05
3.898465152727096e-07,2.417557006433443e-07,2.7137114079603064e-07,1.5237831169919654e-05
3.892562869871066e-07,2.431334335170938e-07,2.689427367337166e-07,1.5176267134642545e-05
3.885284322610573e-07,2.4457242839617445e-07,2.6659930816360123e-07,1.5119720629571485e-05
3.876574008514936e-07,2.4607996696128337e-07,2.6433901299779127e-07,1.5069376828233233e-05
3.8663703330505305e-07,2.476606168470451e-07,2.62158515118952e-07,1.5026206035463193e-05
3.854612208980619e-07,2.4931572830123586e-07,2.600531659621875e-07,1.4990880779553916e-05
3.841250321153347e-07,2.5104382030111576e-07,2.5801776284383673e-07,1.4963758506518595e-05
3.826264213429165e-07,2.5284220322903054e-07,2.5604735008223386e-07,1.4944928853111332e-05
3.809675852696106e-07,2.547079516986369e-07,2.541375708620992e-07,1.4934280729349932e-05
3.7915417903156936e-07,2.56636983605657e-07,2.522856111029025e-07,1.493154339477912e-05
3.7719320736698744e-07,2.586230190588372e-07,2.5049190412696535e-07,1.4936289774583261e-05
3.7509248685488354e-07,2.6065796133777924e-07,2.4876075783190944e-07,1.4947919313365307e-05
3.728621395182703e-07,2.627326437121223e-07,2.4709883267399283e-07,1.4965648686241705e-05
3.705167341409474e-07,2.648368237654613e-07,2.45512662514401e-07,1.4988530227103409e-05
3.6807630426162866e-07,2.669589541950673e-07,2.440077492677725e-07,1.5015506090998544e-05
3.6556438448150675e-07,2.690862618511565e-07,2.4259023324173516e-07,1.504549951537705e-05
3.6300452735662646e-07,2.7120470108399073e-07,2.412686662942145e-07,1.507751940186963e-05
3.6041832616217103e-07,2.7329898385281893e-07,2.4005283569037256e-07,1.5110728561551557e-05
3.5782480912004965e-07,2.753542418123657e-07,2.389506304031697e-07,1.5144447642148583e-05
3.552397396570465e-07,2.773587113362933e-07,2.3796633401610908e-07,1.5178119275457059e-05
3.526753391629981e-07,2.793041492709709e-07,2.3710110093569603e-07,1.5211277473113587e-05
3.501418191379673e-07,2.811840795549287e-07,2.3635410322840966e-07,1.5243541658252584e-05
3.476497543258237e-07,2.8299346541286677e-07,2.3572303223496128e-07,1.527461579315378e-05
3.4521093766649424e-07,2.8473025123647947e-07,2.3520421824884728e-07,1.5304264139966255e-05
3.428378092698314e-07,2.8639614910610753e-07,2.347937390512235e-07,1.5332263833925384e-05
3.405429271718913e-07,2.879961535464656e-07,2.3448852193404587e-07,1.5358352031125138e-05
3.383383883661359e-07,2.895380895459035e-07,2.3428533559403692e-07,1.5382204695655072e-05
3.362348550144209e-07,2.910317613179028e-07,2.3417890374827236e-07,1.5403500539626272e-05
3.342405863287665e-07,2.924869108947105e-07,2.3416175880673533e-07,1.542204267553641e-05
3.3236061082939283e-07,2.939116404477444e-07,2.342263339184663e-07,1.5437827941964982e-05
3.305962946898341e-07,2.953128403065271e-07,2.3436751156009175e-07,1.5451023793161555e-05
3.2894587040611724e-07,2.9669725522460296e-07,2.3458355582830767e-07,1.546189608361329e-05
3.274060379998085e-07,2.98071119744202e-07,2.348751939772782e-07,1.547072363080025e-05
3.2597345180430694e-07,2.994385884360348e-07,2.3524342475140162e-07,1.5477745404718077e-05
3.24644614702476e-07,3.0080099283497373e-07,2.356872541094641e-07,1.5483164335523827e-05
3.234148967141162e-07,3.021575778427691e-07,2.3620385107855424e-07,1.548713959525905e-05
3.222783682425237e-07,3.0350595505353215e-07,2.3679145659566732e-07,1.5489725787436824e-05
3.2122858027643525e-07,3.048417690626545e-07,2.3745157060811548e-07,1.5490834394458914e-05
3.202595592012082e-07,3.061593837927391e-07,2.3818764096387006e-07,1.5490295410620874e-05
3.193663459890721e-07,3.074535194850654e-07,2.3900179412600786e-07,1.548798471655705e-05
3.1854437216342487e-07,3.087199401694469e-07,2.398928801166935e-07,1.5483888712700006e-05
3.1778806478609163e-07,3.099545467490227e-07,2.4085668951945884e-07,1.5478044557985526e-05
3.170901886884788e-07,3.111519276267528e-07,2.418871850275838e-07,1.547044189541387e-05
3.1644195864492914e-07,3.123051639442248e-07,2.429778983814586e-07,1.5460981011920787e-05
3.158331111974439e-07,3.134065690365123e-07,2.44122809828488e-07,1.5449497776130574e-05
3.1525273665376766e-07,3.1444761246982533e-07,2.453161332333341e-07,1.5435805164397212e-05
3.146915673310543e-07,3.1541861939274876e-07,2.465515397665838e-07,1.5419691507171294e-05
3.141446412637427e-07,3.163095687259487e-07,2.478215148711405e-07,1.5400882096479866e-05
3.136122461058306e-07,3.171114053411687e-07,2.4911678066834173e-07,1.537903374533807e-05
3.130979758172404e-07,3.178166210391236e-07,2.504261497879377e-07,1.5353834902063053e-05
3.1260563932435496e-07,3.1841914224066183e-07,2.517375948281962e-07,1.5325209079571673e-05
3.1213724157113143e-07,3.1891471815770605e-07,2.530398326164568e-07,1.52934674153852e-05
3.1169196397821853e-07,3.193017022145777e-07,2.543229999139486e-07,1.525926390642186e-05
3.1126558533722746e-07,3.1958056359334625e-07,2.5557894685118077e-07,1.5223412516365769e-05
3.108505945847838e-07,3.1975223914111056e-07,2.5680227516960937e-07,1.5186736258378656e-05
3.104374260034932e-07,3.198171210742581e-07,2.5799107098062017e-07,1.5150091755197699e-05
3.100168922377575e-07,3.1977488990966766e-07,2.591456786772601e-07,1.5114544798882864e-05
3.095824102330948e-07,3.196246997748266e-07,2.6026624247834684e-07,1.5081461490377102e-05
3.0912982263021184e-07,3.193661590892573e-07,2.613514156344257e-07,1.5052394624574343e-05
3.086550674125176e-07,3.1900040018279575e-07,2.623989652960673e-07,1.5028892192312365e-05
3.081523006868975e-07,3.18529868172355e-07,2.6340655534279307e-07,1.5012341864017373e-05
3.0761372209681765e-07,3.179572629133707e-07,2.6437184521156697e-07,1.5003873715540393e-05
3.0703035615902947e-07,3.1728457340645645e-07,2.6529264511864383e-07,1.5004319781352484e-05
3.063933764405318e-07,3.165123131086363e-07,2.661666588975196e-07,1.5014203326350821e-05
3.056960498868338e-07,3.1563926091862603e-07,2.66990558306676e-07,1.5033735168605436e-05
3.049353353708467e-07,3.1466349224480353e-07,2.677598044532774e-07,1.5062830337773517e-05
3.041115255414345e-07,3.135846562317473e-07,2.684694739164352e-07,1.5101157993392025e-05
3.0322594398145e-07,3.1240601846191765e-07,2.6911523769888524e-07,1.514820011554953e-05
3.022787460057416e-07,3.11135080919555e-07,2.696940020344205e-07,1.520328305338044e-05
3.0126808810078585e-07,3.0978271150558174e-07,2.702037308781997e-07,1.5265579404712445e-05
3.001902787819345e-07,3.083612463920267e-07,2.706426227741078e-07,1.5334113769890982e-05
2.9904077854474184e-07,3.068832510936513e-07,2.710085290211542e-07,1.540781321656217e-05
2.978157052757195e-07,3.053618922100016e-07,2.71299196112056e-07,1.548560287022743e-05
2.965132394424772e-07,3.0381072359671787e-07,2.7151297044334806e-07,1.5566495039600136e-05
2.9513542883451535e-07,3.022416337677817e-07,2.716490060327311e-07,1.5649639448039653e-05
2.9368947531223104e-07,3.006635027548779e-07,2.717071367026073e-07,1.573435068639982e-05
2.9218635286921576e-07,2.990831538285093e-07,2.7168803163035496e-07,1.5820122827787987e-05
2.9063839270400355e-07,2.9750651589862073e-07,2.7159301504360773e-07,1.59066291087708e-05
2.890584463206693e-07,2.9593861970614237e-07,2.714233445033843e-07,1.5993714567953847e-05
2.8745947180956984e-07,2.94383581576997e-07,2.711800048312649e-07,1.608137156509845e-05
2.8585332130165137e-07,2.928450825720803e-07,2.708644864408459e-07,1.616967252463334e-05
2.842496389086687e-07,2.9132679206964804e-07,2.704796468244248e-07,1.6258665029127493e-05
2.8265557992219036e-07,2.8983229640131745e-07,2.700298310123969e-07,1.634827758588069e-05
2.810758171240625e-07,2.8836435769986055e-07,2.6952041204954535e-07,1.643829956495972e-05
2.795124942993858e-07,2.869241454217525e-07,2.689568202224513e-07,1.6528436860614275e-05
2.779659568504529e-07,2.855110292215318e-07,2.6834362990528194e-07,1.66183575511642e-05
2.764364939101242e-07,2.8412248357375395e-07,2.676855456148354e-07,1.6707676842487047e-05
2.74926741890236e-07,2.8275399006190036e-07,2.669897616956087e-07,1.679591768224076e-05
2.734439277892044e-07,2.8140014019405514e-07,2.6626595457932983e-07,1.6882483686915727e-05
2.7199952067581075e-07,2.800570683570915e-07,2.655234678157995e-07,1.6966669283528714e-05
2.706059054151633e-07,2.787234223761934e-07,2.64769343451124e-07,1.7047728302847394e-05
2.6927360293027005e-07,2.773986892510507e-07,2.6400831690864027e-07,1.712496316841367e-05
2.6801077398940894e-07,2.7608203365550925e-07,2.632434534325984e-07,1.7197774070817906e-05
2.668233239433104e-07,2.747733528148405e-07,2.624766746022788e-07,1.7265651376389535e-05
2.65715211826451e-07,2.7347424816074724e-07,2.61708927125715e-07,1.7328128228645815e-05
2.6468920598384745e-07,2.7218729148301977e-07,2.609412850135912e-07,1.738474617946334e-05
2.6374671753833387e-07,2.7091487122753065e-07,2.6017724196981296e-07,1.743506912842556e-05
2.628867892821789e-07,2.696589456123102e-07,2.5942298641593924e-07,1.7478702056515747e-05
2.621061826571078e-07,2.6842115260747235e-07,2.586847769789756e-07,1.7515273891793178e-05
2.614009782532959e-07,2.6720276284853566e-07,2.579667896466303e-07,1.7544410412881882e-05
2.6076820354543084e-07,2.6600468240984585e-07,2.5727097666419005e-07,1.7565736774666818e-05
2.602063127967463e-07,2.648271985198257e-07,2.5659764300450985e-07,1.7578902729848827e-05
2.597142247448092e-07,2.6366962971971877e-07,2.559460989900977e-07,1.758359597025416e-05
2.5929005703726673e-07,2.6253082909423077e-07,2.553154817505237e-07,1.7579533214925337e-05
2.589320177213479e-07,2.6141028676299737e-07,2.547053206202207e-07,1.756644875806465e-05
2.5864036158644107e-07,2.6030864555604e-07,2.5411573695267145e-07,1.7544152415803963e-05
2.584164613580877e-07,2.592278664198593e-07,2.53547628670667e-07,1.7512720753521513e-05
2.5825978778522337e-07,2.581722985532456e-07,2.530023527539686e-07,1.747269168756232e-05
2.5816662823987453e-07,2.5715037790042724e-07,2.524808833773457e-07,1.7425047211134975e-05
2.581309959950984e-07,2.5617583313613136e-07,2.519837443237686e-07,1.7371000472612265e-05
2.581456482256324e-07,2.552680457834351e-07,2.515120333847881e-07,1.731178132078198e-05
2.582022885704008e-07,2.544504589658451e-07,2.510681516194829e-07,1.7248574318130913e-05
2.5829195198932236e-07,2.5374662539514346e-07,2.506551821249624e-07,1.7182628175229765e-05
2.584061893627349e-07,2.5317651438001964e-07,2.5027558492052365e-07,1.711536831827031e-05
2.5853862994980175e-07,2.5275502486026164e-07,2.499303222330369e-07,1.7048353451639647e-05
2.586865464494937e-07,2.524923421996477e-07,2.4961893639528453e-07,1.698313142704759e-05
2.588512774939754e-07,2.523955838744695e-07,2.4934043870825537e-07,1.6921113074761312e-05
2.590368543878202e-07,2.524703126172102e-07,2.4909379408429647e-07,1.6863498165626583e-05
2.5924842348996027e-07,2.527201416847569e-07,2.4887762454796573e-07,1.6811241393267167e-05
2.5949156917956493e-07,2.531453218977054e-07,2.486904694379157e-07,1.6765041051637454e-05
2.597715962691597e-07,2.537427546679147e-07,2.485318344357469e-07,1.6725340593019313e-05
2.600922432756215e-07,2.545072294700163e-07,2.4840262958936005e-07,1.6692345101655618e-05
2.6045478376057557e-07,2.5543182894712066e-07,2.483041424194371e-07,1.6666061627000276e-05
2.608584174627867e-07,2.5650736997757893e-07,2.4823650802491853e-07,1.6646357240231977e-05
2.613018731652464e-07,2.577221837993928e-07,2.4819823796648325e-07,1.6632995609172236e-05
2.617850516867423e-07,2.590627731420546e-07,2.4818661566722787e-07,1.6625617482518226e-05
2.623090801193682e-07,2.605152488231296e-07,2.481978156871396e-07,1.662369634327911e-05
2.6287456690544663e-07,2.620668406153771e-07,2.482271255986267e-07,1.6626540645261158e-05
2.634798516116749e-07,2.6370582181860234e-07,2.482709630456872e-07,1.6633358202070834e-05
2.6412080777237893e-07,2.654199185538227e-07,2.4833050922073715e-07,1.66433246075306e-05
2.647916951667899e-07,2.6719591555114344e-07,2.4841376652265145e-07,1.6655603890889398e-05
2.654860545315674e-07,2.690211174346747e-07,2.4853409546048623e-07,1.6669333548299897e-05
2.661976806616192e-07,2.708843163500875e-07,2.48706749438298e-07,1.668361829001836e-05
2.669213734232127e-07,2.7277526264548337e-07,2.489454092339532e-07,1.669755295351478e-05
2.6765251855806927e-07,2.746838151639323e-07,2.492602686845002e-07,1.6710258534882394e-05
2.683858605430029e-07,2.7659976287963854e-07,2.496588225916644e-07,1.6720903241611133e-05
2.6911501844709787e-07,2.7851314280385945e-07,2.5014768347055175e-07,1.6728703018570072e-05
2.698338010187547e-07,2.804144685801969e-07,2.5073311203237173e-07,1.6732909520068274e-05
2.705388986622129e-07,2.8229474985687144e-07,2.5142145637086173e-07,1.6732791851187948e-05
2.7123161578037104e-07,2.841454286531346e-07,2.5222053256437397e-07,1.6727639984286273e-05
2.719172252233023e-07,2.8595868075619695e-07,2.531397708551529e-07,1.6716800794836113e-05
2.726036071772604e-07,2.8772830591112967e-07,2.5418814405827626e-07,1.6699696484032046e-05
2.733000757424651e-07,2.8944981468651385e-07,2.553718503717897e-07,1.667579238837093e-05
2.74015681331012e-07,2.911188260362375e-07,2.566930448373705e-07,1.664455720114599e-05
2.747577923626669e-07,2.927295482073611e-07,2.58149424561209e-07,1.660547040524e-05
2.7553176522422924e-07,2.9427491278494546e-07,2.597347567230803e-07,1.6558064050204576e-05
2.76341303767171e-07,2.9574755852120533e-07,2.6143986512476677e-07,1.650193379860045e-05
2.771890228770582e-07,2.971408842262198e-07,2.632529367522905e-07,1.6436707320853736e-05
2.780762674093689e-07,2.98451188551592e-07,2.651594200653579e-07,1.6362026975998082e-05
2.7900220551913877e-07,2.996807751825819e-07,2.671427470341399e-07,1.62775891111771e-05
2.7996364642546027e-07,3.008387867255288e-07,2.6918581591658807e-07,1.6183247372732223e-05
2.809554645757423e-07,3.0193844751007445e-07,2.7127151901568744e-07,1.6079139910659348e-05
2.819703691683314e-07,3.029940115161759e-07,2.73381664341748e-07,1.5965749876997293e-05
2.829994455106553e-07,3.040192745017388e-07,2.7549603834968604e-07,1.584384745574084e-05
2.8403601276115533e-07,3.050261757187745e-07,2.7759298025456977e-07,1.5714348798378203e-05
2.850799391166614e-07,3.0602354424255363e-07,2.796508607479028e-07,1.5578172585913245e-05
2.861370032981194e-07,3.070173014451527e-07,2.816490194617169e-07,1.543618141701345e-05
2.872145178041784e-07,3.080117126067862e-07,2.8356779394254224e-07,1.5289219553956886e-05
2.88317976646977e-07,3.090104421690229e-07,2.8538854684376193e-07,1.5138154183851785e-05
2.894500811816852e-07,3.100164852885225e-07,2.8709382581767787e-07,1.4983864288559982e-05
2.9061112538954165e-07,3.1103093906449946e-07,2.8866719142749306e-07,1.4827201346134116e-05
2.917992760960555e-07,3.1205224507110856e-07,2.900933101363628e-07,1.4668962250636997e-05
2.930102734679826e-07,3.1307728176347466e-07,2.913590783792027e-07,1.4509950967593937e-05
2.9423732903108523e-07,3.141027302016274e-07,2.924544186377585e-07,1.4351123126380785e-05
2.9547143288162433e-07,3.1512506578944147e-07,2.9337127237241375e-07,1.4193638437212839e-05
2.9670163919155266e-07,3.16141022614672e-07,2.9410251274656804e-07,1.4038734888956155e-05
2.979152278655801e-07,3.1714909308781783e-07,2.9464235766052844e-07,1.3887566032024536e-05
2.9909816613483355e-07,3.181491436430528e-07,2.949870743143116e-07,1.3741194113638664e-05
3.002360606684048e-07,3.191403433435321e-07,2.9513487337147505e-07,1.3600770602741554e-05
3.013147758702042e-07,3.2012028203963844e-07,2.950852541039977e-07,1.3467702724173372e-05
3.0232039721994056e-07,3.210855788510195e-07,2.948387008487093e-07,1.3343619418548343e-05
3.0323978050224554e-07,3.2203361747575604e-07,2.943975010558517e-07,1.3230184829995756e-05
3.0406197874992053e-07,3.229644796310631e-07,2.93767149811117e-07,1.3128905711831187e-05
3.0477902128907816e-07,3.238801316938228e-07,2.929571607752067e-07,1.304101195320983e-05
3.0538509869646666e-07,3.247811104671797e-07,2.919806930373274e-07,1.2967409153069687e-05
3.0587540841885674e-07,3.256644717940313e-07,2.908532566289887e-07,1.2908679225473206e-05
3.062463540105093e-07,3.2652392569011786e-07,2.895920082166069e-07,1.2865108649230026e-05
3.064963360114427e-07,3.273504815342259e-07,2.882160769904585e-07,1.28367136182572e-05
3.0662612007454117e-07,3.2813292324050953e-07,2.867459732395241e-07,1.2823258603296174e-05
3.0663891751434645e-07,3.288586045185989e-07,2.852020055631905e-07,1.2824285758708826e-05
3.065394813674113e-07,3.2951472586452013e-07,2.8360391851942336e-07,1.2839138805620606e-05
3.0633268643369926e-07,3.300890374191222e-07,2.819716846104962e-07,1.28669670933529e-05
3.060230433162801e-07,3.3056971536772305e-07,2.8032517678432804e-07,1.290674188881836e-05
3.0561451439169303e-07,3.309455557762823e-07,2.786821388482758e-07,1.2957319346397162e-05
3.0510988788223825e-07,3.3120650722522357e-07,2.770565460747388e-07,1.3017532397803738e-05
3.045106761213567e-07,3.3134399742462566e-07,2.754588063662617e-07,1.3086259531848955e-05
3.0381779997293284e-07,3.31351570814625e-07,2.7389661617663887e-07,1.3162439452138111e-05
3.030325561945305e-07,3.312268473009472e-07,2.723752387437698e-07,1.3245048400793015e-05
3.021588536832006e-07,3.3097551734788666e-07,2.708976712105412e-07,1.3333079747890872e-05
3.0120623409626776e-07,3.306152487207032e-07,2.6946488673201013e-07,1.3425530246915931e-05
3.0018989942206444e-07,3.3017551930482e-07,2.680761447973649e-07,1.352137279256606e-05
2.9912721705769017e-07,3.296931960346124e-07,2.6673017824558054e-07,1.361952990577435e-05
2.980353232968431e-07,3.2920664146698685e-07,2.6542650135539197e-07,1.3718875130543291e-05
2.969317808113541e-07,3.287507867730864e-07,2.641653226066524e-07,1.3818254883032764e-05
2.9583543483762076e-07,3.283548022327187e-07,2.629466460883204e-07,1.39165099009061e-05
2.947655355607598e-07,3.280422192563127e-07,2.6177027932187416e-07,1.4012505269769754e-05
2.937397561846345e-07,3.2783181615844843e-07,2.6063723074696124e-07,1.4105181534717608e-05
2.9277242109715054e-07,3.2773785991996567e-07,2.595503689447537e-07,1.419358771451502e-05
2.918739942409674e-07,3.277707240182094e-07,2.5851291852411905e-07,1.4276854588903644e-05
2.910519752004935e-07,3.279386577325065e-07,2.575269921787573e-07,1.435414529762004e-05
2.903121716334834e-07,3.282482386374085e-07,2.565937602238452e-07,1.442466372211911e-05
2.896591269551026e-07,3.2870275381324613e-07,2.5571397845680125e-07,1.4487748696497913e-05
2.890965058891655e-07,3.293011941448841e-07,2.5488789272685253e-07,1.4542978902877009e-05
2.886290068533829e-07,3.300391614087585e-07,2.541148297753685e-07,1.4590187678357956e-05
2.8826512629450804e-07,3.309105535974008e-07,2.533928587501307e-07,1.4629401023789512e-05
2.88018460955963e-07,3.319091122164108e-07,2.527187204143865e-07,1.4660788743423814e-05
2.879057032180328e-07,3.33029678990784e-07,2.5208797039207913e-07,1.4684641731290115e-05
2.879421891126439e-07,3.3426832838583337e-07,2.5149529864694946e-07,1.4701320983707315e-05
2.8813850229751053e-07,3.356209430425e-07,2.509348589987977e-07,1.4711187829872876e-05
2.885004208452503e-07,3.370816075502544e-07,2.504003275865425e-07,1.4714581402830456e-05
2.890310962203519e-07,3.386422386852434e-07,2.498848765084065e-07,1.4711842903949038e-05
2.8973279913149697e-07,3.402933722025616e-07,2.493812345865454e-07,1.4703340807509033e-05
2.906070234028313e-07,3.4202489758896024e-07,2.488822075066248e-07,1.4689492221415839e-05
2.9165409034741216e-07,3.438261250460942e-07,2.483823813783589e-07,1.4670773188797613e-05
2.9287267082904837e-07,3.456861885566844e-07,2.4788016384474826e-07,1.4647685563924002e-05
2.942584732969852e-07,3.4759464240693676e-07,2.4737790372235123e-07,1.4620688227704822e-05
2.9580335376032576e-07,3.4954054025218806e-07,2.468806584273361e-07,1.4590144004100823e-05
2.974960716042183e-07,3.5151084665075297e-07,2.463967646324579e-07,1.4556310199669605e-05
2.993237467444737e-07,3.534907908215819e-07,2.459393224900578e-07,1.451935731243432e-05
3.012727970687975e-07,3.554663695261161e-07,2.455246502672089e-07,1.4479387635781748e-05
3.0332847092711447e-07,3.5742631397451745e-07,2.4516886168749187e-07,1.44364392838102e-05
3.0547350235889177e-07,3.593611607320729e-07,2.448872438225729e-07,1.439049429862936e-05
3.0768775048785727e-07,3.6126100742132593e-07,2.4469608024001677e-07,1.4341508087765903e-05
3.099492095586173e-07,3.6311550041488936e-07,2.446126449141515e-07,1.4289452358821039e-05
3.122352293239586e-07,3.64916252756584e-07,2.446533361391571e-07,1.4234400535223865e-05
3.145231314001297e-07,3.6665823790442206e-07,2.448337538604023e-07,1.4176687032696216e-05
3.16790592968438e-07,3.683382745134954e-07,2.4517051969691557e-07,1.4117029125343158e-05
3.1901705229908014e-07,3.699528627495244e-07,2.4568117954026424e-07,1.405644989971268e-05
3.211855396619905e-07,3.7149763650133647e-07,2.463825085809321e-07,1.399604655303365e-05
3.2328245166386754e-07,3.7296841022690296e-07,2.472895071978805e-07,1.3936791974175815e-05
3.252958943869389e-07,3.7436242007071964e-07,2.48414113201842e-07,1.3879477139190778e-05
3.2721514911712827e-07,3.7567769717849996e-07,2.497634907984609e-07,1.3824824790278713e-05
3.2903055682026896e-07,3.769111395362389e-07,2.513402562086065e-07,1.3773747543875864e-05
3.3073245128876427e-07,3.7805796538247705e-07,2.53144637779888e-07,1.3727577811036885e-05
3.323103302276829e-07,3.791123817012536e-07,2.551762051416601e-07,1.3688077717966933e-05
3.3375334104877875e-07,3.800674934239308e-07,2.574337256137109e-07,1.365725349848681e-05
3.35051263760112e-07,3.80915314699132e-07,2.599141012639495e-07,1.3637125360286743e-05
3.361950451868129e-07,3.816485322038957e-07,2.626121141313531e-07,1.362952562302982e-05
3.371767593917752e-07,3.822617557901056e-07,2.655205716897192e-07,1.3635931687367876e-05
3.3798933443909123e-07,3.827502161038242e-07,2.686298263215882e-07,1.3657353158481129e-05
3.3862735911712534e-07,3.831084229540045e-07,2.7192715182562426e-07,1.3694306039938464e-05
3.390889756452009e-07,3.83331011409352e-07,2.753969322262207e-07,1.3746861478734095e-05
3.39376026136612e-07,3.8341496838275755e-07,2.790217620767707e-07,1.3814711644392966e-05
3.394918023927821e-07,3.833616985475982e-07,2.827836014143517e-07,1.3897238686010995e-05
3.3943952368336764e-07,3.8317785215891816e-07,2.866643009479269e-07,1.3993610346805246e-05
3.392226237104674e-07,3.8287409446875747e-07,2.906452574221374e-07,1.4102886592186987e-05
3.388446919055253e-07,3.824620340660423e-07,2.947067361780805e-07,1.4224103955796814e-05
3.383084963980909e-07,3.819512946953016e-07,2.988282948297037e-07,1.4356326688556796e-05
3.376154476172058e-07,3.813483571777831e-07,3.029905321565626e-07,1.4498672680866009e-05
3.367660643127637e-07,3.8065754425920294e-07,3.07176385764252e-07,1.4650329425284864e-05
3.357610333515115e-07,3.798832541761062e-07,3.113704373831648e-07,1.4810541075729953e-05
3.346019120110613e-07,3.7903168801715566e-07,3.155574835546383e-07,1.4978533392969556e-05
3.332913697165988e-07,3.7811253321977156e-07,3.1972282738526896e-07,1.5153407410251052e-05
3.318340436393612e-07,3.771415787171435e-07,3.2385373703467306e-07,1.533407051137222e-05
3.302376529092375e-07,3.7614127735074475e-07,3.279399188037825e-07,1.551923107813385e-05
3.285126147454201e-07,3.751371325901582e-07,3.3197254512045644e-07,1.5707443682566863e-05
3.266702024777728e-07,3.7415363237958605e-07,3.359426259565808e-07,1.5897188662998083e-05
3.247212355988462e-07,3.7321259756521957e-07,3.398396159686448e-07,1.6086969172458272e-05
3.2267600386540285e-07,3.72333245558004e-07,3.436503660738968e-07,1.627541416733094e-05
3.2054449643627405e-07,3.715331968618804e-07,3.473584751640725e-07,1.6461370911997463e-05
3.1833613642994534e-07,3.70828377147452e-07,3.509447186394118e-07,1.6643942739415853e-05
3.160590010084459e-07,3.702311171288437e-07,3.543887118991888e-07,1.682244478848802e-05
3.137193550306229e-07,3.697486697651082e-07,3.576707237756379e-07,1.69963063803878e-05
3.113217711983869e-07,3.6938297826577077e-07,3.6077249072166117e-07,1.716497279619957e-05
3.08869901322801e-07,3.691312617312607e-07,3.636777340984869e-07,1.732784666305533e-05
3.0636810116216504e-07,3.689869337957597e-07,3.663730849498396e-07,1.7484267422392387e-05
3.0382219348247705e-07,3.68940206511869e-07,3.688480954381322e-07,1.7633508198351347e-05
3.012382191748333e-07,3.689785421801909e-07,3.710940409471575e-07,1.7774808806220474e-05
2.9862102272318674e-07,3.690877155695769e-07,3.7310382102170317e-07,1.7907476143273948e-05
2.95974144310365e-07,3.6925321745402657e-07,3.748734451647047e-07,1.803101583594024e-05
2.933004686260243e-07,3.694607547767854e-07,3.764022303890308e-07,1.814519669057703e-05
2.906030067736745e-07,3.6969649510577687e-07,3.7769146876075843e-07,1.825000453502413e-05
2.878859954500956e-07,3.6994901810604867e-07,3.787445004999299e-07,1.8345546253598542e-05
2.8515574784189805e-07,3.702118861138037e-07,3.7956758705546047e-07,1.8431962918351344e-05
2.82420045855929e-07,3.704842976379106e-07,3.8016859073991157e-07,1.8509351832012792e-05
2.796866472768789e-07,3.707698996536095e-07,3.8055417532609954e-07,1.8577697847294282e-05
2.7696245620593237e-07,3.7107427942547287e-07,3.8072834131437994e-07,1.8636836325279326e-05
2.742534080559032e-07,3.714017434358007e-07,3.806929880622571e-07,1.8686456953708894e-05
2.715647233264427e-07,3.717535945311302e-07,3.804495950236165e-07,1.872614422714461e-05
2.6890193835603354e-07,3.721282434495513e-07,3.800006422150851e-07,1.8755447831185813e-05
2.6627187418123184e-07,3.725217756624203e-07,3.7934956528313434e-07,1.877397989769415e-05
2.6368231076544896e-07,3.729292247795061e-07,3.784999251490642e-07,1.8781566383434522e-05
2.6114082096015216e-07,3.7334599075195064e-07,3.7745504308086773e-07,1.877843116548407e-05
2.586536775194032e-07,3.7376711484798396e-07,3.762176539201601e-07,1.876524635565336e-05
2.562258402142177e-07,3.741852675245974e-07,3.747895236080067e-07,1.8742968469077785e-05
2.5386247896531767e-07,3.745909673841864e-07,3.7317236743575394e-07,1.871268181759776e-05
2.51570697025566e-07,3.749750416305713e-07,3.7136953186917255e-07,1.867561609199067e-05
2.493594354124613e-07,3.7532990601299967e-07,3.693861579630228e-07,1.863318937830027e-05
2.4723763041563786e-07,3.756484591444259e-07,3.672280918647739e-07,1.858695554484311e-05
2.452134862690527e-07,3.759223360397557e-07,3.6490142681649453e-07,1.8538518246734522e-05
2.4329539967995506e-07,3.761408390419618e-07,3.62412274072369e-07,1.848945615721868e-05
2.414918666097657e-07,3.7629081052645847e-07,3.59766110069577e-07,1.8441257374867717e-05
2.398102178060017e-07,3.763572127374544e-07,3.569680289731733e-07,1.839527044036296e-05
2.3825562674339381e-07,3.763239251819609e-07,3.540241720481608e-07,1.8352668214009647e-05
2.3683067279866058e-07,3.761746751911838e-07,3.509428012062819e-07,1.8314412151634163e-05
2.3553579597447172e-07,3.758939044266528e-07,3.4773457806271007e-07,1.828122209851716e-05
2.3437075977557807e-07,3.7546732603044173e-07,3.444122523180625e-07,1.8253562543038298e-05
2.333366246557172e-07,3.748830982571792e-07,3.409895747744886e-07,1.823164728917881e-05
2.3243682149661731e-07,3.741337544964524e-07,3.3748016452733824e-07,1.821546268556216e-05
2.3167638581814408e-07,3.732166747688686e-07,3.338969448418561e-07,1.82047950408655e-05
2.3106094231277386e-07,3.7213237509641937e-07,3.3025190880258497e-07,1.8199239500094612e-05
2.305962056803203e-07,3.708827895354757e-07,3.265568067770721e-07,1.8198207606559023e-05
2.3028682842397304e-07,3.6947125408558716e-07,3.2282472509216514e-07,1.8200974282127785e-05
2.301350883833561e-07,3.679038929189574e-07,3.190705226510243e-07,1.8206749042928704e-05
2.3014046547621194e-07,3.661902850591832e-07,3.153095470129651e-07,1.8214718551676725e-05
2.302997952362823e-07,3.643422828957026e-07,3.115560477776349e-07,1.8224058081236012e-05
2.3060779004195137e-07,3.623732685176409e-07,3.078219468806811e-07,1.8233952569176915e-05
2.3105776617682424e-07,3.602987095752576e-07,3.041163057745813e-07,1.8243639889147265e-05
2.316419091862051e-07,3.581356437719855e-07,3.004460572443014e-07,1.825245665053101e-05
2.323511788578959e-07,3.5590088326594207e-07,2.9681824086651804e-07,1.8259871954798976e-05
2.3317551364335011e-07,3.536096658763956e-07,2.9324314696769446e-07,1.8265494745706296e-05
2.3410393542325397e-07,3.5127523404775426e-07,2.897366864394005e-07,1.8269041846099225e-05
2.3512455186692448e-07,3.4890888796856e-07,2.8632032390141817e-07,1.8270275733387853e-05
2.3622590360961248e-07,3.465198287067235e-07,2.830181313278745e-07,1.826893320824409e-05
2.3739921276097522e-07,3.4411462094049266e-07,2.7985305030271174e-07,1.8264687316747563e-05
2.386388690242743e-07,3.416967235083857e-07,2.7684536699168465e-07,1.8257188708065882e-05
2.3994104613158816e-07,3.392666088664142e-07,2.740137252947446e-07,1.824614020778022e-05
2.4130326878096805e-07,3.368227688082919e-07,2.7137710854559544e-07,1.8231302750010238e-05
2.427252444663685e-07,3.343633046274109e-07,2.689560504474055e-07,1.821244377353521e-05
2.4420812384266857e-07,3.3188707056976084e-07,2.667718177911967e-07,1.8189306148667857e-05
2.457517875934352e-07,3.2939413606616945e-07,2.648442855285305e-07,1.816160176277565e-05
2.473530578152113e-07,3.2688647580705364e-07,2.6319007170366337e-07,1.8129033074570723e-05
2.490062379879652e-07,3.2436811364837224e-07,2.6182107726133644e-07,1.809136118405567e-05
2.5070440051973837e-07,3.218438054964049e-07,2.607433667436563e-07,1.804845606962637e-05
2.5243965653838174e-07,3.193182606528696e-07,2.599572917982625e-07,1.8000266699505495e-05
2.5420287563932764e-07,3.1679686950058303e-07,2.594589872827877e-07,1.794674246303461e-05
2.559846526598036e-07,3.1428565519454463e-07,2.592421171967561e-07,1.7887786056180575e-05
2.5777709753455066e-07,3.117898836564127e-07,2.592993856730019e-07,1.7823306742390513e-05
2.595746339485929e-07,3.093133843716284e-07,2.596234489202013e-07,1.7753339937298817e-05
2.6137448348626497e-07,3.068586271196777e-07,2.602062894989768e-07,1.7678101057977788e-05
2.6317731310376016e-07,3.044264864746123e-07,2.61037834493284e-07,1.759791435495568e-05
2.649861486191101e-07,3.020163668097804e-07,2.62105417552583e-07,1.7513095229788566e-05
2.668036885531562e-07,2.996269186303572e-07,2.633940675978165e-07,1.7423887396452035e-05
2.686308691284544e-07,2.972564038324456e-07,2.648872682680206e-07,1.7330462946620165e-05
2.704685478930078e-07,2.949026446045134e-07,2.665689089329064e-07,1.7232926339833498e-05
2.723209463761197e-07,2.925628741196371e-07,2.6842600768059245e-07,1.7131320026842712e-05
2.7419683799907565e-07,2.902336612215877e-07,2.704494792241445e-07,1.7025671115430834e-05
2.76106934461625e-07,2.8791155856522485e-07,2.7263205203298924e-07,1.6916092175265252e-05
2.780610867971216e-07,2.8559388721765287e-07,2.749656088051634e-07,1.680291598165597e-05
2.800677913848999e-07,2.8327885588418816e-07,2.7743994208205645e-07,1.6686759047092706e-05
2.821338997521213e-07,2.8096647656839657e-07,2.8004324702876676e-07,1.656842551636252e-05
2.8426368216768467e-07,2.786599190798673e-07,2.8276343626347123e-07,1.644873119673194e-05
2.8645957046339226e-07,2.7636449827704984e-07,2.85588782711478e-07,1.6328382439969494e-05
2.887245261766709e-07,2.740849841808459e-07,2.885069572159891e-07,1.6208004354211346e-05
2.9106241954462546e-07,2.718243642438286e-07,2.915031147423171e-07,1.6088352957913418e-05
2.934757086787185e-07,2.695845758835857e-07,2.945588602940899e-07,1.597055891784127e-05
2.959646538904557e-07,2.673676078648336e-07,2.976527706524579e-07,1.5856168789957223e-05
2.9852945034366205e-07,2.651760975739818e-07,3.007615384828393e-07,1.5746969368984698e-05
3.011713655209425e-07,2.630135626727731e-07,3.038613142490704e-07,1.5644766367784775e-05
3.0389094126385e-07,2.608843464475869e-07,3.0692904959109485e-07,1.555123645854257e-05
3.066855078339381e-07,2.5879314463514657e-07,3.099431359517907e-07,1.5467861868042042e-05
3.09548512269199e-07,2.5674408889884443e-07,3.128834022555953e-07,1.5395895365916636e-05
3.124707851464486e-07,2.547403987979041e-07,3.157307304459363e-07,1.5336302625229818e-05
3.1544169259346016e-07,2.527855236704835e-07,3.184664219576047e-07,1.52896919181522e-05
3.1844954969833716e-07,2.508840522497283e-07,3.21071996874212e-07,1.5256286160753387e-05
3.214825249749245e-07,2.490411105416142e-07,3.235294722436838e-07,1.5235960451614844e-05
3.24528982206421e-07,2.472618634745705e-07,3.258222975381533e-07,1.5228318627747144e-05
3.275765153926425e-07,2.4555175080221704e-07,3.279371120677695e-07,1.523277236849628e-05
3.306122611628137e-07,2.439163387071812e-07,3.298642151820305e-07,1.524860370557843e-05
3.336246997936905e-07,2.423603899364725e-07,3.315962214018105e-07,1.5275013236299205e-05
3.36604376951385e-07,2.4088692878984976e-07,3.331273295934536e-07,1.5311164170819066e-05
3.3954298637160094e-07,2.3949724219484177e-07,3.344531596606681e-07,1.5356218725443133e-05
3.424320105113112e-07,2.381913864531479e-07,3.355699298311428e-07,1.540934586977808e-05
3.45262973132755e-07,2.3696844866136136e-07,3.3647368822422485e-07,1.5469700310867755e-05
3.480296265272129e-07,2.358270765049064e-07,3.371602124549965e-07,1.553641709887199e-05
3.507291548932523e-07,2.3476621628691215e-07,3.376259357488971e-07,1.5608644943986638e-05
3.533605947396782e-07,2.3378528765809776e-07,3.3786971350575126e-07,1.568557595346194e-05
3.559221220726889e-07,2.3288395149340378e-07,3.3789398986893286e-07,1.576642843666818e-05
3.5840983948122e-07,2.3206157869280014e-07,3.377053199479072e-07,1.5850389011252538e-05
3.608187470109428e-07,2.3131650908372997e-07,3.3731465157203934e-07,1.593655436935959e-05
3.631442317206637e-07,2.3064633563851838e-07,3.367359786730044e-07,1.6023923020822825e-05
3.653826011230496e-07,2.300497776314879e-07,3.3598373458883016e-07,1.6111454371975207e-05
3.675315467546489e-07,2.2952810647001115e-07,3.3507135589598143e-07,1.6198140138437448e-05
3.695908508434857e-07,2.290847525425385e-07,3.3401133874339126e-07,1.6283017643795723e-05
3.715613191925525e-07,2.287242707095697e-07,3.328154172163116e-07,1.6365132423634307e-05
3.7344254995086047e-07,2.2845120359250773e-07,3.314942686876361e-07,1.64435130977306e-05
3.752326294719869e-07,2.282691580293373e-07,3.300568237604245e-07,1.651718759098482e-05
3.769294481348745e-07,2.2818054681575688e-07,3.28509661036352e-07,1.6585210428743947e-05
3.785309835972874e-07,2.2818617841841216e-07,3.268571587665721e-07,1.6646672402119267e-05
3.8003524970171706e-07,2.2828470368221478e-07,3.251021076822177e-07,1.6700715951761902e-05
3.8144219083597907e-07,2.28472522262322e-07,3.232461139421584e-07,1.6746568505442153e-05
3.827554356857857e-07,2.287440542149794e-07,3.212897684984259e-07,1.6783577641528568e-05
3.839806246955849e-07,2.2909276313899328e-07,3.192328144831308e-07,1.6811275361369942e-05
3.8512223880235e-07,2.2951263427873453e-07,3.170745992304968e-07,1.6829460201508965e-05
3.8618290221579903e-07,2.2999859058309985e-07,3.14814885294592e-07,1.6838182098498786e-05
3.8716466519255686e-07,2.3054569606772662e-07,3.124549413323368e-07,1.6837599618831067e-05
3.880693468984592e-07,2.3114886462219171e-07,3.099986500024618e-07,1.6827856278963974e-05
3.888976804397246e-07,2.3180423999468159e-07,3.074532494766671e-07,1.6809089246774912e-05
3.896485298901329e-07,2.3251050531848641e-07,3.0482904228006e-07,1.6781514383577224e-05
3.903189832161885e-07,2.3326756816657534e-07,3.021377019296904e-07,1.6745488014097872e-05
3.9090506435919924e-07,2.3407428719860891e-07,2.9939114202612265e-07,1.6701518409545558e-05
3.9140200194914407e-07,2.34928703956392e-07,2.966022617427868e-07,1.6650241511236718e-05
3.918046311861744e-07,2.3582943780355068e-07,2.937856149098264e-07,1.6592364028699284e-05
3.92108686864086e-07,2.3677507064732385e-07,2.9095710863593026e-07,1.6528614948335016e-05
3.923116140556807e-07,2.3776246574142943e-07,2.8813389330840106e-07,1.6459794766517673e-05
3.924116625165583e-07,2.387862151742624e-07,2.853341273967022e-07,1.638687262775768e-05
3.9240607360654563e-07,2.398399505202865e-07,2.825754238067951e-07,1.631096268138862e-05
3.9229016455427077e-07,2.409197174004016e-07,2.7987278218054736e-07,1.6233183404094495e-05
3.920575209370909e-07,2.42026857330508e-07,2.772376310476343e-07,1.6154568233144157e-05
3.9170068830378535e-07,2.4316725310789163e-07,2.7467798866929423e-07,1.607613420992692e-05
3.912125769221347e-07,2.443490208695475e-07,2.7219886088614804e-07,1.5999028193912605e-05
3.9058749157678937e-07,2.455815166606994e-07,2.698026263557117e-07,1.5924562724300647e-05
3.89820479492391e-07,2.4687423139737056e-07,2.674895992277084e-07,1.5854105832083153e-05
3.8890617853410685e-07,2.482349556376083e-07,2.652584836457111e-07,1.578893740896918e-05
3.878386488267547e-07,2.49668616636237e-07,2.63106410962094e-07,1.5730129436547415e-05
3.8661202559312527e-07,2.5117679750458105e-07,2.610290555495671e-07,1.567846157176625e-05
3.852216385221647e-07,2.527582197729109e-07,2.5902141198076646e-07,1.5634396002822046e-05
3.8366572886427643e-07,2.544104767759941e-07,2.570786787451768e-07,1.5598114009776943e-05
3.819468056342481e-07,2.5613104216245195e-07,2.5519665815780336e-07,1.5569578910934225e-05
3.800708462078197e-07,2.579163069392082e-07,2.5337266187824184e-07,1.5548581549957873e-05
3.7804516911794523e-07,2.597604682874934e-07,2.516071440045912e-07,1.5534750079955484e-05
3.758778797903014e-07,2.61655859140242e-07,2.4990430829121733e-07,1.552753701218761e-05
3.735793583586017e-07,2.635937004754491e-07,2.482706267012206e-07,1.5526213245809523e-05
3.7116440730248975e-07,2.655641319415048e-07,2.467124243540944e-07,1.5529890496779773e-05
3.686532933411423e-07,2.675559935117932e-07,2.452350499398956e-07,1.5537577850780027e-05
3.6606982713492367e-07,2.6955688171481624e-07,2.438445853122312e-07,1.5548272256527924e-05
3.6343789959770994e-07,2.715530819392885e-07,2.425495710517579e-07,1.5561060681317385e-05
3.6077946297516287e-07,2.735296138955451e-07,2.4135976559453267e-07,1.5575185361634796e-05
3.5811386827790116e-07,2.7547193394823564e-07,2.402830101789965e-07,1.559004406665351e-05
3.554571580401176e-07,2.773686552612472e-07,2.393235375667029e-07,1.5605150267640244e-05
3.528218127686565e-07,2.792119835537007e-07,2.3848242106032484e-07,1.5620099180414535e-05
3.502182821094968e-07,2.8099593416006663e-07,2.3775868079142257e-07,1.563455927093176e-05
3.476573323959536e-07,2.827159051903769e-07,2.3714977833302441e-07,1.5648269477191406e-05
3.451508993471202e-07,2.84370124993452e-07,2.3665177193640986e-07,1.5661014274855588e-05
3.427115503789457e-07,2.8596042404655087e-07,2.362604787559784e-07,1.5672577261541128e-05
3.403519835220146e-07,2.8749180903277693e-07,2.359726000406429e-07,1.5682691352280586e-05
3.380844525473545e-07,2.889720924079631e-07,2.3578468830581002e-07,1.569102309316324e-05
3.359197857625002e-07,2.904110861986777e-07,2.356912365249209e-07,1.5697242330374248e-05
3.338664094856701e-07,2.918185536228777e-07,2.356845517603746e-07,1.5701145945492055e-05
3.319295245289415e-07,2.93202602022866e-07,2.3575687968553642e-07,1.5702725607830107e-05
3.3011068893064377e-07,2.945700875192366e-07,2.359029438562176e-07,1.5702142265062374e-05
3.284083486924316e-07,2.959276766975401e-07,2.361208415045448e-07,1.5699652257257306e-05
3.268194219948492e-07,2.9728148979415567e-07,2.3641111986237602e-07,1.5695521049052305e-05
3.253407712281901e-07,2.986355382682735e-07,2.367746155870465e-07,1.5689970109722993e-05
3.2396909849052966e-07,2.9999098603035534e-07,2.3721021170440283e-07,1.5683180722497967e-05
3.226999604528038e-07,3.0134688679618346e-07,2.3771499229764852e-07,1.567528679027007e-05
3.21527582454703e-07,3.0270064835557607e-07,2.382871461873568e-07,1.566631529284459e-05
3.204456274477432e-07,3.040477291874526e-07,2.389281482209245e-07,1.5656149683521742e-05
3.194482050146979e-07,3.053823365584024e-07,2.396414382480193e-07,1.564459369512566e-05
3.185304395503473e-07,3.066990375625912e-07,2.404291397317294e-07,1.563150002902334e-05
3.176878585883072e-07,3.0799342560210784e-07,2.4129009523393715e-07,1.5616834742591155e-05
3.1691497543947764e-07,3.092612189544465e-07,2.422200864565267e-07,1.5600616357725312e-05
3.1620459411185645e-07,3.104968193493376e-07,2.432130878443224e-07,1.5582817248619145e-05
3.1554790202912576e-07,3.116931105135305e-07,2.44262687466267e-07,1.5563323787809366e-05
3.1493455185168466e-07,3.1284218635489895e-07,2.453629708208227e-07,1.5541964504130574e-05
3.14353519181635e-07,3.1393527837173024e-07,2.465082967004845e-07,1.551855309544157e-05
3.1379541272102944e-07,3.1496246743401387e-07,2.4769251212113066e-07,1.5492885822115533e-05
3.1325514508535753e-07,3.159134818881381e-07,2.4890830575534424e-07,1.5464701086637505e-05
3.1273287014756733e-07,3.167790022773684e-07,2.501466308228904e-07,1.5433671368799455e-05
3.122320327054236e-07,3.175512427303125e-07,2.5139655778623037e-07,1.5399501276351367e-05
3.11756277737139e-07,3.1822384297322213e-07,2.52646343897223e-07,1.5362130833993185e-05
3.1130743524688285e-07,3.187922589068462e-07,2.5388502184360405e-07,1.5321889427165447e-05
3.1088450325689865e-07,3.1925454285316273e-07,2.55103068259966e-07,1.5279452466652728e-05
3.104830670261676e-07,3.196108474020751e-07,2.5629267214650693e-07,1.5235658315474127e-05
3.1009540850157307e-07,3.198617676550201e-07,2.5744875212380423e-07,1.5191354292942776e-05
3.0971174815027966e-07,3.2000732202411565e-07,2.585696873787869e-07,1.5147416995218335e-05
3.093226969726907e-07,3.2004678122849485e-07,2.596561059273231e-07,1.510492600787494e-05
3.089214957785449e-07,3.1997886140827346e-07,2.6070844562265025e-07,1.5065255988447872e-05
3.0850383092718483e-07,3.1980272549136585e-07,2.617256666790085e-07,1.5029964927632806e-05
3.080654936371432e-07,3.1951907124178927e-07,2.62705841207936e-07,1.5000604648174286e-05
3.076005026384174e-07,3.191299292194865e-07,2.636469286169239e-07,1.4978567085497326e-05
3.07100929367167e-07,3.186376082538024e-07,2.645468789762917e-07,1.4964988205092835e-05
3.0655767039926574e-07,3.180437331935004e-07,2.654037862665096e-07,1.4960708229761933e-05
3.0596176345082393e-07,3.173484792440947e-07,2.6621561884630285e-07,1.4966261178314887e-05
3.053063280873817e-07,3.1655030159840696e-07,2.669792746736857e-07,1.4981870742303977e-05
3.045881625346913e-07,3.156469597304343e-07,2.676903897524202e-07,1.5007465761012915e-05
3.038073925398167e-07,3.146378014498482e-07,2.6834416958462025e-07,1.5042728623974387e-05
3.029651829473763e-07,3.13525814137215e-07,2.6893637679439986e-07,1.5087152284083047e-05
3.020615427788276e-07,3.123182510008018e-07,2.6946397037461354e-07,1.5140069958759605e-05
3.010944869581257e-07,3.110257692873107e-07,2.6992493322049186e-07,1.5200655829195362e-05
3.0006018098208824e-07,3.096605414983459e-07,2.7031747038563307e-07,1.5267931810881593e-05
2.989539371063965e-07,3.082350176020429e-07,2.7063944318048174e-07,1.534082080949803e-05
2.97771715053127e-07,3.0676229418075385e-07,2.70888612732731e-07,1.5418244391954682e-05
2.9651152629221284e-07,3.052559025205082e-07,2.7106334188303136e-07,1.5499212250248087e-05
2.9517524475590536e-07,3.037277528146815e-07,2.711627975151606e-07,1.5582871805571325e-05
2.937699024552721e-07,3.0218677812750164e-07,2.711868232725162e-07,1.5668534535947477e-05
2.9230631198183137e-07,3.0063987598818114e-07,2.711361066674493e-07,1.5755689102812146e-05
2.9079664996745266e-07,2.9909306656530817e-07,2.71011998952707e-07,1.584399964360341e-05
2.892536202169844e-07,2.9755148114180177e-07,2.70815776130773e-07,1.5933297456837012e-05
2.876900467895805e-07,2.960193320234825e-07,2.7054842132319414e-07,1.602355587387883e-05
2.861176667255295e-07,2.945003801439157e-07,2.7021139921740406e-07,1.6114822681389258e-05
2.845460238228966e-07,2.929983556873648e-07,2.6980750873683837e-07,1.6207115497065466e-05
2.8298218519663965e-07,2.915168902410096e-07,2.6934100249609125e-07,1.6300328780314754e-05
2.814307570262519e-07,2.900587801187056e-07,2.688171432980927e-07,1.6394216325130012e-05
2.798938463196932e-07,2.88625218367493e-07,2.682412463889512e-07,1.6488449691511705e-05
2.783717848429982e-07,2.872155894331761e-07,2.6761776610293484e-07,1.6582664832464256e-05
2.768648581362951e-07,2.8582739132961845e-07,2.669512798285441e-07,1.667644623377237e-05
2.753757039623333e-07,2.844561622009632e-07,2.662488508903129e-07,1.6769286734678954e-05
2.739115610771842e-07,2.8309658149174236e-07,2.655200284896093e-07,1.6860560470985755e-05
2.72483927214977e-07,2.817448741745829e-07,2.6477403732898965e-07,1.6949532798010087e-05
2.71105229837456e-07,2.8039976233212965e-07,2.640178055013168e-07,1.7035427744424382e-05
2.6978603725230825e-07,2.7906080119812784e-07,2.632559566026625e-07,1.7117516384826635e-05
2.6853455846812075e-07,2.77727239558696e-07,2.62491448766662e-07,1.719516643524939e-05
2.673567494390548e-07,2.763990836408753e-07,2.6172610165429875e-07,1.7267835868381644e-05
2.6625662261886893e-07,2.7507805898652847e-07,2.609607618797716e-07,1.7335026999837813e-05
2.6523700251003087e-07,2.737668604440354e-07,2.6019640517236945e-07,1.7396253216624878e-05
2.642993608483548e-07,2.7246799198671627e-07,2.5943643618917013e-07,1.7451052973394933e-05
2.6344280489635784e-07,2.711835243209492e-07,2.586869728729077e-07,1.7499007868514217e-05
2.626641578406175e-07,2.699152088175658e-07,2.579542214341496e-07,1.7539725128881222e-05
2.6195955495370533e-07,2.6866442858878175e-07,2.5724231360336853e-07,1.7572811146423007e-05
2.613260773673362e-07,2.674321999663889e-07,2.5655315931194855e-07,1.7597875288686472e-05
2.607622396971657e-07,2.6621892494776e-07,2.558870229065281e-07,1.761455586883342e-05
2.602670265343712e-07,2.6502404819178885e-07,2.5524317697568823e-07,1.7622533278240792e-05
2.5983862050630934e-07,2.638465515065965e-07,2.546207264102764e-07,1.7621520371713418e-05
2.59475289722113e-07,2.626860411643155e-07,2.540191748435765e-07,1.7611250140747736e-05
2.59177343324931e-07,2.615432639557221e-07,2.5343861962230647e-07,1.7591532823194198e-05
2.5894620459102324e-07,2.604202829382321e-07,2.5287993106849764e-07,1.756244666715089e-05
2.587813933854645e-07,2.593215495393497e-07,2.523444391207607e-07,1.7524532555505046e-05
2.586792434701264e-07,2.5825559722847385e-07,2.518331005068531e-07,1.7478776969660066e-05
2.5863380848735907e-07,2.5723624583653924e-07,2.5134643276078674e-07,1.7426399215985233e-05
2.586378789125595e-07,2.56282965283669e-07,2.5088553243267087e-07,1.7368636730131257e-05
2.5868318728968225e-07,2.5541929259156105e-07,2.5045279802657545e-07,1.7306682114450542e-05
2.5876079878660324e-07,2.546688884288592e-07,2.5005130707038984e-07,1.7241791269075354e-05
2.5886230136058914e-07,2.540518433362028e-07,2.4968351204122057e-07,1.7175395377783062e-05
2.5898137012695843e-07,2.535831806202457e-07,2.493503653600254e-07,1.7109057821291925e-05
2.591153305601986e-07,2.532732055397568e-07,2.4905139634077327e-07,1.704433071797692e-05
2.592655782301745e-07,2.531291501392101e-07,2.487855994000708e-07,1.6982629393145957e-05
2.5943620330448853e-07,2.5315668648496873e-07,2.485519185417947e-07,1.6925158937581197e-05
2.596324110270007e-07,2.53359530825179e-07,2.4834895453236644e-07,1.6872880727585053e-05
2.598598442534752e-07,2.537380311646133e-07,2.481752295883577e-07,1.682650144810495e-05
2.6012386704614246e-07,2.5428918407422856e-07,2.4803023403123226e-07,1.6786474655391528e-05
2.6042827839365624e-07,2.550078750402076e-07,2.479148588261672e-07,1.675301691197901e-05
2.6077441207712827e-07,2.558872813747811e-07,2.478303686140298e-07,1.6726147598521687e-05
2.61161524422798e-07,2.5691831127586647e-07,2.477768751928552e-07,1.6705746435137445e-05
2.6158839387273367e-07,2.580893858628397e-07,2.4775286641573605e-07,1.669158955007831e-05
2.620549653166524e-07,2.5938709669952284e-07,2.4775560060200147e-07,1.6683329552902348e-05
2.625624089978662e-07,2.6079763965561967e-07,2.477812289095329e-07,1.6680451113428174e-05
2.631113771032823e-07,2.623083243280063e-07,2.478250186894436e-07,1.66822735106638e-05
2.637002520368846e-07,2.6390749981485937e-07,2.478833667875953e-07,1.6688015411886075e-05
2.643249490324121e-07,2.6558296444214e-07,2.479574302195278e-07,1.6696863545217166e-05
2.649797691932013e-07,2.673215709439921e-07,2.4805518316213016e-07,1.6707993423259444e-05
2.656582946455864e-07,2.691106895863198e-07,2.4818995230078747e-07,1.6720554203888194e-05
2.663543624894413e-07,2.7093917714462447e-07,2.483769523756829e-07,1.6733662079417194e-05
2.6706281638237096e-07,2.7279684470967776e-07,2.4862982495600963e-07,1.6746422753124007e-05
2.6777908560955466e-07,2.7467360450757905e-07,2.489587249022885e-07,1.6757966972889238e-05
2.68497954652193e-07,2.765592914457539e-07,2.493711044934512e-07,1.6767471050673284e-05
2.692130772146345e-07,2.784439843863386e-07,2.498735305791313e-07,1.6774156963377838e-05
2.699182908285907e-07,2.803182387204844e-07,2.504722214909813e-07,1.6777280145287646e-05
2.706103081999941e-07,2.821731075675888e-07,2.5117348951590304e-07,1.6776111458991247e-05
2.712904505910697e-07,2.840000770463496e-07,2.519851186267968e-07,1.676994149003425e-05
2.7196400558568244e-07,2.857913620224717e-07,2.529165097577956e-07,1.675811775224915e-05
2.7263886802963896e-07,2.875407878689075e-07,2.5397661190068824e-07,1.6740063677310213e-05
2.7332436589833214e-07,2.892438729787469e-07,2.5517160622556236e-07,1.6715246189942373e-05
2.740295614435918e-07,2.908962277815189e-07,2.56503638376162e-07,1.6683135433651825e-05
2.7476183276090694e-07,2.924920397602292e-07,2.579704033818214e-07,1.6643211923295833e-05
2.755265446437435e-07,2.94024211396818e-07,2.595656694187298e-07,1.65950082909758e-05
2.763274087459761e-07,2.9548534512748964e-07,2.612802596644547e-07,1.6538120122413847e-05
2.77167046076759e-07,2.968687955164139e-07,2.6310235572657384e-07,1.6472174007568978e-05
2.780468030759173e-07,2.9817080916517873e-07,2.6501739412676684e-07,1.6396810513262633e-05
2.789658426432033e-07,2.993936311310543e-07,2.670087911476934e-07,1.6311724356225853e-05
2.799209616623625e-07,3.0054633985798305e-07,2.6905943101816447e-07,1.621676821892347e-05
2.809070162567898e-07,3.0164208979722037e-07,2.711521954700031e-07,1.6112079809061663e-05
2.8191669379120696e-07,3.026950581274549e-07,2.732688855028745e-07,1.5998141957738067e-05
2.829410574194844e-07,3.03718956685748e-07,2.753892858728501e-07,1.5875724260351213e-05
2.839734061477378e-07,3.0472563707739176e-07,2.774917399365568e-07,1.5745741805184098e-05
2.8501359157670327e-07,3.057238410834019e-07,2.795546273298709e-07,1.5609111917298155e-05
2.860673797206585e-07,3.067194026485162e-07,2.815573004502172e-07,1.5466696021008787e-05
2.871420726582462e-07,3.0771649788258986e-07,2.834801120622447e-07,1.5319337732223854e-05
2.882431538404891e-07,3.087187036770789e-07,2.853044428796602e-07,1.5167904145823678e-05
2.893733117236737e-07,3.09728934524701e-07,2.870128634997749e-07,1.5013274528718973e-05
2.9053282401007484e-07,3.107482143816039e-07,2.885889617594234e-07,1.4856300769190096e-05
2.917198384299361e-07,3.117749165106266e-07,2.900174332749445e-07,1.469778004680426e-05
2.929300744849339e-07,3.128058544874772e-07,2.912852043939019e-07,1.4538516284629517e-05
2.941567232481044e-07,3.138376477336648e-07,2.923822284894238e-07,1.4379464664998237e-05
2.9539075672692017e-07,3.148667134093317e-07,2.933004804267068e-07,1.4221784157370236e-05
2.96621214488904e-07,3.1588973151577174e-07,2.940328706470912e-07,1.4066711918959726e-05
2.9783536501650147e-07,3.169051455209801e-07,2.9457365665788265e-07,1.3915400642448142e-05
2.9901916642741646e-07,3.1791277906295645e-07,2.949191447444121e-07,1.3768911403663888e-05
3.0015821753979244e-07,3.1891176547992546e-07,2.950675823962265e-07,1.362839371536259e-05
3.0123837457203586e-07,3.198996667663719e-07,2.9501850272451913e-07,1.3495251871198884e-05
3.02245698107623e-07,3.208724598974643e-07,2.9477246941010857e-07,1.3371121115544773e-05
3.03166920400342e-07,3.2182389323166557e-07,2.9433211013130386e-07,1.3257723749446835e-05
3.039906398437569e-07,3.227450217456888e-07,2.9370365710792234e-07,1.3156735655204282e-05
3.0470801452344214e-07,3.2362529862403997e-07,2.9289700404217766e-07,1.3069680822971252e-05
3.053124655712597e-07,3.2445452489167044e-07,2.9192407072618753e-07,1.2997842481217086e-05
3.0579875102549804e-07,3.2522331143201353e-07,2.907976842293209e-07,1.2942213603262073e-05
3.061621566295381e-07,3.259216402157248e-07,2.8953217045797537e-07,1.2903482857027694e-05
3.0639811754439685e-07,3.265376274019145e-07,2.8814384754740967e-07,1.2882020231575661e-05
3.065019984027559e-07,3.2705770623810674e-07,2.866497925932392e-07,1.2877867457711274e-05
3.064692233844044e-07,3.2746787503828856e-07,2.850660686020365e-07,1.2890759736639716e-05
3.062958032406834e-07,3.277550343733827e-07,2.834074788347412e-07,1.2920161016654986e-05
3.0597873321655366e-07,3.2790732711215857e-07,2.816887607512069e-07,1.2965287130339398e-05
3.0551594079929066e-07,3.2791371119160726e-07,2.799250070931608e-07,1.3025142611928822e-05
3.049058638353084e-07,3.2776411836663734e-07,2.7813076027536e-07,1.3098605353820266e-05
3.041468864525545e-07,3.274504108394461e-07,2.763195061464912e-07,1.3184535712260655e-05
3.0323684278524146e-07,3.269666362991274e-07,2.745037397053314e-07,1.3281854113278702e-05
3.021730026472485e-07,3.2630867997039926e-07,2.726944922556957e-07,1.338955921113998e-05
3.0095313286573637e-07,3.2547547988315804e-07,2.7090060369098146e-07,1.3506710136491018e-05
2.995774982911236e-07,3.244706997994669e-07,2.691285433890509e-07,1.3632418448150453e-05
2.9805028894414447e-07,3.233018582385129e-07,2.6738297663360637e-07,1.3765862553370859e-05
2.9637930127088925e-07,3.219779480322912e-07,2.6566809220800036e-07,1.3906296917858512e-05
2.9457501100963806e-07,3.205078254395034e-07,2.639886227768386e-07,1.4053030473389453e-05
2.926498728666553e-07,3.1889944939402807e-07,2.6234914666135024e-07,1.4205378105560406e-05
2.906169862208825e-07,3.1715976341112253e-07,2.607526048494615e-07,1.4362602548693909e-05
2.8848872296372035e-07,3.152948606206408e-07,2.591997621460713e-07,1.452386609852865e-05
2.862764435446252e-07,3.133100451362993e-07,2.576895246459981e-07,1.4688223662518301e-05
2.839906020151092e-07,3.1121033023236647e-07,2.562192023278002e-07,1.4854665802146936e-05
2.8164068790483705e-07,3.090010831804124e-07,2.5478446682187507e-07,1.5022161121914258e-05
2.7923567720589666e-07,3.06687928551754e-07,2.5337954760016843e-07,1.5189660177279065e-05
2.7678490567192866e-07,3.042769192774602e-07,2.5199807840016107e-07,1.5356087864898175e-05
2.74298086902596e-07,3.0177566786342425e-07,2.506341143969037e-07,1.5520338461203716e-05
2.71784424527388e-07,2.9919361577587986e-07,2.4928260605615304e-07,1.5681267336124654e-05
2.6925192265889945e-07,2.965412152404932e-07,2.47939161363442e-07,1.583771482751716e-05
2.667069532839497e-07,2.938304827025476e-07,2.4659961609178765e-07,1.5988569366733672e-05
2.641539203357303e-07,2.910768432743143e-07,2.4526017793612426e-07,1.6132803669277002e-05
2.6159559259422777e-07,2.8829924388742685e-07,2.439179000103086e-07,1.6269459082754118e-05
2.590343026734498e-07,2.855175872156088e-07,2.4257036585060317e-07,1.6397643995730596e-05
2.564737034285388e-07,2.8275001780530574e-07,2.4121504042044645e-07,1.6516602069209852e-05
2.539200600098794e-07,2.800123866481652e-07,2.398500370571755e-07,1.662580548071333e-05
2.513818154709861e-07,2.77318923214447e-07,2.3847561346095106e-07,1.672497546605349e-05
2.488685404737142e-07,2.746822060614968e-07,2.370944291817061e-07,1.6814000124015712e-05
2.4639077818370857e-07,2.7211291729278664e-07,2.357110205145847e-07,1.6892814491335268e-05
2.439596366367567e-07,2.696200535415875e-07,2.343316216116365e-07,1.6961337186191995e-05
2.4158578695800696e-07,2.6721087384390423e-07,2.3296402479402343e-07,1.7019488078304773e-05
2.392788833136049e-07,2.6489131608987104e-07,2.3161677498783087e-07,1.7067224626632566e-05
2.3704732141985093e-07,2.6266752798882604e-07,2.3029802654962557e-07,1.7104555450919503e-05
2.3489808102462067e-07,2.6054638689089105e-07,2.290152666497493e-07,1.7131527331045705e-05
2.3283640371093822e-07,2.5853431013403766e-07,2.277762146824624e-07,1.7148207861460065e-05
2.3086556431654495e-07,2.566360523034701e-07,2.265896779471241e-07,1.7154765879630937e-05
2.2898723194390067e-07,2.548541989957195e-07,2.2546527588249092e-07,1.7151663495715467e-05
2.2720197167315558e-07,2.531894723488254e-07,2.2441251768952747e-07,1.713975198641705e-05
2.2551032859546581e-07,2.516415677022741e-07,2.2343969172555748e-07,1.712014677454516e-05
2.2391472043193608e-07,2.5021058928694076e-07,2.225524642241252e-07,1.709402110463392e-05
2.2242004038199377e-07,2.488994828801066e-07,2.2175305387117333e-07,1.706250840831543e-05
2.210321767760341e-07,2.47715845921453e-07,2.2104115836736122e-07,1.7026784862234418e-05
2.1975643343596358e-07,2.466714064515061e-07,2.2041670715787268e-07,1.698821527392808e-05
2.185977482280724e-07,2.4577933488832336e-07,2.198822983475828e-07,1.694837349264921e-05
2.1756233709876823e-07,2.4505196384489044e-07,2.1944283697528605e-07,1.6908932567953698e-05
2.166580712700044e-07,2.44501510598789e-07,2.1910359591772366e-07,1.6871541275520978e-05
2.158930771662478e-07,2.441405242239961e-07,2.188697718078021e-07,1.683773823503136e-05
2.1527477901682654e-07,2.439789675835835e-07,2.1874776334568495e-07,1.680890339985167e-05
2.148092018306748e-07,2.440218712266712e-07,2.1874572369869704e-07,1.678622312986507e-05
2.1449990147199646e-07,2.4427038418356773e-07,2.1887173802146731e-07,1.6770644345740074e-05
2.1434796440279141e-07,2.447239911765125e-07,2.191313064195223e-07,1.6762835052038337e-05
2.1435274040468608e-07,2.4538180155117393e-07,2.1952687199884318e-07,1.6763181517357215e-05
2.14511482290812e-07,2.462432500819021e-07,2.200589565266581e-07,1.6771817668891e-05
2.1481827176793875e-07,2.47308734440426e-07,2.207268626008236e-07,1.6788648434530926e-05
2.152639159490684e-07,2.485792383552548e-07,2.215286033455573e-07,1.6813344648495256e-05
2.1583714302231079e-07,2.5005505884471533e-07,2.2246074255017962e-07,1.684534443909498e-05
2.165258805973485e-07,2.51735545314192e-07,2.2351884094663423e-07,1.6883909497384673e-05
2.1731753322294044e-07,2.536199390323305e-07,2.2469852977944518e-07,1.692823074016239e-05
2.181986273186791e-07,2.5570691069058863e-07,2.2599624975562826e-07,1.697753501814429e-05
2.1915473210901972e-07,2.5799217953566524e-07,2.2740926627852392e-07,1.703114925970387e-05
2.201706965775052e-07,2.604670220105669e-07,2.2893572761080088e-07,1.7088510622846028e-05
2.2123086096480594e-07,2.631196677004425e-07,2.3057483664199427e-07,1.714914603320869e-05
2.2231976593030935e-07,2.659380336319573e-07,2.32326461776926e-07,1.7212656859208485e-05
2.2342384210954985e-07,2.6891101436481965e-07,2.341908001696261e-07,1.7278722116437995e-05
2.2453245351937026e-07,2.7202774037838533e-07,2.361682986203432e-07,1.7347096421095333e-05
2.256365987615389e-07,2.7527704554547724e-07,2.3825872829824023e-07,1.7417578900044894e-05
2.267268169918233e-07,2.7864812563757054e-07,2.404597830492561e-07,1.7489956518871977e-05
2.2779258963750534e-07,2.8213032725191217e-07,2.427661861426372e-07,1.756393715892087e-05
2.2882293143446284e-07,2.857116600623965e-07,2.451692876046375e-07,1.7639113246764717e-05
2.298068641345554e-07,2.893779749261873e-07,2.476570780158907e-07,1.7715000812475262e-05
2.3073384241401172e-07,2.931130788846734e-07,2.5021460012929193e-07,1.779111368329361e-05
2.315946989635674e-07,2.968985296738508e-07,2.528245986042871e-07,1.7866986594145486e-05
2.3238218254544445e-07,3.007129892233535e-07,2.554682659927257e-07,1.7942142612971808e-05
2.3309033447542625e-07,3.045322767136652e-07,2.581260337819136e-07,1.8016049947195666e-05
2.3371374053711252e-07,3.08330481750575e-07,2.6077862354644644e-07,1.808809098463503e-05
2.3424789285612606e-07,3.1208141277955514e-07,2.634079709478748e-07,1.8157578435115e-05
2.346913190563891e-07,3.1575989980719336e-07,2.659971012867315e-07,1.8223820196186408e-05
2.3504796860333052e-07,3.193427385620626e-07,2.685298143877577e-07,1.8286161728285783e-05
2.353273455823124e-07,3.228094166848756e-07,2.70991642790269e-07,1.8343999024819688e-05
2.3554279854466854e-07,3.26142846013444e-07,2.7337111088481784e-07,1.839681043914841e-05
2.3570906424920763e-07,3.2932966164791465e-07,2.756597186780064e-07,1.8444172688967853e-05
2.3583940207525358e-07,3.323597554244689e-07,2.7785102944300426e-07,1.8485726774149627e-05
2.3594410217090363e-07,3.352258673920844e-07,2.799402672102385e-07,1.852113249771664e-05
2.3603137125891852e-07,3.3792416380304257e-07,2.819253036447666e-07,1.8550032412669788e-05
2.3610850967393952e-07,3.40454573294306e-07,2.838081520632694e-07,1.857202329278795e-05
2.361814611975305e-07,3.428199672160612e-07,2.8559458836191693e-07,1.8586667914547683e-05
2.3625390682589513e-07,3.450254747796473e-07,2.8729165707089174e-07,1.859356073550491e-05
2.363277838734343e-07,3.4707796867175176e-07,2.889059570525737e-07,1.859238325001993e-05
2.364051988714057e-07,3.4898498475666853e-07,2.904437525725164e-07,1.858289286431374e-05
2.3648964412098233e-07,3.5075383621076825e-07,2.919111056752874e-07,1.8564867737618685e-05
2.3658481491756158e-07,3.5239136563246094e-07,2.933132040185705e-07,1.8538076551697972e-05
2.3669251301316003e-07,3.5390378636957544e-07,2.946534408752326e-07,1.850236636499029e-05
2.368119508783452e-07,3.5529666592362536e-07,2.959330538501412e-07,1.845786226999122e-05
2.3694076356328963e-07,3.56574989981448e-07,2.9715146144366367e-07,1.8405070512620727e-05
2.370763295570373e-07,3.577428461401453e-07,2.9830657667289557e-07,1.8344768512084133e-05
2.372161650924097e-07,3.588031373673772e-07,2.9939485055522454e-07,1.827785875408872e-05
2.3735795606299381e-07,3.597579573423083e-07,3.004117295609211e-07,1.820531266168999e-05
2.374994963047267e-07,3.606096772306629e-07,3.013529939443235e-07,1.8128125759582584e-05
2.37637895683986e-07,3.613615016555043e-07,3.022160930192814e-07,1.8047251666310582e-05
2.377687692328709e-07,3.620163593136245e-07,3.030012062454069e-07,1.7963558254934437e-05
2.378862872696043e-07,3.6257579609761674e-07,3.037128828213949e-07,1.7877813436530114e-05
2.3798389933422308e-07,3.6304131618797176e-07,3.043604406972988e-07,1.7790691691513508e-05
2.380553493630403e-07,3.634173357492903e-07,3.0495499652812674e-07,1.770278522859394e-05
2.380951313290147e-07,3.6371187807229474e-07,3.055061109565637e-07,1.7614596225309556e-05
2.380981615523448e-07,3.6393384344791067e-07,3.0602156888004786e-07,1.7526518434919822e-05
2.3806010937024387e-07,3.6409046691696327e-07,3.0650828700967824e-07,1.743883386194289e-05
2.3797873518799802e-07,3.6418722902548594e-07,3.069715055642648e-07,1.735172175229409e-05
2.378546251874931e-07,3.642285452464871e-07,3.074135978008964e-07,1.7265269191040672e-05
2.3769034783338968e-07,3.642174915908207e-07,3.078340503421364e-07,1.7179493092718227e-05
2.374886318043308e-07,3.6415476439180865e-07,3.082301086636526e-07,1.7094363152212582e-05
2.372512468501575e-07,3.640384257312133e-07,3.085974327493545e-07,1.70097890010996e-05
2.369797530957296e-07,3.6386572681498296e-07,3.089302408576739e-07,1.6925581285154713e-05
2.36677066547471e-07,3.6363574651054156e-07,3.092212922290809e-07,1.6841436180987837e-05
2.3634823676793092e-07,3.63351136976149e-07,3.094626836354034e-07,1.6756952942592373e-05
2.359999345084423e-07,3.6301891311291045e-07,3.0964737647570337e-07,1.6671662454201497e-05
2.3563893870094837e-07,3.6264895176644103e-07,3.097700815948357e-07,1.65850593151421e-05
2.3527076115858248e-07,3.622501831985845e-07,3.098268462575436e-07,1.6496640948332548e-05
2.348994371586548e-07,3.618281342439519e-07,3.0981490160730143e-07,1.6405959401269034e-05
2.3452833325886842e-07,3.613853484006222e-07,3.0973342743450964e-07,1.6312690162970887e-05
2.3416092893007413e-07,3.609229640226047e-07,3.0958365476991236e-07,1.621669861747347e-05
2.3380065690984855e-07,3.6044178120241755e-07,3.093676160119856e-07,1.611805911563555e-05
2.3345021887962218e-07,3.5994258173145226e-07,3.090868578101728e-07,1.6017006478163742e-05
2.331114980568027e-07,3.594266086133008e-07,3.0874250430010317e-07,1.5913846432471698e-05
2.3278610358461288e-07,3.5889595199998343e-07,3.0833568273004237e-07,1.5808864489486464e-05
2.3247579043897949e-07,3.5835310172061296e-07,3.0786703842528605e-07,1.5702284268380502e-05
2.321828722518178e-07,3.578003555055154e-07,3.07336448199914e-07,1.5594314183468393e-05
2.3191137289542536e-07,3.572398788379441e-07,3.0674361532452986e-07,1.5485217094839198e-05
2.3166815034690088e-07,3.5667414592901184e-07,3.0608870313907764e-07,1.537529501164547e-05
2.3146193937110128e-07,3.5610588599041475e-07,3.053725951427622e-07,1.5264821281529043e-05
2.3130106225187626e-07,3.5553726958109823e-07,3.045969797245626e-07,1.5154013674953086e-05
2.311927056312605e-07,3.549694602850175e-07,3.0376424186073253e-07,1.5043036593007715e-05
2.3114330109396838e-07,3.544032913013464e-07,3.028768212337941e-07,1.4932015602823087e-05
2.311580639318573e-07,3.53839743511516e-07,3.0193639985902575e-07,1.4821085153824036e-05
2.312401826883111e-07,3.53279409966351e-07,3.0094428181083194e-07,1.4710416227382235e-05
2.313905159148283e-07,3.5272247769621856e-07,2.999031525396063e-07,1.4600177388945447e-05
2.3160781852058282e-07,3.5217000859131787e-07,2.988182256402932e-07,1.4490510422237539e-05
2.3188914040997448e-07,3.516250012538913e-07,2.9769717538340146e-07,1.4381612179905902e-05
2.3223003449167962e-07,3.510917076053745e-07,2.965502867613718e-07,1.4273862543475787e-05
2.3262512959783286e-07,3.505734146647829e-07,2.9539012657532556e-07,1.4167858076126245e-05
2.3306930373357854e-07,3.5007086718231313e-07,2.942292779225008e-07,1.4064323326025366e-05
2.335579175475377e-07,3.495836060283532e-07,2.930777456862286e-07,1.3963975112259964e-05
2.3408558830592123e-07,3.491126276977438e-07,2.919424419214822e-07,1.3867400947446417e-05
2.346458952507114e-07,3.486603742810433e-07,2.9082816652398817e-07,1.3774995213634509e-05
2.3523321019898969e-07,3.4822842369418467e-07,2.897378473358738e-07,1.3686960128747458e-05
2.358441096358005e-07,3.478166233761657e-07,2.8867182613261535e-07,1.3603325672479966e-05
2.364760816591475e-07,3.474240772798801e-07,2.87627601858253e-07,1.3523969640864626e-05
2.3712528069281198e-07,3.470493553589857e-07,2.866005917460919e-07,1.3448655703814066e-05
2.3778616527109266e-07,3.4668943935541144e-07,2.855853753036904e-07,1.3377119611114854e-05
2.3845236469790355e-07,3.4633957523640087e-07,2.845765794486468e-07,1.3309223785493573e-05
2.3911710861388017e-07,3.4599477145663e-07,2.8356949772059e-07,1.3245076414564735e-05
2.397739068318363e-07,3.45651133439286e-07,2.825609532375455e-07,1.3184972644923558e-05
2.4041737182608855e-07,3.453060750735607e-07,2.8154923922732985e-07,1.3129239169361728e-05
2.4104264054974496e-07,3.44958837950704e-07,2.805327953532845e-07,1.307822130065798e-05
2.416442238473752e-07,3.446113113309586e-07,2.795097817585218e-07,1.3032483884246594e-05
2.4221619414846176e-07,3.4426657538451284e-07,2.784790535611073e-07,1.2993013182189013e-05
2.4275355245186327e-07,3.439255762867012e-07,2.774411917494913e-07,1.296119706304182e-05
2.432532267982145e-07,3.435856753770369e-07,2.76399418642608e-07,1.293863076402247e-05
2.437136423038226e-07,3.432426079558173e-07,2.7535985808060986e-07,1.2926920668419933e-05
2.4413352400870827e-07,3.428934512639416e-07,2.7433017662617567e-07,1.2927547525200654e-05
2.445112874681664e-07,3.4253728609817525e-07,2.7331782955742934e-07,1.2941766287194096e-05
2.44844886111303e-07,3.421740234569288e-07,2.723290671667247e-07,1.2970532227457692e-05
2.451312767914949e-07,3.41803767506529e-07,2.7136800389615915e-07,1.301446751142177e-05
2.453659124658024e-07,3.4142638932037093e-07,2.7043602837925505e-07,1.3073864875308388e-05
2.455430000321377e-07,3.410408592663104e-07,2.6953290839729923e-07,1.3148700511192364e-05
2.45656469443086e-07,3.4064513603244163e-07,2.68659362840026e-07,1.3238644723234758e-05
2.4570142529696887e-07,3.402370980735471e-07,2.678187124021611e-07,1.3343079450482954e-05
2.456751962677767e-07,3.398163257152497e-07,2.670159561572109e-07,1.3461128809184265e-05
2.4557713851544014e-07,3.3938476516935395e-07,2.662560108626019e-07,1.3591702006366596e-05
2.454081208988381e-07,3.389448624517879e-07,2.655429865483173e-07,1.3733549016758747e-05
2.45170094663938e-07,3.3849718324496105e-07,2.648799389184432e-07,1.3885331193980493e-05
2.448651137674426e-07,3.3803968227196866e-07,2.6426898319174554e-07,1.4045693123522355e-05
2.4449509230952504e-07,3.375685107904734e-07,2.6371194901349593e-07,1.4213306778066128e-05
2.440632803185305e-07,3.3707941960279386e-07,2.632103993936432e-07,1.4386885906442154e-05
2.4357603623333765e-07,3.3656821335913417e-07,2.627647433776886e-07,1.4565198776456326e-05
2.4304420696673013e-07,3.360304846448745e-07,2.623739999583184e-07,1.4747089329100135e-05
2.424836809688177e-07,3.354634126819448e-07,2.620374054366334e-07,1.4931491034659338e-05
2.419133187267461e-07,3.348682602412156e-07,2.6175652615090044e-07,1.5117415676227637e-05
2.413510558741229e-07,3.342491472440314e-07,2.615350994831623e-07,1.5303911815725093e-05
2.40811785988794e-07,3.33609458898173e-07,2.6137692105718746e-07,1.5490010662531942e-05
2.4030798687440764e-07,3.3295006662281565e-07,2.6128495976559963e-07,1.5674682627012526e-05
2.3985110634285004e-07,3.322698340155311e-07,2.6126227716454864e-07,1.5856821684404974e-05
2.394525533040788e-07,3.315671988247346e-07,2.613125894245439e-07,1.6035278811306075e-05
2.3912416801781804e-07,3.308416701849559e-07,2.6143976044303213e-07,1.6208928205838405e-05
2.3887745979447214e-07,3.300940446860962e-07,2.616474193908962e-07,1.637670264484812e-05
2.3872223604129484e-07,3.293256074341285e-07,2.619392663962087e-07,1.6537573603506193e-05
2.386670941514505e-07,3.285373896772331e-07,2.623192894459976e-07,1.66905189997776e-05
2.387213060878823e-07,3.277294294477325e-07,2.627910569634652e-07,1.6834527287656848e-05
2.38895146635192e-07,3.268999697382186e-07,2.6335631975334876e-07,1.6968630536034532e-05
2.391989164524598e-07,3.2604559246439945e-07,2.640141490480747e-07,1.7091916045533918e-05
