4.939329152332421e-07,3.6365960675692406e-07,3.5527739402320845e-07,1.4075358631746467e-05
4.977227758987495e-07,3.645759015286028e-07,3.562901759533367e-07,1.4121487855167042e-05
5.013867698389533e-07,3.6548302552011156e-07,3.5733934329128134e-07,1.4161546180773405e-05
5.049005315033856e-07,3.663638014500001e-07,3.58409921888416e-07,1.4195396772285084e-05
5.08241179425867e-07,3.672015839231855e-07,3.594880636803688e-07,1.4222825406921355e-05
5.113912526789522e-07,3.679792732201423e-07,3.605625007151869e-07,1.4243554580304775e-05
5.143437672966348e-07,3.68678540753123e-07,3.616253821556906e-07,1.425725340989146e-05
5.171073018333781e-07,3.692806064243508e-07,3.6267067467064857e-07,1.4263579223669174e-05
5.197086384946796e-07,3.6976912382070844e-07,3.636926608128536e-07,1.4262302001951633e-05
5.221885977089161e-07,3.701329062920181e-07,3.6468660266996937e-07,1.42534679099091e-05
5.245924580108519e-07,3.7036527428199687e-07,3.65649538856745e-07,1.4237441249853355e-05
5.269615485851461e-07,3.704613870955389e-07,3.6658116862323424e-07,1.4214812875874042e-05
5.293289453113331e-07,3.704168375382438e-07,3.674857387518216e-07,1.418631369018347e-05
5.317186125372819e-07,3.702274661401235e-07,3.6837210356596064e-07,1.4152740980779984e-05
5.341466412590381e-07,3.698893374797775e-07,3.692504584866897e-07,1.411486268402763e-05
5.366222166213235e-07,3.693986778068932e-07,3.7012828581772213e-07,1.4073356671702729e-05
5.391479550961012e-07,3.6875179430959844e-07,3.710082711629303e-07,1.4028810568185607e-05
5.417215278950746e-07,3.679460440875833e-07,3.7188857605681966e-07,1.3981748394121252e-05
5.443382776134947e-07,3.669828256708974e-07,3.727640215322624e-07,1.3932658186081956e-05
5.469936297374078e-07,3.6587081283999036e-07,3.73627359860891e-07,1.3882011732723495e-05
5.496867125942712e-07,3.6462643023069686e-07,3.7447015425507923e-07,1.3830270034795072e-05
5.524258042296094e-07,3.6327186833634577e-07,3.7528327343788927e-07,1.3777867625428024e-05
5.552329492022521e-07,3.6183297264486634e-07,3.760580645780506e-07,1.3725179257604049e-05
5.581450126780007e-07,3.603373812933714e-07,3.767871857503845e-07,1.3672492450893405e-05
5.612106211345998e-07,3.588129890250986e-07,3.774638283842092e-07,1.362000722962554e-05
5.6448378127953e-07,3.5728719074158117e-07,3.780815015095122e-07,1.3567859042861204e-05
5.680161807938055e-07,3.5578575663077347e-07,3.7863574270968673e-07,1.351614100254974e-05
5.718515424760403e-07,3.543307529284849e-07,3.791252096730665e-07,1.346489743904706e-05
5.760229055681737e-07,3.529391810222924e-07,3.795501668040119e-07,1.3414091828669715e-05
5.805514867913681e-07,3.5162355899527304e-07,3.799111360576394e-07,1.3363587216033705e-05
5.854479428439161e-07,3.503936535027852e-07,3.80211206296524e-07,1.3313154996202126e-05
5.907158101502398e-07,3.492577515332251e-07,3.804594274718415e-07,1.3262491774462675e-05
5.963541629692675e-07,3.4822351339002645e-07,3.8067032611425145e-07,1.321123538803065e-05
6.023593623746304e-07,3.473016061323268e-07,3.808602124660074e-07,1.3158992457337041e-05
6.087274287141524e-07,3.465137665873611e-07,3.8104435181023544e-07,1.3105379141579495e-05
6.154550241848555e-07,3.459003387603106e-07,3.8123649741181814e-07,1.3050061339513805e-05
6.225380221201901e-07,3.4552085818044425e-07,3.8144965874859024e-07,1.29927846760839e-05
6.299710169223097e-07,3.454472025372943e-07,3.8169632838467313e-07,1.2933386015283795e-05
6.377492701915093e-07,3.457531163884975e-07,3.819871380666396e-07,1.2871776829027753e-05
6.45870474320376e-07,3.46503809671048e-07,3.8232904236798047e-07,1.28079048230108e-05
6.543331888278339e-07,3.477490230728356e-07,3.827246422992867e-07,1.2741714169949541e-05
6.631316306562544e-07,3.4952241194837973e-07,3.8317256077822796e-07,1.2673138649780005e-05
6.722506328226389e-07,3.518469091478515e-07,3.836680396396667e-07,1.2602160006423136e-05
6.816641472435212e-07,3.5474082998985853e-07,3.8420350295039395e-07,1.2528875496266232e-05
6.91336543397036e-07,3.582195097214561e-07,3.8476953785376393e-07,1.2453471655211505e-05
7.012263544754785e-07,3.622939287848833e-07,3.8535603850585716e-07,1.237612734739497e-05
7.112929452436335e-07,3.66970847480823e-07,3.859522288123544e-07,1.2296946565327695e-05
7.215016909877088e-07,3.722550508118519e-07,3.865457313917557e-07,1.2215952974212974e-05
7.318223350068369e-07,3.781510976837725e-07,3.871222690097525e-07,1.2133133481567595e-05
7.422225897215649e-07,3.846632949292672e-07,3.876664493506436e-07,1.2048488897606615e-05
7.526637535238783e-07,3.9179543375489e-07,3.8816266218806966e-07,1.1962031436651407e-05
7.631008226046056e-07,3.995515482191419e-07,3.88595765630016e-07,1.1873751339496767e-05
7.734842474212169e-07,4.07936405195334e-07,3.8895254549919036e-07,1.178363525033558e-05
7.837611398390551e-07,4.1695379970368607e-07,3.8922328038959887e-07,1.1691747983891444e-05
7.938755923314974e-07,4.266027297161731e-07,3.8940079461275136e-07,1.1598330988839596e-05
8.037681884382068e-07,4.368745735422749e-07,3.894773906610293e-07,1.150388316239618e-05
8.133757791992548e-07,4.477548292328058e-07,3.894431850767438e-07,1.1409176177869533e-05
8.226325131383825e-07,4.5922849757263966e-07,3.892870533884253e-07,1.131516859395266e-05
8.314716949009685e-07,4.7128459630711574e-07,3.889981917275464e-07,1.1222858550190531e-05
8.398283507452559e-07,4.839175536424199e-07,3.885669467135068e-07,1.1133141381790933e-05
8.476433403345252e-07,4.971260614422979e-07,3.879858863940465e-07,1.1046722316362927e-05
8.548671317744343e-07,5.1090992779455e-07,3.872511796572347e-07,1.096410700898662e-05
8.614597834198128e-07,5.252665068115346e-07,3.8636243385364813e-07,1.0885627735884354e-05
8.673879233555262e-07,5.401877207957189e-07,3.853216821164172e-07,1.0811468295189338e-05
8.726219499623026e-07,5.556559564602308e-07,3.841336712840785e-07,1.074174647307356e-05
8.771347026585928e-07,5.716398067355803e-07,3.828071396547915e-07,1.0676684181151027e-05
8.809013464424298e-07,5.880929782791443e-07,3.8135659227570403e-07,1.0616720951803051e-05
8.838997707217104e-07,6.049563955434911e-07,3.7980378016283716e-07,1.0562432934852237e-05
8.861106394697369e-07,6.221617665755187e-07,3.781763782652877e-07,1.0514352613897202e-05
8.875170014206944e-07,6.396349675373379e-07,3.765038021286185e-07,1.0472863605233067e-05
8.881046103453346e-07,6.572981620872524e-07,3.748128618713568e-07,1.0438235208298965e-05
8.878640737117513e-07,6.750716512682702e-07,3.731250619082561e-07,1.041081076373512e-05
8.867938098156061e-07,6.928766391176957e-07,3.7145608795639746e-07,1.039127604012834e-05
8.849017827033781e-07,7.106381560808611e-07,3.6981659708290346e-07,1.0380796271018301e-05
8.822060821742499e-07,7.282868362253425e-07,3.6821336377162405e-07,1.0380919348209801e-05
8.78734640956595e-07,7.457588179077027e-07,3.666511761836673e-07,1.0393369217572123e-05
8.745239896217899e-07,7.629942427442079e-07,3.6513451787625094e-07,1.0419849943333877e-05
8.696187311813316e-07,7.799357069976208e-07,3.6366771146000023e-07,1.046187921559436e-05
8.64070676978478e-07,7.96527191075723e-07,3.6225526883152854e-07,1.0520662002713096e-05
8.579340313842211e-07,8.127135470332193e-07,3.6090408880955e-07,1.0597019110317307e-05
8.512587257965989e-07,8.284398430812008e-07,3.5962508969798773e-07,1.0691368196052228e-05
8.440870124491274e-07,8.436497839429283e-07,3.584312528321716e-07,1.0803747368599558e-05
8.364538199741434e-07,8.582849374073495e-07,3.5733403230725474e-07,1.093385626060084e-05
8.283885552775302e-07,8.722861868775265e-07,3.563423005651863e-07,1.1081082024113607e-05
8.199165054711173e-07,8.855958185879085e-07,3.5546320841904676e-07,1.124450934551188e-05
8.110597717528559e-07,8.981591018293496e-07,3.5470192898718273e-07,1.1422942476525051e-05
8.018395064963148e-07,9.099264144883723e-07,3.540608161697293e-07,1.1614955266223309e-05
7.922796112663907e-07,9.208557505928105e-07,3.53539330108879e-07,1.1818968623010275e-05
7.824095885451757e-07,9.309139439499391e-07,3.531343552469182e-07,1.2033349394748724e-05
7.722657113448989e-07,9.400765425224472e-07,3.528410296751282e-07,1.2256506434587538e-05
7.618927202462778e-07,9.483268687216907e-07,3.526540058560536e-07,1.248695682227977e-05
7.513466283560288e-07,9.55654714633332e-07,3.525684536628964e-07,1.2723368055259794e-05
7.406956749211348e-07,9.620558439924601e-07,3.525800508848567e-07,1.2964584973672075e-05
7.300192048766102e-07,9.675317319170608e-07,3.5268400602898396e-07,1.320961070302126e-05
7.194067065904289e-07,9.720878428309168e-07,3.5287545645481773e-07,1.3457523585099949e-05
7.089554580075056e-07,9.757312780364758e-07,3.531513176223789e-07,1.3707380634266549e-05
6.987644241822734e-07,9.78469526778708e-07,3.5351008190726453e-07,1.3958161420527667e-05
6.889259619263686e-07,9.80311061967072e-07,3.5394935825819906e-07,1.4208753535399499e-05
6.795189754827415e-07,9.812681310420005e-07,3.544642307794569e-07,1.4457978976522934e-05
6.706057606274179e-07,9.813597712684014e-07,3.550477726457303e-07,1.470464552387042e-05
6.622333137328331e-07,9.80611544885939e-07,3.556929744789851e-07,1.4947558600686292e-05
6.544393742809904e-07,9.790520279304329e-07,3.5639518372090994e-07,1.5185481774128378e-05
6.47259621383861e-07,9.767108391303928e-07,3.571542243684417e-07,1.5417110355959415e-05
6.40730773036505e-07,9.73621177084765e-07,3.579740395689902e-07,1.5641095111890177e-05
6.348902786255793e-07,9.698239475202385e-07,3.5885962458365137e-07,1.5856095499997032e-05
6.297768082235807e-07,9.653706222481646e-07,3.5981587356980204e-07,1.6060822454945537e-05
6.254314695691906e-07,9.603243038607558e-07,3.608494834259064e-07,1.6254060909602663e-05
6.218957536545437e-07,9.54757854608252e-07,3.6196863157970534e-07,1.643468813912769e-05
6.192050733200242e-07,9.487490426222744e-07,3.6317969686495607e-07,1.6601691406443585e-05
6.173819727277619e-07,9.423746205107901e-07,3.64486518913915e-07,1.6754183700443694e-05
6.164330725433692e-07,9.357051855527287e-07,3.6589335283505673e-07,1.6891415833113597e-05
6.163490579959113e-07,9.288016693459156e-07,3.67406602179419e-07,1.7012788257472274e-05
6.171056160706015e-07,9.21713566458136e-07,3.690336253024737e-07,1.711785587724128e-05
6.186660679592979e-07,9.144790293831968e-07,3.7078161640525616e-07,1.7206291558808046e-05
6.209849620720913e-07,9.071263800378636e-07,3.7265681855194716e-07,1.7277824963502734e-05
6.240104111507767e-07,8.996758838729103e-07,3.746627345091823e-07,1.7332234351304668e-05
6.276864938684328e-07,8.921410508626412e-07,3.767989258362344e-07,1.7369401040014785e-05
6.319559831684439e-07,8.84530045392864e-07,3.7906134929217563e-07,1.738935080165541e-05
6.367617741770347e-07,8.768490497293812e-07,3.8144339977829257e-07,1.7392235930863532e-05
6.42048619796537e-07,8.691074582823967e-07,3.839382393775029e-07,1.7378283640954882e-05
6.477665378693466e-07,8.613224788362516e-07,3.8654206855958756e-07,1.7347795503694352e-05
6.538751444501046e-07,8.535221764493369e-07,3.8925607887300477e-07,1.7301274730279026e-05
6.603473497847221e-07,8.457464452255742e-07,3.920865177966097e-07,1.7239581869606116e-05
6.671685067198379e-07,8.380447719439216e-07,3.9504292276316904e-07,1.7163916210584605e-05
6.743294680579463e-07,8.3047108962842e-07,3.9813431850485797e-07,1.7075621976660173e-05
6.818191870327371e-07,8.230771512290629e-07,4.013653684120953e-07,1.6975987620068642e-05
6.896226307207429e-07,8.159071453422831e-07,4.047354904873992e-07,1.6866157726169213e-05
6.977227743486145e-07,8.089958863931883e-07,4.0824063885454295e-07,1.6747230174666227e-05
7.061023094385327e-07,8.023695871631295e-07,4.118740740623735e-07,1.6620508864201038e-05
7.147433550336528e-07,7.960481483033093e-07,4.1562561127241563e-07,1.648768921558136e-05
7.23626947383177e-07,7.90048703304229e-07,4.1948192085216345e-07,1.635080322599558e-05
7.327339072340771e-07,7.843877172334594e-07,4.234271444079174e-07,1.6212016783267372e-05
7.420440294972617e-07,7.79080295670063e-07,4.274428605422893e-07,1.6073445485413756e-05
7.515315789552516e-07,7.741391790880066e-07,4.315091934960454e-07,1.5937037470455734e-05
7.611623559887084e-07,7.695735136723288e-07,4.356064253826765e-07,1.5804507510945442e-05
7.708962979373289e-07,7.653857011722145e-07,4.3971510212305095e-07,1.5677309082894606e-05
7.806924488487918e-07,7.61568685436266e-07,4.438168749575203e-07,1.555663387696668e-05
7.905113369986732e-07,7.58106889441774e-07,4.478989354092185e-07,1.5443426138209126e-05
8.003128351389624e-07,7.549801562342486e-07,4.5195932514806635e-07,1.5338398255959855e-05
8.100522866800801e-07,7.521675824536464e-07,4.560079087416702e-07,1.5242029387313364e-05
8.196798570908259e-07,7.496498395844357e-07,4.6006222864191533e-07,1.515454999607945e-05
8.291451549455413e-07,7.474099464541281e-07,4.6414197498196285e-07,1.507595997968215e-05
8.384028565911762e-07,7.45431004939063e-07,4.6826414445335796e-07,1.5006104474989786e-05
8.474127960474096e-07,7.436924523735691e-07,4.7243917383638313e-07,1.4944773502721756e-05
8.561354357005845e-07,7.421696538505749e-07,4.766699063764946e-07,1.4891804915427012e-05
8.645291312722588e-07,7.408374143471802e-07,4.809532362526614e-07,1.4847176813311692e-05
8.725521010483978e-07,7.39675063678092e-07,4.85281758742123e-07,1.4811042481630936e-05
8.801695234954405e-07,7.386719278398401e-07,4.896446297334056e-07,1.4783698068490811e-05
8.873645538030908e-07,7.378309389692661e-07,4.940282327489025e-07,1.476553762539474e-05
8.941476603974935e-07,7.371682179350962e-07,4.984166578256828e-07,1.4757023875879534e-05
9.00559086610787e-07,7.36709044893039e-07,5.027915937772098e-07,1.4758645446719592e-05
9.066645371658155e-07,7.364805767338697e-07,5.071317977325426e-07,1.4770843054498285e-05
9.125461686522785e-07,7.365034923227913e-07,5.114129293588451e-07,1.4793924642889453e-05
9.182900006612371e-07,7.367883661841834e-07,5.156081460309156e-07,1.4827994961777348e-05
9.23972537021414e-07,7.373375588198998e-07,5.196895314500825e-07,1.4872931572323887e-05
9.296528334569486e-07,7.381472134713708e-07,5.236306303416652e-07,1.4928426252621451e-05
9.353731617192301e-07,7.392072413040274e-07,5.274095990188228e-07,1.4994041543852355e-05
9.411624317925681e-07,7.405011965005404e-07,5.310110561294613e-07,1.5069227568797895e-05
9.470361593582345e-07,7.420075065718164e-07,5.344251871900485e-07,1.5153332710343695e-05
9.529955024353649e-07,7.437017940296388e-07,5.376448847916661e-07,1.5245655598877236e-05
9.590310658721716e-07,7.455591972655045e-07,5.406631275879058e-07,1.534549921157427e-05
9.651305283512886e-07,7.47557031901119e-07,5.434722894961639e-07,1.5452154580204536e-05
9.712831197229036e-07,7.496782861794454e-07,5.460647185871204e-07,1.556483633339933e-05
9.77479125068018e-07,7.519146018177609e-07,5.484323976219834e-07,1.5682637422286483e-05
9.837092972189304e-07,7.542669382934269e-07,5.505659731785473e-07,1.5804502617419855e-05
9.89965343321309e-07,7.567431302339019e-07,5.524553692434804e-07,1.5929219376954448e-05
9.962394624995399e-07,7.593530830630084e-07,5.540911413699533e-07,1.6055442123117842e-05
1.0025236733772517e-06,7.621035166046691e-07,5.554642190523733e-07,1.6181733561453765e-05
1.0088091284296431e-06,7.649938707800534e-07,5.565647131798141e-07,1.630660989364987e-05
1.015083842322386e-06,7.680144174955331e-07,5.573815962933034e-07,1.642859275519169e-05
1.0213296539231706e-06,7.711480513596205e-07,5.579038464012728e-07,1.6546276194793745e-05
1.02752035607554e-06,7.743748215478261e-07,5.58122624407891e-07,1.6658416811959678e-05
1.0336211996475945e-06,7.776750219484788e-07,5.58032221068959e-07,1.6764015725416558e-05
1.0395905304761157e-06,7.810301705253869e-07,5.576283405072921e-07,1.6862331867053714e-05
1.0453841968316678e-06,7.844248508574701e-07,5.569059533904589e-07,1.6952817164819734e-05
1.0509601829955428e-06,7.878492313089459e-07,5.558585881823386e-07,1.7035021097487942e-05
1.0562813493299915e-06,7.91300349929142e-07,5.544792903890846e-07,1.710852935630593e-05
1.0613176019999731e-06,7.947824860565963e-07,5.527644793834348e-07,1.7172980485640352e-05
1.0660478326483691e-06,7.983069876054675e-07,5.50718580092729e-07,1.7228100001149605e-05
1.070458523829467e-06,8.018913815417241e-07,5.483536991796051e-07,1.7273671806682826e-05
1.0745378596122494e-06,8.05556975949286e-07,5.45684520484085e-07,1.7309479087446502e-05
1.0782706318900059e-06,8.093225802247388e-07,5.427241935525576e-07,1.7335264357310496e-05
1.0816398180012205e-06,8.131963079171177e-07,5.394837971052286e-07,1.735072074295221e-05
1.08463246471554e-06,8.171718052374643e-07,5.359732833578961e-07,1.735551570348521e-05
1.0872430645328615e-06,8.212306329981318e-07,5.32201757434905e-07,1.7349327075933343e-05
1.0894724337490325e-06,8.253481899249466e-07,5.281780740322465e-07,1.7331872595739247e-05
1.0913236031383512e-06,8.295004653104215e-07,5.239125643642742e-07,1.730292905021982e-05
1.0927971975452305e-06,8.336687760413963e-07,5.194175524352139e-07,1.726234675684783e-05
1.0938904630158514e-06,8.37840209916988e-07,5.147062744040951e-07,1.7210056673406063e-05
1.0946004202418666e-06,8.420036337961779e-07,5.097936199432864e-07,1.7146053817532524e-05
1.0949270190942044e-06,8.461442738547379e-07,5.046993665785114e-07,1.707036004597998e-05
1.094873954437308e-06,8.502406994213779e-07,4.994500386145663e-07,1.6982989950001206e-05
1.0944470600984323e-06,8.542652645132702e-07,4.940781335211932e-07,1.6883933181191995e-05
1.0936511287245337e-06,8.581864113799937e-07,4.886220685521621e-07,1.677315155422771e-05
1.0924877186306705e-06,8.619705284600725e-07,4.831267836056796e-07,1.6650590225039807e-05
1.0909556320034536e-06,8.655823809888962e-07,4.776416816239365e-07,1.651620262890967e-05
1.0890533106905696e-06,8.689856869990721e-07,4.7221638797943494e-07,1.6369980728171107e-05
1.0867820138843852e-06,8.72144882627167e-07,4.668963036265547e-07,1.6211983179072516e-05
1.0841486682659915e-06,8.750257990253666e-07,4.617194178350512e-07,1.6042356204003505e-05
1.081166603371821e-06,8.775944622956465e-07,4.56716118046711e-07,1.5861328846007973e-05
1.0778529759263892e-06,8.798170048466816e-07,4.5191051041157005e-07,1.5669181021877083e-05
1.0742246807140922e-06,8.816622960340216e-07,4.473205487605234e-07,1.5466223964140908e-05
1.0702963401247466e-06,8.831059364075493e-07,4.4295763766158635e-07,1.5252808219056836e-05
1.0660810732250523e-06,8.841341898111162e-07,4.3882733595899364e-07,1.5029328153789762e-05
1.0615928678323412e-06,8.847474426595491e-07,4.3493100077927647e-07,1.4796209705581952e-05
1.056850015190244e-06,8.849609139475065e-07,4.312674375047125e-07,1.4553893677181671e-05
1.0518768345616056e-06,8.847991763908619e-07,4.2783464314077676e-07,1.4302826098037244e-05
1.046700862640752e-06,8.842866690422618e-07,4.2463222186287974e-07,1.4043461807652277e-05
1.0413479925500263e-06,8.8344107533207e-07,4.2166315575057065e-07,1.3776272840567185e-05
1.0358403473865151e-06,8.822730244478771e-07,4.189329413760178e-07,1.350176016998869e-05
1.0301970664473065e-06,8.807899798072111e-07,4.1644695955530356e-07,1.3220494295404668e-05
1.0244338121640742e-06,8.790000313549005e-07,4.142087370732344e-07,1.2933163997839099e-05
1.018560309515314e-06,8.769139910764717e-07,4.1221990838596714e-07,1.26405555552511e-05
1.0125801678658426e-06,8.745467836828045e-07,4.104805452190679e-07,1.2343469303033699e-05
1.006494351178478e-06,8.719164922393574e-07,4.089884431184407e-07,1.204266843722518e-05
1.0003056446603809e-06,8.690402668531435e-07,4.077375773957336e-07,1.1738899947412939e-05
9.940223566715609e-07,8.659316483277868e-07,4.067173937728008e-07,1.1432967156983305e-05
9.876602364087506e-07,8.626019296505604e-07,4.059137608580979e-07,1.1125811427781794e-05
9.812419893879252e-07,8.590623022371832e-07,4.05310754393136e-07,1.0818522194408622e-05
9.74795080579527e-07,8.553235449133618e-07,4.0489222790243547e-07,1.0512240966160905e-05
9.683478961838049e-07,8.513947002666376e-07,4.0464263655829576e-07,1.0208048120646227e-05
9.619244787206786e-07,8.472833224801498e-07,4.045468789939885e-07,9.906933896571602e-06
9.555405816277375e-07,8.429955958177256e-07,4.0458949349481543e-07,9.609861674178133e-06
9.492042744691816e-07,8.385347252845711e-07,4.047541179651584e-07,9.31788035143412e-06
9.429208344766052e-07,8.339009837782303e-07,4.0502374974763353e-07,9.032218700822747e-06
9.366975632242851e-07,8.29095876791052e-07,4.053818528468256e-07,8.754277846807691e-06
9.305440974140064e-07,8.241275194654728e-07,4.0581322523502936e-07,8.485514397905205e-06
9.244683332665405e-07,8.190131144316283e-07,4.0630305444748723e-07,8.227294286704473e-06
9.184726102156954e-07,8.137774999572808e-07,4.068353578008782e-07,7.980784077935365e-06
9.125530176774875e-07,8.084505468477366e-07,4.073925666239406e-07,7.746908814095369e-06
9.067001253468343e-07,8.03066114827683e-07,4.0795562397585074e-07,7.526372000963173e-06
9.009005944689095e-07,7.976602183708657e-07,4.0850467093606843e-07,7.319688971510658e-06
8.951405188461504e-07,7.922660145667677e-07,4.090209243954109e-07,7.1272228533538725e-06
8.89407732454517e-07,7.869092035987809e-07,4.094881131610087e-07,6.949300472967599e-06
8.836903738212599e-07,7.816066307084773e-07,4.098918634672725e-07,6.786395169850661e-06
8.77974387013854e-07,7.763663209048549e-07,4.1021802203048355e-07,6.639197125592679e-06
8.722438737285204e-07,7.711885297255086e-07,4.1045176410181703e-07,6.508496537556292e-06
8.66483339706934e-07,7.660694964507184e-07,4.1057774030161464e-07,6.395011793081942e-06
8.606783131131729e-07,7.610074694494631e-07,4.105803015838866e-07,6.299287938291837e-06
8.548144931553295e-07,7.560071153819581e-07,4.104438159759517e-07,6.221724252454401e-06
8.488782457442383e-07,7.510798259887279e-07,4.101543511391321e-07,6.162751434845056e-06
8.428599033289319e-07,7.462431204636758e-07,4.0970201573667003e-07,6.123031727237825e-06
8.36759203483409e-07,7.415212171091574e-07,4.0908114406754863e-07,6.103491247123012e-06
8.305888936334155e-07,7.36943844840748e-07,4.0828882579540246e-07,6.105183820791612e-06
8.24372514786208e-07,7.325424369651772e-07,4.0732423947828133e-07,6.129120658504153e-06
8.181377102519067e-07,7.283457515763028e-07,4.061884184124317e-07,6.1761379209107285e-06
8.119097491793131e-07,7.243758970651189e-07,4.048850159031109e-07,6.246815569741923e-06
8.057098154347304e-07,7.206460528819155e-07,4.03423372987641e-07,6.341446571982911e-06
7.995597738519364e-07,7.171622123507275e-07,4.018205501199705e-07,6.4600333251474325e-06
7.934895543089894e-07,7.139284909204143e-07,4.0009893164241533e-07,6.60228214593159e-06
7.875408926573404e-07,7.109511970448749e-07,3.982820919533337e-07,6.767591306488201e-06
7.81765509041917e-07,7.082386996083756e-07,3.9639315174712145e-07,6.955048569901787e-06
7.762211536426864e-07,7.057995417807073e-07,3.9445508909796526e-07,7.163447444581978e-06
7.709679656570401e-07,7.036415961012579e-07,3.9249024720542686e-07,7.391327005623569e-06
7.660639237209579e-07,7.017723582886736e-07,3.9051945072590617e-07,7.637042909442756e-06
7.61559129911548e-07,7.001991717132555e-07,3.885622955412985e-07,7.89886926037106e-06
7.574913633407056e-07,6.989292028116723e-07,3.866375624168754e-07,8.17511789864747e-06
7.538845991199184e-07,6.979697352467194e-07,3.8476337644150526e-07,8.464243363285291e-06
7.507493291236006e-07,6.973276472134487e-07,3.829588905412407e-07,8.764896306968727e-06
7.480834249389422e-07,6.970073342618172e-07,3.812469401447873e-07,9.0759170785604e-06
7.458746922855572e-07,6.970080465158933e-07,3.796553821488851e-07,9.396289332736558e-06
7.441055693246705e-07,6.973214455017007e-07,3.7821631177334867e-07,9.725074840576843e-06
7.427583161931636e-07,6.9793043676533e-07,3.7696339787066453e-07,1.0061348314126677e-05
7.418192933200274e-07,6.988099548597987e-07,3.7592845714683705e-07,1.0404149585737588e-05
7.41280639548801e-07,6.999296602028525e-07,3.751386191375264e-07,1.0752450996045512e-05
7.411376313905936e-07,7.012585487616208e-07,3.7461461639632937e-07,1.1105127015218784e-05
7.413831710520638e-07,7.027690871240128e-07,3.7437018530181633e-07,1.1460950724285314e-05
7.420036717762994e-07,7.044375514293606e-07,3.744128762504743e-07,1.1818650246124744e-05
7.429781835313329e-07,7.062411278876076e-07,3.7474684630240716e-07,1.2176980947673696e-05
7.442788060875764e-07,7.081547624867464e-07,3.753755626592976e-07,1.253474719041191e-05
7.458718013327345e-07,7.101502356349594e-07,3.7630090960212424e-07,1.2890788763580887e-05
7.477206134810099e-07,7.121973430997574e-07,3.7751990397447e-07,1.3243989989807993e-05
7.497908410108183e-07,7.142646507518907e-07,3.790233691026094e-07,1.3593330623136618e-05
7.520549860260502e-07,7.16319596129035e-07,3.8079781725715925e-07,1.393792943456636e-05
7.544922888033494e-07,7.183286931388817e-07,3.828281865447809e-07,1.4277019102353977e-05
7.570830728797685e-07,7.202568374490634e-07,3.850984759662194e-07,1.4609874796415525e-05
7.598048367755169e-07,7.22066386597362e-07,3.8759018760667563e-07,1.4935754347197503e-05
7.626360995922131e-07,7.237180534599396e-07,3.902811487333232e-07,1.5253848629581268e-05
7.65565961896318e-07,7.251736068052296e-07,3.931456275470517e-07,1.5563252312754088e-05
7.686014140581555e-07,7.263981047407293e-07,3.9615544482291094e-07,1.5863014574933034e-05
7.717648394779813e-07,7.273601247557291e-07,3.9928289548233326e-07,1.6152243050679386e-05
7.750831567748974e-07,7.280316287494867e-07,4.025039698449272e-07,1.643014889626874e-05
7.7857884523943e-07,7.283884606005609e-07,4.057984463610391e-07,1.6696007962191413e-05
7.822684160909973e-07,7.284094333383803e-07,4.091477009250898e-07,1.6949105466674155e-05
7.861634794773056e-07,7.280745356770697e-07,4.1253292034571296e-07,1.7188719665770325e-05
7.902691906557143e-07,7.27365923663949e-07,4.159334697880093e-07,1.7414148149978328e-05
7.945816915749433e-07,7.26271460203708e-07,4.193257985670371e-07,1.7624733217774052e-05
7.990879788003847e-07,7.247862250666802e-07,4.226841634531293e-07,1.7819855442748132e-05
8.037673299704476e-07,7.229100540588826e-07,4.25982188590641e-07,1.7998931583590535e-05
8.085924957146406e-07,7.206440899711637e-07,4.2919451364670797e-07,1.816151185777328e-05
8.135310735110841e-07,7.179891570155005e-07,4.322986287679326e-07,1.8307485737708413e-05
8.185470719462555e-07,7.14946328606433e-07,4.3527553356836e-07,1.8437215788425706e-05
8.23601828933151e-07,7.115203955561567e-07,4.381096003126571e-07,1.855146796186962e-05
8.286543287204462e-07,7.077250899999289e-07,4.407899781756664e-07,1.8651226168341713e-05
8.336631128692308e-07,7.035840447649301e-07,4.4331269776616937e-07,1.873751892997629e-05
8.38589851000325e-07,6.991249595457148e-07,4.4568153749685277e-07,1.8811353494760888e-05
8.433995750222916e-07,6.943730430687908e-07,4.479071972775591e-07,1.8873819668196053e-05
8.480571224648794e-07,6.893487576496803e-07,4.5000401618333577e-07,1.8926231435119897e-05
8.525266492901955e-07,6.840687853812259e-07,4.519853209395904e-07,1.8970103850105696e-05
8.567762206001329e-07,6.785483482846834e-07,4.5386045091559927e-07,1.900699428700864e-05
8.607814648462135e-07,6.72804176990348e-07,4.5563426209233036e-07,1.9038353841416064e-05
8.645243568989897e-07,6.668565991207115e-07,4.573077040965706e-07,1.9065434862991765e-05
8.679899147296667e-07,6.607299388817285e-07,4.5887891005692253e-07,1.908923556489436e-05
8.711640088138208e-07,6.544531725803897e-07,4.603451984157352e-07,1.9110463946205592e-05
8.740319737274399e-07,6.480623928120704e-07,4.6170474166550887e-07,1.91295231513868e-05
8.765789143973991e-07,6.416029573024491e-07,4.629560305992573e-07,1.914652931023139e-05
8.787933718029955e-07,6.351285325246699e-07,4.6409611980032425e-07,1.91613579074714e-05
8.806706279206932e-07,6.286976325771729e-07,4.65120589728218e-07,1.9173694716022672e-05
8.822115083313429e-07,6.223701889429391e-07,4.660259025973647e-07,1.9183067060285367e-05
8.834190441975617e-07,6.16205546790636e-07,4.6681103283564175e-07,1.9188867676993287e-05
8.842964375835268e-07,6.102610916160058e-07,4.6747658420245294e-07,1.919040130582396e-05
8.848458789441788e-07,6.045906702473578e-07,4.68023722957716e-07,1.918695050760437e-05
8.850668938318016e-07,5.992441077071945e-07,4.6845410424086324e-07,1.917783715391581e-05
8.849556661180175e-07,5.94268213977975e-07,4.687692038078707e-07,1.9162466153624135e-05
8.845080859921318e-07,5.897077993593832e-07,4.68969228452808e-07,1.914033602160892e-05
8.837242490954024e-07,5.856060870290705e-07,4.690532861065258e-07,1.9111016417995602e-05
8.826085295260912e-07,5.820046726353896e-07,4.690201426815018e-07,1.907413632648689e-05
8.811667427882203e-07,5.789435579658849e-07,4.6886908965943783e-07,1.902941365370984e-05
8.794062377488374e-07,5.764614214328183e-07,4.6860173005176793e-07,1.8976691576468028e-05
8.773368651791855e-07,5.74595206270482e-07,4.68222870712642e-07,1.891593244681296e-05
8.749690338093607e-07,5.733796296097572e-07,4.677393950975275e-07,1.8847164650908702e-05
8.723113521366016e-07,5.728480242285229e-07,4.6715928412229473e-07,1.877041715154989e-05
8.693695657552885e-07,5.730330635917693e-07,4.664913609534483e-07,1.8685701311636536e-05
8.661455973648447e-07,5.739658752498126e-07,4.6574482012304726e-07,1.859308244308506e-05
8.626371388461359e-07,5.756736663521802e-07,4.649292824986064e-07,1.8492788586311345e-05
8.588389408309892e-07,5.781757747390888e-07,4.640550674121462e-07,1.8385256038917228e-05
8.547454749881004e-07,5.814821132749655e-07,4.6313172456854503e-07,1.827109582597517e-05
8.503531481938034e-07,5.855989177635253e-07,4.621664896699171e-07,1.8151033186685424e-05
8.456604541020186e-07,5.905369118413602e-07,4.611654633200569e-07,1.802583410381579e-05
8.406666989623812e-07,5.963128995971022e-07,4.601349834514057e-07,1.7896221721522587e-05
8.353710870497198e-07,6.029442035651996e-07,4.590806643186841e-07,1.776285645044987e-05
8.297736589814385e-07,6.104415760104401e-07,4.5800632017030535e-07,1.7626413527570433e-05
8.238776323755052e-07,6.18804560371584e-07,4.569143809694189e-07,1.7487652319321884e-05
8.176904052086981e-07,6.280201223709544e-07,4.5580635451341887e-07,1.734740815100334e-05
8.112240850348121e-07,6.380637776014515e-07,4.546821004628376e-07,1.720655792526321e-05
8.04498986089327e-07,6.489020644439571e-07,4.535391558128681e-07,1.706598695321087e-05
7.975475058662591e-07,6.604950914995222e-07,4.523731750285268e-07,1.6926530755608727e-05
7.904134211983428e-07,6.727973360071241e-07,4.511787491297918e-07,1.6788893226252538e-05
7.831466685395437e-07,6.857556542353299e-07,4.499507361860365e-07,1.6653584043689375e-05
7.757963042662351e-07,6.993060783854169e-07,4.486856596165649e-07,1.6520922623073238e-05
7.684046677678057e-07,7.133721772172413e-07,4.4738132188802786e-07,1.639111674482937e-05
7.610070819343255e-07,7.27866310374077e-07,4.460352682777704e-07,1.6264357508625797e-05
7.536393157013777e-07,7.426939417195049e-07,4.446437565978321e-07,1.614085867052844e-05
7.463469006479248e-07,7.577605943237851e-07,4.432013827916801e-07,1.6020833006878525e-05
7.391871013628323e-07,7.72978454453118e-07,4.417020124886077e-07,1.590444984969902e-05
7.322232412512062e-07,7.882677886926768e-07,4.4014069018828297e-07,1.5791829514236978e-05
7.255188225648483e-07,8.035524230911977e-07,4.3851411409882394e-07,1.5683091579051405e-05
7.191346155174066e-07,8.187544413552205e-07,4.368189971712381e-07,1.5578399138335344e-05
7.131251448256512e-07,8.337925551355973e-07,4.350504640183868e-07,1.5477952359957227e-05
7.075333555860669e-07,8.485833611067502e-07,4.3320211701698454e-07,1.5381951052094446e-05
7.023871775479112e-07,8.630426703719326e-07,4.3126678407380114e-07,1.529055865996313e-05
6.976995604934639e-07,8.770867473725748e-07,4.2923677227490506e-07,1.5203880070839914e-05
6.934700672565265e-07,8.90634813232593e-07,4.27104118782901e-07,1.5121945673123776e-05
6.896866651952532e-07,9.036116675457599e-07,4.2486210837361043e-07,1.5044689624036862e-05
6.863277768697792e-07,9.159491323237517e-07,4.2250841677617326e-07,1.497192150032794e-05
6.833651615390304e-07,9.275873507793444e-07,4.200467028790422e-07,1.4903304248691797e-05
6.807684307694044e-07,9.384754888028965e-07,4.1748389537090117e-07,1.4838352263003927e-05
6.785118910081746e-07,9.485703986513195e-07,4.148268624867521e-07,1.4776450770808222e-05
6.765828282715263e-07,9.578355058095925e-07,4.120823574281075e-07,1.4716891724371757e-05
6.749867401702371e-07,9.662432811601211e-07,4.092581649620714e-07,1.4658915720590094e-05
6.737442499881054e-07,9.737803994433297e-07,4.063633101602471e-07,1.460174252386784e-05
6.72882011958287e-07,9.804522192470932e-07,4.0340766396979754e-07,1.4544579233893414e-05
6.724262575534294e-07,9.862837709663644e-07,4.0040090202947347e-07,1.4486614053337381e-05
6.72401204820898e-07,9.913148383334764e-07,3.973518085402229e-07,1.442701772215425e-05
6.728270018344031e-07,9.9558975555509e-07,3.9426834034210465e-07,1.4364962052262641e-05
6.73715558502691e-07,9.991475983061234e-07,3.9115707287617923e-07,1.4299639872770136e-05
6.750680017358843e-07,1.0020186603275428e-06,3.8802257065404095e-07,1.4230277023469181e-05
6.768768426674309e-07,1.00422733666737e-06,3.848674135898693e-07,1.4156145965355826e-05
6.79132083920685e-07,1.0057965399498822e-06,3.816921516796619e-07,1.4076578163043447e-05
6.818273157331998e-07,1.0067497461319058e-06,3.784954267426468e-07,1.3990972366562795e-05
6.849631920325948e-07,1.007110063137691e-06,3.7527429998644475e-07,1.3898810875845856e-05
6.885476932867437e-07,1.006897719732288e-06,3.7202429779598046e-07,1.3799670195430146e-05
6.925925653762395e-07,1.006128511438216e-06,3.68739663988534e-07,1.3693209743307182e-05
6.971085184997954e-07,1.0048148958217431e-06,3.6541401113069293e-07,1.3579171207838213e-05
7.021036494110879e-07,1.0029707219044994e-06,3.620412695438004e-07,1.3457410357750716e-05
7.075832059254358e-07,1.0006193966731731e-06,3.586175803170261e-07,1.3327922235590786e-05
7.135456036495291e-07,9.978018357039536e-07,3.551437583425456e-07,1.3190827917996232e-05
7.199768993956248e-07,9.945806819147779e-07,3.516262062298881e-07,1.3046335765734813e-05
7.268489679364826e-07,9.910392243543057e-07,3.480752957018961e-07,1.2894703112968153e-05
7.341209946818107e-07,9.872734308957742e-07,3.4450288528538237e-07,1.2736220863610405e-05
7.417419744489285e-07,9.833788933119971e-07,3.409213169297525e-07,1.2571213463657033e-05
7.496531725676383e-07,9.794387108748522e-07,3.373444127669495e-07,1.2400026663098966e-05
7.577893418222864e-07,9.755169152494405e-07,3.337890382369321e-07,1.2223005624349361e-05
7.660793737291046e-07,9.716581442088863e-07,3.3027533874516765e-07,1.2040494703628575e-05
7.74447877744509e-07,9.67892538191626e-07,3.268243483741152e-07,1.1852896503561951e-05
7.8281706151788e-07,9.642438072967235e-07,3.234543987577673e-07,1.1660793807124625e-05
7.911090567892484e-07,9.607357592394511e-07,3.201801750510929e-07,1.1465059032294538e-05
7.992497511900102e-07,9.573925576260502e-07,3.170152823114272e-07,1.126683840322502e-05
8.071722270555654e-07,9.542340272180991e-07,3.139741776805267e-07,1.1067407646723903e-05
8.14816852684504e-07,9.512718817430547e-07,3.1107119289437735e-07,1.0868061909378506e-05
8.22128351666283e-07,9.485090853686102e-07,3.0832041885931914e-07,1.067013538682006e-05
8.29054149688632e-07,9.459405124473423e-07,3.0573870131718386e-07,1.0475037351334716e-05
8.35547871808954e-07,9.435540009243414e-07,3.0334779581623247e-07,1.0284203009163474e-05
8.415746333596073e-07,9.413308808497908e-07,3.0117222047994623e-07,1.009898787225408e-05
8.471110961699796e-07,9.392455704444691e-07,2.992351660790998e-07,9.920567567120702e-06
8.521402029135424e-07,9.372656568819886e-07,2.975559771556514e-07,9.749896924465264e-06
8.566458410995286e-07,9.353530789922159e-07,2.961488483545148e-07,9.587735403270347e-06
8.606098029198698e-07,9.334660861541881e-07,2.9502174473054726e-07,9.434675398451449e-06
8.640105696919876e-07,9.31560681782699e-07,2.941761551362557e-07,9.29113297421136e-06
8.668243114693323e-07,9.295913468521565e-07,2.936079776437179e-07,9.15733630097883e-06
8.690298777975098e-07,9.27514666709964e-07,2.9330951000364864e-07,9.033357392155392e-06
8.706171802269569e-07,9.252971688790444e-07,2.932721166252739e-07,8.919227349451831e-06
8.715936231651421e-07,9.229223766985388e-07,2.9348818561341803e-07,8.815141404282763e-06
8.719848071160803e-07,9.20391284712076e-07,2.939510930741191e-07,8.721608980885637e-06
8.718314628525959e-07,9.177150827113596e-07,2.9465373707635797e-07,8.63938546880258e-06
8.711840503824702e-07,9.149062928788472e-07,2.9558766270732477e-07,8.569302642765312e-06
8.700951699913462e-07,9.11975955083354e-07,2.967430526816257e-07,8.512231077741793e-06
8.686142913462751e-07,9.089355327622568e-07,2.9810872331911933e-07,8.469135987809937e-06
8.667880544078985e-07,9.057981859774258e-07,2.996727812036837e-07,8.441051411917352e-06
8.646620432736639e-07,9.025795470763607e-07,3.014243338420099e-07,8.428967275250652e-06
8.62279387970581e-07,8.992991778440919e-07,3.0335497701773346e-07,8.433710446557627e-06
8.59677017172104e-07,8.959810585744639e-07,3.0545856796134425e-07,8.455855442357236e-06
8.568841504547257e-07,8.926526517567558e-07,3.0772937420685066e-07,8.495678447337477e-06
8.539248041690934e-07,8.893437551635748e-07,3.101604607949755e-07,8.553153313505369e-06
8.508198331634651e-07,8.860851627317515e-07,3.1274358546445497e-07,8.627970436618378e-06
8.475866381599334e-07,8.829065544649355e-07,3.154701443664664e-07,8.719560150021659e-06
8.442414390099823e-07,8.798347729997567e-07,3.183323864064945e-07,8.827113391890562e-06
8.408054860013948e-07,8.768933575056644e-07,3.213237865812327e-07,8.949606135644098e-06
8.373100091009853e-07,8.741013449552772e-07,3.2443788074577264e-07,9.085838125084841e-06
8.337961563171615e-07,8.714702483189678e-07,3.276669813784497e-07,9.234474791033466e-06
8.303116978678787e-07,8.690013593605356e-07,3.310017788501089e-07,9.394074429133707e-06
8.269078894177217e-07,8.666850806234684e-07,3.3443110802724704e-07,9.563122027346803e-06
8.236367210884719e-07,8.645024823100416e-07,3.379420348513798e-07,9.740096215267577e-06
8.205475157977318e-07,8.624299285482935e-07,3.4152090379784235e-07,9.923533044106365e-06
8.17683088816198e-07,8.604473900638319e-07,3.451554382029647e-07,1.0112028615133957e-05
8.150766747171626e-07,8.585468878528602e-07,3.4883692168706214e-07,1.0304191062335427e-05
8.127510676259487e-07,8.567334474029217e-07,3.52559725354747e-07,1.0498606733415755e-05
8.107197876590189e-07,8.550171751239882e-07,3.563180848196535e-07,1.0693845277905873e-05
8.089908499127541e-07,8.534075133743257e-07,3.601035486126401e-07,1.0888471680378801e-05
8.075738102289267e-07,8.51919245813242e-07,3.6390426481996424e-07,1.108104750776452e-05
8.064857055667426e-07,8.505850093560011e-07,3.677053320851974e-07,1.127013307026646e-05
8.05752626141896e-07,8.494631873304612e-07,3.714903925724314e-07,1.1454298565889928e-05
8.054102217580361e-07,8.486365051411079e-07,3.752436681958892e-07,1.1632146879764454e-05
8.055051941127827e-07,8.482023094587962e-07,3.789504782636079e-07,1.1802339043334567e-05
8.06094493668715e-07,8.482580169128965e-07,3.82596521802401e-07,1.1963615674308334e-05
8.072387631327719e-07,8.48887544150727e-07,3.861679150929397e-07,1.2114840424077817e-05
8.089909858640672e-07,8.501546482723689e-07,3.896518089138961e-07,1.2255064731469287e-05
8.113873804419381e-07,8.521033509887042e-07,3.930361249481242e-07,1.2383546161486427e-05
8.144484576318505e-07,8.547589894361827e-07,3.9630907954206993e-07,1.2499693849712867e-05
8.181881622739821e-07,8.58126794652926e-07,3.994594815484041e-07,1.260301098319536e-05
8.226219983739755e-07,8.621918092566576e-07,4.024775726617775e-07,1.269308226639504e-05
8.277717240509707e-07,8.669217228313536e-07,4.0535614034983027e-07,1.276958956103746e-05
8.336682172150327e-07,8.722700744037552e-07,4.080901090740289e-07,1.2832341845354055e-05
8.403493058888492e-07,8.781793604438677e-07,4.106740894071469e-07,1.2881288933636645e-05
8.47851352652706e-07,8.845859202141842e-07,4.1310077970073954e-07,1.2916483253079122e-05
8.562003050900831e-07,8.914281971569662e-07,4.153608601003987e-07,1.2938022268696976e-05
8.654069303246269e-07,8.986562948799162e-07,4.1744339044475643e-07,1.2946039268183416e-05
8.754663893701824e-07,9.062359350263927e-07,4.1933818354698367e-07,1.2940770942068305e-05
8.863609083471237e-07,9.141442042402186e-07,4.210398775197279e-07,1.2922657873316662e-05
8.980639664462919e-07,9.223612552902676e-07,4.2254931490047976e-07,1.2892386042317633e-05
9.105444385595459e-07,9.30861719481018e-07,4.2387030875102547e-07,1.2850834134911646e-05
9.237682453675487e-07,9.396095210966678e-07,4.250057046523687e-07,1.2798976401257213e-05
9.376952886057913e-07,9.485579964555826e-07,4.259563124964414e-07,1.2737778849846774e-05
9.522754532142449e-07,9.576525116865051e-07,4.267222698458009e-07,1.2668108526532468e-05
9.674511190253454e-07,9.668342256510405e-07,4.2730461799145883e-07,1.2590696707870793e-05
9.831678708902641e-07,9.760450836135515e-07,4.2770493762092297e-07,1.2506172661439484e-05
9.993876834908044e-07,9.852314747477051e-07,4.2792383595853337e-07,1.241514144545768e-05
1.0160966268705664e-06,9.943460326560976e-07,4.2796109040051615e-07,1.231828873488512e-05
1.0333031027868141e-06,1.0033508384476493e-06,4.278169961686121e-07,1.221652438755042e-05
1.051029861259888e-06,1.012222845680727e-06,4.2749280828053524e-07,1.2111095736555885e-05
1.0693051296048395e-06,1.0209570075146628e-06,4.269902005043562e-07,1.2003537794256465e-05
1.0881534165985556e-06,1.0295630768080294e-06,4.263108352192712e-07,1.1895484002410855e-05
1.1075851721285688e-06,1.038057787009026e-06,4.254569079686749e-07,1.1788486537186173e-05
1.1275888400646955e-06,1.0464563695522465e-06,4.2443167735468286e-07,1.1683966145318782e-05
1.1481287577982666e-06,1.0547674340104919e-06,4.2323854913212025e-07,1.1583368040913838e-05
1.1691480594894952e-06,1.0629943828610109e-06,4.2187972876418707e-07,1.1488418510958142e-05
1.1905738823901218e-06,1.0711398251411656e-06,4.203557987927472e-07,1.1401228298209454e-05
1.2123223945943587e-06,1.0792068121575514e-06,4.186662667896067e-07,1.1324184485251925e-05
1.2343028299965126e-06,1.0871978131005982e-06,4.168109369441093e-07,1.1259773847945747e-05
1.256420029361776e-06,1.095114293071088e-06,4.147914640243608e-07,1.1210429382889004e-05
1.278575038849402e-06,1.1029554413898877e-06,4.126123924084804e-07,1.1178413962303073e-05
1.300664938575262e-06,1.110715663299872e-06,4.1028122207624935e-07,1.1165738187891037e-05
1.3225823783403743e-06,1.1183834019035531e-06,4.0780717038562996e-07,1.1174100001342791e-05
1.3442153806501788e-06,1.125941611533803e-06,4.051996875848176e-07,1.120482855121917e-05
1.3654483784527662e-06,1.133366838565701e-06,4.024677401547968e-07,1.1258825349826718e-05
1.386164163208738e-06,1.14062623269363e-06,3.9961918456352136e-07,1.1336520030147251e-05
1.4062472260181428e-06,1.1476769408873943e-06,3.966599015882288e-07,1.1437863668931493e-05
1.4255879530513609e-06,1.1544706035809662e-06,3.935937183386272e-07,1.1562377094975785e-05
1.444084564431896e-06,1.1609580807351509e-06,3.904234198166043e-07,1.1709258558797027e-05
1.46164124771425e-06,1.167089423691017e-06,3.871518270716862e-07,1.1877520874554826e-05
1.4781649543312583e-06,1.1728122051058466e-06,3.837826104048693e-07,1.2066116072091936e-05
1.4935648852599302e-06,1.17807193836395e-06,3.8032135434074907e-07,1.227402351146428e-05
1.5077543277537469e-06,1.182812900942048e-06,3.7677662230659643e-07,1.2500288442805775e-05
1.5206513244090171e-06,1.1869784909357507e-06,3.731600945726586e-07,1.274401794371786e-05
1.532178759914641e-06,1.1905122076598776e-06,3.694853641708494e-07,1.300436448646898e-05
1.5422663866875446e-06,1.193360070433855e-06,3.6576586692792026e-07,1.328051258150462e-05
1.5508533681721282e-06,1.1954767863581407e-06,3.6201326963893325e-07,1.3571658155045613e-05
1.5578883585320738e-06,1.1968340233738666e-06,3.5823740050249685e-07,1.3876968208556781e-05
1.5633273417989163e-06,1.1974229854275426e-06,3.544471042262772e-07,1.419551411370924e-05
1.5671324319009769e-06,1.1972497266273822e-06,3.506509933045463e-07,1.452618453685589e-05
1.5692726814023356e-06,1.1963290990755506e-06,3.468578903983097e-07,1.486762617859573e-05
1.5697245828681774e-06,1.194679662757199e-06,3.430765951125793e-07,1.5218284931714718e-05
1.5684727181059346e-06,1.1923199143704408e-06,3.3931471361415075e-07,1.5576534890228296e-05
1.5655128993626351e-06,1.1892680990972762e-06,3.35577458961702e-07,1.594079164809689e-05
1.5608555258011698e-06,1.1855450764426384e-06,3.318678749971866e-07,1.6309561022149905e-05
1.5545245749739588e-06,1.181176794946578e-06,3.2818830140090827e-07,1.6681447089341848e-05
1.54655181668105e-06,1.1761935031819479e-06,3.24541179362796e-07,1.7055125767801096e-05
1.5369714378688361e-06,1.170625336355155e-06,3.209286030799182e-07,1.7429283348866965e-05
1.5258203881148775e-06,1.1644982275786104e-06,3.1735178659397914e-07,1.7802550804895035e-05
1.5131430786725227e-06,1.1578330320235277e-06,3.1381120343329764e-07,1.8173479542742064e-05
1.4989939773236363e-06,1.1506462626207004e-06,3.103072088130219e-07,1.854056893716524e-05
1.4834348735707736e-06,1.142951898327928e-06,3.0684109756647877e-07,1.8902300885470293e-05
1.4665303415094218e-06,1.1347636424785401e-06,3.034169992926993e-07,1.925715374353151e-05
1.448345757177556e-06,1.1260952879803505e-06,3.000439954965308e-07,1.960360707583521e-05
1.4289469910888799e-06,1.1169607411382568e-06,2.9673688933935214e-07,1.994013135215981e-05
1.4083994664260452e-06,1.1073769383625703e-06,2.9351512854045785e-07,2.026516088566063e-05
1.3867686886232514e-06,1.0973675479977743e-06,2.9040076480519664e-07,2.0577080768227623e-05
1.364124304352721e-06,1.0869637885355322e-06,2.87416189927e-07,2.087425054944209e-05
1.3405444054658594e-06,1.0762034171904384e-06,2.8458253108688604e-07,2.1155058234220628e-05
1.3161171770506277e-06,1.0651287253454477e-06,2.8192017755728514e-07,2.141797267168715e-05
1.2909425535002218e-06,1.0537817421353074e-06,2.7945006422764614e-07,2.1661556955149827e-05
1.265135429047343e-06,1.0421996181532749e-06,2.771921176303429e-07,2.1884448704612117e-05
1.2388245821810132e-06,1.0304157670857522e-06,2.7516194899041853e-07,2.2085350952446052e-05
1.2121431850837731e-06,1.0184649462051702e-06,2.7337035057316196e-07,2.2263088467264933e-05
1.1852186093243973e-06,1.0063858427445082e-06,2.7182538426855725e-07,2.241676765137812e-05
1.1581706688599312e-06,9.94219934342615e-07,2.70533266317562e-07,2.2545934651934124e-05
1.1311169573583634e-06,9.820093675985748e-07,2.694973464184319e-07,2.2650553830895866e-05
1.1041795231020991e-06,9.697947560803257e-07,2.687171767201032e-07,2.273083966185193e-05
1.077487755328257e-06,9.576139386331926e-07,2.681886105718433e-07,2.278710897264791e-05
1.0511734310546286e-06,9.455046803913841e-07,2.679040637072565e-07,2.2819704298020826e-05
1.0253611850820244e-06,9.335112964876455e-07,2.6785250727810717e-07,2.2828957185140023e-05
1.0001630068240024e-06,9.216877794341642e-07,2.680200893625606e-07,2.2815174429701942e-05
9.756785145787958e-07,9.100908246514744e-07,2.6839128990751576e-07,2.2778640532143884e-05
9.519957549703491e-07,8.987691469222702e-07,2.689494638611877e-07,2.2719624607359846e-05
9.291904840418925e-07,8.877595748869639e-07,2.696772707958089e-07,2.263837974570957e-05
9.073252896342396e-07,8.77090778323613e-07,2.705586935484661e-07,2.2535138703540946e-05
8.864491384957756e-07,8.667897847271485e-07,2.7158179615785e-07,2.2410123200564324e-05
8.666005036234733e-07,8.568864097481685e-07,2.727392432789496e-07,2.2263571088199066e-05
8.478172374239674e-07,8.474123003111984e-07,2.740268668745874e-07,2.2095763423170137e-05
8.301468719195526e-07,8.383951176332084e-07,2.754430784803693e-07,2.1907036356556392e-05
8.136469584110648e-07,8.298520805613816e-07,2.7698864140032147e-07,2.169778845788152e-05
7.983749585371563e-07,8.217871262341731e-07,2.7866547576302326e-07,2.146849927655532e-05
7.843768421353836e-07,8.141918441285802e-07,2.8047624006848304e-07,2.1219740606872573e-05
7.716823769713252e-07,8.070479211243595e-07,2.824238761877996e-07,2.095215690256736e-05
7.603068931827721e-07,8.00329816519193e-07,2.845090927398805e-07,2.0666434878453454e-05
7.502534857198427e-07,7.940064296076067e-07,2.867290170482809e-07,2.0363287730443785e-05
7.415121225511415e-07,7.880417223211813e-07,2.890781571686317e-07,2.0043448923237303e-05
7.340584069850867e-07,7.823969240243114e-07,2.91548726004229e-07,1.970767143396125e-05
7.278551444904909e-07,7.770340035201529e-07,2.9413063103771574e-07,1.9356740629803884e-05
7.228550371495459e-07,7.719161769231244e-07,2.968123335723923e-07,1.899149371412507e-05
7.190022653816746e-07,7.67005717735655e-07,2.995824779397471e-07,1.8612825338334887e-05
7.162331858539834e-07,7.622634384230841e-07,3.0243224627750894e-07,1.8221680657210408e-05
7.144764243235643e-07,7.576508219444e-07,3.0535651151374864e-07,1.7819051057525456e-05
7.136533066273944e-07,7.531340293317459e-07,3.083517328043805e-07,1.7405963267449313e-05
7.136804949318993e-07,7.486889942415041e-07,3.114123249741419e-07,1.698345084621385e-05
7.144748760168636e-07,7.443028964845931e-07,3.145286584080316e-07,1.655252809196521e-05
7.159592882755405e-07,7.399687104319667e-07,3.1768719314243734e-07,1.6114192736553515e-05
7.180679649345752e-07,7.356781432117268e-07,3.208725414969749e-07,1.5669472116204528e-05
7.207499886526152e-07,7.314193329534055e-07,3.240723669681004e-07,1.5219489348077274e-05
7.239696979532124e-07,7.27178551934084e-07,3.27281900419736e-07,1.4765481809827653e-05
7.277053623512321e-07,7.229425197729555e-07,3.305022457684701e-07,1.4308768887770412e-05
7.3194614781795e-07,7.187007495343618e-07,3.337344138544974e-07,1.3850736101289294e-05
7.366851755697951e-07,7.144480979761859e-07,3.369758409520274e-07,1.3392822007818002e-05
7.419111832060577e-07,7.101856741613396e-07,3.4022128482200287e-07,1.293646723521263e-05
7.476072739631877e-07,7.059189142730021e-07,3.434663679665689e-07,1.2483082531785922e-05
7.537591834569841e-07,7.016548545020217e-07,3.46711797394374e-07,1.2034061653296225e-05
7.60363759160563e-07,6.974005943028929e-07,3.499653381957653e-07,1.1590775974330585e-05
7.674299021412052e-07,6.931624366323085e-07,3.532387891394878e-07,1.1154562818086017e-05
7.74973917333272e-07,6.889457305538063e-07,3.565420531340997e-07,1.0726782479379013e-05
7.830128347585156e-07,6.847571423362341e-07,3.598795999520117e-07,1.030889130135513e-05
7.915567781596986e-07,6.806094394877099e-07,3.632510130779933e-07,9.902403153541993e-06
8.006033023016673e-07,6.765256607642319e-07,3.666538369694047e-07,9.508760605485685e-06
8.101384353276263e-07,6.725385631351003e-07,3.7008585728562963e-07,9.129237404106622e-06
8.201423145088176e-07,6.686845615480693e-07,3.735445200641186e-07,8.764920198043883e-06
8.305899964324523e-07,6.649965134871925e-07,3.770247695119761e-07,8.416750098780886e-06
8.414461469300412e-07,6.614996670379082e-07,3.805183407392792e-07,8.085580664764357e-06
8.526623266598527e-07,6.582116060989362e-07,3.840147583435244e-07,7.772249086536722e-06
8.64180593494346e-07,6.55146412936859e-07,3.8750255076427003e-07,7.477697078663298e-06
8.759393067168091e-07,6.523215232475064e-07,3.90970317289942e-07,7.203052175052745e-06
8.878763574312564e-07,6.497624244870522e-07,3.944073037737816e-07,6.949545691140035e-06
8.999283854281765e-07,6.475019215953196e-07,3.978038364590346e-07,6.718379207551863e-06
9.120280426001976e-07,6.45575162719381e-07,4.011543017553115e-07,6.510695561233858e-06
9.241023514569677e-07,6.440135772401776e-07,4.044629409158215e-07,6.327568760169063e-06
9.360737036229836e-07,6.428398393321053e-07,4.077470167691882e-07,6.169912902399152e-06
9.478627856233104e-07,6.420651375857033e-07,4.1103278660484007e-07,6.03838858338985e-06
9.593919868528544e-07,6.416898269945094e-07,4.1434730757667546e-07,5.933395761314896e-06
9.705877954722354e-07,6.41706158181181e-07,4.177124082030054e-07,5.855154323391083e-06
9.813818555849194e-07,6.42099596770855e-07,4.2114291042332493e-07,5.803803737602996e-06
9.91714247698532e-07,6.428478763707032e-07,4.2464802646322423e-07,5.779430729207558e-06
1.0015420901688404e-06,6.439209125519607e-07,4.282342905587572e-07,5.782013732587041e-06
1.010847899809627e-06,6.452830673219855e-07,4.31906973665384e-07,5.811349387051185e-06
1.0196382133638392e-06,6.468958915679763e-07,4.3566887857221077e-07,5.866998741350611e-06
1.027934238326117e-06,6.487212995985876e-07,4.395189085400181e-07,5.948266247942701e-06
1.0357652254671006e-06,6.507265391770884e-07,4.4345178268377716e-07,6.054246831994463e-06
1.0431667917984248e-06,6.528878341188351e-07,4.4745883299523106e-07,6.183921386501785e-06
1.0501775726383192e-06,6.551881477800863e-07,4.5152954922992717e-07,6.336221678935944e-06
1.0568316136784632e-06,6.576114215375629e-07,4.556523245179541e-07,6.510053112377933e-06
1.0631528988913932e-06,6.601394621894069e-07,4.5981366336021615e-07,6.704297349856943e-06
1.069159206409335e-06,6.627533563917636e-07,4.639971197780635e-07,6.917766040820586e-06
1.0748715489003136e-06,6.654365096612403e-07,4.681829566891609e-07,7.149117426803391e-06
1.0803189847254023e-06,6.681751926453654e-07,4.7234836609249236e-07,7.3968118588476255e-06
1.0855356456123079e-06,6.709572490624985e-07,4.764680173699106e-07,7.659139519331256e-06
1.0905553694571636e-06,6.737755492670489e-07,4.805150025751635e-07,7.93433388126977e-06
1.0954109517865679e-06,6.766371520315234e-07,4.844621650216444e-07,8.220780014440724e-06
1.1001379766578473e-06,6.795679766039627e-07,4.882832639345483e-07,8.517193277043196e-06
1.1047762632520365e-06,6.826052285541432e-07,4.919531239423934e-07,8.822606828775561e-06
1.1093673313133758e-06,6.857844515791356e-07,4.954466310117423e-07,9.136211328843519e-06
1.113952230064696e-06,6.891343242795888e-07,4.987375601666516e-07,9.457194099905066e-06
1.118569459991813e-06,6.926817287449441e-07,5.017985150543169e-07,9.784669292097645e-06
1.1232497001800644e-06,6.964585640463646e-07,5.046027152513436e-07,1.0117811578744372e-05
1.1280096277007492e-06,7.005031374584576e-07,5.071277450450634e-07,1.0456188359864393e-05
1.132851246726103e-06,7.048550874049792e-07,5.093605045129189e-07,1.0799992925709738e-05
1.1377686574585259e-06,7.095472486255519e-07,5.113010653488896e-07,1.114994115270949e-05
1.1427568572254285e-06,7.146000831060305e-07,5.129624813751908e-07,1.1506944966092385e-05
1.1478167424108067e-06,7.200211137850759e-07,5.143660536320528e-07,1.1871779485531235e-05
1.1529564819688092e-06,7.258061369247666e-07,5.155351499451336e-07,1.2244855671700455e-05
1.1581904793312346e-06,7.319394652264078e-07,5.164914312285268e-07,1.2626127064759572e-05
1.1635344420310952e-06,7.383956631199009e-07,5.172543389203327e-07,1.3015100276245374e-05
1.1689996293447665e-06,7.451454892982814e-07,5.178420355005437e-07,1.3410899260079718e-05
1.1745920608140185e-06,7.52163251057625e-07,5.182728492649273e-07,1.3812344474943549e-05
1.1803137925888431e-06,7.594297021966045e-07,5.185666220348455e-07,1.4218016261872864e-05
1.186159774358688e-06,7.66928542394518e-07,5.187444077703522e-07,1.4626295288077703e-05
1.1921131628146768e-06,7.746400358317844e-07,5.188263949052279e-07,1.5035406539497529e-05
1.1981454997022574e-06,7.825368483467928e-07,5.188303517362196e-07,1.5443493372474556e-05
1.2042202012979641e-06,7.905857864688361e-07,5.18772390006334e-07,1.5848719648377075e-05
1.210294790871203e-06,7.987534659208464e-07,5.186681013653486e-07,1.6249365018030253e-05
1.2163215427522585e-06,8.07008730112753e-07,5.185314162403123e-07,1.6643856686936058e-05
1.2222484563022249e-06,8.153194595068254e-07,5.183724774046702e-07,1.7030725666634748e-05
1.2280231719146588e-06,8.236499292551237e-07,5.181969869518982e-07,1.7408546836067635e-05
1.233600318733079e-06,8.319639492801813e-07,5.180068306530357e-07,1.7775917094320192e-05
1.2389474584932272e-06,8.402309939506829e-07,5.178007484863385e-07,1.8131478648919683e-05
1.244044845309902e-06,8.484298405767731e-07,5.175753240856799e-07,1.8473965504387524e-05
1.2488802080619541e-06,8.56548501082238e-07,5.173270512275785e-07,1.8802231173811804e-05
1.2534427526639415e-06,8.645829680592384e-07,5.170554471048065e-07,1.9115226889806045e-05
1.2577180889497478e-06,8.725380586482098e-07,5.16767072154278e-07,1.941194654157565e-05
1.261684172128418e-06,8.804288056320877e-07,5.164781384417301e-07,1.9691380617810752e-05
1.2653099553809708e-06,8.882760705141423e-07,5.162121648688193e-07,1.9952515147112506e-05
1.2685574252607488e-06,8.960980495786961e-07,5.159943293355379e-07,2.0194374470330616e-05
1.2713850222730278e-06,9.039065326980721e-07,5.158470739335219e-07,2.0416055276443584e-05
1.273750934757766e-06,9.117084120550064e-07,5.157880184886006e-07,2.061671514853089e-05
1.275614622374562e-06,9.195074764834528e-07,5.158295068021094e-07,2.079554088868812e-05
1.2769354216939909e-06,9.273068608679142e-07,5.159794800409958e-07,2.095173845925924e-05
1.2776713449339293e-06,9.351128810931032e-07,5.162428144388252e-07,2.1084556120712167e-05
1.2777818254215625e-06,9.429367815523468e-07,5.166219529422932e-07,2.119331183917392e-05
1.277233412625692e-06,9.507931005330273e-07,5.171164179009758e-07,2.127740309452036e-05
1.2760044314298436e-06,9.586972721245302e-07,5.177229946399896e-07,2.1336313291470058e-05
1.2740855674843746e-06,9.666629010254792e-07,5.184385722467603e-07,2.13696165285901e-05
1.2714757633566609e-06,9.746972991193662e-07,5.19264012665492e-07,2.1376980869654393e-05
1.2681760539256997e-06,9.827976057507944e-07,5.202060241347313e-07,2.135820757416087e-05
1.2641854773227914e-06,9.909506682167802e-07,5.212772260462259e-07,2.1313319840616398e-05
1.2594997960912279e-06,9.991347929733072e-07,5.22496431324984e-07,2.1242636328224732e-05
1.254111606683665e-06,1.0073204185205386e-06,5.238874390469034e-07,2.1146755972605787e-05
1.248011951691654e-06,1.0154710801108143e-06,5.25473351423036e-07,2.1026466889185985e-05
1.2411921002136272e-06,1.0235456881537286e-06,5.272697538227104e-07,2.088266088300579e-05
1.2336439265195455e-06,1.031499491912485e-06,5.292818927260222e-07,2.0716304515090626e-05
1.2253607733638285e-06,1.039283032245774e-06,5.315059398345215e-07,2.052844311995028e-05
1.2163393208621887e-06,1.0468418517066164e-06,5.339326132152842e-07,2.032020165714699e-05
1.2065799588378413e-06,1.0541185550843171e-06,5.365515292957613e-07,2.0092772573496266e-05
1.1960858378480765e-06,1.061056994455748e-06,5.393544247840703e-07,1.9847417299772226e-05
1.184863262993091e-06,1.0676088404092658e-06,5.42336197159256e-07,1.9585558122864107e-05
1.172923109925351e-06,1.0737414507814986e-06,5.454929938097853e-07,1.930891925966477e-05
1.160281036260798e-06,1.0794416559140282e-06,5.488184262405715e-07,1.9019524924586043e-05
1.1469562414932129e-06,1.0847116207712531e-06,5.523011851175544e-07,1.871952341314602e-05
1.1329699932025812e-06,1.0895605329672577e-06,5.559259468654602e-07,1.841099702705514e-05
1.11834625734489e-06,1.0939974296839924e-06,5.596765770858021e-07,1.809588834678384e-05
1.103115391113978e-06,1.0980281684265355e-06,5.635377658629054e-07,1.7776112803242418e-05
1.0873174789438558e-06,1.1016584369391416e-06,5.674934423764523e-07,1.7453810620781153e-05
1.0710020261534245e-06,1.1049003736201674e-06,5.715259564888736e-07,1.7131527132069974e-05
1.0542245047527255e-06,1.1077767325896955e-06,5.756173152879185e-07,1.6812163197265605e-05
1.0370417668625865e-06,1.1103183973625298e-06,5.797493698277396e-07,1.6498768116456203e-05
1.0195090231439553e-06,1.1125567082928136e-06,5.839029357925407e-07,1.6194326172617908e-05
1.0016809979212386e-06,1.1145164674518163e-06,5.880575062834009e-07,1.5901598389132254e-05
9.836160902224865e-07,1.1162138762335578e-06,5.921911411289913e-07,1.5623022228560236e-05
9.653791789149383e-07,1.1176594186592714e-06,5.962810355461433e-07,1.5360654867345642e-05
9.470402104754928e-07,1.118863133473739e-06,6.003053125207478e-07,1.511613892247497e-05
9.286691195830007e-07,1.1198387706400214e-06,6.042432535661387e-07,1.4890681914533532e-05
9.103324759888927e-07,1.1206041224267249e-06,6.080730720724664e-07,1.4685065634069613e-05
8.920968265664332e-07,1.1211772950738525e-06,6.117702977499431e-07,1.4499718470396885e-05
8.740334152704766e-07,1.1215716685317778e-06,6.153079678850365e-07,1.4334834279851244e-05
8.562162862820052e-07,1.1217942675362837e-06,6.186579665706189e-07,1.4190460113210071e-05
8.387157686875749e-07,1.1218504159730236e-06,6.217930782328011e-07,1.4066515471636965e-05
8.215933638997729e-07,1.1217506075528841e-06,6.246879472396495e-07,1.3962786582946475e-05
8.048998945133921e-07,1.1215116046216929e-06,6.273181447079476e-07,1.3878952701110611e-05
7.886765452299411e-07,1.1211504549539594e-06,6.296595402490612e-07,1.3814644447198644e-05
7.729579344670715e-07,1.1206781799646658e-06,6.316890150087979e-07,1.3769482353459805e-05
7.577759264797994e-07,1.120097928112278e-06,6.333856532029732e-07,1.3743066844307664e-05
7.431633663778848e-07,1.1194059922714279e-06,6.347314943222589e-07,1.3734945518177463e-05
7.291566029649693e-07,1.1185939293290597e-06,6.357108772525811e-07,1.3744591665508483e-05
7.157952488781348e-07,1.117651776961091e-06,6.3630916790374e-07,1.377139390408591e-05
7.031190676978602e-07,1.1165697332436889e-06,6.365128658228939e-07,1.381463830382778e-05
6.911631571231867e-07,1.1153365615228426e-06,6.363112385086515e-07,1.3873478827683411e-05
6.799532229925447e-07,1.1139384674692759e-06,6.356975587144779e-07,1.3946915269924113e-05
6.695031609960103e-07,1.1123629219752295e-06,6.346687688083611e-07,1.4033819926877869e-05
6.598158055654806e-07,1.1106065998236846e-06,6.33224096821048e-07,1.4133015530982126e-05
6.508850674866173e-07,1.108679615341282e-06,6.313635265030693e-07,1.424332406952198e-05
6.42696970431649e-07,1.1065988712608387e-06,6.290878524794197e-07,1.436354255424571e-05
6.35230923012932e-07,1.1043759626573497e-06,6.264007880158424e-07,1.4492410066912424e-05
6.284651113246187e-07,1.1020109514853865e-06,6.233112141747821e-07,1.4628629834473765e-05
6.223839983268084e-07,1.0994930528797128e-06,6.198338463705562e-07,1.4770934194152783e-05
6.169805414781693e-07,1.0968030197307977e-06,6.15987227680698e-07,1.4918119849150681e-05
6.12252151015899e-07,1.0939163035480305e-06,6.117906105998246e-07,1.5068998073042652e-05
6.081972139403743e-07,1.0908074004809478e-06,6.07262920231104e-07,1.5222315974181164e-05
6.04815061044789e-07,1.0874524891018249e-06,6.024230677710604e-07,1.5376750202169046e-05
6.021061285167994e-07,1.083828820489619e-06,5.972895593883074e-07,1.553096844755812e-05
6.000702372676864e-07,1.0799147190057483e-06,5.918798153837681e-07,1.5683690852596554e-05
5.987052326105524e-07,1.0756920116221943e-06,5.862098569841396e-07,1.5833759523882273e-05
5.980096873544411e-07,1.0711463219312695e-06,5.802948955641907e-07,1.5980227747306877e-05
5.979870706525316e-07,1.0662640485101644e-06,5.741505881651556e-07,1.612237555290275e-05
5.986448535634233e-07,1.061031764797648e-06,5.67793681065019e-07,1.6259602735909812e-05
5.99989657414911e-07,1.055441581480581e-06,5.612419372087508e-07,1.6391307272181362e-05
6.020242771712391e-07,1.049499564938866e-06,5.545143946209341e-07,1.651684443168963e-05
6.047466271461203e-07,1.0432300921129916e-06,5.476332730101593e-07,1.6635534680720715e-05
6.081471966335795e-07,1.0366708482808216e-06,5.406264887317357e-07,1.6746673162348928e-05
6.122065722304921e-07,1.029863005180913e-06,5.335272142216225e-07,1.6849537171265362e-05
6.168970304889667e-07,1.0228452547697605e-06,5.263714244148825e-07,1.6943413028029567e-05
6.22186651525581e-07,1.0156523114486524e-06,5.191978017306707e-07,1.7027706325844006e-05
6.280427199848928e-07,1.0083142919179078e-06,5.120491749119862e-07,1.7102108857136138e-05
6.344360511107046e-07,1.0008561645793644e-06,5.049721227814099e-07,1.7166641043289067e-05
6.413449882846974e-07,9.932970140564571e-07,4.980148803907107e-07,1.7221512475508922e-05
6.487532392673417e-07,9.856497749316978e-07,4.91224660127605e-07,1.7266951813563438e-05
6.566431205438681e-07,9.779227119189618e-07,4.846449570009364e-07,1.7303125309039692e-05
6.649903468681807e-07,9.70120816210151e-07,4.783148843639961e-07,1.7330185195400517e-05
6.737620274926426e-07,9.622454445417722e-07,4.7227098891101063e-07,1.7348463779706002e-05
6.829171398254488e-07,9.542945144519786e-07,4.6654810445890684e-07,1.7358687230180185e-05
6.924085350599896e-07,9.462645662156716e-07,4.6117794519384213e-07,1.7362003086489937e-05
7.021853973597764e-07,9.381524415226612e-07,4.561884973952986e-07,1.735982034568565e-05
7.121949376183552e-07,9.299557466176319e-07,4.5160492439105215e-07,1.7353637376943398e-05
7.223825313373943e-07,9.216735132277256e-07,4.4744896319571315e-07,1.734494929781392e-05
7.32690854294781e-07,9.133065324662676e-07,4.4373625173712453e-07,1.733519918475773e-05
7.430590112309849e-07,9.048558348121448e-07,4.404746780797208e-07,1.7325713990759478e-05
7.5342255777604e-07,8.963216639597407e-07,4.376662459855586e-07,1.7317610829962525e-05
7.63715954626971e-07,8.877068931911854e-07,4.353112192976918e-07,1.7311712458779863e-05
7.738789496707962e-07,8.79023877285841e-07,4.334100497563203e-07,1.7308516165272966e-05
7.838643814525998e-07,8.70299331044371e-07,4.3196114678062523e-07,1.730821822215162e-05
7.936409330465996e-07,8.61572444256781e-07,4.309588876453539e-07,1.7310770395610182e-05
8.031890728848916e-07,8.528871687134437e-07,4.303959041363665e-07,1.7315946633735452e-05
8.124948887071318e-07,8.442870896100052e-07,4.3026635599521963e-07,1.7323396989843715e-05
8.215459443615473e-07,8.358192348799347e-07,4.3056631121610096e-07,1.7332687819677427e-05
8.30333001122128e-07,8.275418569505006e-07,4.3129334334102965e-07,1.734335134692622e-05
8.388583361386542e-07,8.195283376359727e-07,4.3244638968586424e-07,1.7354942673834446e-05
8.471424853380152e-07,8.118649247166894e-07,4.340233135555912e-07,1.7367077300475393e-05
8.552219808735989e-07,8.046417977648161e-07,4.360166801595461e-07,1.737944679988757e-05
8.631398954306799e-07,7.979412798706627e-07,4.384113479944954e-07,1.739183132606646e-05
8.709357121656761e-07,7.918315373851744e-07,4.4118526113071355e-07,1.7404098563631867e-05
8.786395750899173e-07,7.863674782461739e-07,4.4431132025626575e-07,1.7416165046460915e-05
8.86270409155682e-07,7.815944337212365e-07,4.477584425519355e-07,1.7427943391161882e-05
8.938350282414128e-07,7.77550922813104e-07,4.514923408840728e-07,1.7439316097869847e-05
9.013285180362468e-07,7.742678778283163e-07,4.5547666332076997e-07,1.7450120410707627e-05
9.087359354847765e-07,7.717665983608246e-07,4.5967407975566976e-07,1.7460120403729246e-05
9.160335381980019e-07,7.70059404706333e-07,4.6404703468736106e-07,1.74690077052042e-05
9.231898636509916e-07,7.691505312329535e-07,4.6855819626196106e-07,1.747645309076739e-05
9.301677606126379e-07,7.690343566189669e-07,4.7317041893514177e-07,1.7482153874129418e-05
9.369265646553116e-07,7.696938664909934e-07,4.778467037382332e-07,1.7485848612388686e-05
9.434235644954712e-07,7.711055080870201e-07,4.825508598235399e-07,1.7487321838458136e-05
9.496163105196637e-07,7.732530265585231e-07,4.872483279226718e-07,1.748640091158085e-05
9.554656671703998e-07,7.761426362228493e-07,4.919063946256521e-07,1.7482938518507098e-05
9.609360150344258e-07,7.798090677073756e-07,4.964940489797984e-07,1.7476813203629872e-05
9.65994538696628e-07,7.84308946472853e-07,5.009827340718013e-07,1.7467965445302646e-05
9.706155990814552e-07,7.897053653611005e-07,5.053479487967853e-07,1.7456414400963238e-05
9.747882541028678e-07,7.960567691432473e-07,5.09569627233683e-07,1.7442223000878787e-05
9.785206696546795e-07,8.034219046839127e-07,5.136313476696659e-07,1.7425447845033295e-05
9.818409568688032e-07,8.118754287449542e-07,5.175213102238957e-07,1.7406093153956837e-05
9.847957471227095e-07,8.215199737510525e-07,5.212345150859941e-07,1.7384065169493213e-05
9.874434494008222e-07,8.32484792391416e-07,5.247712660538015e-07,1.7359143656016567e-05
9.898435599450965e-07,8.449085294061515e-07,5.281318840474119e-07,1.7330997880905496e-05
9.92052628851192e-07,8.589139613013769e-07,5.313127316570055e-07,1.7299257761957346e-05
9.94130805966407e-07,8.745882504575313e-07,5.34305400375275e-07,1.726360004197394e-05
9.9614818849453e-07,8.91977142908391e-07,5.370977473309314e-07,1.7223780369166626e-05
9.981808939602106e-07,9.110917354170502e-07,5.3967613110952e-07,1.7179603080541946e-05
1.000299442007575e-06,9.319195559816179e-07,5.420271653273504e-07,1.7130873659572344e-05
1.0025588198913336e-06,9.544326364655062e-07,5.441376109099155e-07,1.7077375972785463e-05
1.0049958964318943e-06,9.785914306836118e-07,5.459948790531226e-07,1.7018930243648122e-05
1.0076324243625318e-06,1.004345610428257e-06,5.475894033241243e-07,1.6955512236135588e-05
1.010478907247903e-06,1.0316311756367885e-06,5.489164126116693e-07,1.6887298118266536e-05
1.0135369206782356e-06,1.0603645024104692e-06,5.499757860062289e-07,1.6814593738087462e-05
1.0168006259392026e-06,1.0904369975108e-06,5.507705117611758e-07,1.6737739201737075e-05
1.0202605349776005e-06,1.1217137668328457e-06,5.513062292915703e-07,1.6657040040467422e-05
1.023909532330871e-06,1.1540361100882202e-06,5.515936890147751e-07,1.6572723267185346e-05
1.0277458666082644e-06,1.1872263148539437e-06,5.516502615102175e-07,1.648491890521975e-05
1.0317708255519935e-06,1.2210945534751189e-06,5.51496889990606e-07,1.639366477885307e-05
1.0359836927574622e-06,1.2554471877014738e-06,5.511530987192704e-07,1.6298924198332622e-05
1.0403775105646042e-06,1.2900939720724312e-06,5.50633937822107e-07,1.6200606333512808e-05
1.0449410627292429e-06,1.3248523403793684e-06,5.499502210616681e-07,1.609858416889886e-05
1.04966716155391e-06,1.3595483926484366e-06,5.491108924608963e-07,1.5992707968742396e-05
1.05455691888809e-06,1.3940135608510506e-06,5.481251936344374e-07,1.5882806815838126e-05
1.059614314064228e-06,1.4280795939782325e-06,5.470036263976401e-07,1.5768672181770245e-05
1.0648377022257429e-06,1.4615799799440763e-06,5.457570186876131e-07,1.5650041085363387e-05
1.070215780657336e-06,1.4943608722516444e-06,5.443941258790653e-07,1.5526601996024617e-05
1.0757282719332064e-06,1.526294361694149e-06,5.429214095341831e-07,1.5398020844362278e-05
1.0813470017615744e-06,1.5572843274292324e-06,5.413455346492423e-07,1.5263968124209522e-05
1.0870360890267384e-06,1.5872617043525576e-06,5.396740087752719e-07,1.5124134051056867e-05
1.0927530115409632e-06,1.6161730699503554e-06,5.37913414108917e-07,1.4978231348954345e-05
1.0984496620228577e-06,1.643968250793472e-06,5.360691920600622e-07,1.4825997711309958e-05
1.1040732233806855e-06,1.6705955842041642e-06,5.341464934903606e-07,1.4667214736474637e-05
1.109568895162853e-06,1.6960116286037208e-06,5.321489354955629e-07,1.4501740743585604e-05
1.114883200646648e-06,1.7201972347855762e-06,5.300769199193719e-07,1.4329535403478669e-05
1.1199658513584207e-06,1.7431636436117569e-06,5.279281797132254e-07,1.4150663370605634e-05
1.1247704597630646e-06,1.7649427411998432e-06,5.25699023836786e-07,1.396528460274447e-05
1.129253637433148e-06,1.7855685856217162e-06,5.233845881386005e-07,1.377365429958283e-05
1.1333728024006521e-06,1.8050613206852528e-06,5.209787383257767e-07,1.357613980356963e-05
1.1370846629702546e-06,1.823420794673584e-06,5.184743767090693e-07,1.3373221116683742e-05
1.1403451248613185e-06,1.8406300788828017e-06,5.158651917032119e-07,1.3165449896141642e-05
1.1431109131989928e-06,1.8566654111434052e-06,5.131498200476341e-07,1.2953388290946592e-05
1.1453424071336898e-06,1.8715087014856312e-06,5.103352845670779e-07,1.2737566705159469e-05
1.1470061752634576e-06,1.885157731634228e-06,5.074350888306938e-07,1.2518503462628932e-05
1.1480765321040399e-06,1.8976300931545287e-06,5.044651000065603e-07,1.2296781500458487e-05
1.1485360617703673e-06,1.9089609116551944e-06,5.014438664974403e-07,1.2073082171917282e-05
1.1483768521093888e-06,1.9191979716642413e-06,4.983952359770356e-07,1.18481195503126e-05
1.1476037615928452e-06,1.9283971313621916e-06,4.9534714796791e-07,1.1622551712123562e-05
1.1462365690524573e-06,1.9366171785103243e-06,4.923286152600621e-07,1.1396945699747642e-05
1.1443083249236879e-06,1.943912841211184e-06,4.893704417721768e-07,1.1171808514625627e-05
1.1418623581428776e-06,1.9503271953544027e-06,4.86506936950863e-07,1.0947665281991916e-05
1.1389499332093954e-06,1.955885716836602e-06,4.83772557326942e-07,1.0725115207243998e-05
1.135625910969888e-06,1.9605942956047697e-06,4.811956220962521e-07,1.0504795394934236e-05
1.131941775375365e-06,1.9644431545204952e-06,4.787950057918074e-07,1.0287296152997733e-05
1.1279412324389895e-06,1.967415985474674e-06,4.7658104208196877e-07,1.0073132407709332e-05
1.1236613849225383e-06,1.969500508477484e-06,4.745588451856473e-07,9.862789904490422e-06
1.1191357862913923e-06,1.9706966178158947e-06,4.7273144013094204e-07,9.6568010225169e-06
1.1143963409676156e-06,1.971019880631598e-06,4.7110055027211025e-07,9.455822239182179e-06
1.1094749827204572e-06,1.970499397395485e-06,4.6966660544440014e-07,9.260667418268687e-06
1.1044055120328008e-06,1.969170886092186e-06,4.684302321162552e-07,9.072242285422487e-06
1.099226611947538e-06,1.9670677026989086e-06,4.673944849989813e-07,8.891410426725482e-06
1.093987475810063e-06,1.96421370481133e-06,4.66567032663615e-07,8.718887481286128e-06
1.088753449147847e-06,1.96062207869922e-06,4.6596053036481936e-07,8.55520865351644e-06
1.0836089540944469e-06,1.956300793110404e-06,4.655884196524492e-07,8.400743634576147e-06
1.078657216494847e-06,1.9512592818415906e-06,4.6545970512985754e-07,8.255730323834978e-06
1.074014338389454e-06,1.945510661105057e-06,4.6558029427279816e-07,8.120316977779755e-06
1.0697961656773143e-06,1.939069585553121e-06,4.6595967222724237e-07,7.994636291744098e-06
1.0661038533103338e-06,1.931947918710111e-06,4.66613623244067e-07,7.878926111123712e-06
1.063018298736672e-06,1.9241504996558083e-06,4.675599598006514e-07,7.773590171912393e-06
1.0606056648305243e-06,1.9156757061062856e-06,4.6881241020188324e-07,7.679100840425917e-06
1.058924370495141e-06,1.906522258477929e-06,4.703770293579921e-07,7.595842314005912e-06
1.0580259164756216e-06,1.8966981535192047e-06,4.7225140531988604e-07,7.524028576054242e-06
1.0579520319299554e-06,1.8862288812524646e-06,4.7442562904795246e-07,7.4637377339151714e-06
1.0587310005866969e-06,1.8751607299463882e-06,4.768851253549842e-07,7.415092587558125e-06
1.0603730227532313e-06,1.863552951338044e-06,4.796135813732895e-07,7.378507833901779e-06
1.0628669833198951e-06,1.851464872691721e-06,4.825933499522927e-07,7.354779858317136e-06
1.0661814908276313e-06,1.838953263251772e-06,4.858054165391991e-07,7.344943055779202e-06
1.070270087519976e-06,1.8260805279494887e-06,4.892311683853465e-07,7.350049578414833e-06
1.0750772132947742e-06,1.8129184267805245e-06,4.928534099671597e-07,7.371006244736984e-06
1.080540085001601e-06,1.7995398258642589e-06,4.966550683586739e-07,7.408476193356265e-06
1.0865870167636705e-06,1.7860080622986314e-06,5.006175766911187e-07,7.462818347778142e-06
1.0931382564844893e-06,1.7723751724421985e-06,5.047203779646308e-07,7.5340565857087785e-06
1.1001110717524948e-06,1.7586865529330611e-06,5.089418544856009e-07,7.6218878371108585e-06
1.1074242768682231e-06,1.7449819147170808e-06,5.13260853113426e-07,7.725730094333875e-06
1.1149998273891528e-06,1.7312911381532898e-06,5.176569623016725e-07,7.844779421582801e-06
1.1227644061129568e-06,1.7176315643311272e-06,5.221093538417508e-07,7.978041334407269e-06
1.1306512315354102e-06,1.7040096528379049e-06,5.265950003711019e-07,8.124345656087996e-06
1.1385981902493078e-06,1.6904270944248963e-06,5.310872999869263e-07,8.282375826780592e-06
1.1465430603609327e-06,1.676892063365099e-06,5.35556203116079e-07,8.450721129421941e-06
1.1544209668484102e-06,1.6634328088493278e-06,5.399694364619921e-07,8.627950534274611e-06
1.1621657963470494e-06,1.6501073712941157e-06,5.442942808480656e-07,8.812704066339961e-06
1.1697131856847453e-06,1.6370041386154094e-06,5.484997223185891e-07,9.003766616137199e-06
1.1770013360886495e-06,1.6242308902854184e-06,5.525587060787797e-07,9.20008275547719e-06
1.1839687987670956e-06,1.6118968100663632e-06,5.564492610363514e-07,9.40072944393994e-06
1.1905541753850957e-06,1.6000973531666944e-06,5.601527685459164e-07,9.604890433560124e-06
1.1967015230512358e-06,1.5889090234453961e-06,5.636517525888014e-07,9.81182706853513e-06
1.2023684697973775e-06,1.5783947099097847e-06,5.669304925972756e-07,1.0020827280526912e-05
1.2075329600590892e-06,1.5686106836491625e-06,5.699776043729412e-07,1.0231152638884397e-05
1.2121961368367074e-06,1.559603522816899e-06,5.727882361913292e-07,1.0442003040717368e-05
1.2163779232107344e-06,1.5513994400519688e-06,5.75363208193086e-07,1.0652512018592288e-05
1.220105799774685e-06,1.5439984026138868e-06,5.777055591134499e-07,1.0861796892957336e-05
1.223406001629667e-06,1.5373778418844922e-06,5.798192573941761e-07,1.106903239576664e-05
1.2263059386202119e-06,1.5315017323442482e-06,5.817100105041225e-07,1.1273468536241047e-05
1.2288433919855317e-06,1.5263294127600472e-06,5.833837992102665e-07,1.1474398520000073e-05
1.2310700515722422e-06,1.521821209858164e-06,5.848441632145778e-07,1.1671148941508699e-05
1.233046294066907e-06,1.517940208590625e-06,5.860911894437299e-07,1.1863102132564106e-05
1.2348343209026714e-06,1.5146493471095864e-06,5.871210715285768e-07,1.2049700561191887e-05
1.2364936783005649e-06,1.5119049177009624e-06,5.879255371639479e-07,1.2230405927955872e-05
1.2380773799137057e-06,1.5096520991378297e-06,5.884924461609542e-07,1.2404655369761967e-05
1.2396266044080921e-06,1.50782597915035e-06,5.888073204177e-07,1.2571869540344071e-05
1.2411652813095474e-06,1.5063547079940654e-06,5.888547179368082e-07,1.273149661867018e-05
1.2426989504617253e-06,1.5051625983792758e-06,5.886195196791614e-07,1.2883044721754247e-05
1.2442187883956921e-06,1.5041732427161681e-06,5.880885210632351e-07,1.302610688980502e-05
1.2457059682492835e-06,1.5033100020089541e-06,5.87252699769041e-07,1.3160416593027686e-05
1.2471342263974217e-06,1.5024969111154556e-06,5.86109693021314e-07,1.3285899514346166e-05
1.2484730490619968e-06,1.5016670765516278e-06,5.846640206960264e-07,1.3402636629306473e-05
1.2496899492647754e-06,1.5007722064653068e-06,5.829239492759476e-07,1.3510748990216505e-05
1.2507488537849717e-06,1.499781139335008e-06,5.8089805000518e-07,1.3610292489496946e-05
1.2516086735484068e-06,1.4986711875573768e-06,5.785942413141928e-07,1.3701215397204186e-05
1.2522276223201605e-06,1.4974223387601303e-06,5.760197735652749e-07,1.3783376175101716e-05
1.2525693764949717e-06,1.496014674341976e-06,5.73180809527681e-07,1.3856580043931988e-05
1.2526027180443494e-06,1.49443129208615e-06,5.700834480194798e-07,1.392060356909668e-05
1.252296770640407e-06,1.4926709960277917e-06,5.667359706163888e-07,1.3975257400928243e-05
1.2516201736943504e-06,1.490761880980744e-06,5.631492636839709e-07,1.4020537144434927e-05
1.250544519032969e-06,1.4887645452254739e-06,5.593352703749993e-07,1.4056744114385625e-05
1.2490460333012511e-06,1.4867653797797525e-06,5.553065878139785e-07,1.4084415808096414e-05
1.2471037150831809e-06,1.4848647224583167e-06,5.510781151663972e-07,1.4104132003731058e-05
1.2447002286887717e-06,1.4831622484543556e-06,5.466680636644685e-07,1.4116382843448385e-05
1.241829467392724e-06,1.4817430580083018e-06,5.420970220429275e-07,1.4121586579542166e-05
1.2385035711660322e-06,1.4806703571761568e-06,5.373871997516335e-07,1.4120273262879574e-05
1.2347520334008742e-06,1.4799846316744274e-06,5.325630697411565e-07,1.4113354918534107e-05
1.2306152084465295e-06,1.4797030454450209e-06,5.276517127740414e-07,1.410226293342781e-05
1.2261371097212069e-06,1.4798204410032206e-06,5.226817780085683e-07,1.4088833672446853e-05
1.2213590647226091e-06,1.4803201597422889e-06,5.176823236692564e-07,1.4075074495608633e-05
1.2163158963128105e-06,1.481192312457376e-06,5.126830645662585e-07,1.4062971023350448e-05
1.2110372512749986e-06,1.4824441289417073e-06,5.077152996865506e-07,1.4054359017096095e-05
1.2055528696257036e-06,1.4840955596107334e-06,5.0281121186688e-07,1.4050831294812937e-05
1.1998961363530924e-06,1.4861705508105203e-06,4.980018563010571e-07,1.4053676707841344e-05
1.194102923182978e-06,1.4886910983278891e-06,4.933153188466771e-07,1.4063859419378454e-05
1.1882081839535535e-06,1.491671621149676e-06,4.88774456253056e-07,1.4082036615524911e-05
1.1822423330098942e-06,1.4951158650949102e-06,4.843951600622698e-07,1.4108594178725666e-05
1.1762276690623577e-06,1.499017917098116e-06,4.801872185384458e-07,1.414366405338381e-05
1.1701761535710834e-06,1.503363446703066e-06,4.761569332946984e-07,1.4187120474947414e-05
1.1640903043753993e-06,1.5081362230594738e-06,4.7230927670840223e-07,1.4238602407791913e-05
1.1579676144021075e-06,1.5133355161834344e-06,4.6864823073983965e-07,1.4297583500676322e-05
1.1518046053802551e-06,1.5189928021414601e-06,4.651752858830757e-07,1.4363457633151171e-05
1.1455959142153178e-06,1.5251715942491864e-06,4.618878354179757e-07,1.44356135013387e-05
1.1393322350187503e-06,1.531949547667328e-06,4.587794397927847e-07,1.4513487509499508e-05
1.1330037273107102e-06,1.539401641559153e-06,4.558420477012904e-07,1.4596580853456397e-05
1.1266050313576231e-06,1.5476040016402246e-06,4.530684757551968e-07,1.4684449977651205e-05
1.120134185182141e-06,1.556652014816594e-06,4.504540967607748e-07,1.4776703554605786e-05
1.1135881248996349e-06,1.5666677204591151e-06,4.4799862087051536e-07,1.4873012846438953e-05
1.1069614097562635e-06,1.577783246438522e-06,4.457074483931965e-07,1.4973109525571743e-05
1.10024797544243e-06,1.5901117300696052e-06,4.4358957464847774e-07,1.507675855439782e-05
1.0934434750551675e-06,1.603729411305736e-06,4.4165270647653725e-07,1.518371753100621e-05
1.0865469521942606e-06,1.6186794155561644e-06,4.399004838697631e-07,1.529368864124345e-05
1.0795601656409526e-06,1.6349838508215083e-06,4.383329695492415e-07,1.5406276389628084e-05
1.0724854567191162e-06,1.652646422175657e-06,4.3694738657527677e-07,1.5520981756931963e-05
1.0653241499010015e-06,1.6716454403274416e-06,4.3573796217667273e-07,1.5637225962490238e-05
1.0580745820845828e-06,1.6919319243988414e-06,4.346959641497984e-07,1.5754365016603845e-05
1.0507296362452938e-06,1.7134419654441757e-06,4.3381022466022566e-07,1.5871696201055774e-05
1.043275771688035e-06,1.736116119925827e-06,4.330678565275771e-07,1.5988480575250415e-05
1.035694067222368e-06,1.7599097995079383e-06,4.324558440040203e-07,1.6103968152292525e-05
1.0279627661324645e-06,1.7847851048225808e-06,4.3196336111449156e-07,1.6217394461984274e-05
1.020061299376662e-06,1.8106950429160129e-06,4.3158223708849363e-07,1.632796202554775e-05
1.0119750317226743e-06,1.837579007656504e-06,4.3130475167493727e-07,1.643484865098856e-05
1.0036975704753694e-06,1.8653693958043808e-06,4.311217411336425e-07,1.6537248321183763e-05
9.952284714696892e-07,1.8939957229159718e-06,4.310228261330471e-07,1.6634419167570666e-05
9.86570707089781e-07,1.923378625275921e-06,4.3099785218170654e-07,1.672572691476078e-05
9.777314296483018e-07,1.9534184974567844e-06,4.310380544573946e-07,1.681070016734151e-05
9.687213243903e-07,1.983990970526804e-06,4.311356978626377e-07,1.6889083765212272e-05
9.595506618569686e-07,2.014951442937304e-06,4.312829524110847e-07,1.6960823493062908e-05
9.502274403405468e-07,2.046139110825803e-06,4.3147137576733646e-07,1.702596716925311e-05
9.407587187325714e-07,2.0773792735247847e-06,4.316913204707633e-07,1.70845581187876e-05
9.311513911654379e-07,2.1084890079751618e-06,4.3193127308264076e-07,1.7136590103365152e-05
9.214123141404287e-07,2.139281782595514e-06,4.3217847519631865e-07,1.7182012955902728e-05
9.115496215951557e-07,2.169567080384333e-06,4.3242029091285926e-07,1.7220742298465416e-05
9.015744849687011e-07,2.199151540858952e-06,4.326452354704047e-07,1.72526573000823e-05
8.915023648585728e-07,2.227843984050761e-06,4.3284352155194426e-07,1.7277617611310402e-05
8.813536586650558e-07,2.2554576382804773e-06,4.330066882913626e-07,1.7295569755319346e-05
8.711528053922461e-07,2.281808665860891e-06,4.3312751093733596e-07,1.7306701215984963e-05
8.60925918196633e-07,2.3067189262655547e-06,4.3320160391381713e-07,1.731145536057299e-05
8.506987103940657e-07,2.3300258212176893e-06,4.332285004828369e-07,1.7310372247985202e-05
8.404947493329945e-07,2.3515916863689512e-06,4.332101513692217e-07,1.73039181215396e-05
8.303336152439382e-07,2.3713047405180952e-06,4.331480884027874e-07,1.7292434328425306e-05
8.202315198988149e-07,2.3890716659502568e-06,4.3304154799771213e-07,1.7276264809095986e-05
8.102043875011709e-07,2.4048112101593566e-06,4.328877687164686e-07,1.725601894187129e-05
8.002683714186572e-07,2.418458740242386e-06,4.326833039434897e-07,1.7232766404791542e-05
7.904372960476695e-07,2.429978766813316e-06,4.3242440775921363e-07,1.72080047258254e-05
7.807212935331153e-07,2.4393723041701742e-06,4.3210643159202615e-07,1.7183472414986214e-05
7.711272943542273e-07,2.4466713673167656e-06,4.3172305223873206e-07,1.7160950911302833e-05
7.616599682338198e-07,2.451924738772543e-06,4.312656102934736e-07,1.7142104277065498e-05
7.523229233594254e-07,2.455185176210297e-06,4.3072298800773756e-07,1.7128365602051426e-05
7.43120889787962e-07,2.4565055556386663e-06,4.300823970489589e-07,1.7120873562638298e-05
7.34063365347569e-07,2.455941415349208e-06,4.29330728924585e-07,1.7120439998000225e-05
7.251674916311149e-07,2.4535504328290503e-06,4.284557911366937e-07,1.712753638611516e-05
7.16457693805166e-07,2.4493868860807344e-06,4.2744694160015005e-07,1.7142303538505982e-05
7.079633645559783e-07,2.4434983220170966e-06,4.262953404331448e-07,1.7164573009465178e-05
6.997179575052316e-07,2.435926541603233e-06,4.2499428481889724e-07,1.719388815105813e-05
6.917599153493221e-07,2.426709005006788e-06,4.235388648353961e-07,1.7229537431744778e-05
6.841312648176886e-07,2.4158797303070918e-06,4.2192483161385866e-07,1.7270610753541778e-05
6.768725176944786e-07,2.4034704468278075e-06,4.201491123665699e-07,1.731607931887735e-05
6.700193034744115e-07,2.3895144502291443e-06,4.182117808120909e-07,1.736489714799101e-05
6.636029250469771e-07,2.3740548885149263e-06,4.161160354516735e-07,1.7416100923336834e-05
6.576511060844162e-07,2.35715242350445e-06,4.138670810724875e-07,1.7468864913863457e-05
6.52188828024166e-07,2.3388872050701443e-06,4.114728533341122e-07,1.752250115448289e-05
6.472405297178142e-07,2.3193542067102345e-06,4.0894431656496266e-07,1.7576448471586974e-05
6.428301920207467e-07,2.2986529789816138e-06,4.0629344035700586e-07,1.7630274126310344e-05
6.389776142424199e-07,2.2768765603786833e-06,4.0353195338787524e-07,1.768365960645817e-05
6.356944388099234e-07,2.254104996713486e-06,4.0067146135829727e-07,1.7736359179726195e-05
6.32982272141996e-07,2.2304053723673847e-06,3.977230047354211e-07,1.778815597854287e-05
6.308320546903749e-07,2.205836684353433e-06,3.9469764892970977e-07,1.783882145806026e-05
6.292242793481349e-07,2.180455184039125e-06,3.9160823977081117e-07,1.7888078998946303e-05
6.281299626325612e-07,2.154317906862835e-06,3.884690773684879e-07,1.7935603510499872e-05
6.275117109039058e-07,2.127487926424185e-06,3.8529357198613637e-07,1.7981052851710956e-05
6.2732588653853e-07,2.100041853048696e-06,3.8209262916941306e-07,1.802407586631592e-05
6.275271131611827e-07,2.072072853096662e-06,3.788749173923764e-07,1.806428854626937e-05
6.28072764911145e-07,2.043687055081646e-06,3.75648236985542e-07,1.810126566412565e-05
6.289237822017752e-07,2.014999776274149e-06,3.724203586912572e-07,1.8134569826355094e-05
6.300417806983657e-07,1.986135692279159e-06,3.691987354906934e-07,1.8163773583283245e-05
6.313864789528738e-07,1.957228311023843e-06,3.6599007703515856e-07,1.818842598165836e-05
6.329185102155325e-07,1.9284125779651286e-06,3.628008027581404e-07,1.820800333027906e-05
6.346082071221709e-07,1.8998140673804646e-06,3.596377358373624e-07,1.8221936020662936e-05
6.364437626327047e-07,1.8715478027428741e-06,3.565076502407876e-07,1.8229738877872126e-05
6.384314908975444e-07,1.843731331433863e-06,3.5341648999824577e-07,1.8231153596512423e-05
6.405874581184913e-07,1.8164980880998954e-06,3.503698159009955e-07,1.8226175193405574e-05
6.42926942878511e-07,1.7899966099136115e-06,3.473734300171025e-07,1.821495442763933e-05
6.454610505457216e-07,1.764376248511908e-06,3.444326710114856e-07,1.8197673252877092e-05
6.482025689665229e-07,1.739773256192197e-06,3.41551103038447e-07,1.8174459573115216e-05
6.511716419872425e-07,1.7163101025219538e-06,3.3872981962624586e-07,1.8145370011024102e-05
6.543938091373721e-07,1.6941011849036997e-06,3.359673832955753e-07,1.8110441483955287e-05
6.578940526598292e-07,1.6732501650892653e-06,3.332599870449648e-07,1.806974924086743e-05
6.61691388900354e-07,1.6538409476946904e-06,3.3060230307918376e-07,1.802341734027283e-05
6.65794172117608e-07,1.6359331931886875e-06,3.279901723595344e-07,1.7971588274338274e-05
6.70197298401025e-07,1.619564821167725e-06,3.2542378300707524e-07,1.7914396150229474e-05
6.748824159434614e-07,1.6047557492185078e-06,3.229074064884479e-07,1.7852029417440954e-05
6.798199343386558e-07,1.5915086036608588e-06,3.204460441506444e-07,1.7784877012951002e-05
6.849717205803471e-07,1.5798082397342702e-06,3.180437202165432e-07,1.7713580468973365e-05
6.902940527557401e-07,1.5696215789633142e-06,3.157040828859693e-07,1.763891416073451e-05
6.95741287218086e-07,1.5608988457678518e-06,3.134305253254371e-07,1.7561665134987473e-05
7.012698170191876e-07,1.5535789012602708e-06,3.112262632162109e-07,1.7482688364664565e-05
7.068393366216296e-07,1.5475957558908266e-06,3.090957723372429e-07,1.7403063972187288e-05
7.124118923309871e-07,1.5428807451508854e-06,3.070454347305521e-07,1.732414065971763e-05
7.179538928914709e-07,1.539364778713611e-06,3.0508224347837987e-07,1.7247425985917364e-05
7.234418707129487e-07,1.536993490181434e-06,3.032141933022937e-07,1.7174446025023893e-05
7.288667570091441e-07,1.5357559133513874e-06,3.014541944142567e-07,1.7106632636392815e-05
7.342330476638819e-07,1.535704737670794e-06,2.9982293344786173e-07,1.7045231522826152e-05
7.395530334613628e-07,1.5369473973605014e-06,2.9834628919156466e-07,1.6991228816288203e-05
7.448377785678043e-07,1.53961402924261e-06,2.970500630000792e-07,1.694530109165054e-05
7.500891575077236e-07,1.543825786589521e-06,2.959575265075753e-07,1.6907808262033467e-05
7.552971610616175e-07,1.5496774126851903e-06,2.9508997951143077e-07,1.6878836804177587e-05
