3.014617568550497e-07,3.505221102227079e-07,2.465280284429177e-07,1.9516017649398667e-05
3.021172228430702e-07,3.518222705501553e-07,2.4306038877408254e-07,1.9498638176785e-05
3.0282123041173395e-07,3.5333450400157493e-07,2.396186085878716e-07,1.9471516311624653e-05
3.0356852347614014e-07,3.5506891685567544e-07,2.3621223225428609e-07,1.9434812112750475e-05
3.043524639885501e-07,3.5703559035387524e-07,2.3285000591118226e-07,1.93889123996161e-05
3.051656720901764e-07,3.5924212136283064e-07,2.295398501869093e-07,1.9334308028409032e-05
3.060024071684001e-07,3.616917558196802e-07,2.2628949645577522e-07,1.927146250973097e-05
3.068605901751768e-07,3.643821668975014e-07,2.2310706462353077e-07,1.9200766286973568e-05
3.0774154195983466e-07,3.6730448525427117e-07,2.2000092876724548e-07,1.912255305748548e-05
3.086482279325388e-07,3.7044336956834886e-07,2.1697929795337443e-07,1.903711137402021e-05
3.095831277485081e-07,3.737793880186409e-07,2.140493175304925e-07,1.8944670634502426e-05
3.1054624618221624e-07,3.7729206223020797e-07,2.1121612599444962e-07,1.8845393548632183e-05
3.1153404514653696e-07,3.8096027607623173e-07,2.0848345047176878e-07,1.8739450450715768e-05
3.125395585248589e-07,3.847605276362361e-07,2.058557920780961e-07,1.8627176365488572e-05
3.135531007479903e-07,3.886658222156485e-07,2.0333996559720148e-07,1.850914905382332e-05
3.145628734276269e-07,3.9264578893436594e-07,2.0094400518399588e-07,1.8386080408973645e-05
3.155552761211296e-07,3.966676639610946e-07,1.9867470190377372e-07,1.825863309917189e-05
3.165155157648028e-07,4.0069744304691464e-07,1.965362482069672e-07,1.8127326673298947e-05
3.174292037237474e-07,4.0470008516640757e-07,1.9453079395140009e-07,1.79926145064545e-05
3.182843630758704e-07,4.086394329456921e-07,1.926604394189916e-07,1.7855118747845715e-05
3.1907225948381945e-07,4.1247948150510075e-07,1.9092864435807215e-07,1.771585799212367e-05
3.1978640400102487e-07,4.1618704738389847e-07,1.893397293338044e-07,1.757626640529597e-05
3.204211239795348e-07,4.197334976331711e-07,1.8789757770791187e-07,1.743802015253107e-05
3.20970944798108e-07,4.2309361546402503e-07,1.8660441259303625e-07,1.7302838910390646e-05
3.2143009803066447e-07,4.262435647347289e-07,1.854600025138765e-07,1.7172351694507573e-05
3.2179197381441173e-07,4.291603248744837e-07,1.8446175394325468e-07,1.7048017175348644e-05
3.220491713798831e-07,4.3182184307023446e-07,1.8360551933681284e-07,1.6931064709413572e-05
3.2219359494876125e-07,4.342069403811949e-07,1.8288641923557662e-07,1.6822445693855485e-05
3.222164103279386e-07,4.3629547028936397e-07,1.822988800519684e-07,1.6722814717721896e-05
3.221088584987439e-07,4.380691810161825e-07,1.8183598486610523e-07,1.663254016939922e-05
3.218632549866435e-07,4.3951238851764325e-07,1.814893520706431e-07,1.6551717061963024e-05
3.2147258444278106e-07,4.4061177985038203e-07,1.8125014387374302e-07,1.6480188916300617e-05
3.2092943159624576e-07,4.4135739132398406e-07,1.811100851270193e-07,1.6417607187392307e-05
3.202261217060371e-07,4.417457184813081e-07,1.810617468360084e-07,1.636351772366475e-05
3.1935678393714905e-07,4.4178162100584297e-07,1.810986294565877e-07,1.6317451487676966e-05
3.183200769274911e-07,4.414776978977027e-07,1.8121470828698688e-07,1.627901596233019e-05
3.171201823846878e-07,4.408537912973835e-07,1.81403467053757e-07,1.6247972253403666e-05
3.157659195969757e-07,4.399363864728098e-07,1.8165821572722489e-07,1.6224262902517027e-05
3.14270027886062e-07,4.387559523713385e-07,1.819740742404828e-07,1.620797624153983e-05
3.126486211904141e-07,4.373439562351614e-07,1.823494144706683e-07,1.619927768078472e-05
3.109194369215585e-07,4.3573150882171345e-07,1.827850815278645e-07,1.619834365977497e-05
3.091002264635228e-07,4.339488132127245e-07,1.8328261559726587e-07,1.620530368891648e-05
3.072085910053612e-07,4.320246761005042e-07,1.8384353861320946e-07,1.6220186664261085e-05
3.0526154443398406e-07,4.299863155307822e-07,1.8446960021998887e-07,1.6242877624957002e-05
3.032746267193748e-07,4.278592918548532e-07,1.8516283536575998e-07,1.627308557824838e-05
3.0126245487394535e-07,4.256676508055454e-07,1.859252646915232e-07,1.631033278347832e-05
2.9923988245584785e-07,4.234345657242419e-07,1.8675926104386453e-07,1.635400824679952e-05
2.9722139034550624e-07,4.21181936299794e-07,1.8766883492373558e-07,1.6403474025488636e-05
2.9521925385954776e-07,4.1892845343835385e-07,1.8865942939560853e-07,1.6458127098897166e-05
2.9324323007968173e-07,4.166890616175666e-07,1.8973544577225328e-07,1.6517387013832238e-05
2.9130198223541514e-07,4.144766334170819e-07,1.908985435497543e-07,1.6580685716378587e-05
2.894034720441133e-07,4.123030814973489e-07,1.9214832392488469e-07,1.6647497639438106e-05
2.8755362480295205e-07,4.1017917620825614e-07,1.9348428002754305e-07,1.6717354518664e-05
2.85755313842234e-07,4.081143590103189e-07,1.9490681250170203e-07,1.678978900960925e-05
2.8400843117525576e-07,4.061162989121999e-07,1.964157327891789e-07,1.6864239709970403e-05
2.823106138786652e-07,4.0419038323479254e-07,1.9800799945084504e-07,1.694000219168124e-05
2.806586260090529e-07,4.023407087046425e-07,1.996770287333414e-07,1.7016266203324406e-05
2.790498899974369e-07,4.005721556666345e-07,2.0141336016285922e-07,1.709220804799548e-05
2.7748333286241584e-07,3.988910684895101e-07,2.032056549229236e-07,1.716709780531937e-05
2.7595925794929327e-07,3.973035922190672e-07,2.050413096367442e-07,1.7240400907349433e-05
2.744782569629373e-07,3.958140982698711e-07,2.0690702928958914e-07,1.7311817909455974e-05
2.7303992709271396e-07,3.944255227554574e-07,2.0879063848853506e-07,1.738120996710431e-05
2.7164234260504515e-07,3.931397654776284e-07,2.1068280219416746e-07,1.7448459536601805e-05
2.7028226771635045e-07,3.9195696322775977e-07,2.1257643080984133e-07,1.7513367045862687e-05
2.689555944954994e-07,3.908748457313783e-07,2.1446567154023934e-07,1.7575627662174487e-05
2.676574600663024e-07,3.898888562469077e-07,2.1634636860838672e-07,1.763485855627488e-05
2.6638286285095845e-07,3.8899310552654255e-07,2.182160987532271e-07,1.7690623088857394e-05
2.65129015331042e-07,3.8818178393889116e-07,2.2007288237703272e-07,1.774244041324229e-05
2.638976317979762e-07,3.874500344286784e-07,2.2191411561716986e-07,1.7789843877105373e-05
2.626951343739033e-07,3.867940460088418e-07,2.2373622226177463e-07,1.7832514588532818e-05
2.615317192219145e-07,3.862103031706554e-07,2.2553439596847573e-07,1.7870357874450967e-05
2.60420138373592e-07,3.856945435786419e-07,2.2730236824475736e-07,1.790340857658983e-05
2.593737443614461e-07,3.8524262448000094e-07,2.2903246594583024e-07,1.7931661445094712e-05
2.584042710878428e-07,3.8485269344090927e-07,2.3071632714477702e-07,1.7954982165636548e-05
2.575209971610941e-07,3.845254127031626e-07,2.323465771858108e-07,1.7973163299899152e-05
2.5673098491066536e-07,3.842624069620128e-07,2.339187387717492e-07,1.7986131566475166e-05
2.560387708518742e-07,3.840646097788476e-07,2.3543181718345922e-07,1.7994201332093755e-05
2.5544614057158165e-07,3.839304110430083e-07,2.3688729108595023e-07,1.799816366193932e-05
2.549524318672209e-07,3.838544971319206e-07,2.3828805849786415e-07,1.7999150076848316e-05
2.545546347080186e-07,3.838287195248005e-07,2.396379688077557e-07,1.799842149033067e-05
2.54248003547446e-07,3.838437840061429e-07,2.409413133519751e-07,1.7997206927414874e-05
2.540273406818192e-07,3.838902347288107e-07,2.42202535125288e-07,1.7996598215847066e-05
2.538881271628662e-07,3.839596975970501e-07,2.434262299308341e-07,1.7997471235165134e-05
2.5382767346478913e-07,3.840468806041751e-07,2.4461649600586017e-07,1.8000425733398785e-05
2.538457854045956e-07,3.8414967763334665e-07,2.457760835225709e-07,1.800575809566476e-05
2.539441466698768e-07,3.8426624664399727e-07,2.469066355013323e-07,1.801347238844668e-05
2.541257653153029e-07,3.843926786593552e-07,2.48009500571718e-07,1.8023316527041265e-05
2.5439542086155936e-07,3.8452364532187463e-07,2.490863836851449e-07,1.8034837830964702e-05
2.54759646445242e-07,3.8465337737114465e-07,2.501396585234953e-07,1.8047453864356266e-05
2.552258495414567e-07,3.8477473818003257e-07,2.5117208564898906e-07,1.8060514942370764e-05
2.558019575985831e-07,3.848780092243475e-07,2.521870330238356e-07,1.807334776402504e-05
2.564964702569093e-07,3.84951282979356e-07,2.531893305571951e-07,1.8085299713017056e-05
2.573175023707205e-07,3.849824080651956e-07,2.54184706418493e-07,1.809579061849673e-05
2.582711161937177e-07,3.849609533653274e-07,2.5517789382633625e-07,1.810434511784129e-05
2.593604357045497e-07,3.848787176527518e-07,2.561716289652676e-07,1.8110580148305072e-05
2.605857172497324e-07,3.847296875732986e-07,2.571675417018898e-07,1.811416490629105e-05
2.619449658439381e-07,3.8451105031222576e-07,2.581685543616602e-07,1.8114795884020024e-05
2.6343444129017484e-07,3.842240906822126e-07,2.591805430422599e-07,1.8112195062144258e-05
2.650481982284531e-07,3.838727637384756e-07,2.602109119210773e-07,1.8106102096758608e-05
2.667776082341918e-07,3.834609019642596e-07,2.6126599789035285e-07,1.8096244578043667e-05
2.686121189448568e-07,3.8299064333846396e-07,2.6235017782263715e-07,1.8082304493740908e-05
2.705409488762778e-07,3.824623157780365e-07,2.6346565922637865e-07,1.8063928685270225e-05
2.7255458942599893e-07,3.818752766699397e-07,2.646118269104685e-07,1.8040806807303533e-05
2.7464467665939387e-07,3.812300025763639e-07,2.657851262265193e-07,1.8012747309149868e-05
2.768027923005185e-07,3.805296728099528e-07,2.6697964628799767e-07,1.7979667984894525e-05
2.790202370292656e-07,3.797790036007328e-07,2.681878450680033e-07,1.794151859673627e-05
2.8128854783856566e-07,3.789824630856597e-07,2.6940120876614644e-07,1.789821093073183e-05
2.835995664574134e-07,3.7814456810342846e-07,2.706106171257145e-07,1.7849600995697393e-05
2.859453303786082e-07,3.772703924816875e-07,2.718065032108838e-07,1.779550542561085e-05
2.883185790112866e-07,3.763648654618592e-07,2.729794856164333e-07,1.7735713527294807e-05
2.9071334495250247e-07,3.7543236486895116e-07,2.7412203268393816e-07,1.767002070499981e-05
2.931241005639331e-07,3.7447707751303366e-07,2.752297750594658e-07,1.7598326415693255e-05
2.9554487116318645e-07,3.7350368096456386e-07,2.7630071731289504e-07,1.7520742843086958e-05
2.9797077820086325e-07,3.7251746876837967e-07,2.7733390958241377e-07,1.7437623051264907e-05
3.003993665124506e-07,3.715228647597053e-07,2.7832947426735825e-07,1.734949940041972e-05
3.0282861550373073e-07,3.70521717819216e-07,2.792896105609652e-07,1.7256977687132064e-05
3.052545381292932e-07,3.695133295675548e-07,2.802203247734064e-07,1.7160624294027523e-05
3.0767154867238905e-07,3.684953274119524e-07,2.8113268709068105e-07,1.7060883164100692e-05
3.10074003540781e-07,3.6746394269084657e-07,2.820415730815145e-07,1.6958061884572048e-05
3.1245685633451746e-07,3.6641425699225504e-07,2.829626503304753e-07,1.6852402322820187e-05
3.148151805518209e-07,3.653417791633521e-07,2.839097763458412e-07,1.6744187082060114e-05
3.171428009166896e-07,3.642446038159199e-07,2.8489349354593573e-07,1.6633793442998432e-05
3.194310862375776e-07,3.631233195001457e-07,2.859206543911964e-07,1.6521671658822767e-05
3.2166878626853473e-07,3.6197927322905314e-07,2.869950584149833e-07,1.6408291070956877e-05
3.238429610545391e-07,3.608143345022285e-07,2.8811831836792676e-07,1.629412245677135e-05
3.2594121288331234e-07,3.596310582193734e-07,2.8929034197133496e-07,1.6179725136140006e-05
3.2795518486514175e-07,3.584311489993111e-07,2.90510295442814e-07,1.6065848770459596e-05
3.2988383387575734e-07,3.572140360806883e-07,2.917794085090172e-07,1.5953386812673497e-05
3.317337119509914e-07,3.559774385960906e-07,2.931042309148808e-07,1.5843269488081787e-05
3.3351596914845637e-07,3.5471889116325066e-07,2.944965755993214e-07,1.5736437103434837e-05
3.3524357522339284e-07,3.534362426161657e-07,2.9596970598105416e-07,1.5633811586034354e-05
3.369298654402175e-07,3.521270814551547e-07,2.975346210636026e-07,1.5536218121061982e-05
3.38586412947497e-07,3.507886118675486e-07,2.991988124881917e-07,1.5444329328986177e-05
3.4022112716229217e-07,3.494179633230979e-07,3.0096698118346356e-07,1.5358639642725618e-05
3.4183818796545327e-07,3.4801212820521824e-07,3.028424308208692e-07,1.527944018403949e-05
3.434387033171132e-07,3.4656820618229977e-07,3.0482745767468704e-07,1.5206801071008948e-05
3.4502147388277467e-07,3.4508463194771963e-07,3.0692279005793404e-07,1.51405741367444e-05
3.465837663081802e-07,3.43562444843895e-07,3.0912743500479736e-07,1.508041005489661e-05
3.481214148065969e-07,3.420053847731321e-07,3.114386515235842e-07,1.5025779555227082e-05
3.496294688831287e-07,3.4041922437900173e-07,3.138518020661139e-07,1.4976000138432816e-05
3.511045698606762e-07,3.3881114735032566e-07,3.1636027917799e-07,1.493027619085962e-05
3.5254665504866337e-07,3.371887217388311e-07,3.189549002085849e-07,1.488776253186286e-05
3.539576255429833e-07,3.355584683954052e-07,3.216232887807448e-07,1.4847636136628427e-05
3.553386447997621e-07,3.339253774168312e-07,3.2435042618364376e-07,1.4809123657613373e-05
3.566887799967024e-07,3.322937103767111e-07,3.271197902380185e-07,1.4771477050581372e-05
3.580047069652351e-07,3.306675426974166e-07,3.299139973923809e-07,1.473395274537031e-05
3.5928012247401853e-07,3.290504050049543e-07,3.3271513935089867e-07,1.4695810316534811e-05
3.6050542172304824e-07,3.274451904399233e-07,3.3550508129178857e-07,1.4656308213273475e-05
3.6166815142575274e-07,3.258544982246278e-07,3.38265190894987e-07,1.4614709166642627e-05
3.6275354444847396e-07,3.242809447434719e-07,3.409758354503243e-07,1.457031357062025e-05
3.6374509810353645e-07,3.227280737899684e-07,3.436168546838659e-07,1.4522501085222251e-05
3.646256055514507e-07,3.212012932536523e-07,3.4616833793925227e-07,1.4470757523222415e-05
3.653783161632879e-07,3.1970702333409626e-07,3.486104421178421e-07,1.4414688714233616e-05
3.659877301746279e-07,3.182504188001729e-07,3.5092306804828875e-07,1.4354017221813804e-05
3.664400297391687e-07,3.168338412997086e-07,3.5308614564134025e-07,1.428854339016072e-05
3.6672326110789655e-07,3.154573708292972e-07,3.550801468941306e-07,1.4218083371586665e-05
3.6682769040881e-07,3.141211552302637e-07,3.568866271887452e-07,1.4142434422701035e-05
3.667468124213721e-07,3.128273792131626e-07,3.584885907630746e-07,1.4061406264841543e-05
3.664779499476147e-07,3.1157929689161486e-07,3.598706197672885e-07,1.3974911579408286e-05
3.660216560490262e-07,3.103786688425398e-07,3.610191968283362e-07,1.3883045109822535e-05
3.653811714264087e-07,3.0922475573081733e-07,3.6192358258609547e-07,1.3786067163372711e-05
3.645619742272611e-07,3.081150988742534e-07,3.6257703720750106e-07,1.368431386944798e-05
3.635703212582161e-07,3.0704684102529845e-07,3.629772106149829e-07,1.3578126736834653e-05
3.6241183379261754e-07,3.060177865758485e-07,3.6312519296454895e-07,1.3467823465259985e-05
3.6109174801134564e-07,3.05026999092266e-07,3.6302489874110773e-07,1.335369787166707e-05
3.596159514744421e-07,3.0407545924887056e-07,3.6268320720852633e-07,1.3236045219967309e-05
3.5799121627982433e-07,3.0316618337876693e-07,3.6210939671123354e-07,1.3115162138912408e-05
3.562252172840004e-07,3.023034819957481e-07,3.6131434508502727e-07,1.299130013112503e-05
3.54326492710426e-07,3.014933011618821e-07,3.603102356518775e-07,1.2864638372725182e-05
3.523032232256557e-07,3.0074438303894837e-07,3.5910999352921535e-07,1.2735314485025258e-05
3.50161978140478e-07,3.000675035854105e-07,3.57726651427447e-07,1.2603497535382915e-05
3.4790780541157524e-07,2.994736914719532e-07,3.561734447808509e-07,1.2469497174633313e-05
3.455447134362149e-07,2.989744561667484e-07,3.54464240834451e-07,1.2333865232746761e-05
3.430764762354342e-07,2.98583054049226e-07,3.526136429939271e-07,1.2197395143842125e-05
3.4050848452944734e-07,2.9831359785382986e-07,3.506369241886744e-07,1.2060999710304526e-05
3.3784900245403645e-07,2.981782006227511e-07,3.485499494843301e-07,1.1925554493724772e-05
3.351087959950395e-07,2.9818500273306236e-07,3.463688241086565e-07,1.1791797714850328e-05
3.323005670585956e-07,2.983384455612138e-07,3.4410947273658696e-07,1.1660303591395035e-05
3.294381332849712e-07,2.986411458606005e-07,3.417876027362893e-07,1.1531485513770298e-05
3.26534667844638e-07,2.9909576193071297e-07,3.394184243729472e-07,1.140561429201049e-05
3.2360125061435034e-07,2.9970588001612297e-07,3.370157316332708e-07,1.1282904925386162e-05
3.206469819820561e-07,3.004765185573057e-07,3.345915158986928e-07,1.1163693440634364e-05
3.176806710577971e-07,3.0141384163006467e-07,3.321562195055858e-07,1.1048577064320897e-05
3.1471288351922735e-07,3.02522818995143e-07,3.297185833991762e-07,1.0938365280056104e-05
3.1175622773597603e-07,3.038044766805866e-07,3.272856820363193e-07,1.083389425126208e-05
3.088233030394569e-07,3.052551537159108e-07,3.2486456948863194e-07,1.0735878805507816e-05
3.0592472285768926e-07,3.068674138801279e-07,3.22465032460323e-07,1.0644880128596897e-05
3.03069114219583e-07,3.0863199405399185e-07,3.201008512207654e-07,1.0561393365980097e-05
3.0026395004237785e-07,3.105399166644012e-07,3.177887322795189e-07,1.0486037065198112e-05
2.9751582319799646e-07,3.1258243058412545e-07,3.155469270402357e-07,1.0419712961681993e-05
2.948307358298608e-07,3.147487718022668e-07,3.1339433430852336e-07,1.0363584635736943e-05
2.922154156130283e-07,3.170246048386024e-07,3.113493388980321e-07,1.0318929048827997e-05
2.8967840840601003e-07,3.193931031826217e-07,3.0942813172152737e-07,1.0287011991328073e-05
2.872289452929813e-07,3.218376707526818e-07,3.076430640268245e-07,1.026902167559738e-05
2.848745993664953e-07,3.243431445722205e-07,3.060027459538832e-07,1.0266022363779334e-05
2.826199738376877e-07,3.2689456220543944e-07,3.0451416110427587e-07,1.0278908921895875e-05
2.8046701572775344e-07,3.294760569671537e-07,3.031843390726067e-07,1.030837094210925e-05
2.7841634093636484e-07,3.320710891931895e-07,3.020203586894223e-07,1.0354883962842997e-05
2.7646867559820087e-07,3.346632937038842e-07,3.010285822236763e-07,1.0418726496133687e-05
2.746260088158422e-07,3.3723773522131236e-07,3.00213412180098e-07,1.0499996337295804e-05
2.7289182377860745e-07,3.397817775244136e-07,2.9957602847129414e-07,1.0598594558011766e-05
2.712696474484436e-07,3.422845508175774e-07,2.991147353066062e-07,1.0714174670326218e-05
2.697610795678502e-07,3.447357428891172e-07,2.988265193015024e-07,1.0846095189658636e-05
2.683652471854452e-07,3.471246879975481e-07,2.987075262388753e-07,1.0993417874965113e-05
2.6708004566847373e-07,3.494397914774671e-07,2.98752326369097e-07,1.115496462044035e-05
2.6590378109067876e-07,3.5166892874464514e-07,2.989535163123553e-07,1.1329413341772027e-05
2.648351064418698e-07,3.538006933273374e-07,2.993022671678352e-07,1.1515391564280658e-05
2.638714489507012e-07,3.558243433146153e-07,2.997890937363691e-07,1.171154338591284e-05
2.630088141948561e-07,3.577281191928175e-07,3.0040377337312716e-07,1.1916580847539826e-05
2.6224375824523893e-07,3.594985392274243e-07,3.011345520081851e-07,1.2129322964180404e-05
2.61574707406803e-07,3.6112184525459843e-07,3.0196799659943233e-07,1.2348701957095806e-05
2.610007074119647e-07,3.6258587305759896e-07,3.0289007013383e-07,1.2573735383667336e-05
2.6051946713526325e-07,3.638809696762271e-07,3.038868066420023e-07,1.2803486594617975e-05
2.601268986741468e-07,3.649999043915143e-07,3.0494345881963146e-07,1.3037015786170015e-05
2.5981741794089945e-07,3.659368658316875e-07,3.060436509647409e-07,1.3273315063755912e-05
2.5958446827191426e-07,3.666867543736268e-07,3.071695275768562e-07,1.3511257722339875e-05
2.5942220743064943e-07,3.6724558478461385e-07,3.083023581338705e-07,1.37495886756655e-05
2.5932740847811627e-07,3.67610506460885e-07,3.094235651547797e-07,1.3986942494293549e-05
2.5929986438467174e-07,3.677789075638122e-07,3.1051592570359394e-07,1.4221873796238638e-05
2.5934103229435785e-07,3.677476536165168e-07,3.115641059379464e-07,1.4452888716587795e-05
2.5945173884152984e-07,3.675126678886882e-07,3.125549675540764e-07,1.4678469877503486e-05
2.596312218162597e-07,3.670688734010972e-07,3.1347814769863444e-07,1.4897105059309534e-05
2.5987851140292666e-07,3.6641086361244274e-07,3.1432576251712734e-07,1.5107328828865478e-05
2.6019336155446297e-07,3.6553414953699843e-07,3.150917264077223e-07,1.530776769224301e-05
2.6057476832307594e-07,3.644361075224531e-07,3.157721283194286e-07,1.549717578642884e-05
2.6101927330045254e-07,3.631165458273676e-07,3.163650817262709e-07,1.5674469679871136e-05
2.615213599603744e-07,3.615786159630195e-07,3.1686938809419235e-07,1.5838779562706783e-05
2.620751862178142e-07,3.598297276123785e-07,3.1728407150050604e-07,1.59895086881981e-05
2.626753808257801e-07,3.578822678949193e-07,3.176087708282216e-07,1.61263386571401e-05
2.633162450929621e-07,3.5575439369474e-07,3.178444541852217e-07,1.6249128795252786e-05
2.6399093578789017e-07,3.534698645662496e-07,3.179947442882919e-07,1.635779319024394e-05
2.646919144794926e-07,3.5105571303671457e-07,3.180660696866409e-07,1.6452278182556188e-05
2.65412643183428e-07,3.4853857293686707e-07,3.1806618988862505e-07,1.653261295351283e-05
2.661494547886993e-07,3.459424657578666e-07,3.180030175564249e-07,1.6598938675688308e-05
2.669020882909733e-07,3.432895154292006e-07,3.1788361212958626e-07,1.665150778136683e-05
2.676722271638849e-07,3.406010495353324e-07,3.177128940036813e-07,1.6690668417712192e-05
2.6846104234131963e-07,3.378966858310388e-07,3.174934983755187e-07,1.6716837717549193e-05
2.6926779036132986e-07,3.351930151316628e-07,3.172269397459106e-07,1.6730534740845192e-05
2.700902778555578e-07,3.325036009933476e-07,3.169142471077771e-07,1.6732483232767954e-05
2.709262605765568e-07,3.2983971430155767e-07,3.165553376535181e-07,1.6723626123140753e-05
2.7177399105771627e-07,3.272112284013281e-07,3.161482257488589e-07,1.6704984879720724e-05
2.726314502195939e-07,3.246273560973398e-07,3.156889436956992e-07,1.6677498445043798e-05
2.7349628096191085e-07,3.2209673567688787e-07,3.151722628037664e-07,1.664195930302833e-05
2.7436647670285647e-07,3.196271377473017e-07,3.1459303710583467e-07,1.6599102276698115e-05
2.75240017274065e-07,3.172252853279426e-07,3.139478450487957e-07,1.654984403188213e-05
2.761140004554384e-07,3.148969460544631e-07,3.1323597144259617e-07,1.6495490463757627e-05
2.7698423895083647e-07,3.126472832751622e-07,3.1245851113162466e-07,1.6437707254978038e-05
2.7784553193216373e-07,3.10481099035577e-07,3.1161662959083426e-07,1.6378307451061248e-05
2.786927947552268e-07,3.084026143790677e-07,3.107114086546856e-07,1.631904529539576e-05
2.795220359948769e-07,3.0641452568053693e-07,3.0974468075377076e-07,1.6261489930978513e-05
2.8032998430780147e-07,3.045168111421106e-07,3.08718583230885e-07,1.62069577741527e-05
2.811127193018098e-07,3.02706470087749e-07,3.076344874373231e-07,1.615649149949104e-05
2.818647870614648e-07,3.009786112088507e-07,3.064931571629227e-07,1.6110878702543785e-05
2.825801098660336e-07,2.9932819860208346e-07,3.0529581942320147e-07,1.6070685704915114e-05
2.832546355286984e-07,2.977510466137529e-07,3.040448425692266e-07,1.6036288693264116e-05
2.838890027247852e-07,2.962433284079812e-07,3.027432825983575e-07,1.600789006275046e-05
2.8448904373238354e-07,2.948007582280306e-07,3.01393599918867e-07,1.5985504971605895e-05
2.850635039902857e-07,2.934189664163508e-07,2.999969518631486e-07,1.5968935875575475e-05
2.8562073809869905e-07,2.920944770008129e-07,2.985539673799618e-07,1.5957776680668517e-05
2.8616683040534054e-07,2.908242167101613e-07,2.970660354886944e-07,1.5951458523873865e-05
2.86706214691013e-07,2.89603752163994e-07,2.95535679703558e-07,1.594932370211224e-05
2.872434586791145e-07,2.884268833360163e-07,2.9396658780378666e-07,1.5950719375166788e-05
2.8778318277407175e-07,2.872873509862418e-07,2.923641200636517e-07,1.595509073162381e-05
2.883277028168473e-07,2.861806348942598e-07,2.9073528453602576e-07,1.596203747033934e-05
2.8887560729490736e-07,2.851041664071188e-07,2.890879580920323e-07,1.5971326763012407e-05
2.8942260596862705e-07,2.840566846423391e-07,2.874302084980635e-07,1.5982878819920018e-05
2.89962585652461e-07,2.830381828945952e-07,2.857697306570184e-07,1.5996725763456414e-05
2.9048764726627136e-07,2.8204971229862684e-07,2.8411332982931426e-07,1.6012951384599873e-05
2.909883337628056e-07,2.810921569479508e-07,2.824668199516083e-07,1.603163463016517e-05
2.914548059860398e-07,2.801659131091925e-07,2.808352721389628e-07,1.6052796051930586e-05
2.9187818049680283e-07,2.792727393850837e-07,2.7922291039807145e-07,1.6076342495659312e-05
2.9225199537022976e-07,2.784174190242392e-07,2.7763269177943914e-07,1.6102043227746116e-05
2.9257357149542763e-07,2.776071894502081e-07,2.7606642880379247e-07,1.6129542317899756e-05
2.928434268425521e-07,2.768501218738396e-07,2.7452546980471395e-07,1.6158358632404786e-05
2.9306313166422765e-07,2.7615407437247327e-07,2.730114035094558e-07,1.6187873954394672e-05
2.932343350428527e-07,2.755261381405129e-07,2.715269727761816e-07,1.6217351219402215e-05
2.9335898450773203e-07,2.749722268474431e-07,2.700771446073158e-07,1.6245982085258553e-05
2.934391907078238e-07,2.7449711047624467e-07,2.686691949231209e-07,1.6272927211217554e-05
2.9347704143203923e-07,2.741049915192027e-07,2.673122614800937e-07,1.6297322810756255e-05
2.934744194279002e-07,2.738006233953107e-07,2.660177744054261e-07,1.6318267584745315e-05
2.934323321636723e-07,2.735912160305089e-07,2.6479912036534656e-07,1.6334824948152093e-05
2.933506632597025e-07,2.7348756619783556e-07,2.636692423322709e-07,1.6346051463408515e-05
2.932286880328549e-07,2.735018271795728e-07,2.6263836549306225e-07,1.635104409092423e-05
2.930653573831257e-07,2.7364339336851246e-07,2.617131610253028e-07,1.6349014347039882e-05
2.928592108160066e-07,2.739166883712016e-07,2.608964525660542e-07,1.633937349597279e-05
2.9260843843265873e-07,2.7432111308235076e-07,2.601873211482445e-07,1.6321749082696867e-05
2.923106805804161e-07,2.748514158025208e-07,2.5958222214324604e-07,1.6295905615185082e-05
2.9196227428731735e-07,2.754984671266983e-07,2.5907617836367944e-07,1.6261669916969407e-05
2.9155831422697505e-07,2.7625152226817695e-07,2.586627068163947e-07,1.6218939236796698e-05
2.910942987641786e-07,2.7710100270361253e-07,2.5833339508443546e-07,1.6167728779675835e-05
2.905671156027576e-07,2.780391655660605e-07,2.5807845911018217e-07,1.6108200189558926e-05
2.899738950733088e-07,2.790591512494646e-07,2.578877927942801e-07,1.6040658324118074e-05
2.8931110429146697e-07,2.80154306720084e-07,2.577514493657361e-07,1.5965522914202733e-05
2.885751378123232e-07,2.813171361231003e-07,2.576593997386525e-07,1.5883332426070188e-05
2.877629857329897e-07,2.8253777557967305e-07,2.5760172910524697e-07,1.579481317668602e-05
2.8687308015069947e-07,2.8380342447104685e-07,2.575703478731785e-07,1.5700900827050282e-05
2.859062923851264e-07,2.8509922279044666e-07,2.575609877993261e-07,1.5602625302753686e-05
2.848654629977093e-07,2.86409646911282e-07,2.575735872013978e-07,1.5500948078815762e-05
2.8375429179064087e-07,2.877194871407515e-07,2.5761101499891465e-07,1.539666732122159e-05
2.825774953326739e-07,2.8901458909156584e-07,2.5767695010318816e-07,1.5290454180738833e-05
2.813411266215389e-07,2.902823114116545e-07,2.5777394900205865e-07,1.5183038138138078e-05
2.800515118326893e-07,2.915114034552901e-07,2.579028291761776e-07,1.5075400541966748e-05
2.787136566152588e-07,2.9269170417859695e-07,2.5806326514750947e-07,1.4968782898841125e-05
2.7733066572170906e-07,2.938144523548676e-07,2.582541946456166e-07,1.4864538347683825e-05
2.759045897559108e-07,2.948735313151223e-07,2.584733803216965e-07,1.476398296075165e-05
2.744375654210564e-07,2.9586612158916523e-07,2.58717076835877e-07,1.466830102906888e-05
2.729318163064823e-07,2.9679136879492013e-07,2.5898028231622786e-07,1.4578482192028632e-05
2.71389353849283e-07,2.97648249889396e-07,2.592569559288065e-07,1.4495272374968472e-05
2.6981320756618683e-07,2.984347432653732e-07,2.5954053010021016e-07,1.4419144325885914e-05
2.6820864808284264e-07,2.991488103376913e-07,2.5982529826410234e-07,1.4350304841095087e-05
2.665820113809557e-07,2.997894594349452e-07,2.601071069325672e-07,1.4288726910686752e-05
2.6493905690580137e-07,3.0035624280062565e-07,2.603821394728149e-07,1.423417836819715e-05
2.632854660670102e-07,3.008479905435994e-07,2.606453729713921e-07,1.4186247290851236e-05
2.616285103346972e-07,3.012629514826845e-07,2.608903154412542e-07,1.4144384877999161e-05
2.599776199118978e-07,3.0160022520621464e-07,2.61110039039469e-07,1.4107970721421552e-05
2.5834359916946805e-07,3.018598114644403e-07,2.6129856523897555e-07,1.4076387207858518e-05
2.5673814728420894e-07,3.0204153777929714e-07,2.614518387736589e-07,1.4049089510941969e-05
2.55173666791704e-07,3.0214583888122055e-07,2.615682622348707e-07,1.4025653527295462e-05
2.53661806663271e-07,3.021753519276028e-07,2.616485103264071e-07,1.4005778150792871e-05
2.522113577194966e-07,3.021344119365181e-07,2.6169463437365735e-07,1.398924909482999e-05
2.50827761210367e-07,3.020272756334586e-07,2.617090546332487e-07,1.3975901870865194e-05
2.495145777578929e-07,3.018568975289597e-07,2.616938401753803e-07,1.3965599246173929e-05
2.482748021201776e-07,3.0162458197513765e-07,2.616508507452151e-07,1.3958210952354666e-05
2.4711094278007285e-07,3.013305485129765e-07,2.6158236141816945e-07,1.3953584515485547e-05
2.4602476662723087e-07,3.0097508268805216e-07,2.6149078731350515e-07,1.3951505952297193e-05
2.4501690433188604e-07,3.0055974597343976e-07,2.613780116392889e-07,1.3951666054132913e-05
2.4408612763346004e-07,3.00087993782382e-07,2.612457245475069e-07,1.3953677331135361e-05
2.432292883338664e-07,2.9956439089044805e-07,2.6109633844443674e-07,1.3957166960441427e-05
2.4244241707532026e-07,2.989929287661408e-07,2.609332646752717e-07,1.3961870893510848e-05
2.417214503962453e-07,2.983759511508335e-07,2.607603475545125e-07,1.396763529368796e-05
2.410615959868777e-07,2.97714183166639e-07,2.605812652231069e-07,1.3974352966338016e-05
2.4045655687604734e-07,2.970073037124836e-07,2.6039951754675693e-07,1.3981926474917188e-05
2.398986802019236e-07,2.9625507013341234e-07,2.6021852863981496e-07,1.3990289325013205e-05
2.3938031788521037e-07,2.954598423810739e-07,2.600409428525461e-07,1.3999430780574933e-05
2.3889576885149533e-07,2.946291412974996e-07,2.5986740428414696e-07,1.4009350499127161e-05
2.3844201488846976e-07,2.937747061189037e-07,2.59696401581779e-07,1.4019961578416119e-05
2.3801778553954378e-07,2.9290892944876533e-07,2.5952549057476405e-07,1.4031036459440994e-05
2.3762210638424548e-07,2.92043399744454e-07,2.593522095018197e-07,1.4042230678514844e-05
2.3725352789292301e-07,2.911894676966601e-07,2.59173956579219e-07,1.405314691446922e-05
2.3691056872745552e-07,2.903579110501713e-07,2.5898772351344016e-07,1.4063421245818073e-05
2.365926932756908e-07,2.8955943498055193e-07,2.587900887124857e-07,1.4072817538769919e-05
2.363006843148221e-07,2.888078800021993e-07,2.5857707939595426e-07,1.4081263354736747e-05
2.360359995558793e-07,2.881220341707908e-07,2.5834439169281283e-07,1.4088782702889707e-05
2.358002959312296e-07,2.87522704581572e-07,2.580894831471377e-07,1.4095376742309192e-05
2.3559611828381424e-07,2.870287855381002e-07,2.578140942327937e-07,1.410094173397912e-05
2.3542697401703573e-07,2.866560643026881e-07,2.575238129568843e-07,1.4105254292538369e-05
2.3529594203132182e-07,2.864176636007577e-07,2.572254838070786e-07,1.4107982185639044e-05
2.352050916394359e-07,2.8632471762614713e-07,2.569254489648956e-07,1.4108690279774866e-05
2.351559893068016e-07,2.863864069651322e-07,2.5662952694292413e-07,1.4106880785590655e-05
2.351495318672716e-07,2.866090880478814e-07,2.5634463921475697e-07,1.4102141749521383e-05
2.351857643765873e-07,2.869965522096584e-07,2.560815574982776e-07,1.4094372634853546e-05
2.3526463987461424e-07,2.8755243849666466e-07,2.558566903118777e-07,1.4083891538298347e-05
2.3538651300266513e-07,2.8828245678777484e-07,2.5569084949765144e-07,1.4071312695117942e-05
2.3555177829417177e-07,2.8919419980212733e-07,2.556063075512361e-07,1.4057336795818649e-05
2.3576029937859788e-07,2.902956583913429e-07,2.556247518802579e-07,1.4042613025358974e-05
2.3601122387068647e-07,2.915948208422077e-07,2.557661224465396e-07,1.4027703325531078e-05
2.363036255899796e-07,2.9310019363810826e-07,2.5604744625506525e-07,1.4013182681053515e-05
2.366370772831725e-07,2.948200417280273e-07,2.5648210118191216e-07,1.3999831742923124e-05
2.370111329380537e-07,2.967596588812233e-07,2.570802204450397e-07,1.3988719214566877e-05
2.374248970219396e-07,2.9891887288885215e-07,2.578492853455983e-07,1.3981095547923144e-05
2.3787764339726066e-07,3.012921229962201e-07,2.5879366239847193e-07,1.3978232683108426e-05
2.3836955233923987e-07,3.038696586372545e-07,2.599140774652219e-07,1.3981314062359729e-05
2.389020933744173e-07,3.066378106308195e-07,2.612082485046325e-07,1.3991374810120715e-05
2.394790634443781e-07,3.0958010919709374e-07,2.6267268483101704e-07,1.4009271042687522e-05
2.401082395197027e-07,3.126793488686962e-07,2.643044601846667e-07,1.4035666115922573e-05
2.408011577332466e-07,3.159177177697533e-07,2.661010993440516e-07,1.4071026195741519e-05
2.4157014972533715e-07,3.1927560950878267e-07,2.680595666628823e-07,1.4115624781180476e-05
2.424251205070702e-07,3.227317336950941e-07,2.701767918325309e-07,1.4169552184407339e-05
2.4337207097084606e-07,3.262646562536554e-07,2.724503669530688e-07,1.4232708303110932e-05
2.4441363020056447e-07,3.298542961525185e-07,2.7487700100753564e-07,1.4304770170263157e-05
2.455505655430638e-07,3.334824356678909e-07,2.774501038205257e-07,1.4385167011661706e-05
2.4678244040233366e-07,3.3713291139963854e-07,2.801591065738552e-07,1.44731051838232e-05
2.481076815831544e-07,3.4079209309051213e-07,2.829906278086596e-07,1.4567650959940555e-05
2.495250563886971e-07,3.4444840177015016e-07,2.859295407803959e-07,1.466783905127471e-05
2.51035677497702e-07,3.480904204049098e-07,2.88958955794282e-07,1.4772758134020904e-05
2.526436279735406e-07,3.517052857258904e-07,2.920600748591597e-07,1.4881586057409955e-05
2.543556975376295e-07,3.552780843256649e-07,2.952124022874944e-07,1.4993589973922506e-05
2.561797942898572e-07,3.5879189552813673e-07,2.9839411034649004e-07,1.5108114387162951e-05
2.581220259825132e-07,3.622286362094437e-07,3.0158298605500114e-07,1.5224558600369387e-05
2.601850851440792e-07,3.655700948099322e-07,3.047575773970973e-07,1.5342342817346667e-05
2.6236907733888986e-07,3.6879836017911745e-07,3.07897006823072e-07,1.5460869154457974e-05
2.646735563987461e-07,3.7189596242174893e-07,3.109796834802842e-07,1.5579484470512106e-05
2.670984411390173e-07,3.7484592972694686e-07,3.1398292033104574e-07,1.5697471257117028e-05
2.6964244394233627e-07,3.7763184660542797e-07,3.1688381077205546e-07,1.581410824163914e-05
2.723010808910738e-07,3.802380241333657e-07,3.196600958962841e-07,1.5928768523672802e-05
2.750665293310145e-07,3.8264956498787865e-07,3.2229022826052927e-07,1.6040954103825994e-05
2.7792876245369293e-07,3.8485232061911275e-07,3.247530442812821e-07,1.6150252436044012e-05
2.80876621929988e-07,3.868327817987576e-07,3.270281563563499e-07,1.6256285959277506e-05
2.838981472817239e-07,3.885781893503408e-07,3.2909675483838356e-07,1.6358684778534243e-05
2.8698013325297184e-07,3.9007675488253865e-07,3.309418346344125e-07,1.6457062798440664e-05
2.9010790441045884e-07,3.913174189275474e-07,3.325484546062945e-07,1.6550984788714997e-05
2.932660737282516e-07,3.9229015493860383e-07,3.339046002704941e-07,1.6639954472445255e-05
2.964395755331781e-07,3.9298733320092346e-07,3.350017010996413e-07,1.672345418382186e-05
2.9961392491657077e-07,3.934045059168332e-07,3.3583386646675354e-07,1.6801010888856044e-05
3.027743080920657e-07,3.935403467054407e-07,3.36396965737776e-07,1.6872250131413432e-05
3.0590420714681423e-07,3.9339651732392343e-07,3.366893191916896e-07,1.6936942136010952e-05
3.08984967195268e-07,3.9297710214915656e-07,3.3671344909747927e-07,1.69950538995913e-05
3.119965100553177e-07,3.9228818438196533e-07,3.364771780118123e-07,1.7046762712975564e-05
3.149183233113531e-07,3.9133816674790455e-07,3.359933006502496e-07,1.709237867844873e-05
3.1773039928594053e-07,3.9013721760438473e-07,3.352785204276248e-07,1.713221401232407e-05
3.204140718374036e-07,3.8869545132721465e-07,3.343520908641545e-07,1.7166479319530686e-05
3.2295244388260604e-07,3.870220417936799e-07,3.3323368097658376e-07,1.719524364626763e-05
3.253303434481106e-07,3.851260447350931e-07,3.319418141664081e-07,1.7218447876283922e-05
3.275338957297204e-07,3.830173577940482e-07,3.3049360644413876e-07,1.7235937910495017e-05
3.2954967566166897e-07,3.8070673179134437e-07,3.289043578676975e-07,1.7247498223533745e-05
3.313641871490087e-07,3.7820528507920816e-07,3.271873142197202e-07,1.7252925972886424e-05
3.329652018943756e-07,3.755240845859737e-07,3.253544578397391e-07,1.725218041489386e-05
3.343443749048504e-07,3.726736598510615e-07,3.234178326871697e-07,1.7245491977203275e-05
3.3549779409871804e-07,3.696635092623561e-07,3.213904714007589e-07,1.7233283606571173e-05
3.364237201196327e-07,3.665021409380711e-07,3.1928590823394126e-07,1.7215976094802404e-05
3.371213534158932e-07,3.631975812170191e-07,3.1711659410336905e-07,1.7193864904850925e-05
3.375924799300016e-07,3.59758081802498e-07,3.148928850822235e-07,1.716715911979502e-05
3.378426799731265e-07,3.5619335701291134e-07,3.126235614138368e-07,1.7136185593160723e-05
3.378795940949504e-07,3.525155243601045e-07,3.1031671312069174e-07,1.7101649300144153e-05
3.377103151234752e-07,3.487386453036977e-07,3.0798021490770805e-07,1.7064735152340338e-05
3.373403488607234e-07,3.4487820159139945e-07,3.0562363794347164e-07,1.702697716100473e-05
3.3677386161187674e-07,3.409513561364419e-07,3.032608964074016e-07,1.6990035670635067e-05
3.360143590698593e-07,3.369764460592719e-07,3.0090992687281193e-07,1.695551179949149e-05
3.350658512947772e-07,3.3297163523252537e-07,2.985900474864344e-07,1.6924817366306483e-05
3.3393424433635225e-07,3.2895449824855907e-07,2.963197011196073e-07,1.689908244725586e-05
3.326274249127292e-07,3.2494254276815026e-07,2.9411436137343604e-07,1.6879095403781838e-05
3.311536812787428e-07,3.209533123404465e-07,2.919852712024837e-07,1.6865281517879953e-05
3.295204935977e-07,3.1700346763410075e-07,2.899403799706212e-07,1.6857722531768717e-05
3.277347505387553e-07,3.131072862225053e-07,2.879857193835352e-07,1.6856205512346875e-05
3.258038756485241e-07,3.09276139751653e-07,2.861254787896923e-07,1.6860280829360676e-05
3.2373653055778186e-07,3.05519515938573e-07,2.843616881499993e-07,1.686932098940941e-05
3.215419879458879e-07,3.0184581530460097e-07,2.826941265831472e-07,1.6882585066497337e-05
3.192303411834e-07,2.982618027038792e-07,2.8112047850962527e-07,1.689928969537912e-05
3.1681441011559967e-07,2.947718902966501e-07,2.7963771146409284e-07,1.6918687329648762e-05
3.143097218944802e-07,2.9137842714678394e-07,2.782441088150949e-07,1.6940150596127688e-05
3.117317467044588e-07,2.880821154874193e-07,2.7693964058919787e-07,1.6963239419788994e-05
3.090945246328002e-07,2.848816376159168e-07,2.757253175710031e-07,1.6987716865108594e-05
3.064126295521801e-07,2.817735847941988e-07,2.746038940166123e-07,1.7013513096586138e-05
3.0370394815801286e-07,2.787533856526964e-07,2.735803421669166e-07,1.7040676419737916e-05
3.0098953083006925e-07,2.758164168313058e-07,2.7265969989944674e-07,1.7069332104481582e-05
2.982901430637333e-07,2.729587952461983e-07,2.7184445473248263e-07,1.7099627064026236e-05
2.9562340365674075e-07,2.7017812003244524e-07,2.7113433770963465e-07,1.713165181032571e-05
2.9300332867513586e-07,2.674744388226859e-07,2.705274467127482e-07,1.716536723724964e-05
2.904406451747825e-07,2.64851092588379e-07,2.700208886462037e-07,1.720058191279076e-05
2.879430191821388e-07,2.62314889419234e-07,2.6961166046125717e-07,1.7237027008443853e-05
2.855151825583611e-07,2.5987514562523603e-07,2.6929764614434605e-07,1.7274497883237118e-05
2.8315913093217376e-07,2.5754147787322244e-07,2.690771584427299e-07,1.7312940759770252e-05
2.808751606391586e-07,2.55321792246971e-07,2.689479085718514e-07,1.735242303040749e-05
2.786635857437476e-07,2.532219905871151e-07,2.689067784108844e-07,1.7393046859498142e-05
2.765253874749473e-07,2.5124650687004065e-07,2.6894979780814316e-07,1.7434885075368582e-05
2.744614831640333e-07,2.4939854770807827e-07,2.690722951273758e-07,1.7477956584963526e-05
2.724722859624137e-07,2.4768051514797784e-07,2.692691197254309e-07,1.7522194944828522e-05
2.705580419622828e-07,2.460942582075269e-07,2.69534273076058e-07,1.7567382445915682e-05
2.687197023658051e-07,2.4464034270638013e-07,2.6986096216311653e-07,1.7613104053022125e-05
2.669600766410605e-07,2.433170608933407e-07,2.702424468411448e-07,1.7658775976893187e-05
2.6528452078197943e-07,2.4211996943936747e-07,2.706723388632037e-07,1.7703733737452815e-05
2.637011401223866e-07,2.4104205934500853e-07,2.7114433447082573e-07,1.7747352965162325e-05
2.622204960597577e-07,2.400746170014313e-07,2.716524737234041e-07,1.778918171416449e-05
2.608541462041134e-07,2.392087155077902e-07,2.721918347141892e-07,1.7829013526597172e-05
2.596123783208352e-07,2.3843671464276884e-07,2.727582730741078e-07,1.7866831326667402e-05
2.585027872356917e-07,2.377525315971332e-07,2.7334688185227646e-07,1.7902656468529035e-05
2.575306968123181e-07,2.3715032278281327e-07,2.739508512644878e-07,1.793641548256803e-05
2.567006060792376e-07,2.366229893836589e-07,2.7456193418443546e-07,1.7967893885668717e-05
2.560170018664261e-07,2.3616215261682863e-07,2.7517167612860463e-07,1.799675165333886e-05
2.5548368359665104e-07,2.3575990211387892e-07,2.757720100423416e-07,1.8022549704158763e-05
2.551023486291252e-07,2.3541068266615647e-07,2.763551533004749e-07,1.8044773680735643e-05
2.548724394882769e-07,2.3511139827729374e-07,2.769135650264289e-07,1.8062893980604487e-05
2.54792887112105e-07,2.3486075006982817e-07,2.774399798259144e-07,1.807651590540448e-05
2.548634752245484e-07,2.3465946015992303e-07,2.7792750633617177e-07,1.8085533028511053e-05
2.550844165369693e-07,2.3450987389835625e-07,2.78370315522572e-07,1.809010594715841e-05
2.554562038863093e-07,2.344141343843213e-07,2.7876432059968216e-07,1.8090489416960427e-05
2.5598126692341126e-07,2.3437317522610317e-07,2.791067056711437e-07,1.808688098428325e-05
2.566651575726949e-07,2.3438739295561128e-07,2.793946138435017e-07,1.8079394992207183e-05
2.575151939034089e-07,2.344575176770004e-07,2.796241284413842e-07,1.806821591939694e-05
2.585379967039578e-07,2.3458477002607532e-07,2.7979016797037425e-07,1.805386321878744e-05
2.597375170926189e-07,2.3477057767716965e-07,2.798870790163354e-07,1.8037332729571922e-05
2.611141540770752e-07,2.3501638065362467e-07,2.7990933447304677e-07,1.801999640315444e-05
2.6266554537099804e-07,2.3532349434025932e-07,2.798519453451172e-07,1.8003381643175992e-05
2.6438802987686163e-07,2.3569287174354315e-07,2.7971067738072117e-07,1.7988970269034643e-05
2.662780580244857e-07,2.361249224348423e-07,2.7948241828203137e-07,1.7978058570298615e-05
2.6833404231318426e-07,2.3661973574751695e-07,2.791654243472694e-07,1.7971676578101058e-05
2.7055715515357857e-07,2.3717792462401422e-07,2.787586556389292e-07,1.797055411244756e-05
2.729500228002823e-07,2.3780073726807761e-07,2.78260583800492e-07,1.797511811931138e-05
2.7551569883363906e-07,2.3848852962347445e-07,2.7766953452550424e-07,1.7985514429768482e-05
2.7825780456915816e-07,2.392393193305448e-07,2.769863677512739e-07,1.8001644376255228e-05
2.811793887916343e-07,2.4004866348422105e-07,2.762172155217711e-07,1.8023190551108773e-05
2.8428060614965725e-07,2.409105626512291e-07,2.753736442795085e-07,1.8049622757098486e-05
2.8755756290276e-07,2.418187323155155e-07,2.744700824453748e-07,1.80802087478142e-05
2.910020159950122e-07,2.4276693866734963e-07,2.735206661003492e-07,1.811404875533746e-05
2.94600867303444e-07,2.437479828075581e-07,2.725375495473094e-07,1.815013703220252e-05
2.9833592905936024e-07,2.447527987142405e-07,2.715307682691677e-07,1.818744535279064e-05
3.0218440882369213e-07,2.457707840247678e-07,2.705085343590009e-07,1.822499926116355e-05
3.0612020506042034e-07,2.4679085948651444e-07,2.694772527278238e-07,1.826191627444754e-05
3.101159649572464e-07,2.478025049527086e-07,2.6844148889982204e-07,1.829741360137504e-05
3.141446981000209e-07,2.48797284273229e-07,2.674042584812932e-07,1.8330810167191417e-05
3.181800633326129e-07,2.497708785794711e-07,2.663675437477211e-07,1.836152827155849e-05
3.221969166954671e-07,2.507233535195392e-07,2.6533250794019524e-07,1.8389086291792084e-05
3.261726251711976e-07,2.516570131046561e-07,2.6429954562742943e-07,1.8413072178558853e-05
3.300870828487753e-07,2.525743769092275e-07,2.6326959413668296e-07,1.8433092854144707e-05
3.339217703504402e-07,2.534773292665464e-07,2.6224622431222177e-07,1.8448722152606872e-05
3.3766031651415355e-07,2.5436635978794853e-07,2.61236101418276e-07,1.845949570249725e-05
3.4128977015038177e-07,2.552397573355968e-07,2.602481644563036e-07,1.846495855300248e-05
3.447999540222342e-07,2.560936969665388e-07,2.592927581074411e-07,1.8464699712931586e-05
3.4818129469135625e-07,2.5692327222076306e-07,2.5837990720007865e-07,1.845833653001732e-05
3.514232679496476e-07,2.577229993466414e-07,2.5751752105168574e-07,1.844548742620835e-05
3.5451465071687045e-07,2.5848618877970984e-07,2.567111878723198e-07,1.8425765149973512e-05
3.574450279299956e-07,2.5920487261691716e-07,2.5596456483630645e-07,1.8398780210372853e-05
3.602051156811229e-07,2.598712004558896e-07,2.5527963254416e-07,1.8364138216288918e-05
3.627855952115057e-07,2.6047880674525127e-07,2.546575443386727e-07,1.832144699841421e-05
3.651772667063004e-07,2.610233886728086e-07,2.540991437017509e-07,1.8270359774270206e-05
3.6737275534169974e-07,2.6150330635411746e-07,2.536042323352885e-07,1.821064832438213e-05
3.693674119061153e-07,2.6192102915076136e-07,2.531711513198607e-07,1.814229483738391e-05
3.7115893861608074e-07,2.6228507961447263e-07,2.527973092893593e-07,1.806557602246557e-05
3.727463972672954e-07,2.626097670333376e-07,2.524792777109984e-07,1.7981073306790047e-05
3.741287210630629e-07,2.6291215465242485e-07,2.5221239431600344e-07,1.7889588999336582e-05
3.753037535412765e-07,2.632094566354839e-07,2.519911614744967e-07,1.7792021168709294e-05
3.7626917591707923e-07,2.6351800727590837e-07,2.5181086484455965e-07,1.7689243989594946e-05
3.770244122990789e-07,2.63852645212232e-07,2.516687354098355e-07,1.7582035421367173e-05
3.775709565640954e-07,2.64225543785993e-07,2.515631620787313e-07,1.7471085200315498e-05
3.7791080804035905e-07,2.646447773050307e-07,2.514923748593746e-07,1.7357046285099593e-05
3.7804537248145927e-07,2.6511400915050484e-07,2.514537985010377e-07,1.724056653784778e-05
3.7797608881786976e-07,2.656331430923822e-07,2.514438093363884e-07,1.712227043815059e-05
3.7770639268705976e-07,2.661992135847141e-07,2.514579428766692e-07,1.7002725967792985e-05
3.772433807124258e-07,2.668082090664367e-07,2.514913395872773e-07,1.6882512727769793e-05
3.7659665074456345e-07,2.674573178114914e-07,2.5153938884982444e-07,1.6762378170183668e-05
3.7577507921604707e-07,2.68145709581744e-07,2.515981612605672e-07,1.6643268687023388e-05
3.747849183441265e-07,2.688737863618893e-07,2.516639485569594e-07,1.6526173332202914e-05
3.7362971087928965e-07,2.6964200577099786e-07,2.517328279529603e-07,1.6411972247257653e-05
3.723106826602721e-07,2.7045029158690673e-07,2.5180087713955304e-07,1.6301469524176197e-05
3.708276685438579e-07,2.712987222142954e-07,2.518642957170599e-07,1.6195581522388965e-05
3.691802389730797e-07,2.721883585219601e-07,2.5191895200523853e-07,1.609546107991424e-05
3.6736779878637315e-07,2.7312097132222645e-07,2.519598366918532e-07,1.6002431379704856e-05
3.653888933949129e-07,2.740983340237546e-07,2.51981316432901e-07,1.5917830697822917e-05
3.6324094751967775e-07,2.751214477430669e-07,2.519777105505009e-07,1.5842886505024867e-05
3.609208451484212e-07,2.761893432777863e-07,2.519431781706174e-07,1.5778648155808048e-05
3.5842576831517494e-07,2.7729828352676137e-07,2.5187140201939784e-07,1.5725958966537234e-05
3.5575362289463345e-07,2.784422742704945e-07,2.517556636011824e-07,1.568542720135835e-05
3.5290302591946353e-07,2.7961383234257414e-07,2.515890434798056e-07,1.565738246423582e-05
3.498731455848862e-07,2.8080413931370787e-07,2.513646128259428e-07,1.5641845587121758e-05
3.466637780868752e-07,2.8200409162735424e-07,2.510754685177482e-07,1.5638543957366887e-05
3.4327571215987905e-07,2.832070439122458e-07,2.507144767982341e-07,1.5646970073554978e-05
3.39710994932269e-07,2.844110359580171e-07,2.5027455328630553e-07,1.5666435807838038e-05
3.3597354389962533e-07,2.856179204240941e-07,2.497502855845532e-07,1.5696081970955946e-05
3.320704085185875e-07,2.868297317741828e-07,2.491400338602116e-07,1.5734871661068674e-05
3.280122091229954e-07,2.880454618878862e-07,2.484463657924905e-07,1.5781629365520552e-05
3.238117187510147e-07,2.892606742422348e-07,2.4767401361639683e-07,1.5835136679366155e-05
3.194818233078584e-07,2.904694542199631e-07,2.4682741350833193e-07,1.589422950993636e-05
3.150344184230626e-07,2.91666573871292e-07,2.4590981521898764e-07,1.5957839300628197e-05
3.104801851267893e-07,2.9284822626382514e-07,2.449238313896707e-07,1.602497974039912e-05
3.058291015244658e-07,2.940111693536057e-07,2.43872968479908e-07,1.609472943914111e-05
3.010923504797093e-07,2.951515912125261e-07,2.427635269954192e-07,1.6166249679007755e-05
2.9628407851468806e-07,2.962654915331183e-07,2.416053422246504e-07,1.623881824045644e-05
2.91420551212357e-07,2.9735017794083746e-07,2.4041084426800997e-07,1.6311831905253493e-05
2.865180487480865e-07,2.984043767543677e-07,2.3919356182723214e-07,1.638477277827931e-05
2.8159237446293416e-07,2.9942714764017946e-07,2.379676373140545e-07,1.6457157197426454e-05
2.766598919541313e-07,3.0041775369149386e-07,2.3674887416438288e-07,1.6528476324572885e-05
2.717382972398943e-07,3.013758863880482e-07,2.355550158776237e-07,1.6598171067860363e-05
2.668465952321548e-07,3.023010629490069e-07,2.344037581738707e-07,1.6665674820054762e-05
2.620044079994482e-07,3.0319178930158283e-07,2.333109183797729e-07,1.6730467456034107e-05
2.5723077596304606e-07,3.0404486178027925e-07,2.3229069899719359e-07,1.679207931184606e-05
2.525440112904784e-07,3.0485480844328263e-07,2.31357005793358e-07,1.685005982653833e-05
2.4796313001197877e-07,3.0561389531621e-07,2.305241621023141e-07,1.690393690926424e-05
2.4350847110092075e-07,3.0631305288620875e-07,2.2980621518877e-07,1.6953192711109245e-05
2.3920056252799746e-07,3.0694347027215535e-07,2.2921504371331548e-07,1.699729319435101e-05
2.3505924375530385e-07,3.074980311788326e-07,2.2875869797781767e-07,1.7035742013502994e-05
2.3110398323806554e-07,3.079715620300537e-07,2.2844160486939999e-07,1.7068086856507033e-05
2.2735397558340612e-07,3.083600188300746e-07,2.2826714755137005e-07,1.7093886721821726e-05
2.238274977665745e-07,3.086599513652092e-07,2.2824125900855998e-07,1.7112724713541912e-05
2.205415716239061e-07,3.088685992965181e-07,2.2837361732772932e-07,1.712430497945213e-05
2.1751123044269037e-07,3.089844484391684e-07,2.2867497714739471e-07,1.7128548336815996e-05
2.1474782483862787e-07,3.090082046547405e-07,2.2915396877703815e-07,1.7125581122527858e-05
2.1225860081733235e-07,3.0894379123500236e-07,2.298160605189138e-07,1.711563915244725e-05
2.1004784865092002e-07,3.087989655716005e-07,2.3066356883942763e-07,1.709897467952037e-05
2.081174657763481e-07,3.0858437745552174e-07,2.31695549686504e-07,1.7075812967963736e-05
2.064677574709424e-07,3.08311156994175e-07,2.329079433630977e-07,1.7046369672142645e-05
2.0510018389859645e-07,3.079891161829496e-07,2.3429547612112645e-07,1.7010897452574415e-05
2.040198667746744e-07,3.0762581693662444e-07,2.3585622778289386e-07,1.696970195554435e-05
2.0323567305178292e-07,3.072261214823811e-07,2.37596033941244e-07,1.692310741003283e-05
2.0275923690610095e-07,3.0679296084111123e-07,2.395281227004603e-07,1.6871436656641206e-05
2.026034312600129e-07,3.06328325275502e-07,2.416674276737184e-07,1.6815104980041598e-05
2.0277937844327406e-07,3.0583293149702556e-07,2.4402475927854164e-07,1.6754774984679375e-05
2.0329394780696851e-07,3.053055339422192e-07,2.466059876919479e-07,1.6691380022739114e-05
2.0414986690893732e-07,3.047432516002467e-07,2.4941525611305017e-07,1.6625971875446343e-05
2.053470644865414e-07,3.041422660958622e-07,2.524581681781249e-07,1.6559544440496042e-05
2.0688290805339772e-07,3.034983150649937e-07,2.5574322643229014e-07,1.6493005548437946e-05
2.087511576651749e-07,3.028077298607748e-07,2.592805207181993e-07,1.6427334812867745e-05
2.1094151268707762e-07,3.020685589827351e-07,2.630779046603422e-07,1.6363744868983434e-05
2.1344063911826719e-07,3.0128077346633585e-07,2.6713881747684307e-07,1.630366457184125e-05
2.1623362548976003e-07,3.004459870414431e-07,2.714629735424392e-07,1.624859489233125e-05
2.1930464641997966e-07,2.995668199957183e-07,2.7604602731006194e-07,1.6199960447609616e-05
2.2263664037661057e-07,2.986457766767612e-07,2.808781593143156e-07,1.6158991365189718e-05
2.2621084657903885e-07,2.976843723334669e-07,2.859446117145792e-07,1.6126631546905315e-05
2.3000667222772108e-07,2.966832415772565e-07,2.912271594211223e-07,1.6103477259467354e-05
2.340019374997262e-07,2.956427575651645e-07,2.96703985189977e-07,1.608975803858707e-05
2.3817314048571138e-07,2.9456297583921616e-07,3.02349132380168e-07,1.6085357391272852e-05
2.424951789932144e-07,2.934433492739344e-07,3.081342555232884e-07,1.6089852652875257e-05
2.469412842344202e-07,2.9228325578060086e-07,3.1403164134032914e-07,1.6102564274492538e-05
2.514841945814689e-07,2.9108267769420137e-07,3.2001532090204074e-07,1.6122609421589187e-05
2.560983159525743e-07,2.898425814879237e-07,3.260602757946093e-07,1.6148952679172755e-05
2.607613198115795e-07,2.885654903277497e-07,3.321412424740373e-07,1.6180463868049475e-05
2.654537942628984e-07,2.8725543315397444e-07,3.3823178606956787e-07,1.6215995308366666e-05
2.701576292157529e-07,2.859164957690437e-07,3.443044889495872e-07,1.6254470178407442e-05
2.74854926048722e-07,2.8455170418705037e-07,3.5033167990726513e-07,1.6294952286690452e-05
2.795284945053834e-07,2.831637097622034e-07,3.5628578132149757e-07,1.6336663821655702e-05
2.8416340501662513e-07,2.817561604020925e-07,3.621398601826193e-07,1.6378954527884188e-05
2.8874752955785486e-07,2.803343202125236e-07,3.6786849918247793e-07,1.6421259994077687e-05
2.9326998448017925e-07,2.7890464809792576e-07,3.7344847993405773e-07,1.6463074600170982e-05
2.977192364850436e-07,2.774734757610095e-07,3.7885858482752773e-07,1.65039375624583e-05
3.0208277705412094e-07,2.7604541626250004e-07,3.840787153175594e-07,1.654341545049618e-05
3.0634790640650817e-07,2.746227391658283e-07,3.8909005936546295e-07,1.658107313006083e-05
3.1050251955932165e-07,2.732061805668161e-07,3.9387652776861255e-07,1.6616443444637508e-05
3.145359257030756e-07,2.717959944110364e-07,3.9842590370588996e-07,1.6649025883850398e-05
3.1843930839936266e-07,2.7039177184703077e-07,4.027296135908435e-07,1.6678357355089922e-05
3.222045952811605e-07,2.689917366569372e-07,4.067812135226029e-07,1.670412425749193e-05
3.25822857200648e-07,2.675936409390445e-07,4.1057502147031177e-07,1.6726199461471346e-05
3.292847857064232e-07,2.661965940055357e-07,4.1410606868208887e-07,1.6744574083682855e-05
3.3258272986736764e-07,2.648010705349059e-07,4.1737059584282274e-07,1.6759275179007314e-05
3.357113112072865e-07,2.634074455684716e-07,4.2036586836161546e-07,1.6770314288744166e-05
3.3866580652435276e-07,2.620156017170207e-07,4.2308985098020796e-07,1.6777647209421234e-05
3.414404915649968e-07,2.606259461729189e-07,4.2554158238417074e-07,1.6781155874590437e-05
3.440283299824842e-07,2.592401118980065e-07,4.277216448417957e-07,1.6780651798227874e-05
3.46421402047059e-07,2.578600792461689e-07,4.2963262312621013e-07,1.677586349500989e-05
3.486114982784204e-07,2.5648658689548476e-07,4.312805297266971e-07,1.6766428750650084e-05
3.5059079242929856e-07,2.551185642268305e-07,4.326763446909195e-07,1.6751964679651962e-05
3.5235240336192424e-07,2.537536821973329e-07,4.338352799917428e-07,1.6732210399377406e-05
3.5389105072484897e-07,2.523894636619864e-07,4.3477376377474717e-07,1.670712976144263e-05
3.5520382605393965e-07,2.510245781768751e-07,4.355062906635993e-07,1.6676885810899374e-05
3.5629014652637594e-07,2.49659149903968e-07,4.3604362661253966e-07,1.6641721555734977e-05
3.571514570201386e-07,2.482940327602023e-07,4.363935236054823e-07,1.6601841978149896e-05
3.5779181136919067e-07,2.469308810740498e-07,4.3656429882046535e-07,1.6557355374834978e-05
3.582178771239555e-07,2.455732696528584e-07,4.365686539203724e-07,1.650827552934436e-05
3.584376006438908e-07,2.44226990876059e-07,4.3642430086954424e-07,1.6454558067065983e-05
3.584588638452845e-07,2.4289885900539325e-07,4.3615112060060823e-07,1.6396139929911222e-05
3.582885324684551e-07,2.415955721070804e-07,4.357673027386077e-07,1.633295312639555e-05
3.579319275983493e-07,2.403233277908729e-07,4.352869022655536e-07,1.626493972153106e-05
3.5739347144493777e-07,2.3908739079228737e-07,4.347193991232085e-07,1.6192156065945107e-05
3.566784713475593e-07,2.378920314161686e-07,4.340702050052868e-07,1.6114928463401653e-05
3.557941178074061e-07,2.3674098026242623e-07,4.3334145477483463e-07,1.6033869745527362e-05
3.547485182693486e-07,2.356374455276257e-07,4.325330393199276e-07,1.5949713339431885e-05
3.5354980635279973e-07,2.3458408304664869e-07,4.3164311471699246e-07,1.5863142952762482e-05
3.522068090888921e-07,2.3358332892031565e-07,4.306679572774248e-07,1.5774784352546906e-05
3.507294293549504e-07,2.3263730009439393e-07,4.296027627907278e-07,1.5685365555341426e-05
3.491275747925149e-07,2.31746999337535e-07,4.284436669839457e-07,1.5595876065548097e-05
3.4741043074497065e-07,2.3091166542862898e-07,4.2718901384014617e-07,1.5507557860404073e-05
3.455874699571881e-07,2.3012964109453246e-07,4.258388375907783e-07,1.5421762439181448e-05
3.4367039999842126e-07,2.2940177846997514e-07,4.243936728004765e-07,1.5339800123573398e-05
3.4167432486891014e-07,2.2873578490402307e-07,4.228539516225745e-07,1.5262840093234968e-05
3.396167600524369e-07,2.281476485667141e-07,4.21220066788988e-07,1.5191862331587534e-05
3.375151186084561e-07,2.276589048734313e-07,4.1949339521861617e-07,1.512763079328734e-05
3.3538482954008925e-07,2.2729219620871119e-07,4.176779700842515e-07,1.5070658249774291e-05
3.3323947627872444e-07,2.2706775231085977e-07,4.1578066156454603e-07,1.5021176118058475e-05
3.310919517399904e-07,2.2700186893547783e-07,4.138095659876466e-07,1.4979137281278229e-05
3.28954357420714e-07,2.2710684959450421e-07,4.1177231051763846e-07,1.4944249326267954e-05
3.2683735857960445e-07,2.273913993975068e-07,4.0967515771147597e-07,1.4916020665334548e-05
3.2475157009747605e-07,2.2786122750535365e-07,4.0752380325678785e-07,1.489381700355368e-05
3.2270941089532445e-07,2.285193965386747e-07,4.053250784179221e-07,1.4876922321177853e-05
3.207238917229688e-07,2.2936586588166786e-07,4.030869882288841e-07,1.4864589243116706e-05
3.1880557415196943e-07,2.303969778116751e-07,4.0081829521847147e-07,1.485608520975809e-05
3.169616529348328e-07,2.3160554677390895e-07,3.9853013830980223e-07,1.4850743320823847e-05
3.1519717436727336e-07,2.329812880008937e-07,3.962369747541881e-07,1.4847998515833689e-05
3.135154507544423e-07,2.3451119379496322e-07,3.9395438114172075e-07,1.4847391244205868e-05
3.119172895693472e-07,2.361801808834202e-07,3.916968101758383e-07,1.4848542925324652e-05
3.104009116723003e-07,2.379735128908893e-07,3.894779955835929e-07,1.4851119794355685e-05
3.089628182478275e-07,2.398806622391578e-07,3.87312836986417e-07,1.4854804187200214e-05
3.0759853370974024e-07,2.4189753480569765e-07,3.8521816930723365e-07,1.4859270910501875e-05
3.063033535922908e-07,2.4402561256566556e-07,3.8321130663143355e-07,1.4864151075084551e-05
3.050734482473869e-07,2.462696590547968e-07,3.813088735430457e-07,1.4868997647619309e-05
3.0390599464681696e-07,2.48635912394628e-07,3.795270541997744e-07,1.4873302902749493e-05
3.027975718622762e-07,2.51131104005258e-07,3.778807605643496e-07,1.4876595370325873e-05
3.017424845949953e-07,2.5376168774018297e-07,3.7638258745003464e-07,1.4878567669560168e-05
3.007324456524165e-07,2.565326938082352e-07,3.750440965684674e-07,1.4879139120805954e-05
2.997577306068008e-07,2.594465374706486e-07,3.7387800490379064e-07,1.4878404761125757e-05
2.9880971215613504e-07,2.6250278024357237e-07,3.728989749335769e-07,1.4876514780391272e-05
2.978831679958738e-07,2.65698163362313e-07,3.721226521673231e-07,1.4873562831622967e-05
2.969762255502703e-07,2.690258035212111e-07,3.715638703093543e-07,1.4869526128275876e-05
2.960887501570169e-07,2.7247459769742e-07,3.712347147237612e-07,1.4864262381455206e-05
2.952212597977534e-07,2.760295924713884e-07,3.7114235467129467e-07,1.4857542251698835e-05
2.943742456197368e-07,2.796727273988733e-07,3.712875407737513e-07,1.4849070803644174e-05
2.9354707786162967e-07,2.833836512818058e-07,3.716653016551215e-07,1.4838494312252274e-05
2.927369646814427e-07,2.87140540707406e-07,3.722673303411622e-07,1.4825467564111124e-05
2.9193874893632045e-07,2.909215520825852e-07,3.730838052384679e-07,1.4809808950811304e-05
2.911457599314673e-07,2.947079373411665e-07,3.741034588131997e-07,1.4791642051804919e-05
2.903511216869869e-07,2.984876207910513e-07,3.7531266951239314e-07,1.4771412127181243e-05
2.895489616767249e-07,3.022562583739121e-07,3.766954504034072e-07,1.4749778093130814e-05
2.887351650955949e-07,3.060151981675295e-07,3.782354512939454e-07,1.4727454261805402e-05
2.879071598805677e-07,3.097684969937302e-07,3.799180334920106e-07,1.4705062542874475e-05
2.870633540079107e-07,3.135205691875615e-07,3.8172992525267846e-07,1.4683044170480958e-05
2.8620316491559783e-07,3.172755653514266e-07,3.8365739660566393e-07,1.4661663034191589e-05
2.853274898505397e-07,3.210389672455094e-07,3.856851982231779e-07,1.4641070991106252e-05
2.844385562079765e-07,3.2481892195293607e-07,3.8779662098925045e-07,1.4621364449940539e-05
2.835384917204806e-07,3.286250396864305e-07,3.899739054649014e-07,1.4602601635724247e-05
2.8262793035476513e-07,3.324654502852115e-07,3.921986657800517e-07,1.4584853116443576e-05
2.81705790108063e-07,3.3634390673829926e-07,3.944521302725372e-07,1.4568337392616553e-05
2.8076992697287016e-07,3.402588422845212e-07,3.967149522082857e-07,1.455351115474877e-05
2.7981866772734837e-07,3.442044481335056e-07,3.989667492836093e-07,1.4540988165865479e-05
2.788524446956209e-07,3.481722560030932e-07,4.011859020729195e-07,1.4531375746649056e-05
2.7787357006054355e-07,3.5215276048084953e-07,4.0335039138846367e-07,1.4525204133835165e-05
2.768846906462313e-07,3.56136076041686e-07,4.0543898092703575e-07,1.4523028478665144e-05
2.758884202918601e-07,3.6011145055058744e-07,4.0743145888642505e-07,1.4525592069459253e-05
2.748879215136616e-07,3.64067233969656e-07,4.093087748417538e-07,1.4533853422031641e-05
2.738870724856105e-07,3.679907185798936e-07,4.110534515829738e-07,1.4548864400344284e-05
2.728901609459724e-07,3.7186715076315884e-07,4.126497059573114e-07,1.457162991818519e-05
2.719012777973884e-07,3.756792774786079e-07,4.1408371747977746e-07,1.460300693967506e-05
2.70924438550179e-07,3.794075493992733e-07,4.1534402153344773e-07,1.464363558315761e-05
2.6996467478144933e-07,3.8303034056575287e-07,4.164219918269592e-07,1.469388869628259e-05
2.690282018979362e-07,3.865247797706534e-07,4.17312521365613e-07,1.4753830615257858e-05
2.6812124922472305e-07,3.898684345009069e-07,4.1801431356859924e-07,1.4823199959767706e-05
2.672494323689089e-07,3.930404986911294e-07,4.185295674111504e-07,1.4901437481012381e-05
2.664180359228609e-07,3.960212485335181e-07,4.188626322278417e-07,1.4987752658022776e-05
2.6563200839558906e-07,3.9879073103539295e-07,4.190176325905715e-07,1.5081188766078962e-05
2.6489612485872176e-07,4.0132861163335337e-07,4.1899680029506093e-07,1.5180650684839936e-05
2.642158604788804e-07,4.0361564882146955e-07,4.1880087273516325e-07,1.528491434970801e-05
2.6359746099303644e-07,4.0563619963941326e-07,4.184314319574057e-07,1.5392662526603922e-05
2.630466206568966e-07,4.073799250447357e-07,4.178933464886478e-07,1.550255306118978e-05
2.6256737108901056e-07,4.08840670439385e-07,4.1719450626077924e-07,1.5613288897348465e-05
2.6216170489698624e-07,4.100143315230253e-07,4.163432940291433e-07,1.5723655462190477e-05
2.618289301509032e-07,4.108986362193213e-07,4.153468899522812e-07,1.5832516224273316e-05
2.615652021140774e-07,4.1149375142458976e-07,4.142109706093433e-07,1.593879429036534e-05
2.6136442551915964e-07,4.118015140024268e-07,4.1293943170211354e-07,1.6041470164359855e-05
2.612199491848959e-07,4.118239426696185e-07,4.1153405858241904e-07,1.6139596068679183e-05
2.6112537060463747e-07,4.1156308707678495e-07,4.0999496019213405e-07,1.6232307505866968e-05
2.610742429885153e-07,4.1102199414005305e-07,4.083220195375687e-07,1.631881760977398e-05
2.610600048844039e-07,4.1020467555204184e-07,4.065167677631628e-07,1.6398392883828604e-05
2.610761342520775e-07,4.0911523077846453e-07,4.0458313014951784e-07,1.647032540972982e-05
2.611160223772234e-07,4.0775777954782564e-07,4.0252610325321477e-07,1.6533950812336175e-05
2.611734809248614e-07,4.061368470976888e-07,4.0035063323861143e-07,1.6588741989110877e-05
2.6124422793421345e-07,4.042574805921887e-07,3.9806309483995795e-07,1.6634408491530952e-05
2.613275190183859e-07,4.0212550984246223e-07,3.956727960306521e-07,1.6670914159054693e-05
2.6142657027681945e-07,3.9974778459810746e-07,3.931905534288451e-07,1.669842635696489e-05
2.6154682545841013e-07,3.971319045329684e-07,3.9062656003822677e-07,1.671724562003167e-05
2.6169363771101377e-07,3.942858714904175e-07,3.879897206391055e-07,1.6727722418468038e-05
2.618716741089486e-07,3.912186004131282e-07,3.852881739875444e-07,1.6730192084231636e-05
2.620857784488676e-07,3.879414773737924e-07,3.825310010165581e-07,1.672496604061276e-05
2.6234125437083547e-07,3.8446953616550215e-07,3.797290616544285e-07,1.6712338000533952e-05
2.626429675699687e-07,3.8082059453558156e-07,3.7689315096265715e-07,1.669260090095824e-05
2.6299444197095907e-07,3.7701322953385355e-07,3.7403225962230146e-07,1.6666131353491543e-05
2.63397291295924e-07,3.7306573177509716e-07,3.7115406784323773e-07,1.6633482777513626e-05
2.638508483150531e-07,3.6899588621076704e-07,3.682659509537398e-07,1.65953843927224e-05
2.643525348713221e-07,3.64820725578234e-07,3.6537501085060246e-07,1.655265671543891e-05
2.648989886421218e-07,3.605564010781174e-07,3.6248785898197326e-07,1.6506109300755432e-05
2.654868195602321e-07,3.5621789040187454e-07,3.5961098291099594e-07,1.6456458676058977e-05
2.661123768963541e-07,3.518186910359922e-07,3.567511723831313e-07,1.6404274769824173e-05
2.667713496249687e-07,3.473710887990076e-07,3.5391564713828577e-07,1.6349966231067865e-05
2.6745883154619944e-07,3.428862824799036e-07,3.511120662957073e-07,1.6293802224334147e-05
2.6817003538531663e-07,3.3837400568844773e-07,3.4834794707012055e-07,1.623592742032897e-05
2.689012663401893e-07,3.3384268525858346e-07,3.4562942412285983e-07,1.6176357846987887e-05
2.6965005083690207e-07,3.292999912982449e-07,3.4296041243742863e-07,1.6115026936997714e-05
2.704147183186084e-07,3.2475322139141157e-07,3.403429573114046e-07,1.6051950098953165e-05
2.7119511123966077e-07,3.2021027979780825e-07,3.377785431264652e-07,1.5987452702694228e-05
2.71994324004429e-07,3.156810857877302e-07,3.3526933738944737e-07,1.5922259318205663e-05
2.728184715478705e-07,3.111779394933752e-07,3.3281804064014967e-07,1.5857334343006413e-05
2.7367338413986444e-07,3.067143898163563e-07,3.3042620700684125e-07,1.5793679796595818e-05
2.745615112253324e-07,3.023040508940667e-07,3.280929095567957e-07,1.5732296276917816e-05
2.754811341520533e-07,2.979601614633399e-07,3.258151204956214e-07,1.5674209664576935e-05
2.764269178944438e-07,2.9369457365328925e-07,3.235884046518116e-07,1.5620442200733875e-05
2.773908879417575e-07,2.895164985828409e-07,3.2140653286431923e-07,1.5571957028794643e-05
2.7836317372189816e-07,2.854329822387688e-07,3.192611129178549e-07,1.5529607703938122e-05
2.793322690229353e-07,2.814504976821969e-07,3.171422064983565e-07,1.5494094310602118e-05
2.8028537329302303e-07,2.775756546237623e-07,3.150393740289737e-07,1.546592287109671e-05
2.812089390860653e-07,2.738146479631456e-07,3.1294293663657004e-07,1.544536247931916e-05
2.8208925431214297e-07,2.701726120058923e-07,3.1084522603220546e-07,1.5432412846545667e-05
2.829128662880388e-07,2.66653908715708e-07,3.087410301387047e-07,1.5426800664044838e-05
2.8366638301437924e-07,2.632627713983801e-07,3.0662773737940944e-07,1.5428011839977656e-05
2.843361559032594e-07,2.6000405249759933e-07,3.0450584713555925e-07,1.5435360434539857e-05
2.849087508842909e-07,2.568843705888999e-07,3.023787355351841e-07,1.5448075549395375e-05
2.85371620803816e-07,2.5391224639396145e-07,3.002515951107233e-07,1.5465359083599483e-05
2.857133834662929e-07,2.5109669378733696e-07,2.981310962275908e-07,1.548638250805264e-05
2.8592428921688464e-07,2.484456792837257e-07,2.9602511567934986e-07,1.5510251744261073e-05
2.8599709469128555e-07,2.4596499985340554e-07,2.939413543198904e-07,1.5535997905772714e-05
2.859280063043796e-07,2.436579469955268e-07,2.918861370714471e-07,1.5562602526725993e-05
2.857170096787408e-07,2.4152671701768496e-07,2.89864179356311e-07,1.5589030081982193e-05
2.853667577127233e-07,2.395747719376118e-07,2.8787916810008844e-07,1.5614263939771918e-05
2.848809950560985e-07,2.3780744922864142e-07,2.859353121774184e-07,1.5637341152711725e-05
2.8426430631464424e-07,2.3622973031582202e-07,2.840387029730172e-07,1.5657372178291156e-05
2.835225025779859e-07,2.3484343377474328e-07,2.8219677092231264e-07,1.5673554428582126e-05
2.8266276410809997e-07,2.336464635481709e-07,2.804165076015609e-07,1.568518705321994e-05
2.8169437641338037e-07,2.3263419481350413e-07,2.787039711470676e-07,1.5691667798451387e-05
2.806289191706019e-07,2.318016899378553e-07,2.770650605209015e-07,1.569245526806715e-05
2.7947853869914486e-07,2.3114550866581675e-07,2.7550548731559976e-07,1.56870169451199e-05
2.782545249190158e-07,2.306641907417162e-07,2.740300412285252e-07,1.5674811405103662e-05
2.7696793572315374e-07,2.30358279086768e-07,2.726427015730998e-07,1.5655338889329666e-05
2.756313194363865e-07,2.3023064406562448e-07,2.7134808630809606e-07,1.5628243520307045e-05
2.7426059991568854e-07,2.30285527379886e-07,2.701524263399627e-07,1.5593386599874995e-05
2.728762813007409e-07,2.305264877289433e-07,2.6906231895475997e-07,1.555081273846063e-05
2.715029044936243e-07,2.309551563810805e-07,2.680828891898786e-07,1.5500645488552244e-05
2.701665104557216e-07,2.3157079517123213e-07,2.6721740905095306e-07,1.5443018722117363e-05
2.6889123669614425e-07,2.323708583464609e-07,2.664683413535118e-07,1.5378068033110715e-05
2.676970366286007e-07,2.3335296838245091e-07,2.658386381753989e-07,1.5305950956406665e-05
2.665994536306509e-07,2.3451623852673575e-07,2.653319473665753e-07,1.5226880739062915e-05
2.656105100579019e-07,2.358604230540547e-07,2.649519693204447e-07,1.514112464932232e-05
2.647395933792384e-07,2.3738447899742748e-07,2.647019149048431e-07,1.5048944963727466e-05
2.6399408043478143e-07,2.3908612378256265e-07,2.6458355146935437e-07,1.4950558514295426e-05
2.633792344988409e-07,2.409619986703064e-07,2.645958400740739e-07,1.4846169388022527e-05
2.6289750231662605e-07,2.4300749018524516e-07,2.6473487352343805e-07,1.4736056141091949e-05
2.6254873204402855e-07,2.452163583051996e-07,2.6499546209143557e-07,1.4620683497778506e-05
2.623312013538973e-07,2.475810958475764e-07,2.653727476232787e-07,1.4500774776459437e-05
2.6224169601843573e-07,2.500939169658071e-07,2.658623336837976e-07,1.4377262004045148e-05
2.622750690263156e-07,2.5274757531660946e-07,2.664593278684668e-07,1.4251133388684383e-05
2.6242518353530195e-07,2.5553572784011177e-07,2.671585757073613e-07,1.4123292579825054e-05
2.626869361833263e-07,2.584522837435816e-07,2.67955959159238e-07,1.3994495661380468e-05
2.630576248980457e-07,2.614895189765656e-07,2.688479490271997e-07,1.3865342139267044e-05
2.6353724280235507e-07,2.646367090471811e-07,2.698294361205967e-07,1.3736284725279104e-05
2.641277159267932e-07,2.678811622203699e-07,2.7089312650587875e-07,1.3607653510520081e-05
2.648310571664605e-07,2.7121088376726863e-07,2.720329443218162e-07,1.3479723003626531e-05
2.6564799889330857e-07,2.746158877049488e-07,2.7325001543520277e-07,1.3352850355296285e-05
2.6657875368225865e-07,2.7808689520118587e-07,2.745563068917783e-07,1.3227589940541827e-05
2.6762466958697896e-07,2.816135130571122e-07,2.759729129233673e-07,1.3104634621072675e-05
2.687877447257204e-07,2.851836602010488e-07,2.7752480417810913e-07,1.2984639378101685e-05
2.700678131097363e-07,2.8878405850997384e-07,2.792353546167049e-07,1.2868111588300536e-05
2.714605215006328e-07,2.924009391375059e-07,2.8112315732837364e-07,1.2755437520033467e-05
2.729575100794267e-07,2.960204124211865e-07,2.83201412387502e-07,1.2647045913086873e-05
2.745479187696446e-07,2.996285181057276e-07,2.854776951600259e-07,1.2543663740975874e-05
2.7622064659432997e-07,3.032111286358337e-07,2.879533957800025e-07,1.2446476859261509e-05
2.7796597581134857e-07,3.0675412012424717e-07,2.906244806308411e-07,1.2357054320199435e-05
2.7977483535000713e-07,3.1024416121379827e-07,2.934836296663926e-07,1.2277134814646046e-05
2.816370202714681e-07,3.1366981026826817e-07,2.965217576276896e-07,1.2208424833303067e-05
2.8354099333222963e-07,3.170215610851736e-07,2.997281384146765e-07,1.215245082256489e-05
2.8547479232166197e-07,3.202905519713517e-07,3.030899788646144e-07,1.211046778426354e-05
2.8742591936502556e-07,3.234677276973754e-07,3.065921430651289e-07,1.2083422193728287e-05
2.8938028594738395e-07,3.265437733209775e-07,3.102173090040773e-07,1.2071946465886313e-05
2.9132198678973545e-07,3.295091938566218e-07,3.139468944135456e-07,1.2076358950362974e-05
2.932343333091329e-07,3.3235492959454536e-07,3.177626258100325e-07,1.209666886903702e-05
2.9510071411115607e-07,3.3507282403293145e-07,3.2164766285682297e-07,1.2132599417988562e-05
2.969046286237156e-07,3.376549062931311e-07,3.2558673599159517e-07,1.2183635915039493e-05
2.986300881544395e-07,3.400923033608148e-07,3.295657843107041e-07,1.2249097431820676e-05
3.0026312309326983e-07,3.423750205336721e-07,3.3357130133051373e-07,1.2328208898396692e-05
3.017932600571813e-07,3.444930309552697e-07,3.375894747899831e-07,1.2420153359221574e-05
3.0321388467102266e-07,3.46438090179048e-07,3.416053629175629e-07,1.252412406661152e-05
3.0452195314998213e-07,3.482041667016835e-07,3.4560216056109805e-07,1.2639391247332404e-05
3.05717346204061e-07,3.497857115685565e-07,3.495609883247496e-07,1.2765353037383458e-05
3.068014574717933e-07,3.51176385590674e-07,3.534621621530338e-07,1.290154360762521e-05
3.077755428786247e-07,3.5236999295621094e-07,3.572877316337849e-07,1.3047605068732301e-05
3.086398078405674e-07,3.53362038861842e-07,3.6102336206795577e-07,1.3203235775405141e-05
3.093935130150917e-07,3.541504615611228e-07,3.6465820278720815e-07,1.3368122726355682e-05
3.100358093276467e-07,3.547354210447556e-07,3.681832034490637e-07,1.3541866914190802e-05
3.105662763996152e-07,3.5511824184193417e-07,3.71589570376779e-07,1.3723915138937353e-05
3.109844451793188e-07,3.5530043218169364e-07,3.748688708954081e-07,1.3913519152492982e-05
3.112895574324711e-07,3.55283868230521e-07,3.78013980443574e-07,1.410974541634708e-05
3.114818682344781e-07,3.550718498614212e-07,3.810190499292985e-07,1.4311538197842379e-05
3.115646755926144e-07,3.546695200761296e-07,3.8387885260328104e-07,1.4517788209665527e-05
3.115453495946569e-07,3.540829145156271e-07,3.8658840716050895e-07,1.4727353373714367e-05
3.114343501686869e-07,3.5331753139547686e-07,3.8914203347665616e-07,1.4939054141659255e-05
3.1124281373226555e-07,3.523773483504921e-07,3.915318284663744e-07,1.5151703106906516e-05
3.1098046394374726e-07,3.512647848003509e-07,3.937475799539605e-07,1.5364166753163822e-05
3.106548071207237e-07,3.499815646288252e-07,3.9577918040376785e-07,1.5575387448444702e-05
3.102711282511495e-07,3.485294677888318e-07,3.976193002225359e-07,1.578432392504935e-05
3.098328926462119e-07,3.469104602083229e-07,3.99262974575541e-07,1.5989874068488485e-05
3.093428541565369e-07,3.451267288105063e-07,4.0070517723337777e-07,1.6190861418710474e-05
3.088044618051929e-07,3.431809246845848e-07,4.0194020548608046e-07,1.6386079163347605e-05
3.0822214397139076e-07,3.4107681450005174e-07,4.029623785424948e-07,1.6574348652915296e-05
3.076004755904941e-07,3.388200706510986e-07,4.037656598358125e-07,1.675458222289856e-05
3.069437172625539e-07,3.3641803564152604e-07,4.043436561886089e-07,1.692582995734946e-05
3.062560903243776e-07,3.338784219150599e-07,4.046920187113686e-07,1.7087261962497858e-05
3.055424608491713e-07,3.312085756976891e-07,4.0481076799767756e-07,1.7238098813909254e-05
3.048087759645466e-07,3.284161349701221e-07,4.04703129453141e-07,1.737756972000759e-05
3.0406118531385413e-07,3.255094474700015e-07,4.0437285693357954e-07,1.750493142382001e-05
3.033044818635087e-07,3.224965500862053e-07,4.0382403022079966e-07,1.7619511518359745e-05
3.025414807948993e-07,3.193843023500592e-07,4.0306265145688464e-07,1.7720738297333872e-05
3.01773554343541e-07,3.1617894596876805e-07,4.0209690898007884e-07,1.7808138763119352e-05
3.0100150826333516e-07,3.1288766724317453e-07,4.009363185162671e-07,1.7881343092105365e-05
3.0022576351419073e-07,3.095197688157289e-07,3.9959225879312616e-07,1.7940192314722284e-05
2.9944602116460525e-07,3.0608608301135065e-07,3.980789787510853e-07,1.7984902525868462e-05
2.9866225106500164e-07,3.025977599513628e-07,3.9641252510921393e-07,1.80160780018855e-05
2.978766652516705e-07,2.990661323731425e-07,3.946093401502764e-07,1.8034534909888567e-05
2.9709417148438385e-07,2.9550334985524545e-07,3.9268649911459457e-07,1.804109606725784e-05
2.963214365729571e-07,2.9192253923746143e-07,3.906612803161084e-07,1.8036472277066502e-05
2.955659457751554e-07,2.883367562022741e-07,3.8854914976907977e-07,1.802130412892392e-05
2.948346302475016e-07,2.847583355341548e-07,3.863630607790127e-07,1.7996388405454417e-05
2.941321962116823e-07,2.812000046525796e-07,3.841154711913521e-07,1.7962911268325916e-05
2.934607204902786e-07,2.7767555158357345e-07,3.818206977790686e-07,1.792246450442263e-05
2.928208125196505e-07,2.741985572006e-07,3.7949495877261894e-07,1.7876867311149677e-05
2.922126691066688e-07,2.707812427405425e-07,3.771548793256288e-07,1.7827957252940537e-05
2.9163590287365535e-07,2.674347756837025e-07,3.748164306020853e-07,1.7777428012529755e-05
2.910888309688497e-07,2.641694995150362e-07,3.724941411973129e-07,1.7726718010537154e-05
2.9056829483894356e-07,2.6099433153746014e-07,3.702004248415306e-07,1.767694397764277e-05
2.900708907752273e-07,2.579168771433e-07,3.6794553156744214e-07,1.7628875943105913e-05
2.8959492699467266e-07,2.549449572450101e-07,3.657379163442894e-07,1.758295315767401e-05
2.891404584746881e-07,2.5208852523542717e-07,3.6358492870615227e-07,1.7539329077940454e-05
2.8870739465074986e-07,2.493609201881296e-07,3.614935931540493e-07,1.7497926344387908e-05
2.8829480226780593e-07,2.467791418547098e-07,3.5947075564998933e-07,1.7458497095852668e-05
2.8790175411916106e-07,2.443627994801439e-07,3.575222537347175e-07,1.7420688555015274e-05
2.875272934402244e-07,2.421313877495724e-07,3.556518480575007e-07,1.7384104210326652e-05
2.871692052825926e-07,2.4010111874402497e-07,3.538614813058661e-07,1.734835538415206e-05
2.868232010803163e-07,2.3828315925110412e-07,3.521532101036428e-07,1.7313110379211822e-05
2.8648329883543787e-07,2.3668408377065865e-07,3.505307997067609e-07,1.727814605229652e-05
2.861429666404624e-07,2.3530797758113604e-07,3.4899912706134554e-07,1.7243377009291598e-05
2.857959658235297e-07,2.3415884999518627e-07,3.475628865676628e-07,1.7208830261437846e-05
2.854367958282876e-07,2.3324314384940748e-07,3.462270085944074e-07,1.7174579718939447e-05
2.850616825318841e-07,2.3257224235129233e-07,3.4499769898955216e-07,1.7140680183456117e-05
2.8466967286428626e-07,2.3216242509997802e-07,3.4388202510714365e-07,1.7107117264764167e-05
2.8426243605328804e-07,2.320312487562604e-07,3.428862992124378e-07,1.7073769417601176e-05
2.8384304163385074e-07,2.321942089171389e-07,3.420144426528074e-07,1.704038905407883e-05
2.8341505542019165e-07,2.326637705706293e-07,3.412669186273522e-07,1.700663432301156e-05
2.829820925852499e-07,2.3344946789923764e-07,3.406400536056448e-07,1.6972175217945458e-05
2.8254754797937215e-07,2.3455868897967173e-07,3.401257889407559e-07,1.693683993250969e-05
2.8211433523634827e-07,2.3599663490849171e-07,3.397123936150855e-07,1.690071391391885e-05
2.816841606458708e-07,2.377646208726122e-07,3.393861212647908e-07,1.6864137625829708e-05
2.812568023358523e-07,2.398588104720047e-07,3.3913270604717694e-07,1.6827634503066543e-05
2.808299578786248e-07,2.422700218943224e-07,3.3893769665881354e-07,1.6791824846439177e-05
2.803998743958712e-07,2.449839459239721e-07,3.387864571170941e-07,1.6757350191063094e-05
2.799630004647719e-07,2.4798187337072217e-07,3.386648659197311e-07,1.672479474490718e-05
2.7951719232052704e-07,2.512415879252772e-07,3.3855979305808356e-07,1.6694592140293727e-05
2.790611226223445e-07,2.547379872689645e-07,3.384585881109732e-07,1.6666985663041393e-05
2.7859297360776524e-07,2.584442032463018e-07,3.383491007755705e-07,1.6642130441470458e-05
2.781098570488128e-07,2.6233353822544514e-07,3.3822112430269603e-07,1.6620281998734145e-05
2.7760815696850773e-07,2.66380737416314e-07,3.380671375600782e-07,1.6601907697564443e-05
2.770843653237063e-07,2.705621680813184e-07,3.378813962208457e-07,1.6587658088206202e-05
2.765362577392231e-07,2.7485646774130604e-07,3.3765970512769647e-07,1.6578274576679935e-05
2.7596375820836054e-07,2.792457479367812e-07,3.374001451635937e-07,1.6574496725431557e-05
2.7536832437212864e-07,2.8371598234023316e-07,3.371021177200964e-07,1.657695972235928e-05
2.7475137844184454e-07,2.882564802313404e-07,3.367640430943084e-07,1.6586080314982228e-05
2.741133772457948e-07,2.928583817648409e-07,3.363825425542728e-07,1.6601979752020984e-05
2.7345361378731536e-07,2.9751225701971485e-07,3.3595343520164033e-07,1.6624477846451266e-05
2.7277045612082897e-07,3.022064959046841e-07,3.354731206436292e-07,1.6653127357995902e-05
2.720624617474227e-07,3.0692701428506685e-07,3.34939328133601e-07,1.6687250973558807e-05
2.7132951072664945e-07,3.116575833219819e-07,3.3435079100156287e-07,1.6726006099015992e-05
2.705728922292117e-07,3.163811523286552e-07,3.3370676346122696e-07,1.6768543760997854e-05
2.697947187392237e-07,3.210812930740114e-07,3.3300697384825174e-07,1.6814233893276222e-05
2.689970716200378e-07,3.25741558492329e-07,3.322509730139856e-07,1.6862764896635616e-05
2.681816303286561e-07,3.303438546383965e-07,3.31437281460924e-07,1.6914026749847096e-05
2.6735064712913016e-07,3.3486914614507944e-07,3.3056417959030105e-07,1.696799637787753e-05
2.6650849090108445e-07,3.3930025640785627e-07,3.296314011595929e-07,1.7024782419600418e-05
2.656617489614243e-07,3.436233462765773e-07,3.2864026960331264e-07,1.7084672303057952e-05
2.6481773738606185e-07,3.47826758870637e-07,3.2759263299431673e-07,1.714806669546167e-05
2.639840828692344e-07,3.518989024975575e-07,3.2649040668154076e-07,1.7215380508602285e-05
2.6316961968223304e-07,3.558266022958803e-07,3.2533514194201105e-07,1.7286969739643604e-05
2.6238403269130267e-07,3.5959437361556567e-07,3.2412701507051354e-07,1.736308420698076e-05
2.6163642170603123e-07,3.6318466617381e-07,3.228647279461662e-07,1.7443847865120244e-05
2.6093420580444307e-07,3.6657852144713247e-07,3.2154671426262697e-07,1.752925579256991e-05
2.6028253744762265e-07,3.697563989193559e-07,3.2017229957505587e-07,1.7619165960343397e-05
2.596846318801282e-07,3.7269923013217346e-07,3.1874238811139694e-07,1.771328719012486e-05
2.591431983217125e-07,3.753893409554971e-07,3.17259642097218e-07,1.7811178160001e-05
2.586623216827928e-07,3.77811728508931e-07,3.157278084948796e-07,1.791226023323065e-05
2.582482293722228e-07,3.7995595284869705e-07,3.1415070997394873e-07,1.8015841776869017e-05
2.579083222272955e-07,3.818167338319476e-07,3.125314669477629e-07,1.812114113867588e-05
2.576503743283333e-07,3.8339246399124177e-07,3.108721986980666e-07,1.8227283901051692e-05
2.574823284651791e-07,3.846835777947489e-07,3.0917498439655746e-07,1.833328129944052e-05
2.574111425709784e-07,3.856922664078507e-07,3.074436360083537e-07,1.843803856669659e-05
2.57441339709217e-07,3.8642332371445066e-07,3.0568410667830556e-07,1.854040754781396e-05
2.5757458850282164e-07,3.8688458370990655e-07,3.039032068884229e-07,1.863923936628906e-05
2.5780995478806987e-07,3.870861089177666e-07,3.0210715800548e-07,1.873341800826271e-05
2.581443083468844e-07,3.8703993712205e-07,3.003004652128176e-07,1.8821899558229238e-05
2.585727538187769e-07,3.8676085816803645e-07,2.984852654794177e-07,1.8903763455311653e-05
2.5908891345469734e-07,3.862659036913413e-07,2.966619408902872e-07,1.8978259641786468e-05
2.5968526097299943e-07,3.8557236367999744e-07,2.9483150278037987e-07,1.904484229988531e-05
2.603536629136095e-07,3.846961825513032e-07,2.929988945940555e-07,1.9103175834204652e-05
2.610853774828396e-07,3.836514297678845e-07,2.9117529484521105e-07,1.915309910235355e-05
2.6187069104957945e-07,3.8245027919008843e-07,2.893779205282544e-07,1.919455811702828e-05
2.627000217363784e-07,3.811027493581538e-07,2.8762703799063625e-07,1.9227524221824702e-05
2.635661881876571e-07,3.796162245890938e-07,2.85942286780113e-07,1.925193122967715e-05
2.6446505800880904e-07,3.7799515088289215e-07,2.8434124132328767e-07,1.9267687574706945e-05
2.653943090177612e-07,3.762411792061167e-07,2.828403872852397e-07,1.927474138172488e-05
2.6635305856725953e-07,3.7435406647306244e-07,2.814568824415201e-07,1.927309366219895e-05
2.673426844678434e-07,3.723332447744742e-07,2.802095028904358e-07,1.9262742018527388e-05
2.683660374888893e-07,3.701790752492029e-07,2.791177646151322e-07,1.924363469544859e-05
2.694246718645427e-07,3.678934097076549e-07,2.781999231144849e-07,1.9215676514324488e-05
2.7051702841690944e-07,3.654803258341886e-07,2.7747118640775946e-07,1.9178788489677405e-05
2.716390679373705e-07,3.6294639271518273e-07,2.769423078830759e-07,1.9132996389380657e-05
2.727857465550009e-07,3.602995250876345e-07,2.766186553657236e-07,1.90784734490545e-05
2.7395132489599704e-07,3.5754819946298964e-07,2.7650059102945964e-07,1.9015494013573115e-05
2.7512892959517324e-07,3.5470200577739454e-07,2.7658509636905174e-07,1.8944339183518007e-05
2.7631144922949376e-07,3.517714940082348e-07,2.7686746459971016e-07,1.886524141460822e-05
2.77493402901836e-07,3.4876677897554397e-07,2.77342655267242e-07,1.877844123902073e-05
2.786717087824725e-07,3.45696790309801e-07,2.780060110311911e-07,1.8684315974903336e-05
2.7984600322774573e-07,3.425692509680178e-07,2.788524308967557e-07,1.8583441947229292e-05
2.810192018626224e-07,3.393903951852996e-07,2.7987475625474174e-07,1.8476524591425333e-05
2.8219644521097e-07,3.3616499179967434e-07,2.810629714568032e-07,1.8364264064483166e-05
2.83382458881241e-07,3.3289693283641355e-07,2.824044241373955e-07,1.824725888559476e-05
2.8458014334469266e-07,3.295895898955767e-07,2.838848557911985e-07,1.8125979656525945e-05
2.857922222133266e-07,3.2624584782876676e-07,2.854907357012157e-07,1.8000771068224936e-05
2.8702457962402937e-07,3.228680466357354e-07,2.872121856478409e-07,1.7871864560405318e-05
2.8828740521396985e-07,3.194580460681437e-07,2.8904370105559784e-07,1.7739423306679596e-05
2.895926620712521e-07,3.1601802660936925e-07,2.909819381862029e-07,1.7603638309975094e-05
2.909514017345468e-07,3.125512192526784e-07,2.930229932861872e-07,1.7464863275524288e-05
2.9237332077596825e-07,3.090618547816592e-07,2.951611103992686e-07,1.7323682180275627e-05
2.9386643403755284e-07,3.0555605263920777e-07,2.973890677467256e-07,1.7180821220016555e-05
2.954360679839918e-07,3.020431574450844e-07,2.9969933321897075e-07,1.7036987636387984e-05
2.9708555814018824e-07,2.985345491322258e-07,3.020845895766448e-07,1.6892770267602533e-05
2.988185917876609e-07,2.9504071336249883e-07,3.045368223803769e-07,1.6748686067449836e-05
3.006395610182972e-07,2.9156986961026676e-07,3.0704547779302876e-07,1.6605395265558553e-05
3.025512795934498e-07,2.881287128819068e-07,3.0959629511267097e-07,1.64639358290802e-05
3.0455431709157575e-07,2.847235431397872e-07,3.1217167114974563e-07,1.6325753728465062e-05
3.066491752300418e-07,2.813608965499246e-07,3.147518441516664e-07,1.6192521465276803e-05
3.0883731937463777e-07,2.7804786325672013e-07,3.173162789286701e-07,1.6065918500225096e-05
3.111192754467043e-07,2.747920675717063e-07,3.198449589007567e-07,1.594749005994022e-05
3.134921416583626e-07,2.716011170402861e-07,3.2231902499510764e-07,1.5838590102211202e-05
3.159489978794077e-07,2.68481605151429e-07,3.2472074908361626e-07,1.574035608186991e-05
3.1848029617170373e-07,2.654387718230227e-07,3.270330777920467e-07,1.5653661540484797e-05
3.21075083499989e-07,2.62477680988662e-07,3.292390424164361e-07,1.557905071908143e-05
3.2372137014923957e-07,2.5960417158139554e-07,3.313216245091321e-07,1.551670563677511e-05
3.2640692173953337e-07,2.568243459901112e-07,3.332640132167035e-07,1.546647262157168e-05
3.2911953243043734e-07,2.5414414901870666e-07,3.350505882658468e-07,1.5427929851834368e-05
3.318461099858747e-07,2.5156962546408293e-07,3.3666882226558726e-07,1.540046354621825e-05
3.345730844405493e-07,2.4910678214079044e-07,3.381098529677525e-07,1.5383333021274048e-05
3.372882398455316e-07,2.467606838504528e-07,3.393671692703279e-07,1.537572522960163e-05
3.399814208188353e-07,2.445345668070896e-07,3.404358366929183e-07,1.5376806387828022e-05
3.426436204480259e-07,2.4242989157435844e-07,3.413122550414229e-07,1.5385764205245007e-05
3.452656225813537e-07,2.4044683870999443e-07,3.4199332138137477e-07,1.5401819457365632e-05
3.478382414257746e-07,2.385845156353985e-07,3.4247565347267254e-07,1.5424207811945498e-05
3.5035455778928105e-07,2.3684147989191194e-07,3.42755404529744e-07,1.5452175636470388e-05
3.5281122391641366e-07,2.352165159508221e-07,3.4282914811924947e-07,1.5485012144413416e-05
3.5520691915227853e-07,2.3370885892407761e-07,3.426957418377618e-07,1.5522076464229057e-05
3.575395982264592e-07,2.3231797684406534e-07,3.42357601173383e-07,1.5562777506850218e-05
3.5980523847219093e-07,2.310429487397618e-07,3.41821234091147e-07,1.5606510433474828e-05
3.619987803320544e-07,2.2988156974670864e-07,3.410974980197781e-07,1.5652585507905745e-05
3.641156089296289e-07,2.288305549213796e-07,3.4020023980282414e-07,1.570020481230437e-05
3.6615211740763067e-07,2.278874834292994e-07,3.3914367659458473e-07,1.574851626891652e-05
