8.197774521712036e-07,3.5874187520369637e-06,7.02743117077095e-07,1.185007800961678e-05
8.205431228475845e-07,3.591096781960894e-06,7.122701109016533e-07,1.1957913361187105e-05
8.216805044076863e-07,3.5929421508279016e-06,7.215268284550818e-07,1.2062835882313553e-05
8.2319172270037e-07,3.592816878918994e-06,7.304908911365514e-07,1.2164077751477564e-05
8.250760111505326e-07,3.590585121859522e-06,7.391452614503639e-07,1.2260973359808352e-05
8.273317543810863e-07,3.5861134218808767e-06,7.474709617508749e-07,1.2352950756345495e-05
8.299552942491222e-07,3.579276668325892e-06,7.554444120484928e-07,1.2439510997079425e-05
8.329376484290257e-07,3.5699731714552263e-06,7.630391724522268e-07,1.2520241258550564e-05
8.362625654727906e-07,3.5581435420483576e-06,7.702270304845135e-07,1.259485580551778e-05
8.399066034716488e-07,3.543780831234083e-06,7.769774874348988e-07,1.2663204413909508e-05
8.438405998059658e-07,3.526921403830441e-06,7.832579861681095e-07,1.272520513681418e-05
8.480322558094502e-07,3.5076220629767106e-06,7.89036059476701e-07,1.2780757703680016e-05
8.524481182158802e-07,3.485942901898472e-06,7.942830199132906e-07,1.2829718027181615e-05
8.570544384370167e-07,3.461948506590005e-06,7.989762823382098e-07,1.2871933373628027e-05
8.618191929348423e-07,3.435718567258863e-06,8.030975338977428e-07,1.2907304444072334e-05
8.667154945813753e-07,3.407350950743073e-06,8.066292420444023e-07,1.2935863417511027e-05
8.717227151453741e-07,3.3769575917918018e-06,8.095547401454368e-07,1.2957832475156748e-05
8.768231380484505e-07,3.3446659779069835e-06,8.118640453813006e-07,1.2973599636428176e-05
8.819962269824064e-07,3.310626794237869e-06,8.135618906714761e-07,1.2983614785886564e-05
8.872140672974886e-07,3.27501545106486e-06,8.146709291149338e-07,1.298827918705074e-05
8.924404195441933e-07,3.2380198032541905e-06,8.152275076010662e-07,1.2987885794537147e-05
8.976328255911846e-07,3.1998203559036017e-06,8.152747145641406e-07,1.298261590313272e-05
9.027450062247812e-07,3.1605792623500963e-06,8.148579174453798e-07,1.2972557531338842e-05
9.07727567225032e-07,3.1204493549309056e-06,8.140228847026727e-07,1.295772230332427e-05
9.125276660668927e-07,3.0795967783242714e-06,8.128145706842528e-07,1.293810956530509e-05
9.170911811709145e-07,3.0382177816480437e-06,8.112790156611355e-07,1.291388324790356e-05
9.213696245062531e-07,2.996533539792854e-06,8.09470449446047e-07,1.2885569384888264e-05
9.253271187563039e-07,2.954766429917105e-06,8.074582528209462e-07,1.2854066077680636e-05
9.289405747060831e-07,2.9131204449693608e-06,8.053286174300676e-07,1.282044365435544e-05
9.321949768102095e-07,2.871780591141228e-06,8.031808356812537e-07,1.2785717601070434e-05
9.350811216967958e-07,2.830923551221778e-06,8.011177741085024e-07,1.2750738693258106e-05
9.375962893573721e-07,2.7907269053553717e-06,7.992327485777415e-07,1.2716264646433955e-05
9.397424900709013e-07,2.7513708008390763e-06,7.976009845014996e-07,1.2683199978223814e-05
9.415214742961159e-07,2.713031859961235e-06,7.962804345353557e-07,1.265281992928696e-05
9.429316828827507e-07,2.675872981868989e-06,7.95317753079371e-07,1.262677209595256e-05
9.439702201171106e-07,2.640032067438652e-06,7.947527010234938e-07,1.2606887831782145e-05
9.44637598462249e-07,2.605612698064101e-06,7.946189312697238e-07,1.2594972533498324e-05
9.449418428161205e-07,2.5726804541556868e-06,7.949428104132291e-07,1.2592652005812648e-05
9.448995774209043e-07,2.541267247877612e-06,7.9574163497724e-07,1.260126959656654e-05
9.445331840142195e-07,2.51138442174796e-06,7.970236521182257e-07,1.2621823230982215e-05
9.438669044740132e-07,2.4830401179284416e-06,7.987911403110159e-07,1.2654946070997948e-05
9.429250094222756e-07,2.4562515544148894e-06,8.010431600815769e-07,1.2700933678420273e-05
9.417295880208193e-07,2.431047691782172e-06,8.037766563204152e-07,1.2759794331407734e-05
9.402964055216641e-07,2.4074646150104167e-06,8.069884774727551e-07,1.283129029706265e-05
9.3863376424337e-07,2.3855351359915816e-06,8.106782131538841e-07,1.2914954415114669e-05
9.367469919612587e-07,2.3652773869459257e-06,8.148493161801501e-07,1.3010091558523473e-05
9.346442792355543e-07,2.3466950121652447e-06,8.195066787067554e-07,1.3115802731797213e-05
9.323409609431156e-07,2.32978978982531e-06,8.246511160638933e-07,1.3231060730594396e-05
9.298614157772301e-07,2.314568972366906e-06,8.302750763667621e-07,1.3354811692178419e-05
9.272356383777559e-07,2.3010393453665747e-06,8.363634169948663e-07,1.3486047361384773e-05
9.244943324342586e-07,2.2891982831693645e-06,8.428966231193044e-07,1.362381886197139e-05
9.216699616610079e-07,2.2790286685407475e-06,8.498511392337288e-07,1.3767205116109489e-05
9.188001264834812e-07,2.270496415838863e-06,8.571965290441819e-07,1.3915279172240722e-05
9.159275466541914e-07,2.2635516783908846e-06,8.648929994331335e-07,1.4067107563788806e-05
9.130978612620632e-07,2.2581333149334087e-06,8.728914268012396e-07,1.422177310442169e-05
9.10357140154695e-07,2.254169695757418e-06,8.81137574033107e-07,1.4378388536676763e-05
9.077524749913912e-07,2.2515755326789138e-06,8.895797393435215e-07,1.4536085598189706e-05
9.053371233203716e-07,2.250253727684089e-06,8.981726089971716e-07,1.4693983304046109e-05
9.031717555342527e-07,2.250100823341507e-06,9.068731417545379e-07,1.4851162801540963e-05
9.013155089216534e-07,2.251005153079946e-06,9.156350337097592e-07,1.5006690314866269e-05
8.998146247435345e-07,2.2528395757651303e-06,9.244081470016315e-07,1.5159663162526587e-05
8.986972454131281e-07,2.255460700841984e-06,9.331402623362669e-07,1.53092034524065e-05
8.979741565912229e-07,2.258720240947884e-06,9.4177652042684e-07,1.545441305865679e-05
8.976431435772387e-07,2.2624860009876387e-06,9.502578757381241e-07,1.5594370252198228e-05
8.976938712028112e-07,2.2666583145193197e-06,9.58521849693427e-07,1.572818296823105e-05
8.981092645719321e-07,2.271163962462373e-06,9.665043955970536e-07,1.5855031546622627e-05
8.988636058770452e-07,2.2759322560004034e-06,9.74140793629971e-07,1.5974149529897118e-05
8.999211442667211e-07,2.280877170746845e-06,9.813663371966542e-07,1.6084794329649677e-05
9.012369557767456e-07,2.285898679333573e-06,9.88117362359647e-07,1.6186281317736905e-05
9.027590743444296e-07,2.290894414965394e-06,9.943326439190997e-07,1.6278068897388533e-05
9.044309389930016e-07,2.29576583535807e-06,9.999548191912806e-07,1.6359845562438017e-05
9.061929403693859e-07,2.30041815313571e-06,1.0049301695439709e-06,1.6431567304177544e-05
9.079832879652916e-07,2.304764950436159e-06,1.0092073750610372e-06,1.64933917190015e-05
9.097419400386292e-07,2.308738782956109e-06,1.012737571430707e-06,1.654553371852656e-05
9.11417452754751e-07,2.3122985252869967e-06,1.0154755795220557e-06,1.658815022463372e-05
9.12970252151123e-07,2.3154255949173483e-06,1.017381950644941e-06,1.6621328155712634e-05
9.143694584609732e-07,2.3181108237999924e-06,1.0184257494326504e-06,1.6645146199127705e-05
9.155873631593232e-07,2.3203420011649853e-06,1.0185866169129988e-06,1.6659723808349375e-05
9.165974480610962e-07,2.3220987856800013e-06,1.017855496751225e-06,1.6665219482027612e-05
9.173774129506894e-07,2.3233577219021463e-06,1.0162345366578331e-06,1.6661798330143988e-05
9.179121583077863e-07,2.324107698727013e-06,1.0137367677698172e-06,1.6649607892898948e-05
9.181923190266978e-07,2.324365131470041e-06,1.010384862304846e-06,1.6628846855130702e-05
9.182100829688707e-07,2.324173581005336e-06,1.00620767931282e-06,1.6599943020872418e-05
9.179572852930296e-07,2.3235857054524687e-06,1.0012362446615541e-06,1.6563661741403573e-05
9.174272368681377e-07,2.322640492437175e-06,9.955019466911978e-07,1.652101272051405e-05
9.166165292678749e-07,2.3213501521208296e-06,9.890391285246444e-07,1.6473066523763802e-05
9.155251502374769e-07,2.319701636618198e-06,9.818918072231605e-07,1.6420855003739692e-05
9.141557141415443e-07,2.317670940646521e-06,9.741179047115357e-07,1.636543658253896e-05
9.125107696385743e-07,2.315245154665296e-06,9.657856360298222e-07,1.6308040025980177e-05
9.105900929320592e-07,2.3124403463160383e-06,9.569655464925116e-07,1.625008876297791e-05
9.083922984901182e-07,2.3093011620488758e-06,9.477237410490076e-07,1.619306811385626e-05
9.05919375432105e-07,2.305881605697974e-06,9.381183782543369e-07,1.6138371794244328e-05
9.031784875748863e-07,2.302224540493409e-06,9.281999985334343e-07,1.6087213805988932e-05
9.001791881939432e-07,2.298357162810054e-06,9.180143883930812e-07,1.6040596617221358e-05
8.969310320217613e-07,2.29429897491974e-06,9.076041039271109e-07,1.5999295835999785e-05
8.934465064581448e-07,2.2900651112621864e-06,8.970075714240885e-07,1.596384130430787e-05
8.89745910817735e-07,2.2856600620996464e-06,8.862586377222471e-07,1.5934510107459345e-05
8.858571870934668e-07,2.2810736782657817e-06,8.753875573438245e-07,1.5911348281639664e-05
8.818107350451376e-07,2.276286157795761e-06,8.644217251114619e-07,1.5894208519738633e-05
8.776353629706043e-07,2.271275835738177e-06,8.533849528104918e-07,1.588277228522717e-05
8.733584065903447e-07,2.266024163808402e-06,8.422962953607297e-07,1.5876547792572152e-05
8.690087717284769e-07,2.2605152790738827e-06,8.311699683987851e-07,1.5874867383128495e-05
8.646211105906481e-07,2.2547289340113912e-06,8.200166885245398e-07,1.5876905135069863e-05
8.602380731374424e-07,2.248632630987225e-06,8.088472827707988e-07,1.5881724351527218e-05
8.559069665836359e-07,2.242180299345377e-06,7.976788391187089e-07,1.5888353501539006e-05
8.516724308882584e-07,2.2353162757556604e-06,7.865396445798662e-07,1.5895861202922827e-05
8.475731089028953e-07,2.2279810104550816e-06,7.75467917307655e-07,1.5903397812071028e-05
8.436456429234417e-07,2.2201221379993992e-06,7.645063330486438e-07,1.591020925123255e-05
8.399295104311245e-07,2.211709337119068e-06,7.536993659977583e-07,1.5915651796730435e-05
8.364669432928873e-07,2.20273906604989e-06,7.430927283367967e-07,1.5919212002874987e-05
8.332982993061496e-07,2.193225991947585e-06,7.327294839169757e-07,1.5920502625845573e-05
8.304563873167772e-07,2.1831928513483767e-06,7.226453414518545e-07,1.5919218476997972e-05
8.279649826789258e-07,2.1726642598407937e-06,7.128678865107777e-07,1.5915072138913684e-05
8.258422118254002e-07,2.161662025722156e-06,7.034182726299167e-07,1.5907743455004284e-05
8.241021781886252e-07,2.1502014038982343e-06,6.943122912177511e-07,1.5896885795317187e-05
8.227519427484524e-07,2.1382915020056643e-06,6.855611117430925e-07,1.5882209810711195e-05
8.21789342367738e-07,2.125942994778284e-06,6.771736420720256e-07,1.5863581365689534e-05
8.212055647145838e-07,2.1131802433240582e-06,6.691598039195854e-07,1.5841046610951857e-05
8.209895670061376e-07,2.100048197256086e-06,6.615327399230218e-07,1.5814782430735323e-05
8.211299436704912e-07,2.0866064831576925e-06,6.543096945231596e-07,1.5785015608325202e-05
8.216143476371948e-07,2.0729136790458383e-06,6.475111559818141e-07,1.5751934695357702e-05
8.224300521655431e-07,2.0590138039017296e-06,6.411588339752714e-07,1.5715622159529737e-05
8.235657797850835e-07,2.0449351795594842e-06,6.352746485341875e-07,1.5676034546730975e-05
8.250107743475204e-07,2.0307006321191628e-06,6.298793492710382e-07,1.563301836549027e-05
8.267500724332362e-07,2.016340035254277e-06,6.249883520329679e-07,1.5586327724240042e-05
8.287603553043732e-07,2.0018983295721856e-06,6.20608081319764e-07,1.55356448797384e-05
8.310109666845655e-07,1.987438243227087e-06,6.167366861922202e-07,1.548062491403685e-05
8.334688096670925e-07,1.9730392128435643e-06,6.133673933572674e-07,1.5420968484720817e-05
8.361011968787188e-07,1.9587930797962717e-06,6.104914446655635e-07,1.5356510041386926e-05
8.388745245476016e-07,1.944795853851817e-06,6.080990508609485e-07,1.5287271257652507e-05
8.417526563000231e-07,1.931139706494051e-06,6.061777847404674e-07,1.5213427683351324e-05
8.446974169720819e-07,1.9179204427134378e-06,6.04710879710455e-07,1.5135217631918292e-05
8.476694009338869e-07,1.9052631413282918e-06,6.036778755215811e-07,1.5052871176771887e-05
8.506277903484992e-07,1.893338223922709e-06,6.030568135210273e-07,1.496659210873956e-05
8.535308390378727e-07,1.882347482501413e-06,6.028269933269587e-07,1.4876566744614819e-05
8.563396373553151e-07,1.8724932296277854e-06,6.029707509303736e-07,1.4782966555545457e-05
8.590245813142048e-07,1.8639507016702591e-06,6.034719915936984e-07,1.4685947809108795e-05
8.615698308912962e-07,1.856851458673481e-06,6.043129075573877e-07,1.4585709683343662e-05
8.639722858808004e-07,1.851279234243935e-06,6.054737226025186e-07,1.4482638428075727e-05
8.662366783212562e-07,1.8472758554967675e-06,6.06937784065695e-07,1.4377404141737802e-05
8.683697254111505e-07,1.844851055623976e-06,6.086980270008043e-07,1.4270881480442396e-05
8.703757584966507e-07,1.8439904326313422e-06,6.107583617315201e-07,1.4163977271391422e-05
8.722573760595489e-07,1.844662065654733e-06,6.131282231367751e-07,1.4057502535859693e-05
8.740200014039083e-07,1.8468306592467483e-06,6.158149946815604e-07,1.3952135182448536e-05
8.756730876364685e-07,1.8504791322139938e-06,6.188197281384988e-07,1.3848516743805938e-05
8.77226148632345e-07,1.855617643772057e-06,6.22135964148608e-07,1.3747456603192907e-05
8.786848147460074e-07,1.862269190380439e-06,6.257489393613585e-07,1.365005469603248e-05
8.800494573565581e-07,1.870455968540516e-06,6.296349927561728e-07,1.3557627856522626e-05
8.813158760410244e-07,1.8802185691231003e-06,6.337616370234778e-07,1.347154151433876e-05
8.82477174428114e-07,1.8916560336818008e-06,6.380887271824103e-07,1.3393069079376434e-05
8.83524650228461e-07,1.9049371706213593e-06,6.425720435717052e-07,1.332329740107297e-05
8.844468575542435e-07,1.9202655659365647e-06,6.471689030074758e-07,1.3263053372896707e-05
8.852279581821708e-07,1.937832812859804e-06,6.518423716877464e-07,1.3212850872047025e-05
8.858471196617347e-07,1.957792073879161e-06,6.565619021551893e-07,1.3172884311117226e-05
8.862818628800079e-07,1.9802529586853366e-06,6.61301628362216e-07,1.3143081242278293e-05
8.865143463140987e-07,2.005286315037801e-06,6.66038065061567e-07,1.3123186106675321e-05
8.8653387731235e-07,2.03292887901874e-06,6.707500112608751e-07,1.3112820349949318e-05
8.863328401192819e-07,2.063181688346084e-06,6.754221519250443e-07,1.311148680142661e-05
8.859012621380413e-07,2.0960081189065268e-06,6.800474558005313e-07,1.3118546276811068e-05
8.852257700948601e-07,2.13134902107761e-06,6.846247856181866e-07,1.3133220440160667e-05
8.842927371774838e-07,2.1691549164022816e-06,6.891549839341287e-07,1.315463859410573e-05
8.830917350889832e-07,2.20940692262216e-06,6.936373915813168e-07,1.3181910292222039e-05
8.816182830821799e-07,2.2521119043732997e-06,6.980671691571536e-07,1.3214199028142187e-05
8.798754655482428e-07,2.2972896001976776e-06,7.024355543054832e-07,1.3250766472990759e-05
8.778712501850138e-07,2.34496996234962e-06,7.067313368594587e-07,1.3290972782911756e-05
8.756133972591757e-07,2.3951983808497168e-06,7.109397321230528e-07,1.3334252635701919e-05
8.731077116164257e-07,2.448032077882691e-06,7.150405897280073e-07,1.3380092393479432e-05
8.703605180245634e-07,2.5035166150407318e-06,7.190098022902862e-07,1.3428015020257174e-05
8.673837499520856e-07,2.561651925521593e-06,7.228223702912618e-07,1.3477555725739404e-05
8.641987086451357e-07,2.6223685120317703e-06,7.26454165759189e-07,1.3528220325481865e-05
8.608327150644995e-07,2.685526435232987e-06,7.298824880855994e-07,1.357947522943294e-05
8.573124133876575e-07,2.750932383382445e-06,7.330849972195325e-07,1.3630806249557947e-05
8.536632383847749e-07,2.818356824924948e-06,7.360376892932417e-07,1.3681778455129525e-05
8.499136269800984e-07,2.8875383286303132e-06,7.387167314399635e-07,1.373202165959379e-05
8.460960221224324e-07,2.958186953555242e-06,7.411051961368106e-07,1.378117389944316e-05
8.422429294576278e-07,3.0300140647209373e-06,7.4319790891222e-07,1.3828851493742932e-05
8.383818302469964e-07,3.102791367201143e-06,7.449999667840345e-07,1.3874656489336069e-05
8.345340556281388e-07,3.1763999186373725e-06,7.465228320503923e-07,1.3918184465384958e-05
8.30718292512508e-07,3.2508294600228208e-06,7.477822577171452e-07,1.395900668064802e-05
8.26953082540178e-07,3.3261346375337955e-06,7.487969882391457e-07,1.3996655279841535e-05
8.232567303866597e-07,3.4023833831779013e-06,7.495865108664256e-07,1.4030653061624087e-05
8.196500750433406e-07,3.4796157192532934e-06,7.501680225184369e-07,1.4060582322352111e-05
8.161627634438269e-07,3.55781237139414e-06,7.505534174655783e-07,1.4086163300104391e-05
8.128372980045519e-07,3.636875066021554e-06,7.507496091021949e-07,1.4107321451528643e-05
8.09728629335312e-07,3.7166235527008452e-06,7.507652320160586e-07,1.4124233484177478e-05
8.068996462566093e-07,3.796808969014907e-06,7.506189284051025e-07,1.413733425599045e-05
8.044134972041237e-07,3.877134044713292e-06,7.503410451654584e-07,1.4147250287662412e-05
8.023291189884956e-07,3.957268288522731e-06,7.499681581933582e-07,1.4154659285208665e-05
8.007021137485329e-07,4.0368587907221355e-06,7.495360722612359e-07,1.416014051988374e-05
7.995826604135106e-07,4.115546516999917e-06,7.490756844443912e-07,1.4164094051646085e-05
7.99008506221758e-07,4.192987668074499e-06,7.48612629951443e-07,1.4166744783845966e-05
7.99000437031407e-07,4.268865726640856e-06,7.481688621543935e-07,1.4168185206884521e-05
7.995623613174356e-07,4.3428835983710915e-06,7.477631374242009e-07,1.4168411526145606e-05
8.00683064536667e-07,4.4147449580315665e-06,7.474096636510532e-07,1.4167365503567459e-05
8.023397879879226e-07,4.484145241803718e-06,7.471163939526741e-07,1.4165044937910583e-05
8.045040234417572e-07,4.5507800196088585e-06,7.468835942567887e-07,1.4161633945264887e-05
8.071452538220481e-07,4.614359486593986e-06,7.467038355577761e-07,1.415748023065176e-05
8.102298565424885e-07,4.674615864577062e-06,7.465644439475769e-07,1.4152921472570444e-05
8.137192344770151e-07,4.7313010438151985e-06,7.464502469380517e-07,1.4148152984941778e-05
8.175716164570173e-07,4.7841825372513676e-06,7.463440272368786e-07,1.4143250125495408e-05
8.217464069884595e-07,4.833049281249883e-06,7.462251179347869e-07,1.4138346435605256e-05
8.262068798459082e-07,4.877726634713884e-06,7.460683863150737e-07,1.4133884742495532e-05
8.309185591468402e-07,4.918086592048085e-06,7.458445862565726e-07,1.4130759544032253e-05
8.358446480380105e-07,4.954042903025496e-06,7.455221403971506e-07,1.4130246860034976e-05
8.409421458374458e-07,4.985533069509495e-06,7.450713193293344e-07,1.4133814652584793e-05
8.461604204263398e-07,5.012498820715239e-06,7.444688035655682e-07,1.414293585524332e-05
8.514419949323439e-07,5.034876869387741e-06,7.436973234191609e-07,1.4158933676489346e-05
8.567258761458881e-07,5.0526027370385135e-06,7.4274090234922e-07,1.4182862772148486e-05
8.619523976975327e-07,5.065623271810044e-06,7.415818979433352e-07,1.4215441189045948e-05
8.670655214175112e-07,5.073910524412815e-06,7.402018003224047e-07,1.4257034255051333e-05
8.720114795905651e-07,5.077469030750891e-06,7.385827457788406e-07,1.4307678144126962e-05
8.767372085504543e-07,5.076333159572539e-06,7.367074067173758e-07,1.436712455378626e-05
8.811895906472382e-07,5.070558243588645e-06,7.345584464206752e-07,1.443487979119007e-05
8.853143447182951e-07,5.0602109258871095e-06,7.3212019705601e-07,1.4510231440511456e-05
8.890557296831232e-07,5.0453612871964725e-06,7.293821385077241e-07,1.4592282883004597e-05
8.923581766959064e-07,5.026083552452712e-06,7.26341508225511e-07,1.4680002540553754e-05
8.951689247991009e-07,5.0024758564456686e-06,7.230033230474759e-07,1.4772285234232943e-05
8.974407852286999e-07,4.974694587548984e-06,7.193781209927796e-07,1.4868028126453771e-05
8.99134248941394e-07,4.94298157027911e-06,7.154801745151467e-07,1.4966198918084595e-05
9.002180418822563e-07,4.907664407197934e-06,7.113278200950191e-07,1.5065863827109866e-05
9.006699797133724e-07,4.869128204706632e-06,7.069443111517259e-07,1.5166182631785556e-05
9.00480664888868e-07,4.827775984069362e-06,7.023572310326861e-07,1.5266400718307216e-05
8.996571678832531e-07,4.783995370029012e-06,6.975956330697605e-07,1.536583552030036e-05
8.982212284093985e-07,4.738135396889255e-06,6.92686481022187e-07,1.5463836724845488e-05
8.962018101013408e-07,4.6904959902508e-06,6.876533930635714e-07,1.555973369176617e-05
8.9362733373044e-07,4.6413389476629615e-06,6.82517344342946e-07,1.5652796855264135e-05
8.905219042382236e-07,4.590918072910325e-06,6.772975057790701e-07,1.5742226750383694e-05
8.869048408110006e-07,4.539506233239762e-06,6.720134700542496e-07,1.582719289585894e-05
8.827907740267935e-07,4.487398606891917e-06,6.666901167048354e-07,1.5906908739958347e-05
8.781898029442064e-07,4.434892852727269e-06,6.613632772750154e-07,1.5980664981280652e-05
8.731090573792831e-07,4.382261933466447e-06,6.560821230286877e-07,1.6047793059655277e-05
8.675559156217232e-07,4.329734554829583e-06,6.509049191725307e-07,1.610762189727421e-05
8.615403091481926e-07,4.2774914965664005e-06,6.458901187345589e-07,1.6159479878346904e-05
8.550743153652523e-07,4.225680129844413e-06,6.410898144246757e-07,1.62027329887615e-05
8.481721878226017e-07,4.1744381869426685e-06,6.365500518632944e-07,1.6236814720385626e-05
8.408532833258901e-07,4.123904346823289e-06,6.323144832508847e-07,1.6261233186707098e-05
8.331445535696147e-07,4.074204836088007e-06,6.284256794248918e-07,1.6275613968448018e-05
8.250795903892602e-07,4.02543658242195e-06,6.249234150410382e-07,1.6279818283277825e-05
8.166964862357319e-07,3.9776690463327245e-06,6.218416551895495e-07,1.6274055254501692e-05
8.080381264526202e-07,3.9309617653771374e-06,6.192054561007568e-07,1.6258873834309293e-05
7.991539457298257e-07,3.885383416671302e-06,6.170289834796618e-07,1.6235037266767793e-05
7.900990892334206e-07,3.841024816343504e-06,6.153152708385712e-07,1.6203377158429786e-05
7.809301079038744e-07,3.7980109502072143e-06,6.140578740501629e-07,1.616469669115849e-05
7.716993469382111e-07,3.7565157935144967e-06,6.132446174954498e-07,1.6119726965565286e-05
7.624511462573205e-07,3.7167654529737366e-06,6.128632436200036e-07,1.606912834254178e-05
7.532229857332011e-07,3.6790139547827964e-06,6.129071070793943e-07,1.6013534013822752e-05
7.440491846424123e-07,3.6434993078318084e-06,6.133770161453128e-07,1.595359305533927e-05
7.349615625014996e-07,3.610406050158719e-06,6.142793055437302e-07,1.588997013788623e-05
7.259884977072456e-07,3.579853485882299e-06,6.15626895741402e-07,1.5823305754625673e-05
7.171560751092549e-07,3.5519052981770834e-06,6.174455819629702e-07,1.5754179850174913e-05
7.084886219065494e-07,3.5265864955281107e-06,6.197783902249254e-07,1.5683168767998324e-05
7.000066533500148e-07,3.503902108197686e-06,6.22682285977528e-07,1.5610971356371105e-05
6.917249745231046e-07,3.4838545131145937e-06,6.262195859767002e-07,1.5538419013029022e-05
6.836520834789853e-07,3.46645251538648e-06,6.304492678567659e-07,1.546638190274493e-05
6.757908193812872e-07,3.4517092645021813e-06,6.354194623300472e-07,1.5395784373126628e-05
6.681423820815986e-07,3.439631306473954e-06,6.411606172761651e-07,1.5327704491942126e-05
6.607125607085452e-07,3.4302025439397617e-06,6.47682409979869e-07,1.5263363211823996e-05
6.535141789254507e-07,3.4233700392401952e-06,6.549764789882296e-07,1.5203998479335904e-05
6.465640309567682e-07,3.4190393939641626e-06,6.630206183950401e-07,1.5150738049913501e-05
6.398787089557371e-07,3.4170815851723427e-06,6.71780014369016e-07,1.5104521814188647e-05
6.334735357594391e-07,3.417346001789316e-06,6.81206907368889e-07,1.5066068827549743e-05
6.273641588507018e-07,3.4196710580806387e-06,6.912417815857852e-07,1.503586408658474e-05
6.215664563261437e-07,3.423885761632248e-06,7.018165642400927e-07,1.501414920226784e-05
6.160938198487255e-07,3.4298017690705897e-06,7.128587961023581e-07,1.5000915172939904e-05
6.10956066413147e-07,3.437203781911255e-06,7.242957882827455e-07,1.4995897259765228e-05
6.061617382203672e-07,3.4458509290755804e-06,7.360579751326213e-07,1.4998582033303699e-05
6.017195564550853e-07,3.4554951085375036e-06,7.480822145625516e-07,1.5008239311868607e-05
5.976363129167276e-07,3.4659078451817734e-06,7.603150383061919e-07,1.5023969734395081e-05
5.939154324401922e-07,3.476898165042655e-06,7.727123641106179e-07,1.5044744171927833e-05
5.905584387116604e-07,3.4883098582479563e-06,7.85235226233347e-07,1.5069434406288787e-05
5.875649505418356e-07,3.5000030313377663e-06,7.978452532381245e-07,1.5096859031253644e-05
5.849299577837915e-07,3.5118336985693925e-06,8.105008602011894e-07,1.5125847217520274e-05
5.826424274507903e-07,3.523640297670071e-06,8.231544423689913e-07,1.515529044537673e-05
5.80686447473224e-07,3.5352392149946634e-06,8.357518115536693e-07,1.518416273427914e-05
5.790428124953631e-07,3.5464271580303438e-06,8.482334595382689e-07,1.5211514572917776e-05
5.776907655740782e-07,3.556988044267002e-06,8.605390677384882e-07,1.523645210458494e-05
5.766096807656878e-07,3.566704968735733e-06,8.726159431434149e-07,1.5258123191795407e-05
5.757787181680968e-07,3.5753743980586128e-06,8.844255073715005e-07,1.527573526221644e-05
5.751744979722559e-07,3.5828141102697037e-06,8.959437223266735e-07,1.5288593175363127e-05
5.747690341229378e-07,3.5888590199365213e-06,9.071572725045738e-07,1.5296108352062854e-05
5.745293799047434e-07,3.5933496533171685e-06,9.180570809255586e-07,1.529776006208118e-05
5.74419029033425e-07,3.5961258841426468e-06,9.286327393373751e-07,1.5293043476760445e-05
5.744000875674715e-07,3.5970308070263407e-06,9.38871849866436e-07,1.5281452196779687e-05
5.744346108292984e-07,3.5959179302904067e-06,9.487611922127758e-07,1.5262529993455922e-05
5.74484651768361e-07,3.5926564475769036e-06,9.58285412956337e-07,1.5235959893208807e-05
5.745124943437504e-07,3.5871334085883643e-06,9.67424624613908e-07,1.5201583911374771e-05
5.744815981346234e-07,3.579251103204996e-06,9.7615324854012e-07,1.5159327370017066e-05
5.743575668800123e-07,3.5689217108065317e-06,9.844399400800017e-07,1.5109138812609586e-05
5.741093292208403e-07,3.5560638458146074e-06,9.922481623279288e-07,1.5050999401593227e-05
5.737100843983663e-07,3.5406017752053316e-06,9.995370793909816e-07,1.4984930001317944e-05
5.731372512097383e-07,3.522465771850865e-06,1.0062621092243723e-06,1.4910976343240674e-05
5.723721805995908e-07,3.5015927504611504e-06,1.0123755509663332e-06,1.482923851992162e-05
5.714006654562994e-07,3.4779272700180962e-06,1.0178281788244074e-06,1.4739937925599026e-05
5.702153314722312e-07,3.451423249192383e-06,1.022571116863873e-06,1.4643441877181022e-05
5.688200066201329e-07,3.422045861827497e-06,1.02655702421939e-06,1.4540237029587982e-05
5.672329397629414e-07,3.389772617553181e-06,1.0297410364966758e-06,1.4430897863308402e-05
5.654858078887237e-07,3.3545932268791264e-06,1.0320815414357054e-06,1.4316053751703226e-05
5.636198734199936e-07,3.3165089792769696e-06,1.0335410975599987e-06,1.419633846310982e-05
5.616819458679883e-07,3.2755326166890253e-06,1.0340885747381012e-06,1.407233025599175e-05
5.597194694354723e-07,3.231689193346075e-06,1.0337006752622312e-06,1.3944522222657086e-05
5.577742306083001e-07,3.1850179478746708e-06,1.0323612284245086e-06,1.3813372353408118e-05
5.558782519117868e-07,3.1355740046004238e-06,1.030060906890157e-06,1.3679414904378972e-05
5.540548643261386e-07,3.0834294158925543e-06,1.0267980474702046e-06,1.3543333825811114e-05
5.523234256953403e-07,3.028676039233591e-06,1.0225776451945153e-06,1.3405920564278987e-05
5.50704449132573e-07,2.9714310403877382e-06,1.0174084598217914e-06,1.3267949860529656e-05
5.492231311363093e-07,2.911839322705582e-06,1.0113011841479405e-06,1.3130110544354359e-05
5.479103294640003e-07,2.850067980606425e-06,1.0042694452532094e-06,1.2993075505828834e-05
5.468008285803665e-07,2.7862993710670218e-06,9.963334458075104e-07,1.2857609432379301e-05
5.459296249471239e-07,2.7207338280524656e-06,9.875227744626656e-07,1.2724596438603353e-05
5.453273453815825e-07,2.6536005847387003e-06,9.77874035305316e-07,1.2595004720621326e-05
5.450166207718079e-07,2.585163646585668e-06,9.6742529282395e-07,1.2469826692339732e-05
5.450107824401969e-07,2.515713333649769e-06,9.562128109667809e-07,1.235001612624866e-05
5.453135470768704e-07,2.4455484439945613e-06,9.442712521624131e-07,1.2236450737885698e-05
5.459184427273107e-07,2.374961513985728e-06,9.316353207361755e-07,1.2129911515756378e-05
5.468091049428743e-07,2.3042315956824763e-06,9.183414706938059e-07,1.2031047685935555e-05
5.479614993876428e-07,2.2336202647245582e-06,9.044291016512379e-07,1.1940326941922036e-05
5.493478172067233e-07,2.1633697812720728e-06,8.899415246666495e-07,1.1858007631662298e-05
5.509395640912146e-07,2.093705670344125e-06,8.749277776426309e-07,1.1784152364572693e-05
5.527071273612406e-07,2.0248426496317003e-06,8.594438088762829e-07,1.1718664384956684e-05
5.546175569390015e-07,1.956992066720021e-06,8.435500197965481e-07,1.1661321864468335e-05
5.566339657672863e-07,1.890369130611188e-06,8.27306740875186e-07,1.161178899322322e-05
5.587176214088458e-07,1.8251943158756173e-06,8.107719233195197e-07,1.1569614265175455e-05
5.608324180656015e-07,1.7616861050142548e-06,7.94002321286623e-07,1.1534257833439176e-05
5.629484528784147e-07,1.7000556560128994e-06,7.770565903532981e-07,1.1505144097200698e-05
5.650407946227438e-07,1.6405198544987138e-06,7.599980112758863e-07,1.1481684543578005e-05
5.670862906360803e-07,1.5833334660695963e-06,7.428955745951606e-07,1.1463256453290805e-05
5.690633263973048e-07,1.5288202538780712e-06,7.258231236237655e-07,1.1449186886744564e-05
5.709546492623824e-07,1.4773801956416432e-06,7.088557768876886e-07,1.143878118337438e-05
5.727537705869743e-07,1.4294653243405642e-06,6.920647040145252e-07,1.143138261972256e-05
5.744735394892185e-07,1.3855359888917565e-06,6.755135379289453e-07,1.1426422947081412e-05
5.761487948972805e-07,1.3460157708188451e-06,6.592579022030486e-07,1.1423433321681595e-05
5.778288236591449e-07,1.3112581417569812e-06,6.433483980477311e-07,1.1422017848957657e-05
5.795649064250423e-07,1.2815342411343485e-06,6.278382108629776e-07,1.142181796603944e-05
5.814021306961633e-07,1.2570398509124314e-06,6.127938948774665e-07,1.1422495149430072e-05
5.83380774927802e-07,1.2379050258235995e-06,5.983020614005226e-07,1.1423737887231367e-05
5.85542196642786e-07,1.2241968146812838e-06,5.844645824588231e-07,1.1425267267238245e-05
5.879316043885767e-07,1.2159211648671671e-06,5.713851437082564e-07,1.142681236188944e-05
5.905975716000587e-07,1.213030920744695e-06,5.591573676989678e-07,1.1428065500380872e-05
5.935890448219596e-07,1.2154393634151524e-06,5.478591694044817e-07,1.1428656728114164e-05
5.969489929531264e-07,1.2230351943051709e-06,5.375511872566139e-07,1.1428179335451579e-05
6.007092147020937e-07,1.2356971747703566e-06,5.282774983645263e-07,1.1426245449894735e-05
6.048903312444097e-07,1.2533060817901624e-06,5.200677151808107e-07,1.1422500427961658e-05
6.095032789056401e-07,1.275746903994637e-06,5.129382643745123e-07,1.1416584651109673e-05
6.145492985406116e-07,1.30289758466611e-06,5.068919536133264e-07,1.1408107712370759e-05
6.200200245614048e-07,1.3346108532856468e-06,5.019187798957613e-07,1.1396665239916946e-05
6.258988535142353e-07,1.3706998988443014e-06,4.979999953548178e-07,1.1381896161539232e-05
6.321646092249139e-07,1.4109331904492638e-06,4.951125958859265e-07,1.1363572624829187e-05
6.387957826550786e-07,1.4550367322903319e-06,4.932317268749518e-07,1.1341663417502656e-05
6.457718422954466e-07,1.5027007285365601e-06,4.923322519139136e-07,1.1316309259853493e-05
6.530774650448139e-07,1.5535871501167703e-06,4.923906218062239e-07,1.1287728898999195e-05
6.607153582012878e-07,1.6073337911154194e-06,4.933855241835206e-07,1.1256121272228046e-05
6.687153069887643e-07,1.6635558045380398e-06,4.952954738273051e-07,1.1221616303373396e-05
6.771271756458368e-07,1.7218523739258565e-06,4.980941940364265e-07,1.1184304296968162e-05
6.860061161046871e-07,1.7818223246879933e-06,5.017468494980557e-07,1.1144312256976707e-05
6.954017840493589e-07,1.8430811596747464e-06,5.062092428388324e-07,1.110183024657364e-05
7.053511645869495e-07,1.9052694905174718e-06,5.114297736732246e-07,1.1057056442410574e-05
7.158724065922606e-07,1.9680512084304667e-06,5.17352567440564e-07,1.1010139042605417e-05
7.269620868347887e-07,2.031105159891254e-06,5.23920228559152e-07,1.0961166697679857e-05
7.385973707445479e-07,2.0941165078079774e-06,5.310757554431561e-07,1.0910187341202409e-05
7.507407051590805e-07,2.156776613543369e-06,5.38762823548202e-07,1.0857229415773814e-05
7.633435665907782e-07,2.218791379543137e-06,5.469233775292718e-07,1.0802311069557553e-05
7.763484417430729e-07,2.2798863767491995e-06,5.554944502028821e-07,1.074545630693214e-05
7.896913043237806e-07,2.339803251623869e-06,5.644078546762964e-07,1.068678318015006e-05
8.03304193891212e-07,2.3982923540780774e-06,5.735937452998054e-07,1.0626658746332598e-05
8.171157023614487e-07,2.4551060467473204e-06,5.829850961934856e-07,1.0565775375661063e-05
8.3105166238219e-07,2.5099949150982744e-06,5.925189218175441e-07,1.0505051515633768e-05
8.450389308379425e-07,2.5627093688048458e-06,6.02134643941608e-07,1.0445452733143076e-05
8.590093649061693e-07,2.613006099230588e-06,6.1177321578886e-07,1.038786449842809e-05
8.728991731021559e-07,2.660654486473563e-06,6.213765990889364e-07,1.033306427823494e-05
8.866443299494247e-07,2.705439970993671e-06,6.308860167281695e-07,1.0281830377752057e-05
9.001769977237032e-07,2.747165598467506e-06,6.402409916334791e-07,1.0235143335073448e-05
9.134251866978069e-07,2.7856528012357115e-06,6.493810285936678e-07,1.0194283721981633e-05
9.263139395400169e-07,2.820741329887118e-06,6.582482516072426e-07,1.016072856293222e-05
9.387670084339228e-07,2.8522882165110364e-06,6.667877272732765e-07,1.0135960788435882e-05
9.507096117594368e-07,2.880167787423876e-06,6.749458348217581e-07,1.0121310720619217e-05
9.620706708364296e-07,2.9042761588798106e-06,6.826705150844946e-07,1.0117859260895419e-05
9.727823492815515e-07,2.9245387455217714e-06,6.899138386432581e-07,1.0126397316403513e-05
9.827784504812815e-07,2.940915258688953e-06,6.966331374455128e-07,1.0147429051289878e-05
9.91993967302986e-07,2.9533985012141417e-06,7.027892967636021e-07,1.018120290909889e-05
1.000365588498032e-06,2.9620070246640233e-06,7.08345411023637e-07,1.0227747065125262e-05
1.0078327949873523e-06,2.966775759573276e-06,7.132687496558914e-07,1.0286886109625504e-05
1.0143392980616498e-06,2.967749049365168e-06,7.175345857076767e-07,1.035823802245434e-05
1.0198344655176942e-06,2.9649784925952764e-06,7.211285436528225e-07,1.0441210676116059e-05
1.02427611275655e-06,2.9585257823613106e-06,7.240475694175737e-07,1.0535009444416762e-05
1.02763380285381e-06,2.9484648633240536e-06,7.263025497235229e-07,1.0638659800385325e-05
1.0298883480605806e-06,2.9348781342464342e-06,7.279220521838485e-07,1.0751056834820925e-05
1.0310276832128809e-06,2.917851884330279e-06,7.289510964644113e-07,1.087104775413712e-05
1.0310432828886105e-06,2.8974782554687537e-06,7.294421999988066e-07,1.0997520901626312e-05
1.0299288457348472e-06,2.873861793741798e-06,7.294457412650202e-07,1.1129457808875824e-05
1.0276812724386074e-06,2.8471245962409628e-06,7.290073567795761e-07,1.1265943029173171e-05
1.0243027570360235e-06,2.8174095650320913e-06,7.281706468165921e-07,1.1406150158611242e-05
1.0198023053275806e-06,2.784885039006864e-06,7.269782757624341e-07,1.1549295397455002e-05
1.0141967646656358e-06,2.7497477287524664e-06,7.254695170592531e-07,1.1694566779665456e-05
1.0075104563549071e-06,2.712216219296408e-06,7.236781145326206e-07,1.1841075252973533e-05
9.99773677474172e-07,2.6725156711514275e-06,7.216328301552262e-07,1.1987847220339349e-05
9.910248324606347e-07,2.6308630867455082e-06,7.193594224115548e-07,1.2133853696305027e-05
9.813159424480642e-07,2.587461606245036e-06,7.168829129850375e-07,1.2278075813498025e-05
9.707140133106423e-07,2.542504946876262e-06,7.142310266111504e-07,1.2419564241928771e-05
9.592956372074342e-07,2.496184514030515e-06,7.114396563107995e-07,1.2557428102324425e-05
9.471398429982651e-07,2.44869143158037e-06,7.085576696037946e-07,1.2690773343087214e-05
9.343242855975635e-07,2.4002130971911e-06,7.05647002496347e-07,1.281866930035044e-05
9.209249914098163e-07,2.350927720186834e-06,7.027790041840748e-07,1.294016514733264e-05
9.070165655081156e-07,2.3010009767317007e-06,7.000302193209285e-07,1.3054322915498258e-05
8.926713669934328e-07,2.2505893041171915e-06,6.974762817754575e-07,1.3160252465753826e-05
8.779582814000765e-07,2.1998492026642425e-06,6.951847698871935e-07,1.3257151604353725e-05
8.629421929012249e-07,2.148945292126257e-06,6.932139189694245e-07,1.3344338415575022e-05
8.476849184153431e-07,2.0980510315181896e-06,6.916177274080403e-07,1.342126703235928e-05
8.322473816814377e-07,2.0473424462298643e-06,6.904492655417738e-07,1.348752951018266e-05
8.166924373235645e-07,1.9969894307991316e-06,6.897574079929939e-07,1.3542858944452335e-05
8.010878779540438e-07,1.9471480771580595e-06,6.895800472733422e-07,1.3587166568414962e-05
7.855110523445055e-07,1.8979559201248608e-06,6.899397053431072e-07,1.3620587308545164e-05
7.700570534342282e-07,1.849533470394101e-06,6.908443364874282e-07,1.3643454849095635e-05
7.548478818296347e-07,1.8019953466398018e-06,6.922911965400691e-07,1.3656203003031861e-05
7.40035999570417e-07,1.7554682869490127e-06,6.942709200027646e-07,1.3659265723262845e-05
7.257970197794959e-07,1.7101034799570468e-06,6.96771823322335e-07,1.3653023784959013e-05
7.123123311320415e-07,1.6660704313598416e-06,6.997842640991947e-07,1.3637793074984518e-05
6.997491624265607e-07,1.6235374772788234e-06,7.033016042667438e-07,1.3613826458638255e-05
6.882478407284911e-07,1.5826606995388874e-06,7.073165494275694e-07,1.3581329775283549e-05
6.779212341826087e-07,1.5435911975314815e-06,7.118178761105147e-07,1.3540547876118331e-05
6.688622921258856e-07,1.5064861454351102e-06,7.167906350940112e-07,1.3491927923186999e-05
6.611517831959717e-07,1.4715079238734873e-06,7.222160807382159e-07,1.3436217972184813e-05
6.54863047739409e-07,1.4388103759361342e-06,7.280703195098993e-07,1.3374388768558393e-05
6.500648592541057e-07,1.4085206430429937e-06,7.343268952463738e-07,1.3307463739212925e-05
6.468228062278789e-07,1.3807268527256431e-06,7.409637839298135e-07,1.323639140817968e-05
6.451986635726055e-07,1.3554754420485352e-06,7.47967955412738e-07,1.3162040900232769e-05
6.452481969191426e-07,1.3327746347012735e-06,7.553330628479495e-07,1.3085368874758778e-05
6.470197271035882e-07,1.312600928017154e-06,7.630535181107091e-07,1.3007667447272685e-05
6.505555899891324e-07,1.2949067654372775e-06,7.711211038974134e-07,1.2930670780241487e-05
6.558935425471082e-07,1.2796276654361592e-06,7.79524970107157e-07,1.2856440105720646e-05
6.630636315225827e-07,1.2666897882139308e-06,7.882517092716315e-07,1.278716628678474e-05
6.72081959161223e-07,1.2560159783522914e-06,7.972843841751278e-07,1.272501208940678e-05
6.829451521345108e-07,1.247524054492513e-06,8.066009731279667e-07,1.2672005294306375e-05
6.956271552266615e-07,1.2411215782822714e-06,8.161722853960057e-07,1.2629967602185664e-05
7.100803346433103e-07,1.236710986141851e-06,8.25959666736482e-07,1.2600468220698646e-05
7.262426933737376e-07,1.2342085998620643e-06,8.359145961991728e-07,1.2584795783435735e-05
7.4404796662009e-07,1.2335656590701817e-06,8.459827426675904e-07,1.258394412697758e-05
7.634317163091427e-07,1.2347768007010618e-06,8.561099078719712e-07,1.2598592616035283e-05
7.843308447192013e-07,1.2378700483078287e-06,8.662440599716612e-07,1.2629067104774136e-05
8.066807798573456e-07,1.2428847301932477e-06,8.76333605612703e-07,1.2675313014744e-05
8.304142976103102e-07,1.249849205679486e-06,8.86328155702632e-07,1.2736928522883243e-05
8.554605969802567e-07,1.2587643835425348e-06,8.961851460830759e-07,1.2813259235657882e-05
8.817422031281849e-07,1.269594847194523e-06,9.05878914155996e-07,1.2903519733399753e-05
9.09169888612717e-07,1.2822707431395108e-06,9.154067249301253e-07,1.3006907418165375e-05
9.37637658769224e-07,1.29669825313012e-06,9.247890305421505e-07,1.31226750886009e-05
9.670209475865223e-07,1.3127680999435013e-06,9.340654061977613e-07,1.3250146368541355e-05
9.971803275710383e-07,1.3303571473711596e-06,9.432879267861407e-07,1.338870076802514e-05
1.0279699172618198e-06,1.3493346752141264e-06,9.525111706599144e-07,1.3537767497772314e-05
1.0592455639821673e-06,1.3695825190243789e-06,9.617802833103427e-07,1.369682281654614e-05
1.0908662571950362e-06,1.3910164028247823e-06,9.711227203455223e-07,1.3865352066507424e-05
1.1226885120562886e-06,1.4135916838138613e-06,9.805484808862058e-07,1.4042774044284176e-05
1.1545609374908992e-06,1.4372921593942968e-06,9.900577019781643e-07,1.4228367468873926e-05
1.186322982868512e-06,1.4621109031642376e-06,9.996471298052972e-07,1.4421233987503702e-05
1.2178058978433866e-06,1.488032347245241e-06,1.0093089084850298e-06,1.4620325130197397e-05
1.248834739828568e-06,1.5150194755440134e-06,1.0190259817325412e-06,1.4824516219992245e-05
1.279231491306646e-06,1.5430064651382025e-06,1.028769834046849e-06,1.5032646405718185e-05
1.3088187018189149e-06,1.5718974934734396e-06,1.0385001851000302e-06,1.524349719058125e-05
1.3374232916211932e-06,1.601570203943004e-06,1.0481666081667348e-06,1.5455765604160557e-05
1.3648808963839082e-06,1.6318793763723715e-06,1.0577124297778258e-06,1.5668070194687607e-05
1.3910410638129645e-06,1.6626592481210128e-06,1.0670795833777295e-06,1.5878977330177548e-05
1.415770661696385e-06,1.6937278466841381e-06,1.0762141981116102e-06,1.6087021001674667e-05
1.4389522338472222e-06,1.724893933337558e-06,1.085070896765135e-06,1.62907156734992e-05
1.4604808229156525e-06,1.7559621320867475e-06,1.0936124260375737e-06,1.6488580884051213e-05
1.4802652396251345e-06,1.7867375773227005e-06,1.1018056103599244e-06,1.6679183464143177e-05
1.4982332527200932e-06,1.817034985675319e-06,1.1096164982585992e-06,1.6861192874928492e-05
1.5143357038615247e-06,1.846686914412011e-06,1.117006358837808e-06,1.703345263730864e-05
1.5285446151413709e-06,1.8755438574558793e-06,1.1239307556800682e-06,1.7195070228382805e-05
1.5408453326729688e-06,1.9034693739397708e-06,1.1303429073207626e-06,1.734546765713421e-05
1.5512298765679149e-06,1.930334881209812e-06,1.1361991497475837e-06,1.748431488567702e-05
1.5596963853461281e-06,1.956013883365206e-06,1.1414629876891586e-06,1.7611386787743142e-05
1.5662504090838712e-06,1.9803771127227704e-06,1.1461066693405791e-06,1.7726469278886095e-05
1.5709028121582718e-06,2.0032915938043453e-06,1.1501108133817956e-06,1.7829368914101905e-05
1.5736662474149169e-06,2.0246241310720584e-06,1.1534619232112308e-06,1.7919969788487266e-05
1.57455432820741e-06,2.0442465309012717e-06,1.1561490975263195e-06,1.799826074152787e-05
1.5735826871338431e-06,2.06203826316502e-06,1.1581619980553978e-06,1.8064306086216928e-05
1.5707695908900617e-06,2.0778868239283657e-06,1.1594913452193637e-06,1.8118204123604448e-05
1.5661380722574313e-06,2.0916889877471087e-06,1.160132697571657e-06,1.8160127877757847e-05
1.5597203964967204e-06,2.103351621228605e-06,1.1600902914173157e-06,1.819042553453278e-05
1.5515590729034814e-06,2.1127911876243457e-06,1.1593765998916049e-06,1.820962085762236e-05
1.541702972372506e-06,2.1199359533904484e-06,1.1580086247120044e-06,1.821828704410485e-05
1.5302077957046797e-06,2.1247320735892892e-06,1.156004052307281e-06,1.821691961186878e-05
1.5171451171600625e-06,2.127148325075154e-06,1.153379471456215e-06,1.8205910911140523e-05
1.5026101299137743e-06,2.127175304398211e-06,1.1501520796253373e-06,1.818569138375431e-05
1.4867190864354426e-06,2.1248205706291628e-06,1.1463425023681452e-06,1.8156971569075484e-05
1.4695992373494047e-06,2.1201028531362045e-06,1.1419745320279159e-06,1.812085603916739e-05
1.4513781425621003e-06,2.113047382873828e-06,1.137071556568706e-06,1.807872845235705e-05
1.4321767971040703e-06,2.1036837861830893e-06,1.1316532595540356e-06,1.803205540836273e-05
1.412108944230986e-06,2.0920472064983463e-06,1.1257354101954188e-06,1.798224804092801e-05
1.3912850004663814e-06,2.078181915582636e-06,1.1193308095308737e-06,1.7930572071385613e-05
1.3698157797450277e-06,2.0621449870149382e-06,1.1124484125974109e-06,1.7878064634007633e-05
1.3478135882271255e-06,2.0440083203738883e-06,1.105092675968876e-06,1.782547239071918e-05
1.325391192566671e-06,2.02386083122758e-06,1.0972656151563377e-06,1.777324038187518e-05
1.302659140044975e-06,2.001812874496497e-06,1.088969312829247e-06,1.7721540809723503e-05
1.2797225300913817e-06,1.97799795430052e-06,1.0802063134271496e-06,1.767031536719941e-05
1.2566779112730269e-06,1.9525645360601057e-06,1.0709792919688447e-06,1.7619324353593523e-05
1.2336102584532815e-06,1.925662915752977e-06,1.0612924996665077e-06,1.756819919513101e-05
1.210592409832921e-06,1.897440451938256e-06,1.0511537257432885e-06,1.751648704656044e-05
1.1876891107788006e-06,1.868051310492593e-06,1.0405737948863427e-06,1.7463689080514507e-05
1.1649634633617786e-06,1.83767565381524e-06,1.0295641639149228e-06,1.7409312491874115e-05
1.1424808375584257e-06,1.8065340184501488e-06,1.018134821203201e-06,1.7352944981358547e-05
1.1203069611106717e-06,1.7748828816812004e-06,1.0062932284272174e-06,1.729432102888351e-05
1.098502054612216e-06,1.742992865920628e-06,9.94044475125514e-07,1.723333898432824e-05
1.0771160499031056e-06,1.7111274237570082e-06,9.81392298053617e-07,1.7170038319820332e-05
1.0561882498120702e-06,1.6795386030309334e-06,9.68340480448409e-07,1.7104578916041567e-05
1.035750901917892e-06,1.6484759685439163e-06,9.54894393371965e-07,1.7037230710208014e-05
1.0158338291790345e-06,1.6181885195913747e-06,9.410616619376732e-07,1.6968347387940124e-05
9.9646830843286e-07,1.588911063901793e-06,9.268522369103315e-07,1.6898306663589406e-05
9.776898616448194e-07,1.5608509636995752e-06,9.12279888899458e-07,1.6827428317146487e-05
9.595396689910931e-07,1.53419057743062e-06,8.973635701547285e-07,1.6755912197410853e-05
9.42065125304545e-07,1.5090973969449224e-06,8.821253724575762e-07,1.668386098237535e-05
9.253198307842093e-07,1.4857260545853433e-06,8.665872539305448e-07,1.6611388785823323e-05
9.093604369190121e-07,1.464209871194095e-06,8.507707725156334e-07,1.65387035738207e-05
8.942406502614668e-07,1.4446538596664425e-06,8.346991764918888e-07,1.646608913704295e-05
8.800094818099623e-07,1.4271419076125549e-06,8.183984743350588e-07,1.639384726319674e-05
8.667155377995661e-07,1.4117548849615537e-06,8.018968463743241e-07,1.6322276102800573e-05
8.544094597979296e-07,1.398581668107381e-06,7.85224047895872e-07,1.6251685367037534e-05
8.431414242007767e-07,1.3877101467930143e-06,7.68411667492571e-07,1.618239882125841e-05
8.32958936532792e-07,1.3792054829143804e-06,7.514937720614838e-07,1.6114710847087978e-05
8.239054441388525e-07,1.373096924668063e-06,7.345064057650728e-07,1.604882327060761e-05
8.160149220546243e-07,1.369386048436813e-06,7.174856806321896e-07,1.5984798264968516e-05
8.093051129329075e-07,1.3680696852990654e-06,7.004668850468806e-07,1.5922533153466557e-05
8.037767195524517e-07,1.3691601368573915e-06,6.834850768943479e-07,1.5861776882348026e-05
7.994171698958127e-07,1.3726868038392547e-06,6.665748470253996e-07,1.5802214635490488e-05
7.962027464355557e-07,1.3786773473458888e-06,6.497696082482881e-07,1.5743572970488117e-05
7.940980566446644e-07,1.3871366060549142e-06,6.331016133887695e-07,1.568564614124381e-05
7.930555917951119e-07,1.3980427100277805e-06,6.166017341978079e-07,1.5628236133188042e-05
7.930171174280106e-07,1.4113582714290297e-06,6.002999263808114e-07,1.5571108060332716e-05
7.939156804031355e-07,1.4270414976339482e-06,5.842275997470853e-07,1.551401128615513e-05
7.956761628733597e-07,1.4450502758010853e-06,5.684195059554259e-07,1.5456709399809226e-05
7.982157337338256e-07,1.465341203168586e-06,5.529126802576699e-07,1.5398969318887696e-05
8.014475132485475e-07,1.487865488173772e-06,5.377432387692553e-07,1.5340527744211066e-05
8.052870602116672e-07,1.512565015147315e-06,5.229444539485385e-07,1.5281114717213307e-05
8.096568343114684e-07,1.5393727289610531e-06,5.085475425964729e-07,1.5220616652756281e-05
8.144861870849832e-07,1.5682137344411576e-06,4.945821747992255e-07,1.5159286750502204e-05
8.197095843778409e-07,1.5989991403470352e-06,4.810752338310299e-07,1.5097784409025643e-05
8.252642333312305e-07,1.631614407404094e-06,4.6805033859806786e-07,1.5037019847424267e-05
8.310863494296691e-07,1.6659142523244463e-06,4.5552993335227097e-07,1.4977974842004328e-05
8.371082595248345e-07,1.701729883390245e-06,4.435385552919323e-07,1.492159501025512e-05
8.432587618128874e-07,1.7388807850848476e-06,4.32103526892189e-07,1.4868763540369046e-05
8.494661163200124e-07,1.7771817093541192e-06,4.212515006580883e-07,1.482038923905601e-05
8.556618793341949e-07,1.816442484220499e-06,4.110042612015436e-07,1.4777544765338135e-05
8.617837966230223e-07,1.8564651616528808e-06,4.013766514130228e-07,1.4741485414817915e-05
8.677762084367813e-07,1.8970460309358826e-06,3.9237598870233397e-07,1.4713528297779065e-05
8.735884081457644e-07,1.9379826112711687e-06,3.840023715673249e-07,1.4694903320204116e-05
8.791728226987766e-07,1.9790784531379053e-06,3.7624974042054207e-07,1.4686627877577704e-05
8.844841415663435e-07,2.020145170398217e-06,3.691067235552464e-07,1.4689421332515787e-05
8.894797012991394e-07,2.0610073770539643e-06,3.625567661664537e-07,1.4703673944165833e-05
8.941201450934471e-07,2.101509333435736e-06,3.565787029228277e-07,1.4729456757714304e-05
8.983690322554229e-07,2.141515305487296e-06,3.5114889030965827e-07,1.4766554034877552e-05
9.021919109882692e-07,2.1808993403616025e-06,3.4624389670942266e-07,1.481451284064245e-05
9.055555339375055e-07,2.2195299120129704e-06,3.418425798986105e-07,1.4872693651892568e-05
9.084272001607682e-07,2.257260410018393e-06,3.379268503727347e-07,1.4940297708444955e-05
9.10775114508032e-07,2.2939325365537224e-06,3.344799176588313e-07,1.5016375140273444e-05
9.125698018431706e-07,2.3293926672706256e-06,3.3148374485792624e-07,1.5099831260076308e-05
9.137845895450741e-07,2.363512597350322e-06,3.289196495031023e-07,1.5189439241801895e-05
9.143946521796202e-07,2.396199899939167e-06,3.26772456987291e-07,1.5283884569782598e-05
9.143764169915104e-07,2.427391966517659e-06,3.250346048380687e-07,1.53818572483728e-05
9.137081255461557e-07,2.457041062662348e-06,3.237065245339848e-07,1.5482145766846258e-05
9.123706796296648e-07,2.4850986520802813e-06,3.227927259226527e-07,1.5583680622401033e-05
9.103477225913127e-07,2.5115041002765013e-06,3.2229625111225307e-07,1.5685534460789993e-05
9.076249486686116e-07,2.5361810898392524e-06,3.222163079716579e-07,1.5786902985281818e-05
9.041897306833805e-07,2.55904015938946e-06,3.225522381534564e-07,1.5887072409557973e-05
9.000316493980421e-07,2.5799832547287625e-06,3.233090620501251e-07,1.5985384375204104e-05
8.951434632701109e-07,2.598909283267358e-06,3.244967895775474e-07,1.6081211159244306e-05
8.89522470514855e-07,2.615720031427664e-06,3.261242744694927e-07,1.6173936493030648e-05
8.831740100545998e-07,2.63032288579812e-06,3.2819430452531684e-07,1.6262943501979765e-05
8.761172878795212e-07,2.6426294755862567e-06,3.30702869973856e-07,1.6347628621051027e-05
8.683892362988199e-07,2.6525535287009988e-06,3.336408395977601e-07,1.642742198492517e-05
8.600434224395075e-07,2.660011255609512e-06,3.369953030050384e-07,1.6501770803427427e-05
8.511450346102984e-07,2.664928349752905e-06,3.4074952678741004e-07,1.6570106186120544e-05
8.417637883049222e-07,2.667254273158493e-06,3.4488223799645016e-07,1.663184646917758e-05
8.319679917030617e-07,2.6669742724644107e-06,3.4936758143760737e-07,1.6686439182734304e-05
8.218231940779095e-07,2.6641102749230828e-06,3.541771790348549e-07,1.6733388368835447e-05
8.113959436810741e-07,2.6587156826292925e-06,3.5928421351027277e-07,1.6772225053311244e-05
8.007600071787865e-07,2.650870825682305e-06,3.646665327857614e-07,1.680245693220566e-05
7.899999335755236e-07,2.6406764030874147e-06,3.7030552855038937e-07,1.6823561726190168e-05
7.792091237150126e-07,2.628244072503944e-06,3.7618252948349116e-07,1.6835028115860393e-05
7.684841862312858e-07,2.613688775021236e-06,3.822794401372354e-07,1.6836412434044825e-05
7.57918047652827e-07,2.5971238988116043e-06,3.88586139514722e-07,1.682740675434639e-05
7.475950356354157e-07,2.57865759172899e-06,3.951070694795192e-07,1.6807899519267585e-05
7.375900035561397e-07,2.5583918494070734e-06,4.018599973239982e-07,1.677795840944386e-05
7.279698589155097e-07,2.5364272570855284e-06,4.0887020312270493e-07,1.6737733343219652e-05
7.187980420995448e-07,2.512871196039028e-06,4.161652519832653e-07,1.6687392737798142e-05
7.101417405526275e-07,2.487843964975197e-06,4.237702243610542e-07,1.662714975604919e-05
7.020753670111292e-07,2.4614805786189817e-06,4.31703140870874e-07,1.6557305654767014e-05
6.946774493383548e-07,2.433929878338168e-06,4.39972519033245e-07,1.6478242748625062e-05
6.880249645211715e-07,2.4053544485904457e-06,4.4857765900484676e-07,1.6390372893235625e-05
6.821871531505904e-07,2.375934610106003e-06,4.5751027499136886e-07,1.6294108784235438e-05
6.772192100989693e-07,2.3458732537284696e-06,4.667564824258096e-07,1.6189964920405385e-05
6.731604615967086e-07,2.3153933540521333e-06,4.762986881507722e-07,1.6078750905461672e-05
6.700407258868993e-07,2.284725394155156e-06,4.861170787859858e-07,1.5961634707944533e-05
6.678899228542793e-07,2.2540908316845267e-06,4.961914847850922e-07,1.5840004604670145e-05
6.667437587921168e-07,2.223691229629969e-06,5.065031620498929e-07,1.571528789676856e-05
6.6664308010493e-07,2.1937038114988103e-06,5.170335419243745e-07,1.558883062719078e-05
6.676264897624086e-07,2.16427843160539e-06,5.277598743208139e-07,1.546187280001477e-05
6.697194631833425e-07,2.135542566437621e-06,5.38652545157006e-07,1.5335678545033937e-05
6.729269650210157e-07,2.107620795163624e-06,5.496767788578317e-07,1.5211732331091321e-05
6.772322624980635e-07,2.080657448501616e-06,5.607963431416768e-07,1.5091786604615191e-05
6.825991904428993e-07,2.054828330368927e-06,5.719768400729157e-07,1.4977736397337729e-05
6.889754394562575e-07,2.0303395244127647e-06,5.83187363508341e-07,1.4871459296527176e-05
6.962963041688839e-07,2.0074177145408823e-06,5.943993414677032e-07,1.4774689915521606e-05
7.044875260435694e-07,1.986292720447073e-06,6.055842933314493e-07,1.468892867546366e-05
7.134668183012987e-07,1.967171656035617e-06,6.167125652648928e-07,1.4615379067974426e-05
7.231464948980491e-07,1.950214899945146e-06,6.277518287912008e-07,1.4554917600032065e-05
7.334361133429955e-07,1.935527081070977e-06,6.386661691499794e-07,1.4508103237628076e-05
7.44241622037895e-07,1.9231621299887693e-06,6.494180520850448e-07,1.4475209999681631e-05
7.554632125164107e-07,1.913133534504199e-06,6.599717630354907e-07,1.445624589932416e-05
7.669961367488918e-07,1.9054246060503662e-06,6.70297152381035e-07,1.4450945107253015e-05
7.787337655668715e-07,1.8999961489888943e-06,6.80374040488663e-07,1.4458774450066611e-05
7.905694148201546e-07,1.8967897019063634e-06,6.901941273450341e-07,1.447898778535115e-05
8.023961537441199e-07,1.895726848673524e-06,6.99756345018726e-07,1.4510706954598733e-05
8.141069004701244e-07,1.896707506582198e-06,7.090580971273176e-07,1.4553009227263592e-05
8.255968147761816e-07,1.8996111333872605e-06,7.180893567474971e-07,1.460501503232858e-05
8.367669699309605e-07,1.9043032891832265e-06,7.268330699174928e-07,1.4665943903013833e-05
8.475261096209703e-07,1.910645071559973e-06,7.352696586246774e-07,1.4735115152421924e-05
8.577896827504594e-07,1.918500106464525e-06,7.433806553548074e-07,1.481191792305602e-05
8.674784017982884e-07,1.927736785493528e-06,7.51148261500093e-07,1.4895782927274155e-05
8.76518244220789e-07,1.9382269015930162e-06,7.585523147658678e-07,1.4986155969344977e-05
8.848420444121273e-07,1.949840809618015e-06,7.655684715008632e-07,1.5082453948062475e-05
8.923913760781112e-07,1.9624404375854883e-06,7.72169502159809e-07,1.5183999087700205e-05
8.99118478231743e-07,1.9758794010384893e-06,7.78327453684549e-07,1.5289968275399034e-05
9.049889800355128e-07,1.9900161395078447e-06,7.840137967969858e-07,1.5399419758432832e-05
9.099834744620793e-07,2.004729808951138e-06,7.891987775516566e-07,1.5511408316725887e-05
9.140950394814541e-07,2.0199268649191705e-06,7.938522606990764e-07,1.562510023140318e-05
9.173239766488345e-07,2.035538664275933e-06,7.979454994473229e-07,1.573979902481438e-05
9.196747986505704e-07,2.051515280588928e-06,8.014523425243994e-07,1.5854899066104478e-05
9.211589262248202e-07,2.067815360938237e-06,8.043494941923162e-07,1.5969830687189478e-05
9.218000715953043e-07,2.084392810831536e-06,8.066159569084139e-07,1.6084028242260222e-05
9.216351451193249e-07,2.101192754486356e-06,8.082323874596603e-07,1.6196910057234445e-05
9.207085627464628e-07,2.118164597501205e-06,8.091816745422866e-07,1.6307839517164565e-05
9.190649607903734e-07,2.135277501700926e-06,8.094508192615569e-07,1.6416089820527152e-05
9.167448930327116e-07,2.1525195052918787e-06,8.09032687550287e-07,1.652087900694903e-05
9.137836154984451e-07,2.169879922945716e-06,8.079261693764152e-07,1.6621473200239334e-05
9.102114012136484e-07,2.187332439468121e-06,8.061348250621237e-07,1.6717293490108165e-05
9.060555046020019e-07,2.204837509581432e-06,8.036657877205112e-07,1.6808005513635527e-05
9.013445969900623e-07,2.2223604218323886e-06,8.005293246435337e-07,1.6893594290444678e-05
8.961138550110119e-07,2.2398814528662568e-06,7.967379378477463e-07,1.69743788070676e-05
8.90407996915041e-07,2.257386790711864e-06,7.923056260319365e-07,1.7050928615734392e-05
8.842825061872952e-07,2.2748520946684946e-06,7.872483735697707e-07,1.712390575318755e-05
8.778026950781687e-07,2.292235240140828e-06,7.815848062707107e-07,1.719389157570086e-05
8.710391630073396e-07,2.3094851313839245e-06,7.753356116720486e-07,1.7261267874324535e-05
8.640655031112919e-07,2.326559353019805e-06,7.685225149777821e-07,1.7326186312349225e-05
8.569657286494791e-07,2.343434526414609e-06,7.61168592596608e-07,1.7388597807183344e-05
8.49846417852272e-07,2.36010047729517e-06,7.532991563148029e-07,1.7448307264001002e-05
8.428413494610609e-07,2.376543864068279e-06,7.449412927468216e-07,1.750507733980019e-05
8.361035840531274e-07,2.392734500208534e-06,7.361237222881737e-07,1.7558777401050574e-05
8.297910587760006e-07,2.408626217179234e-06,7.268791857589731e-07,1.76094468988506e-05
8.24053761101096e-07,2.424168750720692e-06,7.172475887797523e-07,1.7657189564474415e-05
8.190239617903748e-07,2.4393119980490544e-06,7.072768133541051e-07,1.7702016443153643e-05
8.148091563628762e-07,2.453998207507904e-06,6.970198279644512e-07,1.774379818221794e-05
8.11489193855103e-07,2.4681601962866105e-06,6.86530967585054e-07,1.778239494638182e-05
8.091169104671327e-07,2.481733804738956e-06,6.758657000591047e-07,1.7817933278110408e-05
8.077202157046733e-07,2.494669459058356e-06,6.650813465473254e-07,1.7851059006231866e-05
8.073048262385905e-07,2.5069296802920622e-06,6.542344467781686e-07,1.7882981718295787e-05
8.078568696457053e-07,2.518477003752348e-06,6.433787378458838e-07,1.791533661723323e-05
8.093453515447821e-07,2.5292650867561843e-06,6.325678982518692e-07,1.7950011219330267e-05
8.117263743733016e-07,2.539241160982124e-06,6.218587622700099e-07,1.798899828095759e-05
8.149492869031867e-07,2.548356030799191e-06,6.113105756471797e-07,1.80342641428334e-05
8.189617740210052e-07,2.556571746840678e-06,6.009822908335047e-07,1.8087627885235106e-05
8.237126148938281e-07,2.563862719633538e-06,5.909312982199147e-07,1.8150661091336568e-05
8.291541155890463e-07,2.5702121465317544e-06,5.812132603970672e-07,1.8224612237427568e-05
8.352450277563467e-07,2.575606920287711e-06,5.718810876891491e-07,1.831034262789143e-05
8.419530327506486e-07,2.580033055801043e-06,5.629827068974246e-07,1.8408276819325e-05
8.492563065476805e-07,2.5834725541421682e-06,5.545591039843294e-07,1.8518414399801398e-05
8.57142234764094e-07,2.585902706175051e-06,5.466461655834575e-07,1.864042100291072e-05
8.656008639700308e-07,2.5872964469071937e-06,5.392801800372694e-07,1.8773733497036253e-05
8.746158007204935e-07,2.5876203857523645e-06,5.324994824352283e-07,1.8917633141593287e-05
8.841582382943622e-07,2.5868315147061283e-06,5.263392563723486e-07,1.907131502805698e-05
8.941853058966509e-07,2.58487740556427e-06,5.208264073898988e-07,1.9233967009276927e-05
9.046403460978426e-07,2.581700941678522e-06,5.159786321175075e-07,1.940482302822927e-05
9.154538522997736e-07,2.5772453983892856e-06,5.118050269138285e-07,1.9583176806113104e-05
9.265459069375385e-07,2.5714562985733934e-06,5.083066373391739e-07,1.976838594690393e-05
9.378324068313988e-07,2.564281671352568e-06,5.05477896392175e-07,1.995988166777432e-05
9.492344329734258e-07,2.5556734031829487e-06,5.033093973069497e-07,2.015716984698123e-05
9.606839861541849e-07,2.545587056027985e-06,5.017898297585365e-07,2.0359818430623785e-05
9.721210648393749e-07,2.533978449688244e-06,5.009044479150782e-07,2.0567427177022188e-05
9.83485902396229e-07,2.5208013682458225e-06,5.006318081815991e-07,2.0779560943849678e-05
9.947134120794254e-07,2.5060086057149915e-06,5.009431916784931e-07,2.099565644343612e-05
1.0057331648736306e-06,2.489553939647904e-06,5.018060619358439e-07,2.1214974202201792e-05
1.0164744547979023e-06,2.471395125293084e-06,5.031885823161742e-07,2.143664271056749e-05
1.0268737483716983e-06,2.4515017734349787e-06,5.050619507335128e-07,2.165973706063032e-05
1.0368807954011718e-06,2.4298664192550065e-06,5.073997621281937e-07,2.1883319776745374e-05
1.0464615195469496e-06,2.406508503756243e-06,5.10175367453051e-07,2.210644423233079e-05
1.055596560026596e-06,2.3814662554001312e-06,5.133598370803165e-07,2.2328155745685205e-05
1.0642746838573999e-06,2.354784849882166e-06,5.169220180220163e-07,2.254749039679333e-05
1.072484933117339e-06,2.3265117393729143e-06,5.208287776907998e-07,2.276343829421117e-05
1.0802116491343422e-06,2.2967001887808625e-06,5.250449036211064e-07,2.297488362702506e-05
1.0874321743499432e-06,2.265413718443753e-06,5.295350186052966e-07,2.3180573330434328e-05
1.094117114522069e-06,2.232726058130065e-06,5.34266505201605e-07,2.337912666081376e-05
1.1002338043684099e-06,2.198717358926975e-06,5.392090731711297e-07,2.356907940989174e-05
1.1057525961739402e-06,2.1634700278388823e-06,5.443314832443795e-07,2.374897888509924e-05
1.1106535739856544e-06,2.1270662264228274e-06,5.495995413374339e-07,2.3917507662430226e-05
1.1149288428733322e-06,2.0895867854207815e-06,5.549761010619317e-07,2.4073545496103337e-05
1.1185791811672608e-06,2.051110822431461e-06,5.604232516752777e-07,2.4216115516851466e-05
1.1216103366951513e-06,2.0117157970506803e-06,5.659061505573786e-07,2.4344284867503805e-05
1.1240325188770465e-06,1.971478306887648e-06,5.713942083077262e-07,2.4457128225085768e-05
1.1258613606421415e-06,1.9304756766991434e-06,5.768583930996718e-07,2.455375596212088e-05
1.127118044201077e-06,1.8887864162099533e-06,5.822682662258235e-07,2.4633331715292004e-05
1.1278281819846128e-06,1.8464884201727902e-06,5.875906927440147e-07,2.469506322220375e-05
1.1280204234759373e-06,1.8036573064277302e-06,5.927898520333661e-07,2.4738221646813072e-05
1.1277244135478871e-06,1.7603671740900185e-06,5.978280891889356e-07,2.476226301461195e-05
1.1269683952839727e-06,1.7166922620240268e-06,6.026668486638289e-07,2.476703907947176e-05
1.1257803217242102e-06,1.6727069850813282e-06,6.072671053935502e-07,2.475291531419481e-05
1.1241932815166971e-06,1.6284849211073369e-06,6.115897910797121e-07,2.472066548933859e-05
1.1222510778886872e-06,1.5840990894923368e-06,6.155968421763739e-07,2.4671258026865646e-05
1.1200095497015331e-06,1.53962505350299e-06,6.192524070499055e-07,2.460568416932893e-05
1.117531595335552e-06,1.4951451715266717e-06,6.225234178835425e-07,2.4524874719162572e-05
1.1148792238237713e-06,1.450748689712656e-06,6.253795375120702e-07,2.442976392668161e-05
1.1121070544661858e-06,1.4065265185646854e-06,6.277929849923463e-07,2.432147443645256e-05
1.1092577351174365e-06,1.362567197578617e-06,6.297384860239265e-07,2.4201418185638652e-05
1.106359768152228e-06,1.3189588515671041e-06,6.31193224437629e-07,2.4071209428071968e-05
1.1034283638333641e-06,1.2757936340724242e-06,6.321370334311301e-07,2.3932510975607872e-05
1.1004679583810942e-06,1.2331680375483872e-06,6.325533989872861e-07,2.3786927353149772e-05
1.0974753338845644e-06,1.1911785780426042e-06,6.324313788191371e-07,2.363594688010014e-05
1.0944430626316642e-06,1.149917647636686e-06,6.317679074228221e-07,2.3480901202101245e-05
1.0913634727691266e-06,1.109471062414048e-06,6.305688845078389e-07,2.33229349890182e-05
1.0882324506912392e-06,1.0699161146195677e-06,6.288483011809163e-07,2.316300493420973e-05
1.0850505873226666e-06,1.0313206272494122e-06,6.266274754636116e-07,2.300191250489429e-05
1.0818215538489323e-06,9.937430822739198e-07,6.239348564807114e-07,2.2840331678104976e-05
1.0785508726794805e-06,9.572333100030642e-07,6.208040058773171e-07,2.267878802269324e-05
1.0752465458990906e-06,9.218337840417664e-07,6.172700561875384e-07,2.251760318331537e-05
1.0719202572945057e-06,8.875797022444529e-07,6.13367020541133e-07,2.2356865379433928e-05
1.0685876863327508e-06,8.544971762525158e-07,6.09126184269416e-07,2.219645649413479e-05
1.065266579712982e-06,8.226033396999267e-07,6.045747963761833e-07,2.2036118819988835e-05
1.0619721184438214e-06,7.919121474662649e-07,5.997352737381693e-07,2.187554083365372e-05
1.0587123176730886e-06,7.624447976089183e-07,5.946255330951147e-07,2.1714437676425463e-05
1.0554884429766384e-06,7.342378267950163e-07,5.892605389623635e-07,2.1552595783420015e-05
1.0523024914327838e-06,7.073416744297106e-07,5.83654276967274e-07,2.138988642995831e-05
1.0491661967799984e-06,6.818119518629329e-07,5.778210073560155e-07,2.122627672985536e-05
1.0461041042655979e-06,6.577056898279182e-07,5.717755070912505e-07,2.106183347640471e-05
1.043151368187887e-06,6.350890482197622e-07,5.655328964767498e-07,2.089669476419227e-05
1.0403530284361628e-06,6.140452336307263e-07,5.591091988100414e-07,2.073101255755065e-05
1.037768584481046e-06,5.946700673416856e-07,5.525246863381094e-07,2.0564887422263642e-05
1.0354768370338108e-06,5.77059258750672e-07,5.458099641408625e-07,2.039832566865602e-05
1.033571422126415e-06,5.612972303365129e-07,5.390098529151189e-07,2.0231264158509428e-05
1.0321456909403937e-06,5.474496718889199e-07,5.321817874759522e-07,2.0063644574067885e-05
1.0312766859882255e-06,5.355599902916716e-07,5.253911724065999e-07,1.9895446765919366e-05
1.0310186384869542e-06,5.256516051772378e-07,5.187056825139842e-07,1.972666134968806e-05
1.0314067927575704e-06,5.177329659513435e-07,5.121908087898053e-07,1.955726362224817e-05
1.0324637125372075e-06,5.117986363477477e-07,5.059107420932982e-07,1.938722257473979e-05
1.0342019652211836e-06,5.07825905433985e-07,4.999323974815268e-07,1.9216526426741127e-05
1.0366239311599626e-06,5.057731149348257e-07,4.943262827438886e-07,1.904517929032264e-05
1.039723067213662e-06,5.055837727393129e-07,4.891634239223728e-07,1.887315440339744e-05
1.0434881972195614e-06,5.071924627463624e-07,4.845110195250068e-07,1.870035105827008e-05
1.047905838115059e-06,5.105260554466592e-07,4.804279332633678e-07,1.8526593985554805e-05
1.0529564522651898e-06,5.155008424485927e-07,4.769611130646897e-07,1.8351672955137068e-05
1.0586087502144076e-06,5.220211756748065e-07,4.7414440237260277e-07,1.8175430114392898e-05
1.0648181033165844e-06,5.299816982888882e-07,4.719996028315095e-07,1.799789188510277e-05
1.0715304555474178e-06,5.392724589794637e-07,4.705385176640296e-07,1.7819356950666873e-05
1.078689756915699e-06,5.497843908168733e-07,4.697644157875181e-07,1.764034012373718e-05
1.0862454298549663e-06,5.614106244302172e-07,4.6967167360361207e-07,1.7461411526867296e-05
1.0941554784343529e-06,5.74046308755079e-07,4.7024481029950745e-07,1.7283074210731947e-05
1.1023821516331984e-06,5.875932904063612e-07,4.714592137493968e-07,1.7105746371981777e-05
1.110883025959432e-06,6.019656964133207e-07,4.732831895442339e-07,1.692978671787443e-05
1.119605519364428e-06,6.170887336849732e-07,4.756798604338521e-07,1.6755496042959937e-05
1.1284884505859682e-06,6.328927625760652e-07,4.786085164124497e-07,1.658310323528709e-05
1.1374668891265043e-06,6.493135053770268e-07,4.820254416018987e-07,1.641280873413424e-05
1.1464770045004374e-06,6.663012443988199e-07,4.858849045947633e-07,1.624493306520459e-05
1.155461414818677e-06,6.838258978170427e-07,4.901412391744673e-07,1.6080052097084556e-05
1.164374222274609e-06,7.018690728264858e-07,4.947515269909402e-07,1.591895660254133e-05
1.1731812255346589e-06,7.2041052291643e-07,4.996771797657567e-07,1.576247665923705e-05
1.1818528905444193e-06,7.394214475801493e-07,5.048831530154644e-07,1.561131547295725e-05
1.1903547895481282e-06,7.588695943991752e-07,5.103354709288887e-07,1.5465993067503296e-05
1.1986421802073496e-06,7.787303522345777e-07,5.159994854409143e-07,1.532698715417539e-05
1.2066611434579011e-06,7.989949461774506e-07,5.218392866599093e-07,1.5195010476806191e-05
1.2143549048300265e-06,8.196702550118902e-07,5.278171584590408e-07,1.5071166637936031e-05
1.2216697160812422e-06,8.407693745002267e-07,5.338944767453375e-07,1.4956854581238547e-05
1.2285546717705406e-06,8.622988137854374e-07,5.400346335344629e-07,1.4853557116584155e-05
1.2349579425228054e-06,8.84251558536047e-07,5.462050202038538e-07,1.4762670527862267e-05
1.240824608137864e-06,9.066098406479861e-07,5.52376049746685e-07,1.4685410860014465e-05
1.2460962105095594e-06,9.293528231899376e-07,5.585189654391271e-07,1.4622765895148685e-05
1.2507109820083515e-06,9.524607530737335e-07,5.646055937720142e-07,1.457546013942674e-05
1.2546054378974856e-06,9.75911502150711e-07,5.706109992528164e-07,1.4543927559874914e-05
1.2577171546588864e-06,9.99674398074648e-07,5.765168933005835e-07,1.4528301947445892e-05
1.259986676531323e-06,1.0237086660362764e-06,5.823123795955782e-07,1.4528422198397034e-05
1.2613576344770322e-06,1.0479660229335929e-06,5.879910214452051e-07,1.4543849297443561e-05
1.2617767036883786e-06,1.0723915217966086e-06,5.935473735372596e-07,1.457391026309742e-05
1.2611942676246116e-06,1.096919790761564e-06,5.989751395388107e-07,1.4617771730673666e-05
1.2595656250018915e-06,1.1214699620050723e-06,6.042656353398591e-07,1.467451970183577e-05
1.2568525008152326e-06,1.1459442782479513e-06,6.09406425964898e-07,1.4743231258185935e-05
1.2530233562014263e-06,1.170231062962452e-06,6.143814024501854e-07,1.4823039050339693e-05
1.2480524197806542e-06,1.1942104019001106e-06,6.191712896343711e-07,1.4913177822248945e-05
1.2419199041819479e-06,1.2177603191015234e-06,6.237535828399194e-07,1.5012993142764053e-05
1.2346142303952188e-06,1.2407613044900184e-06,6.281036012443253e-07,1.5121913571849988e-05
1.2261343552538956e-06,1.2631033166698743e-06,6.321964020767164e-07,1.5239410830638016e-05
1.216489795187371e-06,1.2847002069527152e-06,6.360076383279509e-07,1.5364965496820033e-05
1.2056976126807705e-06,1.3055050387389089e-06,6.395150421476827e-07,1.549803596923447e-05
1.193778771752358e-06,1.3255146172249644e-06,6.427013598025598e-07,1.5638023578899695e-05
1.1807565587678298e-06,1.344758566244599e-06,6.455555140370005e-07,1.5784228627722745e-05
1.166656626931412e-06,1.3632803748126075e-06,6.480711263346343e-07,1.5935809679210667e-05
1.1515073713294432e-06,1.381128175665062e-06,6.502446009697511e-07,1.6091797218824513e-05
1.135340392073072e-06,1.3983628999047642e-06,6.520731718776232e-07,1.6251177575507315e-05
1.1181907896201769e-06,1.4150688227792788e-06,6.535531524179513e-07,1.6412969259762456e-05
1.100098122232902e-06,1.4313510465221442e-06,6.546801891447415e-07,1.6576234447045872e-05
1.0811091195303996e-06,1.447321580808468e-06,6.554510551826402e-07,1.6740058525496406e-05
1.0612803704681514e-06,1.4630829139034989e-06,6.558645832938033e-07,1.6903539687332354e-05
1.04067895531402e-06,1.4787148114707874e-06,6.559208702829905e-07,1.7065791421779274e-05
1.0193810998468416e-06,1.4942673217780103e-06,6.556196154065485e-07,1.7225933161904724e-05
9.974684508584752e-07,1.5097603830029404e-06,6.549597976762576e-07,1.738305058458862e-05
9.750228522710822e-07,1.5251883828847494e-06,6.53942008437083e-07,1.753615318171002e-05
9.521230375572905e-07,1.5405296669202974e-06,6.525709286662324e-07,1.768417634045705e-05
9.28844325941773e-07,1.5557615370709544e-06,6.508545737492628e-07,1.7826036272097022e-05
9.052601889516545e-07,1.5708771896823206e-06,6.488017691756052e-07,1.796071838599775e-05
8.814454829800509e-07,1.5858969835552357e-06,6.464224140091896e-07,1.808738638268184e-05
8.574798436424556e-07,1.6008660784137898e-06,6.437300956796884e-07,1.8205464413518146e-05
8.334480539054979e-07,1.6158389736787642e-06,6.407421707036607e-07,1.831461009660384e-05
8.094369749888124e-07,1.6308691385593841e-06,6.374765861170521e-07,1.8414585503996805e-05
7.85533196029442e-07,1.6460217341701226e-06,6.339487787759226e-07,1.8505138911659624e-05
7.618257358646227e-07,1.6613995447527981e-06,6.301710158950623e-07,1.858596690983872e-05
7.384116690884474e-07,1.677156736972814e-06,6.261548370624166e-07,1.865672665842652e-05
7.15396378232343e-07,1.6934888171837028e-06,6.21913919013643e-07,1.87170506380268e-05
6.928857275344595e-07,1.710605658480784e-06,6.174634886798647e-07,1.8766545267177482e-05
6.709795439759457e-07,1.728701294013731e-06,6.128174058810546e-07,1.8804807395351292e-05
6.497729316484252e-07,1.7479294626708664e-06,6.079862953458745e-07,1.8831540635276842e-05
6.293597134605349e-07,1.7683882719547546e-06,6.029787920787092e-07,1.884672113170761e-05
6.09832252225175e-07,1.7901156925521992e-06,5.978078228131617e-07,1.8850619706091243e-05
5.912769419346678e-07,1.8130935399178256e-06,5.924980581753593e-07,1.8843660573213607e-05
5.737674516334953e-07,1.8372543256436997e-06,5.870863461442455e-07,1.8826275180090512e-05
5.573619476108477e-07,1.862488108721101e-06,5.816149890524658e-07,1.879884231615545e-05
5.421083406553529e-07,1.8886492413663108e-06,5.761241826948376e-07,1.876176168722321e-05
5.280527967005646e-07,1.9155634331671778e-06,5.70647811014231e-07,1.8715667339599104e-05
5.152433819670812e-07,1.9430374689560383e-06,5.652136055162018e-07,1.8661614292725282e-05
5.037265646207693e-07,1.970875308663224e-06,5.598453184360067e-07,1.860105613530103e-05
4.935409886477799e-07,1.9988984977228e-06,5.545634749318639e-07,1.853566845395969e-05
4.847150300437587e-07,2.026960875483605e-06,5.493841633403911e-07,1.846718327402961e-05
4.772725641600832e-07,2.054950135302791e-06,5.443175669866769e-07,1.839728125658053e-05
4.712438128743848e-07,2.082776056332059e-06,5.393680689363548e-07,1.8327503024969507e-05
4.6667191290868e-07,2.1103512052068832e-06,5.345365571217562e-07,1.8259164075642398e-05
4.6360935533490925e-07,2.13757639287385e-06,5.298228294889342e-07,1.8193292298508186e-05
4.621066847265423e-07,2.164338567500961e-06,5.252257709724342e-07,1.813061039461234e-05
4.6220058654106464e-07,2.190516508599667e-06,5.207426266312081e-07,1.807155792245006e-05
4.639066703318446e-07,2.2159876574088192e-06,5.163702107627157e-07,1.801631387444945e-05
4.672179026455302e-07,2.2406331075428542e-06,5.121087523320903e-07,1.7964800919959473e-05
4.7210704954997225e-07,2.2643392560464303e-06,5.07965178634712e-07,1.7916702544721982e-05
4.785299586775621e-07,2.2869965115199847e-06,5.039514953439355e-07,1.7871519776778197e-05
4.864275178724348e-07,2.3084968033288685e-06,5.000797849695471e-07,1.7828660059568715e-05
4.957262372499328e-07,2.3287310653334516e-06,4.963598130382796e-07,1.7787535966919546e-05
5.063383232218337e-07,2.3475867896479734e-06,4.92801098965447e-07,1.774764317695077e-05
5.181639503618579e-07,2.3649463481978737e-06,4.894152873102134e-07,1.7708589303124647e-05
5.310976008302936e-07,2.38068819793971e-06,4.862150226758047e-07,1.7670080089923997e-05
5.450351862043308e-07,2.394692261494448e-06,4.832104220596906e-07,1.763190321447038e-05
5.598777747616033e-07,2.4068481990552223e-06,4.804068646070062e-07,1.7593926759448794e-05
5.755322352280305e-07,2.4170633622055906e-06,4.778063318881579e-07,1.7556084057189685e-05
5.919108592690217e-07,2.425267730075888e-06,4.7541003464964993e-07,1.751831829588065e-05
6.089314207021262e-07,2.431414997451157e-06,4.732190104774921e-07,1.7480500335206343e-05
6.265180723327974e-07,2.4354800590145355e-06,4.7123458989076435e-07,1.7442372291505187e-05
6.446000487832337e-07,2.4374530519730253e-06,4.6946058041500137e-07,1.740357477620403e-05
6.631057955582366e-07,2.437330611302553e-06,4.6790460887405366e-07,1.736374339756667e-05
6.81956919819592e-07,2.43510809493483e-06,4.665778319230517e-07,1.7322570639303054e-05
7.010681239617072e-07,2.430776857688215e-06,4.654932236723691e-07,1.7279772918942667e-05
7.203519099253444e-07,2.424325630358477e-06,4.64661371275826e-07,1.723503297781403e-05
7.397213510760101e-07,2.41574273471948e-06,4.6408619318356726e-07,1.7188001036515812e-05
7.590900238593574e-07,2.4050182039743127e-06,4.637641655522116e-07,1.7138339368654558e-05
7.78373961289377e-07,2.3921464220982804e-06,4.6368630854004814e-07,1.7085773780966513e-05
7.97495459963458e-07,2.3771288244854816e-06,4.638400648885822e-07,1.7030164328692575e-05
8.163851465123027e-07,2.359976600696412e-06,4.642104413350649e-07,1.6971565958114298e-05
8.349815310125886e-07,2.340714474811697e-06,4.647818451710533e-07,1.691021740894815e-05
8.532278117419166e-07,2.319383420708284e-06,4.655397151276783e-07,1.6846473761162636e-05
8.710669058371341e-07,2.29603872102043e-06,4.664696650796112e-07,1.6780721381593345e-05
8.884389392478687e-07,2.2707453087512278e-06,4.6755559026322896e-07,1.6713285899050478e-05
9.052831336750427e-07,2.243576558211482e-06,4.687786850641878e-07,1.6644363610548726e-05
9.215405413170128e-07,2.2146167829801997e-06,4.7011675615198965e-07,1.657401613539305e-05
9.371547712098106e-07,2.183960097368448e-06,4.7154434405829676e-07,1.65022385567107e-05
9.520723552887287e-07,2.151704084605058e-06,4.73034504191916e-07,1.6429069072809336e-05
9.662437328864464e-07,2.1179460146041318e-06,4.745604124092674e-07,1.6354673798362635e-05
9.796226892191543e-07,2.082785934331954e-06,4.7609519828050537e-07,1.6279356738486483e-05
9.92164136366259e-07,2.04633143745434e-06,4.776110916141413e-07,1.620350790122588e-05
1.003823028846663e-06,2.0086968967913732e-06,4.790792199209174e-07,1.6127526237613252e-05
1.0145555864496591e-06,1.9699975223639217e-06,4.804703624259312e-07,1.605175872499096e-05
1.024321083262389e-06,1.9303446316895058e-06,4.817560585779409e-07,1.5976503360316313e-05
1.0330816367431645e-06,1.889844651005254e-06,4.829093209493858e-07,1.590203237283371e-05
1.040800748495715e-06,1.8485992598521248e-06,4.839053960006809e-07,1.5828560151026642e-05
1.0474445573432536e-06,1.8067060452270813e-06,4.847221272580421e-07,1.5756192971653108e-05
1.0529866030571778e-06,1.764261405847958e-06,4.853389739314339e-07,1.56849200700002e-05
1.0574125829328951e-06,1.7213639868370864e-06,4.857360465321757e-07,1.5614653016247213e-05
1.0607213635317249e-06,1.6781151048499425e-06,4.858942373597776e-07,1.5545285642081454e-05
1.062920892214622e-06,1.6346191578428271e-06,4.857961508258836e-07,1.5476737920353185e-05
1.0640219694705284e-06,1.5909899517527158e-06,4.854274871854585e-07,1.5408988861551334e-05
1.0640347186992037e-06,1.547360520611114e-06,4.847779636509766e-07,1.5342107993006044e-05
1.0629689634769814e-06,1.5038897918667803e-06,4.83842181675957e-07,1.5276265799361187e-05
1.060836482426123e-06,1.4607659053308845e-06,4.826215081369279e-07,1.5211705813168042e-05
1.0576535172795515e-06,1.4182080180317503e-06,4.811258186374208e-07,1.5148678561164267e-05
1.053442753212235e-06,1.376462583623627e-06,4.793734446134144e-07,1.5087361102083746e-05
1.0482343234641917e-06,1.3357900104468206e-06,4.773886034948646e-07,1.502779909641232e-05
1.0420652897853631e-06,1.2964449509325837e-06,4.7519796480568953e-07,1.4969900611562659e-05
1.034976494388098e-06,1.258661028301558e-06,4.7282944078875243e-07,1.4913494718899741e-05
1.0270079804857442e-06,1.2226509690222751e-06,4.7031324812455853e-07,1.4858429753915392e-05
1.0181968797084048e-06,1.1886192647295208e-06,4.676844385514989e-07,1.4804643472439826e-05
1.0085786315322218e-06,1.1567735645272637e-06,4.6498629312484867e-07,1.4752170684228272e-05
9.981886180101314e-07,1.127326273568922e-06,4.622708715122935e-07,1.4701125718470826e-05
9.870626928241345e-07,1.1004854924906752e-06,4.595942395153089e-07,1.4651695325534317e-05
9.752372063454442e-07,1.0764416234220707e-06,4.5700907745349104e-07,1.4604134122661664e-05
9.627487244827891e-07,1.0553629837488552e-06,4.545595622883729e-07,1.4558740074209024e-05
9.496333342993127e-07,1.0374082222069056e-06,4.522821860962759e-07,1.4515804142143106e-05
9.359263179797465e-07,1.022745516329173e-06,4.502110076454005e-07,1.4475551916383206e-05
9.216628158814328e-07,1.0115594988180869e-06,4.4838121911457473e-07,1.443809836128881e-05
9.068782854558493e-07,1.0040413898132723e-06,4.4682871155929916e-07,1.4403420547158554e-05
8.916081505364245e-07,1.0003734872316352e-06,4.4558833981728363e-07,1.4371340315939402e-05
8.758889237032713e-07,1.0007127750724769e-06,4.4469148409274034e-07,1.4341517041494253e-05
8.597624681537682e-07,1.0051710134380049e-06,4.4416236491871213e-07,1.4313459229629272e-05
8.432821034957509e-07,1.0137995704385209e-06,4.4401594230856296e-07,1.4286550533914153e-05
8.265177174464994e-07,1.0265930696473411e-06,4.4426000983174936e-07,1.4260084533758151e-05
8.095556319020518e-07,1.043510874224942e-06,4.4489867775817526e-07,1.4233316427930378e-05
7.92491247178915e-07,1.0645011354488713e-06,4.459335465038128e-07,1.4205517187165909e-05
7.754206136826818e-07,1.0895148006396395e-06,4.4736449533767223e-07,1.4175991454262348e-05
7.584385659135291e-07,1.1185097223597595e-06,4.4919217847206075e-07,1.4144055657636859e-05
7.416416807953737e-07,1.1514503340139722e-06,4.5141896476119564e-07,1.4109013579742965e-05
7.251291081286726e-07,1.188301441151255e-06,4.5404545872753296e-07,1.4070166396631641e-05
7.089990078572552e-07,1.229014266622502e-06,4.570659339713317e-07,1.4026875679885184e-05
6.933442306510865e-07,1.2735099638062477e-06,4.6046848749057513e-07,1.3978658016916587e-05
6.782509151927216e-07,1.321665424939458e-06,4.642397969268363e-07,1.3925238787348081e-05
6.637986289329896e-07,1.3733035018724386e-06,4.683691328457322e-07,1.386651052544275e-05
6.500582958450574e-07,1.4281901902194696e-06,4.7284982097816803e-07,1.3802437823862967e-05
6.370878450992262e-07,1.4860395315700775e-06,4.776806855359447e-07,1.373300337231981e-05
6.249297235160578e-07,1.5465239035013147e-06,4.828676329452083e-07,1.3658243900888722e-05
6.136141502980033e-07,1.6092862012384785e-06,4.88421948190689e-07,1.357836083168875e-05
6.03167165147365e-07,1.673950152368867e-06,4.943541786457535e-07,1.349383926869286e-05
5.936175405955919e-07,1.740126938683804e-06,5.006676245817197e-07,1.3405475875997085e-05
5.849979756045257e-07,1.8074188411554482e-06,5.073559148344743e-07,1.33142772312573e-05
5.773413470007829e-07,1.8754206249279643e-06,5.144052876553663e-07,1.3221295047001673e-05
5.706758101846034e-07,1.9437215744547773e-06,5.217989133880615e-07,1.3127486797133714e-05
5.650237830032946e-07,2.011911162806562e-06,5.295190245397185e-07,1.3033641874594585e-05
5.60406440434774e-07,2.079584484310164e-06,5.375445251647727e-07,1.2940364283718975e-05
5.568479095967348e-07,2.14634415630713e-06,5.4584728530441e-07,1.2848098598937735e-05
5.543744451727445e-07,2.2118028468588847e-06,5.543911390632257e-07,1.2757222288276636e-05
5.530128124036124e-07,2.275588029876337e-06,5.631328764172097e-07,1.2668224540400787e-05
5.527927301867813e-07,2.337345157547909e-06,5.720232139930068e-07,1.2581875396705474e-05
5.537500420277588e-07,2.396740697782095e-06,5.810076120024604e-07,1.2499218761958565e-05
5.5592515649508e-07,2.4534686322948e-06,5.900275678999219e-07,1.2421387379672522e-05
5.593571757479905e-07,2.5072555438995184e-06,5.99022452038761e-07,1.2349396824049699e-05
5.640777230297525e-07,2.557859415130397e-06,6.079312544423765e-07,1.228403364260948e-05
5.701057128256995e-07,2.6050655303408083e-06,6.166937959414089e-07,1.2225911268959067e-05
5.77441788617659e-07,2.648684725639568e-06,6.252510082219497e-07,1.2175717880925635e-05
5.860647663100583e-07,2.6885560608997627e-06,6.335451867343903e-07,1.2134487200184966e-05
5.959344870189972e-07,2.724551715190137e-06,6.415222495353138e-07,1.2103659224985465e-05
6.069995058982495e-07,2.7565803415692105e-06,6.491342177505378e-07,1.2084924452380291e-05
6.192034434101314e-07,2.784587004338237e-06,6.563385643833543e-07,1.2080011536952025e-05
6.324871719374984e-07,2.808549173710914e-06,6.630957220530265e-07,1.2090511311005095e-05
6.467887251570657e-07,2.8284692555131987e-06,6.693672473920662e-07,1.2117740157791615e-05
6.620438202814133e-07,2.844365477186638e-06,6.751156625699731e-07,1.2162642969315647e-05
6.781873683039345e-07,2.85626422630334e-06,6.803072027095278e-07,1.222575731899949e-05
6.951534761412823e-07,2.8641969365398394e-06,6.849156457080353e-07,1.2307242012855271e-05
7.128731027350764e-07,2.868203272285827e-06,6.8892278564136e-07,1.2406928250314544e-05
7.312712494249792e-07,2.8683395534134083e-06,6.92315102314008e-07,1.2524345177275073e-05
7.502644945360799e-07,2.8646859520913603e-06,6.950801857710029e-07,1.2658728810943927e-05
7.697589708772346e-07,2.8573450513892025e-06,6.972052921071397e-07,1.2809065288403016e-05
7.896499706630323e-07,2.8464332788638307e-06,6.986776725206596e-07,1.297417737849594e-05
8.098237337895902e-07,2.8320742559140822e-06,6.994856960273707e-07,1.315281928980432e-05
8.301607214989055e-07,2.8143980696204785e-06,6.99620294091945e-07,1.3343761404456785e-05
8.505398169990277e-07,2.7935411516215345e-06,6.990759443094772e-07,1.354586348676972e-05
8.708422844163044e-07,2.7696429278529043e-06,6.978503962265397e-07,1.3758123132206226e-05
8.909540427882183e-07,2.7428436050343263e-06,6.959436822528232e-07,1.3979685886621302e-05
9.107662948726786e-07,2.713287568420657e-06,6.933584515552237e-07,1.4209826837112606e-05
9.301751837906357e-07,2.6811315982004653e-06,6.901032198667771e-07,1.4447916155621228e-05
9.490822167359749e-07,2.646556225020079e-06,6.861966888434229e-07,1.4693361241723246e-05
9.673961407698551e-07,2.609778731223129e-06,6.816683609910133e-07,1.4945526572953806e-05
9.850325009831895e-07,2.571062545911216e-06,6.765540573653707e-07,1.5203653960538694e-05
1.0019098883745795e-06,2.5307142818303767e-06,6.708907138827087e-07,1.5466807782665733e-05
1.0179479040241137e-06,2.4890636108506904e-06,6.647141297313573e-07,1.573387363337893e-05
1.0330685066648063e-06,2.446435626124609e-06,6.580595126195352e-07,1.600361721808865e-05
1.0471979858440985e-06,2.403137433673699e-06,6.509628580544065e-07,1.6274750928545305e-05
1.0602680664539629e-06,2.3594681051147283e-06,6.434620002526089e-07,1.654596269212451e-05
1.0722159652659591e-06,2.3157359002256376e-06,6.355997365825003e-07,1.681592908589803e-05
1.082984039793062e-06,2.272262749404055e-06,6.274295403646264e-07,1.7083343487355907e-05
1.0925203208424811e-06,2.2293721723300744e-06,6.190179009655982e-07,1.7346956790409514e-05
1.1007804941079292e-06,2.187371730906849e-06,6.104398002019389e-07,1.7605597601280247e-05
1.1077296784558008e-06,2.1465429400033543e-06,6.017713028022863e-07,1.7858134545975555e-05
1.1133412740567565e-06,2.1071412552415835e-06,5.930839958639683e-07,1.8103406098181547e-05
1.1175939493054222e-06,2.069401864972788e-06,5.844422558185302e-07,1.8340183355334568e-05
1.120471023680548e-06,2.0335494392781584e-06,5.759017283782477e-07,1.8567182886975197e-05
1.1219630659498509e-06,1.9998103700800167e-06,5.675084072173142e-07,1.878310690587885e-05
1.1220699212869606e-06,1.968422114918689e-06,5.592994690907986e-07,1.898670802066499e-05
1.1207994312139795e-06,1.939634774840574e-06,5.513051354984533e-07,1.9176875493574217e-05
1.1181645299774346e-06,1.913702026545792e-06,5.435503139814526e-07,1.9352683993437648e-05
1.1141815967165505e-06,1.8908613061284538e-06,5.360568720374287e-07,1.9513354799931118e-05
1.108871307548962e-06,1.8713201789435544e-06,5.28845536136525e-07,1.9658177889894337e-05
1.1022613920107465e-06,1.85527310541224e-06,5.219351492985221e-07,1.978648243038609e-05
1.0943886351384944e-06,1.8429420463043773e-06,5.153409409244219e-07,1.989767483902202e-05
1.085299374412846e-06,1.834606829165994e-06,5.09075281604931e-07,1.999128956001981e-05
1.0750507872521007e-06,1.8306023246225384e-06,5.031513496484133e-07,2.00670004135998e-05
1.0637113394914083e-06,1.8312856630802101e-06,4.975866318090727e-07,2.0124601126192866e-05
1.0513562767658313e-06,1.836990855677559e-06,4.924026081168549e-07,2.016403227360185e-05
1.0380612999415684e-06,1.8479882204087361e-06,4.876205704928264e-07,2.018549732112021e-05
1.0239019504589165e-06,1.864459575870934e-06,4.832572962511608e-07,2.0189545235144315e-05
1.0089587544385264e-06,1.8864904507660862e-06,4.793236369327286e-07,2.017698597800775e-05
9.933207516516814e-07,1.914076742013715e-06,4.7582583955837745e-07,2.0148709031864638e-05
9.770833905432082e-07,1.9471454078746056e-06,4.7276736200709287e-07,2.010555651483445e-05
9.603435896031959e-07,1.985577553462377e-06,4.701494975176647e-07,2.0048337684122213e-05
9.431956797745852e-07,2.029212404601826e-06,4.679704690265888e-07,1.997800196536348e-05
9.257299968637652e-07,2.077834163537905e-06,4.662237975502965e-07,1.9895843665986327e-05
9.080334377311363e-07,2.131169145987407e-06,4.6489743020324543e-07,1.9803537037719254e-05
8.901886461183791e-07,2.1889045059655003e-06,4.639741388564885e-07,1.9702976661273345e-05
8.722708332288689e-07,2.2507134853599848e-06,4.6343319055797463e-07,1.959606647191996e-05
8.543452814186063e-07,2.316273727241191e-06,4.6325260748765603e-07,1.9484555256219247e-05
8.364677943696305e-07,2.385275993259594e-06,4.634100761141832e-07,1.9369929544129576e-05
8.18687410155e-07,2.4574230545204416e-06,4.63882177916467e-07,1.925336032753712e-05
8.010496516418038e-07,2.532421323752216e-06,4.6464389847924565e-07,1.913570243954172e-05
7.836000135350073e-07,2.609971392557805e-06,4.656695979917738e-07,1.901753465298429e-05
7.663870457452545e-07,2.6897608403866124e-06,4.6693422566410553e-07,1.8899215556581207e-05
7.494622845670707e-07,2.7714592445286756e-06,4.684137671306062e-07,1.8780925289145308e-05
7.328764207202692e-07,2.8547161362482874e-06,4.7008577775495213e-07,1.866267826903709e-05
7.166744239031735e-07,2.9391608914912065e-06,4.719296990226232e-07,1.8544328857873964e-05
7.008923911257049e-07,3.024403145981148e-06,4.73925262404989e-07,1.8425605419402545e-05
