2.8475256270773037e-07,2.161450252986102e-07,2.3223295852171255e-07,1.4911991203022877e-05
2.813947890226257e-07,2.1585979679345282e-07,2.3365030068483673e-07,1.4990001207802655e-05
2.7808117369071305e-07,2.156938797923811e-07,2.3510271369577335e-07,1.5073352164137601e-05
2.748138768284956e-07,2.1564727814685683e-07,2.3658152522841172e-07,1.5161662369659503e-05
2.71594669089961e-07,2.1571997560153214e-07,2.3807821379101728e-07,1.5254704172848026e-05
2.6842606963802964e-07,2.1591197263400282e-07,2.3958477279081805e-07,1.5352387561407085e-05
2.653134195607722e-07,2.1622268451166945e-07,2.4109390147129296e-07,1.5454698020820474e-05
2.62265771033098e-07,2.1664980646574674e-07,2.425986742455565e-07,1.5561617876632348e-05
2.592946376172462e-07,2.171894278680851e-07,2.4409172030407747e-07,1.5673044088777192e-05
2.564119699644657e-07,2.1783834655069766e-07,2.455644739900413e-07,1.578871739111441e-05
2.536293510393161e-07,2.1859737339511761e-07,2.470073788480791e-07,1.590820144734091e-05
2.509578095984955e-07,2.194722279773147e-07,2.484112410101625e-07,1.6030899245184566e-05
2.484068819911718e-07,2.2047027196563248e-07,2.49768117896232e-07,1.6156051010173718e-05
2.45984039588892e-07,2.215964227591761e-07,2.510710364624564e-07,1.6282722835105757e-05
2.436950865921788e-07,2.2285165705693823e-07,2.523139779806251e-07,1.6409836011651323e-05
2.415446266339802e-07,2.242336259829024e-07,2.5349198273023326e-07,1.6536233912065565e-05
2.3953652142153004e-07,2.2573780420589556e-07,2.546003361810344e-07,1.6660731523620138e-05
2.3767443810026121e-07,2.2735890530596666e-07,2.55633790293147e-07,1.6782115750478578e-05
2.3596204885181952e-07,2.2909340939266235e-07,2.5658712668145034e-07,1.6899130357929812e-05
2.344022001710095e-07,2.309418782242675e-07,2.5745688520836524e-07,1.7010493913496333e-05
2.3299533393015032e-07,2.3290767378770767e-07,2.582424116002611e-07,1.7114969506287168e-05
2.3173855185471482e-07,2.3499313954864502e-07,2.589448641968464e-07,1.7211480207505326e-05
2.3062568695449185e-07,2.3719728202332143e-07,2.595660051349492e-07,1.7299210580950282e-05
2.296482396905152e-07,2.395154434663281e-07,2.601085709907438e-07,1.7377604453160806e-05
2.2879712634904622e-07,2.4194007639716e-07,2.605773521588009e-07,1.744625729007164e-05
2.280641844399712e-07,2.444630159394137e-07,2.609799815665774e-07,1.7504805270478128e-05
2.274425880563001e-07,2.470781130919805e-07,2.613263957540395e-07,1.7552907364154614e-05
2.2692618417586747e-07,2.497814540752625e-07,2.616267825235513e-07,1.7590320924203772e-05
2.26508292688377e-07,2.5256906439417127e-07,2.618898761318959e-07,1.7616984526217278e-05
2.2618105573796763e-07,2.554349173681844e-07,2.621223167682269e-07,1.7633047194538132e-05
2.2593560127604042e-07,2.5837022127277924e-07,2.623285565368392e-07,1.7638848162006726e-05
2.257624518993156e-07,2.613630716694564e-07,2.625114686172853e-07,1.7634860285797932e-05
2.256523623825398e-07,2.643988444749471e-07,2.6267362748103084e-07,1.7621647413305613e-05
2.2559791823868195e-07,2.67461853368049e-07,2.62818845867032e-07,1.759989257476148e-05
2.2559440419923968e-07,2.7053736817489417e-07,2.629534598425145e-07,1.7570419797841925e-05
2.2563915575488297e-07,2.7361252478094105e-07,2.630864924630031e-07,1.753410107663459e-05
2.25731425605651e-07,2.766755819373435e-07,2.632283844112193e-07,1.7491719880817777e-05
2.2587265573053412e-07,2.7971452586798284e-07,2.6338934025094904e-07,1.7443962672062846e-05
2.2606500734945398e-07,2.8271601533883036e-07,2.635784013785845e-07,1.7391588418183742e-05
2.2630914863108026e-07,2.8566502715277383e-07,2.638029661377282e-07,1.7335612263709075e-05
2.2660354549359683e-07,2.88545561022443e-07,2.640685309154961e-07,1.7277310988417148e-05
2.269452153426569e-07,2.913424462443824e-07,2.6437958137809227e-07,1.7218075519025996e-05
2.273303222453033e-07,2.940431125740057e-07,2.647410663468509e-07,1.715925457097312e-05
2.2775403677482772e-07,2.966374239689689e-07,2.651585959772134e-07,1.7102058575592473e-05
2.282109074771604e-07,2.991158466340436e-07,2.656374694874264e-07,1.7047519563250453e-05
2.2869592653630468e-07,3.0146819343592293e-07,2.661818817283401e-07,1.6996470868948987e-05
2.2920483795155891e-07,3.0368367780946945e-07,2.6679463995358245e-07,1.6949518078841932e-05
2.2973334273951697e-07,3.057512693836085e-07,2.674766472197936e-07,1.6907009859958464e-05
2.302766872665308e-07,3.076597747115769e-07,2.6822629670630787e-07,1.686903439741113e-05
2.3083070195209432e-07,3.093983778599514e-07,2.690397577561444e-07,1.6835451375176985e-05
2.3139280106446853e-07,3.1095746661924e-07,2.699113446147111e-07,1.680593825849448e-05
2.3196149872706233e-07,3.123285867294464e-07,2.7083310671687907e-07,1.6780029647628037e-05
2.3253597031122646e-07,3.135041414902633e-07,2.7179491532496976e-07,1.675715782678666e-05
2.3311660585035425e-07,3.1447743335853946e-07,2.727857533066565e-07,1.6736704056886983e-05
2.337049480120503e-07,3.1524233387215176e-07,2.7379517670977285e-07,1.6718050841553852e-05
2.343034859805275e-07,3.157928597578094e-07,2.7481369661080565e-07,1.670062020522476e-05
2.3491707293284602e-07,3.161231898167973e-07,2.758318144138594e-07,1.668388997498721e-05
2.35553697746907e-07,3.1622770331712516e-07,2.76839060565013e-07,1.66673913361859e-05
2.3622258070196172e-07,3.161009666583931e-07,2.7782460980272653e-07,1.6650701150084442e-05
2.3693269849469338e-07,3.157380397821708e-07,2.787800291913927e-07,1.6633445946190472e-05
2.376943706750244e-07,3.151348208589251e-07,2.797028225294343e-07,1.6615319047387907e-05
2.3852231974164065e-07,3.142880479019836e-07,2.805968575391795e-07,1.659609004189421e-05
2.3943706360283517e-07,3.1319537200945375e-07,2.814688802116656e-07,1.657559014669442e-05
2.4046266924682e-07,3.1185569881986426e-07,2.8232551066912197e-07,1.6553672338395277e-05
2.416219689603273e-07,3.102697695628142e-07,2.8317209352122324e-07,1.653015819053815e-05
2.429322860121956e-07,3.0844122559150145e-07,2.840114235446371e-07,1.6504814936508873e-05
2.444038408949813e-07,3.063772178108082e-07,2.8484270453255345e-07,1.647740297448533e-05
2.460411555934611e-07,3.040873332843393e-07,2.856616852956915e-07,1.644775105430365e-05
2.4784586597362215e-07,3.015819985411291e-07,2.864613824173061e-07,1.6415777165521636e-05
2.49818482323076e-07,2.988725793925198e-07,2.872327361281663e-07,1.6381447312512325e-05
2.519581930116872e-07,2.959728576050923e-07,2.879650390736397e-07,1.6344718755288205e-05
2.5426211699004864e-07,2.928994585345133e-07,2.8864666927482897e-07,1.6305493715874753e-05
2.567249030145158e-07,2.896705459478565e-07,2.892667221481629e-07,1.6263589605729704e-05
2.5933849682097174e-07,2.8630419560519253e-07,2.898163834247617e-07,1.6218732621499168e-05
2.620930658534247e-07,2.8281767684086647e-07,2.902890153862917e-07,1.6170574906440944e-05
2.649788157896228e-07,2.792283577351027e-07,2.906801964479361e-07,1.611873272648259e-05
2.6798599938477424e-07,2.755555427366973e-07,2.9098827859312353e-07,1.6062856443639227e-05
2.7110333378645205e-07,2.718210507968507e-07,2.91214069631312e-07,1.6002722888436763e-05
2.7431831670645964e-07,2.680477753658715e-07,2.9135946135978464e-07,1.5938315883636433e-05
2.7761968210733906e-07,2.642575804769556e-07,2.9142645372165927e-07,1.586987718345885e-05
2.8099858662485196e-07,2.604702843045235e-07,2.9141674253418576e-07,1.5797900975877802e-05
2.844475341801023e-07,2.5670438148668684e-07,2.91331379038968e-07,1.5723041764757202e-05
2.879588267916153e-07,2.529779603504347e-07,2.911705724164348e-07,1.564596876869076e-05
2.915233284405552e-07,2.493082928187983e-07,2.909332887771279e-07,1.5567250765520926e-05
2.951296755629948e-07,2.457110963314429e-07,2.9061684613465297e-07,1.5487322049293875e-05
2.987641153370016e-07,2.4220086095860856e-07,2.9021718757836873e-07,1.5406503436101852e-05
3.0241088056723264e-07,2.387916441431168e-07,2.897297877067403e-07,1.5325024403581925e-05
3.0605316308476376e-07,2.3549720087808728e-07,2.8915072145664074e-07,1.5243037487658261e-05
3.096747041776277e-07,2.323306137783925e-07,2.884770554967133e-07,1.5160680593590744e-05
3.132621577714036e-07,2.2930392357147533e-07,2.8770641058031093e-07,1.5078202425026945e-05
3.168072407182621e-07,2.2642752380193663e-07,2.868367573701743e-07,1.4996028663044852e-05
3.20306636087766e-07,2.2370922456114308e-07,2.8586664326400546e-07,1.4914671474895407e-05
3.23759944391152e-07,2.2115372324587212e-07,2.847948554420004e-07,1.4834571755956943e-05
3.2716760718363927e-07,2.187629778862349e-07,2.836194423722436e-07,1.475601791343081e-05
3.305301885503263e-07,2.1653716907919888e-07,2.8233708673914084e-07,1.467920046722388e-05
3.338492386097415e-07,2.1447555242938761e-07,2.80943654343962e-07,1.4604398648991242e-05
3.3712737282038487e-07,2.125766829196991e-07,2.794365540187565e-07,1.4532199715832846e-05
3.403665115728435e-07,2.108385130736221e-07,2.778178369834184e-07,1.446356906806011e-05
3.4356727260396536e-07,2.0925847929358768e-07,2.760946417841279e-07,1.4399725048668887e-05
3.467299916337095e-07,2.0783297643373584e-07,2.742766130200089e-07,1.4341951571542496e-05
3.4985499720947405e-07,2.0655718959561307e-07,2.723740909143065e-07,1.4291451619013316e-05
3.5294207433262453e-07,2.0542603379882085e-07,2.7039802197617684e-07,1.4249252025529856e-05
3.5598927767434566e-07,2.044346639582216e-07,2.6835954970620515e-07,1.4216148008247135e-05
3.58991103442602e-07,2.0357810949398246e-07,2.662693026664497e-07,1.4192679613648877e-05
3.619376506452657e-07,2.0285187670397924e-07,2.641373008107521e-07,1.417913646602498e-05
3.648154268227022e-07,2.0225364860283e-07,2.619733272681118e-07,1.4175586033026782e-05
3.676087965141577e-07,2.0178427207423173e-07,2.5978726617505805e-07,1.4181905402143646e-05
3.703018683505245e-07,2.0144711081736532e-07,2.5758940785420423e-07,1.419778663812805e-05
3.7288121932535797e-07,2.012460779939744e-07,2.553906892713409e-07,1.4222721380197e-05
3.7533752487971703e-07,2.011842531354657e-07,2.532022685635633e-07,1.4256011947550381e-05
3.776638536058985e-07,2.0126460692842172e-07,2.510348538526453e-07,1.4296827667596453e-05
3.798526461250419e-07,2.0149151110759816e-07,2.488986849019617e-07,1.4344278075867319e-05
3.818943789787838e-07,2.0187089430952864e-07,2.468041541596777e-07,1.4397480691658884e-05
3.837779563473541e-07,2.0240838682161989e-07,2.447625546990155e-07,1.4455611675232046e-05
3.854916620043757e-07,2.031071465937605e-07,2.427858612984227e-07,1.4517924122141507e-05
3.870234891465015e-07,2.0396754627291487e-07,2.408854287694839e-07,1.4583740982725848e-05
3.883609537379689e-07,2.049885851645579e-07,2.3907103854343293e-07,1.4652444517864285e-05
3.89491843870365e-07,2.061697889452089e-07,2.373504823085144e-07,1.4723464281406333e-05
3.9040548161245853e-07,2.075120108174803e-07,2.3572961062393211e-07,1.4796257357479376e-05
3.9109301026485725e-07,2.0901606721676862e-07,2.3421402917727199e-07,1.4870286053466424e-05
3.9154740261714967e-07,2.1068091068178386e-07,2.3281095403951602e-07,1.494498909301695e-05
3.9176372830486265e-07,2.125027694496943e-07,2.31528542396458e-07,1.5019746822351377e-05
3.9173835779892567e-07,2.1447462126683358e-07,2.303744348933864e-07,1.5093879205348615e-05
3.9146737228361283e-07,2.1658600917194672e-07,2.2935574570039983e-07,1.5166685005034934e-05
3.9094609010746963e-07,2.188235143624383e-07,2.284788315492795e-07,1.5237464940201073e-05
3.901702412475155e-07,2.2117192605311808e-07,2.277479783003305e-07,1.5305509273445175e-05
3.891374123536794e-07,2.2361564401019226e-07,2.2716519909971443e-07,1.5370096767583587e-05
3.878476244974389e-07,2.261389195913259e-07,2.267318574012165e-07,1.5430532006408585e-05
3.863043259986503e-07,2.287255277739285e-07,2.2644985735001784e-07,1.548618704268442e-05
3.845160040594174e-07,2.313601948177436e-07,2.2632068983962828e-07,1.5536512761319144e-05
3.824955077183295e-07,2.340308892566545e-07,2.263435031607637e-07,1.558103005561881e-05
3.802573934079209e-07,2.3672897990711088e-07,2.2651482008157906e-07,1.5619307697538307e-05
3.778169156267553e-07,2.3944726487616656e-07,2.2683038542265072e-07,1.5650934258035427e-05
3.751907901448707e-07,2.4217786824667337e-07,2.2728656522957692e-07,1.567550663700937e-05
3.7239770146530384e-07,2.449112340944817e-07,2.27879737615932e-07,1.5692620748357723e-05
3.6945775509915816e-07,2.476367558477707e-07,2.2860556694049908e-07,1.5701847942223128e-05
3.663905721929996e-07,2.503437816835803e-07,2.294597942136973e-07,1.570272730476694e-05
3.63213081821226e-07,2.5302132410959575e-07,2.304396536341713e-07,1.5694803619819638e-05
3.599385784609653e-07,2.556576480257505e-07,2.3154534935944361e-07,1.5677704048433684e-05
3.565771437792315e-07,2.5824081391261056e-07,2.3278128856012077e-07,1.5651210281842692e-05
3.5313714558926633e-07,2.6075912346976485e-07,2.341556227340552e-07,1.561527807827467e-05
3.496274186180357e-07,2.632016909271157e-07,2.3567790684723e-07,1.5570002612499764e-05
3.460588707502767e-07,2.6555995968761183e-07,2.3735604866822552e-07,1.5515563285450306e-05
3.424439835401223e-07,2.678286784466947e-07,2.391937949709766e-07,1.5452181012242112e-05
3.3879476594313133e-07,2.7000479301618005e-07,2.411900276491184e-07,1.5380131679155693e-05
3.351222099777996e-07,2.720853871817775e-07,2.433397377839449e-07,1.5299804517914318e-05
3.3143795951840403e-07,2.7406691113634444e-07,2.4563561920975443e-07,1.5211691478357172e-05
3.2775514446380764e-07,2.7594612681644284e-07,2.480697865411927e-07,1.5116289673641996e-05
3.240868949811675e-07,2.777207555470349e-07,2.5063572293863566e-07,1.5014048416716244e-05
3.2044450576967286e-07,2.7938879168695174e-07,2.5333035153292646e-07,1.4905394684407309e-05
3.16837117466632e-07,2.809483210951975e-07,2.5615403084897555e-07,1.4790763758691456e-05
3.1327291035334537e-07,2.8239846994532624e-07,2.591070761121468e-07,1.467061111604444e-05
3.097603752472975e-07,2.837403789475975e-07,2.62186307213219e-07,1.4545415579582895e-05
3.063080844911916e-07,2.849779535327456e-07,2.653852601812743e-07,1.4415678742831315e-05
3.029238837241645e-07,2.861179257581e-07,2.6869656975346266e-07,1.4281919140517221e-05
2.99615299523156e-07,2.871693338504801e-07,2.721130070545309e-07,1.4144651697441528e-05
2.9638984480529237e-07,2.881430846274861e-07,2.7562629084149005e-07,1.4004356643612908e-05
2.932536823908542e-07,2.890511946381796e-07,2.792253793543837e-07,1.3861453751811036e-05
2.9021016298843367e-07,2.899058755172242e-07,2.8289596398611305e-07,1.3716284078792239e-05
2.872596315829184e-07,2.9071916028656567e-07,2.866210524249995e-07,1.3569098173156794e-05
2.8440020091802396e-07,2.915033846818529e-07,2.9038173463941e-07,1.3420065756466314e-05
2.81629156868626e-07,2.922727386914093e-07,2.9415816286492936e-07,1.3269309609839881e-05
2.789450251604343e-07,2.930441827607622e-07,2.979305969525464e-07,1.3116932747981054e-05
2.763491718936452e-07,2.938352848171832e-07,3.016798219106315e-07,1.2963013680513185e-05
2.738449102705365e-07,2.946606677406248e-07,3.053870926725257e-07,1.2807586400780416e-05
2.714350243927261e-07,2.955308016877397e-07,3.0903469313514727e-07,1.2650634213155855e-05
2.691204559602571e-07,2.964531303275159e-07,3.126070809009234e-07,1.2492096815093628e-05
2.6690024711970956e-07,2.974332532725336e-07,3.160907468571202e-07,1.2331876951549333e-05
2.6477161773541216e-07,2.984761145198518e-07,3.1947260088394124e-07,1.216984961204168e-05
2.6273038317507624e-07,2.995884669392607e-07,3.227389935207621e-07,1.2005879100126856e-05
2.6077204148139176e-07,3.0078070955099213e-07,3.258761428103895e-07,1.1839838249620081e-05
2.5889257137749645e-07,3.0206476620750287e-07,3.2887060840009304e-07,1.1671619957437255e-05
2.5708815610888e-07,3.034495793716846e-07,3.317087068200411e-07,1.1501133127019776e-05
2.553549730482353e-07,3.0493869311563567e-07,3.343757770210539e-07,1.1328290713723642e-05
2.536896659677859e-07,3.065307818423126e-07,3.368567441755617e-07,1.1153008129905301e-05
2.520891186836757e-07,3.082215162391336e-07,3.391377369470985e-07,1.0975217813271157e-05
2.50549829786313e-07,3.100067232330745e-07,3.4120718407566087e-07,1.0794896542670934e-05
2.4906881817548664e-07,3.118857308658529e-07,3.4305584406076325e-07,1.0612108190555462e-05
2.476451489521944e-07,3.138614455233081e-07,3.4467659774866005e-07,1.0427054455539287e-05
2.462797691956245e-07,3.159369149511012e-07,3.460639264576158e-07,1.0240088315666766e-05
2.449738871001471e-07,3.181119798876163e-07,3.472128865313492e-07,1.0051666561645151e-05
2.437274197373456e-07,3.203826283657221e-07,3.481185616466802e-07,9.862299925814958e-06
2.4253834225981176e-07,3.227427002207519e-07,3.487761199674682e-07,9.672551963586174e-06
2.414031188616139e-07,3.2518550485239574e-07,3.491808503049153e-07,9.483075583394104e-06
2.4031781825469714e-07,3.277033959025418e-07,3.4932844268717324e-07,9.294673286944283e-06
2.392790025086084e-07,3.302861586656257e-07,3.4921577642743895e-07,9.108345712412607e-06
2.382835794215564e-07,3.3292041860627736e-07,3.488416319448226e-07,8.925257500362216e-06
2.373281776055932e-07,3.355911234618835e-07,3.4820680913803173e-07,8.746612785523213e-06
2.364091625658639e-07,3.3828486977893035e-07,3.473136294888212e-07,8.573522605567629e-06
2.3552297798872643e-07,3.409928364876482e-07,3.461652148605597e-07,8.406950357691349e-06
2.3466601194877964e-07,3.437104245790112e-07,3.447652599818936e-07,8.247770640737684e-06
2.3383422225726033e-07,3.4643403946734307e-07,3.431183734877597e-07,8.096908120288478e-06
2.330234088293931e-07,3.49158453946328e-07,3.412304568129657e-07,7.955449767513483e-06
2.3223028826080517e-07,3.518770919639565e-07,3.391085665411632e-07,7.824635822311913e-06
2.3145330453761988e-07,3.5458333582377026e-07,3.367599392278942e-07,7.705744494812868e-06
2.3069243186495253e-07,3.572699693442381e-07,3.34191110641104e-07,7.599953229511313e-06
2.2994811711591248e-07,3.599281113247275e-07,3.314082735100657e-07,7.508242158463365e-06
2.292200102922918e-07,3.625475591374535e-07,3.28418304254601e-07,7.431358308460213e-06
2.2850643026206823e-07,3.6511712130300133e-07,3.2522931703208536e-07,7.369818351895598e-06
2.2780484492718102e-07,3.67623980669136e-07,3.218504964855493e-07,7.3239351237956815e-06
2.271138675461259e-07,3.700531740842749e-07,3.1829154492816305e-07,7.293903900647757e-06
2.2643681307225203e-07,3.7238797384265656e-07,3.14562239184847e-07,7.279970430363528e-06
2.257831783184465e-07,3.7461080934427793e-07,3.106724646189725e-07,7.282560987142392e-06
2.2516551808745927e-07,3.7670398318911453e-07,3.0663284099787423e-07,7.302225335192256e-06
2.245958034444879e-07,3.7865077257185176e-07,3.024553127306759e-07,7.339453634959932e-06
2.2408506510762979e-07,3.8043735143008364e-07,2.9815266484451645e-07,7.39452833989875e-06
2.2364422777664056e-07,3.8205360858315203e-07,2.9373738524410163e-07,7.467487596720544e-06
2.2328379235584067e-07,3.8349205592434603e-07,2.892210298133801e-07,7.558256569843067e-06
2.2301346016614862e-07,3.8474632462492975e-07,2.846141178887951e-07,7.666908503843696e-06
2.2284218776788346e-07,3.8581017862304985e-07,2.7992619442494113e-07,7.793830905449288e-06
2.2277740165088157e-07,3.8667722889602424e-07,2.751659998459741e-07,7.939662199009397e-06
2.2282362155094944e-07,3.873409907655485e-07,2.703417781140087e-07,8.105117461456043e-06
2.2298194070321369e-07,3.877949558828531e-07,2.654617808565824e-07,8.29084394891145e-06
2.232508470662266e-07,3.8803298474218667e-07,2.605347900619545e-07,8.497324885094506e-06
2.2362746644048203e-07,3.880497876720882e-07,2.5557080281418893e-07,8.724806389962396e-06
2.2410786024640713e-07,3.8784092291214656e-07,2.505820363896625e-07,8.973239748696377e-06
2.2468689965346732e-07,3.874027745393184e-07,2.455830498581129e-07,9.2422459037063e-06
2.2535958534790158e-07,3.8673425721905607e-07,2.4058979985093133e-07,9.53110830342627e-06
2.2612337814963228e-07,3.858398597199231e-07,2.3561949101291608e-07,9.838785233845092e-06
2.2697976770362877e-07,3.8472975308188843e-07,2.306909466133037e-07,1.0163925209020936e-05
2.279350851425744e-07,3.8341583698277936e-07,2.2582398776693172e-07,1.0504893021882599e-05
2.2900049619832665e-07,3.819080951523143e-07,2.2103873670711279e-07,1.0859825216868545e-05
2.3019056439193322e-07,3.802136945472763e-07,2.163553640032536e-07,1.122670913975122e-05
2.3152122986016922e-07,3.783383793625406e-07,2.117938640321139e-07,1.1603474952160845e-05
2.3300841544354035e-07,3.762894189463332e-07,2.0737466490100032e-07,1.198809119306446e-05
2.3466759651881947e-07,3.740772505335989e-07,2.03119458966448e-07,1.2378634346544576e-05
2.3651344388392291e-07,3.7171428038589323e-07,1.9905089901404977e-07,1.277331059436332e-05
2.385587289454865e-07,3.6921343400843494e-07,1.9519136642185875e-07,1.3170451663656619e-05
2.4081294503542555e-07,3.6658780402438156e-07,1.9156122554479703e-07,1.3568518264637535e-05
2.4328093950406884e-07,3.6385062858380154e-07,1.8817729494864309e-07,1.3966101848249081e-05
2.459622565577036e-07,3.610152953117097e-07,1.850526204978025e-07,1.4361895240985807e-05
2.488519180509645e-07,3.5809477606750155e-07,1.82197854070843e-07,1.4754630731683346e-05
2.519412840866785e-07,3.551003609697297e-07,1.796228121530252e-07,1.5143005435604165e-05
2.552176797128647e-07,3.5204085473455597e-07,1.7733639947249879e-07,1.5525631411545507e-05
2.586636855778564e-07,3.4892293630124037e-07,1.7534557956701407e-07,1.590105885641847e-05
2.62258041871706e-07,3.457521431264334e-07,1.736546921562313e-07,1.6267859688806036e-05
2.6597945816472604e-07,3.425338969315403e-07,1.722650881799223e-07,1.662468769169126e-05
2.6981141636714157e-07,3.392745110644918e-07,1.711755819964026e-07,1.6970280086160894e-05
2.7374380214414377e-07,3.3598153396307373e-07,1.7038340100723697e-07,1.730344832899384e-05
2.777704501696313e-07,3.3266264045403397e-07,1.6988386704720635e-07,1.7623096796916332e-05
2.818852456714084e-07,3.293242275679009e-07,1.6966966356436601e-07,1.7928256443407862e-05
2.8607954229752303e-07,3.259713150128457e-07,1.6973265710930206e-07,1.8218081779069066e-05
2.9034209379938397e-07,3.226083074886568e-07,1.700681889548157e-07,1.849178519234517e-05
2.94660038776304e-07,3.192394592375853e-07,1.706781819444865e-07,1.8748585286414102e-05
2.990190894926435e-07,3.158691911749687e-07,1.7157016238721312e-07,1.898775824336825e-05
3.0340355245273207e-07,3.125027756970201e-07,1.7275348676206673e-07,1.920873477309848e-05
3.077970838770532e-07,3.0914687944203393e-07,1.7423642119298904e-07,1.941111821517508e-05
3.1218338385961353e-07,3.0581001581501564e-07,1.760247231615506e-07,1.959462774017273e-05
3.165463759928812e-07,3.025028265078582e-07,1.7812023273783598e-07,1.9759046444935346e-05
3.2086995364542786e-07,2.992366661173169e-07,1.805199385488096e-07,1.990418073467882e-05
3.251371001255438e-07,2.9602116754780477e-07,1.832160843287409e-07,2.002981697085485e-05
3.293292081369185e-07,2.9286357460756576e-07,1.861969674816387e-07,2.013570832091588e-05
3.3342630704210546e-07,2.8977008376653535e-07,1.89448085880638e-07,2.022160229984517e-05
3.3740794619308943e-07,2.8674667893712905e-07,1.9295254373355298e-07,2.028727047016785e-05
3.412551717895499e-07,2.837982809447297e-07,1.9669076314218609e-07,2.0332513602640538e-05
3.449530644036784e-07,2.8092801788424376e-07,2.006411623999052e-07,2.0357155215264112e-05
3.484909324508398e-07,2.781377953857058e-07,2.0478185772815603e-07,2.0361086879101827e-05
3.5185952473387215e-07,2.754290475194981e-07,2.0909216066624414e-07,2.034443144316194e-05
3.5504862557840204e-07,2.7280266067666844e-07,2.1355389320123673e-07,2.03077216447054e-05
3.5804692511414454e-07,2.7025857077603765e-07,2.181530315436666e-07,2.0251880170197878e-05
3.6084284239401175e-07,2.677961566829645e-07,2.2288144494512624e-07,2.0178038214373146e-05
3.6342492108594157e-07,2.654148735327016e-07,2.2773743344386467e-07,2.00874566564102e-05
3.6578176706766564e-07,2.631138672808517e-07,2.3272366168657108e-07,1.9981587720620374e-05
3.67902108787781e-07,2.608912704243853e-07,2.378440537983676e-07,1.9862089452797065e-05
3.697750018962134e-07,2.587441529707979e-07,2.431022433560629e-07,1.9730747367049733e-05
3.713899272087393e-07,2.5666871829222514e-07,2.4850097292929267e-07,1.958937621120932e-05
3.727370904129311e-07,2.546604273509502e-07,2.5404075827903125e-07,1.943972925052497e-05
3.738087014276902e-07,2.527147792309991e-07,2.5971850415248607e-07,1.928342809461139e-05
3.746009622762565e-07,2.508284943585703e-07,2.65527775565694e-07,1.9121918287049223e-05
3.751146724769446e-07,2.4899974181396307e-07,2.714595546443489e-07,1.895643401950165e-05
3.753541294485882e-07,2.4722838788658054e-07,2.77501442343345e-07,1.878796703511091e-05
3.7532654603402317e-07,2.455170547874772e-07,2.8363646301039405e-07,1.861725445562716e-05
3.750421548680391e-07,2.438707584994617e-07,2.898430389356933e-07,1.844479293015918e-05
3.745135075210266e-07,2.4229496015317826e-07,2.960959929917556e-07,1.827087056841249e-05
3.7375389944271286e-07,2.4079452556022376e-07,3.0236794685972054e-07,1.8095605746306517e-05
3.7277587166966455e-07,2.393744015308209e-07,3.0863038996923964e-07,1.7918984356501008e-05
3.7159082285729573e-07,2.380409508558187e-07,3.148539534911251e-07,1.774089966681209e-05
3.702100317590926e-07,2.368020352209095e-07,3.210082804798469e-07,1.7561206899468556e-05
3.6864615969428977e-07,2.356649787863396e-07,3.2706237883179606e-07,1.7379776345014212e-05
3.6691360109890797e-07,2.3463445992588373e-07,3.3298566352419185e-07,1.7196508345537278e-05
3.65027227517165e-07,2.3371273473866764e-07,3.387501511798961e-07,1.7011308869115594e-05
3.6300089510789037e-07,2.329016251279205e-07,3.443340472974403e-07,1.682406400430582e-05
3.608467267001625e-07,2.3220360051900891e-07,3.497242416779347e-07,1.663464228868457e-05
3.5857565685573313e-07,2.316211792091357e-07,3.549149169109287e-07,1.6442920315739083e-05
3.5620017482006577e-07,2.3115667086342029e-07,3.5990333130063296e-07,1.6248814893325186e-05
3.5373830180789105e-07,2.308133663018773e-07,3.6468625021456363e-07,1.6052304613377848e-05
3.51215272454068e-07,2.305969138273969e-07,3.692582938256793e-07,1.585341702363915e-05
3.486619249955874e-07,2.305160071833882e-07,3.7361149272728063e-07,1.5652186032022335e-05
3.461123613185563e-07,2.305823828301894e-07,3.777359593277929e-07,1.5448619424865308e-05
3.436021895536114e-07,2.308089704955774e-07,3.8162121451877534e-07,1.5242707430325507e-05
3.4116679586878136e-07,2.3120696889370852e-07,3.852570411084935e-07,1.5034491548414374e-05
3.388388488025652e-07,2.3178483344752222e-07,3.886335953658946e-07,1.4824168186326584e-05
3.366452886045647e-07,2.3254813351920036e-07,3.917412701663932e-07,1.461213200571927e-05
3.3460590690499766e-07,2.3349817526385192e-07,3.945708178898142e-07,1.4398910519189688e-05
3.327347981098972e-07,2.3463120443959012e-07,3.971143864660531e-07,1.4185061173450198e-05
3.3104275936835825e-07,2.359393639037223e-07,3.993671892589533e-07,1.3971108590884119e-05
3.2953782657085857e-07,2.374121930133512e-07,4.013278190321456e-07,1.3757521263469116e-05
3.282243535921777e-07,2.390380938149844e-07,4.0299671846888817e-07,1.3544707498913133e-05
3.271027171664009e-07,2.408059969053484e-07,4.043744562700353e-07,1.333301930217908e-05
3.261694689888666e-07,2.427067249829967e-07,4.054607247090588e-07,1.3122749066569435e-05
3.254178544020896e-07,2.447330876621604e-07,4.0625438466015243e-07,1.2914130228678432e-05
3.24839795704363e-07,2.468787085602601e-07,4.067541782500289e-07,1.2707357341094065e-05
3.24427636756794e-07,2.4913615042695286e-07,4.069593103263161e-07,1.2502626358141604e-05
3.2417365554557016e-07,2.514955741947723e-07,4.0687020063260923e-07,1.2300214696943969e-05
3.240704060603361e-07,2.5394526227532175e-07,4.064893964346876e-07,1.2100576379255914e-05
3.2411457829119054e-07,2.5647289117455694e-07,4.058216058958936e-07,1.1904358321491215e-05
3.243100342749531e-07,2.590664732416533e-07,4.048726678429985e-07,1.1712309139413088e-05
3.24665373241614e-07,2.617158657398316e-07,4.036486557015832e-07,1.1525153363653505e-05
3.251886293741723e-07,2.644144997926192e-07,4.021560487321671e-07,1.1343511939008427e-05
3.258837693488796e-07,2.6715984520870604e-07,4.0040234649033657e-07,1.1167889783618305e-05
3.267495796158428e-07,2.6995192440551527e-07,3.983960029814238e-07,1.0998682897181663e-05
3.277798586863825e-07,2.727903529781473e-07,3.961463070831195e-07,1.0836171023933084e-05
3.289647145338219e-07,2.756717440530269e-07,3.9366424442453385e-07,1.0680542324436164e-05
3.3029235352590326e-07,2.785891945899858e-07,3.909629414085256e-07,1.0532013927722133e-05
3.3175020578276357e-07,2.815335563453688e-07,3.880561743229713e-07,1.039098793795433e-05
3.333248104846965e-07,2.844954788661342e-07,3.849562998727037e-07,1.0258074569403907e-05
3.350009629293633e-07,2.874677959339516e-07,3.816738213139422e-07,1.0133943730179428e-05
3.367611176455693e-07,2.904468162753523e-07,3.782183256920732e-07,1.001914486346878e-05
3.385856593932689e-07,2.9343187724087593e-07,3.745987991766146e-07,9.914022905932199e-06
3.404544890025488e-07,2.9642483390194685e-07,3.70822976189711e-07,9.818795843936067e-06
3.4234893806667187e-07,2.9942942420902e-07,3.668973686656753e-07,9.733797589540586e-06
3.4425249688263785e-07,3.0244915420171514e-07,3.628292977562063e-07,9.65972652785691e-06
3.461513518842257e-07,3.054848862051183e-07,3.586295691660695e-07,9.597685257349716e-06
3.480348459009151e-07,3.085338650021245e-07,3.543125145712888e-07,9.549013716779761e-06
3.4989423366192133e-07,3.1158991603069675e-07,3.4989358533184586e-07,9.515080965844976e-06
3.517211550822052e-07,3.146443763565516e-07,3.45388421312102e-07,9.497125655489017e-06
3.5350751057648174e-07,3.176877034360787e-07,3.4081417148223813e-07,9.496143869249901e-06
3.5524588744662625e-07,3.2071092888825624e-07,3.3619023658577517e-07,9.512812303764186e-06
3.5693031729531454e-07,3.237066116567915e-07,3.315373754040353e-07,9.547442420009963e-06
3.58556684116146e-07,3.266695244397069e-07,3.268761685662792e-07,9.599971497281597e-06
3.6012155980938727e-07,3.2959695114612424e-07,3.222256217014973e-07,9.66999298689846e-06
3.6162086976558343e-07,3.324886021616664e-07,3.176021341555421e-07,9.756807574209844e-06
3.630496378028603e-07,3.3534534180612373e-07,3.1301885784617037e-07,9.859472225725093e-06
3.6440206960093297e-07,3.381664678531946e-07,3.084857283394105e-07,9.976845093123807e-06
3.6567154363842393e-07,3.409483455956167e-07,3.040106077427665e-07,1.0107639489197027e-05
3.668503282622813e-07,3.436866409688715e-07,2.996018824909409e-07,1.0250492879738637e-05
3.6792930122736296e-07,3.4637945550504534e-07,2.952715626484745e-07,1.0404047927714703e-05
3.688979639654232e-07,3.4902697700492247e-07,2.910362860693343e-07,1.0567036629412532e-05
3.697445459185284e-07,3.5162877389868266e-07,2.869155642895818e-07,1.0738335377808596e-05
3.704569382907465e-07,3.5418330244648576e-07,2.829295396257436e-07,1.0916964547298184e-05
3.7102433831891924e-07,3.5668894892298866e-07,2.790974540243001e-07,1.1102059444834585e-05
3.7143782436308596e-07,3.591434358668732e-07,2.754367830974369e-07,1.1292845867500705e-05
3.7168967177812463e-07,3.6154258496941295e-07,2.719633516036601e-07,1.1488606209299905e-05
3.7177344633573655e-07,3.63879971105188e-07,2.6869126510002897e-07,1.1688613719754711e-05
3.716861088599844e-07,3.661468970241523e-07,2.6563163196704467e-07,1.1892051889408666e-05
3.71429827298771e-07,3.683326783749501e-07,2.6279143938929e-07,1.2097972960575784e-05
3.710107604366417e-07,3.7042548472456976e-07,2.601737988628776e-07,1.2305332947166815e-05
3.704362895653939e-07,3.724128373693539e-07,2.5777959903751297e-07,1.2513065576525235e-05
3.6971377034377776e-07,3.7428141286037676e-07,2.5560948313684376e-07,1.272011870974364e-05
3.6885119290036405e-07,3.760171822278301e-07,2.5366390301237624e-07,1.2925434595090725e-05
3.678574092884353e-07,3.776061046590429e-07,2.5194108226057817e-07,1.3127922309837676e-05
3.6674052885709313e-07,3.7903499846757616e-07,2.504358124652087e-07,1.3326464287768688e-05
3.655064581561075e-07,3.8029280365014647e-07,2.491409749672938e-07,1.3519957842403136e-05
3.641590699712772e-07,3.813711398278308e-07,2.4805037078417486e-07,1.3707368158678696e-05
3.627008344264132e-07,3.8226306845231575e-07,2.471599595103233e-07,1.3887787865446567e-05
3.611333654262296e-07,3.8296192622276896e-07,2.4646668155379336e-07,1.4060507298626464e-05
3.594580540056729e-07,3.834616038470446e-07,2.459670115023448e-07,1.4225041279110706e-05
3.576761210854426e-07,3.837569547950266e-07,2.4565664415229e-07,1.4381075091659955e-05
3.5578834228713226e-07,3.838441988298854e-07,2.455307532671463e-07,1.4528387906430146e-05
3.537954760361856e-07,3.837221949412893e-07,2.455848258279481e-07,1.4666794895277859e-05
3.5169959576864324e-07,3.833934078824149e-07,2.458157249872389e-07,1.4796095586822271e-05
3.4950568319387776e-07,3.828635422686129e-07,2.462211089848948e-07,1.4916044710132084e-05
3.472218250278028e-07,3.8214048728526823e-07,2.4679746681709555e-07,1.5026379073952664e-05
3.448577802419844e-07,3.812331332729256e-07,2.4753912730466924e-07,1.5126893276890244e-05
3.424241248169709e-07,3.801509465667882e-07,2.484382142754444e-07,1.5217510661274387e-05
3.399325035204832e-07,3.7890438906644113e-07,2.494842342900281e-07,1.5298296004710172e-05
3.373953472934328e-07,3.7750428824861045e-07,2.506636152225592e-07,1.5369412527260952e-05
3.348248005353351e-07,3.759601472741092e-07,2.519602280046157e-07,1.543106200240241e-05
3.3223207176436327e-07,3.742796633641203e-07,2.533570621275703e-07,1.5483444251416128e-05
3.296273215270223e-07,3.724699863138042e-07,2.548376481179693e-07,1.5526789755702208e-05
3.270194634188653e-07,3.7053919775450633e-07,2.5638601935511564e-07,1.556145727131857e-05
3.2441613540873194e-07,3.684963485449586e-07,2.5798616498076617e-07,1.5587975888525048e-05
3.218240217151348e-07,3.6635004886906037e-07,2.59622008248667e-07,1.560698728006034e-05
3.1924903634498127e-07,3.6410722448424417e-07,2.612781691035634e-07,1.561915890431073e-05
3.166960051592445e-07,3.6177314410001846e-07,2.629416797911902e-07,1.562510248412868e-05
3.141682801134465e-07,3.5935266460543864e-07,2.646029382990639e-07,1.5625310763600373e-05
3.116680485591366e-07,3.5685144365880287e-07,2.662550787926468e-07,1.5620130770744886e-05
3.091969393880424e-07,3.5427602217947775e-07,2.6789407577104764e-07,1.5609759638949226e-05
3.067564190297402e-07,3.516332985730019e-07,2.695192305494451e-07,1.5594253772962954e-05
3.043481804405524e-07,3.489296242247218e-07,2.711313918373857e-07,1.557356427289241e-05
3.019738824613632e-07,3.461694994598864e-07,2.7273010445506876e-07,1.5547580027028806e-05
2.9963418192937764e-07,3.433548671768755e-07,2.743127536582273e-07,1.5516138173458208e-05
2.973284973488237e-07,3.4048537185207284e-07,2.758753337026559e-07,1.547900926371646e-05
2.9505546909440137e-07,3.3755919616428983e-07,2.774124192057137e-07,1.543589007827296e-05
2.928130868622986e-07,3.345743613043292e-07,2.789165767868712e-07,1.5386412718666864e-05
2.9059929971865676e-07,3.315298904923865e-07,2.803789451053461e-07,1.5330172252916673e-05
2.8841341873314893e-07,3.284258662280915e-07,2.817906198904925e-07,1.5266772075516468e-05
2.862565235690548e-07,3.252630288788891e-07,2.8314364001800305e-07,1.5195861128696109e-05
2.8413078833903827e-07,3.2204380525551747e-07,2.8443127850317303e-07,1.5117137685382892e-05
2.820390921222668e-07,3.1877458231286675e-07,2.856478102064491e-07,1.5030333675942542e-05
2.799849909967545e-07,3.154665280428555e-07,2.8678790435304647e-07,1.4935203836271921e-05
2.779733034301852e-07,3.121338667854109e-07,2.878457434126334e-07,1.4831520320675491e-05
2.760112265875535e-07,3.0879217066065477e-07,2.888148040051279e-07,1.4719074279765989e-05
2.741083340881307e-07,3.054581540584418e-07,2.896895247814844e-07,1.4597685930521549e-05
2.722746953582029e-07,3.0214910914410374e-07,2.9046800632304905e-07,1.4467210518262384e-05
2.705187758917545e-07,2.988811237186823e-07,2.9115300851854983e-07,1.4327537872516144e-05
2.688470470360225e-07,2.9566749198128836e-07,2.917501912324147e-07,1.4178596738677536e-05
2.672647391968931e-07,2.925188971083065e-07,2.922654813062754e-07,1.4020371351845724e-05
2.657764815008305e-07,2.894450891549764e-07,2.927034659151553e-07,1.3852927512442925e-05
2.643871194330573e-07,2.864556021607971e-07,2.930668477695818e-07,1.3676434451953375e-05
2.6310257104982637e-07,2.835588771874988e-07,2.9335679817579105e-07,1.349116279911309e-05
2.6192941813379195e-07,2.807616521586687e-07,2.935745578368731e-07,1.329745477014187e-05
2.608730643582969e-07,2.7806893111627924e-07,2.937227728380421e-07,1.3095708445943276e-05
2.5993646204182137e-07,2.754842608371412e-07,2.938056092431312e-07,1.2886407847998116e-05
2.591207523407884e-07,2.730110786153854e-07,2.9382945033095657e-07,1.2670139164576692e-05
2.584260007608999e-07,2.7065439536874035e-07,2.938034385146968e-07,1.2447539079188984e-05
2.578508866829901e-07,2.6842097529830976e-07,2.937383663229438e-07,1.2219228624503165e-05
2.5739351998483283e-07,2.663176391498169e-07,2.9364602713680485e-07,1.1985788390752125e-05
2.570531699078519e-07,2.64349132767309e-07,2.935395313231883e-07,1.174776635124431e-05
2.5682998372851874e-07,2.62517731503851e-07,2.934325888910913e-07,1.1505710870855584e-05
2.567231921494594e-07,2.6082470555766637e-07,2.933377122997962e-07,1.1260211858546915e-05
2.567298547092124e-07,2.5927132945788586e-07,2.9326509083000923e-07,1.1011897193756934e-05
2.568443070704745e-07,2.57858761282094e-07,2.932228779880061e-07,1.076138962184757e-05
2.5705835730024784e-07,2.565876373050382e-07,2.932174160353073e-07,1.0509299769631312e-05
2.573625939446549e-07,2.554571404931675e-07,2.932526288546633e-07,1.0256279219524009e-05
2.5774764415319657e-07,2.544639104003798e-07,2.933295314828928e-07,1.0003100347688057e-05
2.5820407896281504e-07,2.536020648423283e-07,2.9344644634713093e-07,9.750735985521484e-06
2.587220117178181e-07,2.528643294455821e-07,2.936004659975625e-07,9.50039194532504e-06
2.592912325837805e-07,2.5224282101373957e-07,2.9378922194146364e-07,9.253443028002343e-06
2.599011729013512e-07,2.517287176466147e-07,2.940110243516521e-07,9.011294493722167e-06
2.605411270960371e-07,2.5131161297588324e-07,2.942647376487201e-07,8.775243751991588e-06
2.612016062062976e-07,2.509791638480144e-07,2.945505862860325e-07,8.546405961782536e-06
2.6187510943936055e-07,2.507173493121676e-07,2.948695204995575e-07,8.325708461268667e-06
2.625547475921288e-07,2.5051177623646324e-07,2.9522112317478786e-07,8.113903640142689e-06
2.632331502596197e-07,2.503494841974139e-07,2.9560302959783104e-07,7.911587390728763e-06
2.639032408275193e-07,2.5021998241135077e-07,2.9601245699740573e-07,7.719285671187474e-06
2.64558944136862e-07,2.5011498973948104e-07,2.9644792126016105e-07,7.5376147084082996e-06
2.651949112267121e-07,2.500275724643483e-07,2.969092232264353e-07,7.3673649988656925e-06
2.65805848935754e-07,2.4995193260828216e-07,2.9739573025536537e-07,7.209396609170024e-06
2.663857732061833e-07,2.4988415145365405e-07,2.9790508934878204e-07,7.064468900605674e-06
2.6692794141799977e-07,2.498224807518953e-07,2.984335960762757e-07,6.933180450223351e-06
2.674261018966769e-07,2.497670690125984e-07,2.9897664894953014e-07,6.816056128251596e-06
2.6787569040828854e-07,2.49720699472502e-07,2.995284445903309e-07,6.713764862961842e-06
2.682735231289873e-07,2.4968960826382214e-07,3.0008254304393876e-07,6.627375264536955e-06
2.686170133202269e-07,2.496827576072608e-07,3.0063262274241087e-07,6.5584397096007985e-06
2.689037436165556e-07,2.4971053348012306e-07,3.011719527018044e-07,6.508833641642967e-06
2.6913071341251624e-07,2.497840715583223e-07,3.016937594833492e-07,6.480504283424727e-06
2.692937736364916e-07,2.499149746791531e-07,3.021929063791548e-07,6.475266263163946e-06
2.693883446573061e-07,2.5011518155998694e-07,3.026661019735433e-07,6.4946576374574675e-06
2.694104384544468e-07,2.503966669860733e-07,3.0311037703021717e-07,6.5398363723893e-06
2.69357229359258e-07,2.5077020009729656e-07,3.035215950262413e-07,6.6115206416061376e-06
2.6922838180691444e-07,2.512444771320789e-07,3.0389396432157324e-07,6.7099823493211775e-06
2.6902761871654266e-07,2.5182674415484143e-07,3.0422061117338193e-07,6.835073464404705e-06
2.6876303428294604e-07,2.525230962314762e-07,3.044942712049087e-07,6.986257278083386e-06
2.684464287425992e-07,2.5333838554624126e-07,3.047070888578198e-07,7.162661356124503e-06
2.680912569223082e-07,2.5427676041584984e-07,3.0485036517960077e-07,7.36317466529336e-06
2.677095989996302e-07,2.553414092313737e-07,3.0491578627526026e-07,7.586554022162471e-06
2.67311124066123e-07,2.565336482733028e-07,3.0489716751613193e-07,7.831497824404126e-06
2.669039861258575e-07,2.578538669789109e-07,3.047907965169701e-07,8.0966995019855e-06
2.6649489957236037e-07,2.593039874417483e-07,3.045950931321487e-07,8.380904027816363e-06
2.660891110205759e-07,2.608880705252466e-07,3.043107211438467e-07,8.682945947566742e-06
2.6569236159010375e-07,2.6261019213042185e-07,3.0394028219810896e-07,9.001735351183573e-06
2.653130833089229e-07,2.64472055608852e-07,3.034870977579817e-07,9.336206068112737e-06
2.6496138250371445e-07,2.6647215389906486e-07,3.029538233706549e-07,9.685267280882597e-06
2.646454387436601e-07,2.686073648631064e-07,3.023416688144281e-07,1.004776562679795e-05
2.6436919514227985e-07,2.708757076125483e-07,3.0165052610224234e-07,1.0422446330587855e-05
2.641327126534572e-07,2.7327621211783853e-07,3.008800283469297e-07,1.0807927577141297e-05
2.6393347371724877e-07,2.758061869697639e-07,3.0003121086841996e-07,1.1202691169163053e-05
2.6376706006822487e-07,2.784608077908007e-07,2.9910696039310716e-07,1.160507319171002e-05
2.6362749463269465e-07,2.812351566468393e-07,2.9811061766257736e-07,1.2013282197991412e-05
2.635084532357164e-07,2.8412441822259297e-07,2.9704501176223e-07,1.2425460956510969e-05
2.634048937819367e-07,2.8712200793866176e-07,2.959124061672193e-07,1.283973334349402e-05
2.633134728156059e-07,2.9021891602886524e-07,2.947143138463223e-07,1.3254206019867255e-05
2.63232033920516e-07,2.9340478496834824e-07,2.934519065903138e-07,1.3666967302996961e-05
2.6315965763357425e-07,2.966685041605923e-07,2.921270414378306e-07,1.4076119479644162e-05
2.630964781588368e-07,2.9999742160727736e-07,2.907432038184084e-07,1.4479827640957165e-05
2.6304227957840207e-07,3.0337639799909856e-07,2.8930663956623287e-07,1.4876330244637322e-05
2.629962782406493e-07,3.067875623028921e-07,2.8782635332367184e-07,1.5263894226493837e-05
2.6295988434117367e-07,3.1021062524169287e-07,2.863121233748641e-07,1.5640773151277466e-05
2.629396973663559e-07,3.1362440797170574e-07,2.847729371652541e-07,1.6005218218128555e-05
2.629468931080211e-07,3.1701000719091983e-07,2.832166047995881e-07,1.6355517501402562e-05
2.629933958110132e-07,3.203530303785008e-07,2.8164972314913856e-07,1.6690031048134764e-05
2.6308927427464426e-07,3.236423830580256e-07,2.800788621749749e-07,1.700723623152079e-05
2.632439511396181e-07,3.268673292609666e-07,2.785119966834182e-07,1.7305768460067794e-05
2.6346927612293337e-07,3.300155104340445e-07,2.7695763175040877e-07,1.7584406472578886e-05
2.6378079262036e-07,3.330722848087522e-07,2.7542238660844853e-07,1.7842037505525073e-05
2.64195063208712e-07,3.360211568357785e-07,2.739095572416978e-07,1.8077684041989105e-05
2.647250348861219e-07,3.388450310015724e-07,2.7241925906408356e-07,1.8290569225261086e-05
2.653778290379263e-07,3.415270841724277e-07,2.709493812604576e-07,1.848013861783128e-05
2.6615610955855175e-07,3.4405100420598285e-07,2.6949654508644054e-07,1.864602510784016e-05
2.670602804809577e-07,3.464023475266509e-07,2.6805688973845483e-07,1.878799934571947e-05
2.680894503498186e-07,3.485706605291848e-07,2.6662720766967704e-07,1.8905975833352552e-05
2.692412360961139e-07,3.505499075369473e-07,2.652063755579401e-07,1.900014634356124e-05
2.7051127303143807e-07,3.5233801434094255e-07,2.6379611323478123e-07,1.9071150014548968e-05
2.718942539795293e-07,3.5393696709992476e-07,2.624005170213406e-07,1.912007562797711e-05
2.7338635305618337e-07,3.553519926261613e-07,2.610250342392004e-07,1.914828746916692e-05
2.749854965743157e-07,3.5658978043583105e-07,2.59675829790208e-07,1.9157224532563006e-05
2.7668914452104204e-07,3.576572018932555e-07,2.5835962977845697e-07,1.9148273414711363e-05
2.7849301296590737e-07,3.5856044658392e-07,2.5708358022004e-07,1.9122803656941563e-05
2.8039124280582923e-07,3.5930428711890175e-07,2.558547502677465e-07,1.9082361284303145e-05
2.823764478864371e-07,3.598915900408645e-07,2.5467966329938157e-07,1.9028809921976472e-05
2.844392269537572e-07,3.603231104440704e-07,2.5356452257514e-07,1.896426894210753e-05
2.865673858884716e-07,3.605977463420622e-07,2.525156810087734e-07,1.889094538762428e-05
2.8874596202120516e-07,3.607133418820892e-07,2.515394751631309e-07,1.8810989428496787e-05
2.9095848907251463e-07,3.6066751452738574e-07,2.506411109961652e-07,1.872639712520897e-05
2.93187997173244e-07,3.6045770495561793e-07,2.498233465016833e-07,1.8638951164572845e-05
2.9541702939703087e-07,3.600810430629741e-07,2.4908663828173125e-07,1.8550185673058648e-05
2.97627653319042e-07,3.595354710094062e-07,2.48430900905841e-07,1.8461358795515195e-05
2.998017018189391e-07,3.588213211190441e-07,2.478568342373013e-07,1.837344031533087e-05
3.0192105782830427e-07,3.5794176893692156e-07,2.4736586157800845e-07,1.82871240122032e-05
3.039690959808367e-07,3.569034040738925e-07,2.46959673433383e-07,1.8202847736374195e-05
3.0593307833294693e-07,3.557169659350032e-07,2.466395446549397e-07,1.812081198344148e-05
3.078044369966814e-07,3.5439586213325646e-07,2.464052933483493e-07,1.8041015858878615e-05
3.0957631919365893e-07,3.529541197842223e-07,2.462546102590021e-07,1.7963316397536826e-05
3.112418511890469e-07,3.5140645188561047e-07,2.4618290914593395e-07,1.7887497560300375e-05
3.1279483501058426e-07,3.497688169052675e-07,2.461839949297489e-07,1.7813338031019348e-05
3.142317785151603e-07,3.480577698604949e-07,2.4625152942612355e-07,1.774066146080461e-05
3.1555400973677644e-07,3.462892030507445e-07,2.463796398479057e-07,1.7669363308330123e-05
3.1676859959928216e-07,3.4447778524294793e-07,2.465622737967782e-07,1.7599437116687216e-05
3.178871143671293e-07,3.4263746361865673e-07,2.467928348386309e-07,1.7531005850914292e-05
3.189224222169233e-07,3.407817644289092e-07,2.470647315244477e-07,1.746432665182929e-05
3.1988521584343517e-07,3.389231296344373e-07,2.473718326414501e-07,1.7399754463252697e-05
3.207823675769862e-07,3.3707190876945026e-07,2.477076519289116e-07,1.7337685382869227e-05
3.216178596383965e-07,3.352357102312749e-07,2.480643688230628e-07,1.727848894632646e-05
3.223946761337852e-07,3.3341969591821297e-07,2.48433708966677e-07,1.7222435799633975e-05
3.231155571537774e-07,3.316279704773402e-07,2.488083892431136e-07,1.716967337778495e-05
3.2378257593035497e-07,3.298644945601644e-07,2.4918210339921744e-07,1.7120274113405333e-05
3.2439707338991985e-07,3.2813197181803193e-07,2.495492739557763e-07,1.70742806703e-05
3.249612942225997e-07,3.264302847863645e-07,2.4990591380219085e-07,1.7031693575046032e-05
3.254811470477107e-07,3.247566124525459e-07,2.5025091688656106e-07,1.6992441979144902e-05
3.259677557694133e-07,3.231066170941188e-07,2.505860116313421e-07,1.695637870782134e-05
3.264366521713986e-07,3.214756555227298e-07,2.5091340721135604e-07,1.6923291146438e-05
3.269054566834756e-07,3.1985971530876286e-07,2.512333463742004e-07,1.68928936645806e-05
3.27391558667276e-07,3.182554685732457e-07,2.515439040112791e-07,1.6864795686565992e-05
3.279105018558464e-07,3.166606124092816e-07,2.5184210764783486e-07,1.6838511587250766e-05
3.284744017345099e-07,3.1507653734596126e-07,2.521244591791913e-07,1.681356557935846e-05
3.290907689853713e-07,3.135112136427205e-07,2.5238685051520944e-07,1.6789614870431268e-05
3.2976309432422707e-07,3.1197829159825165e-07,2.5262513885738877e-07,1.6766465863609792e-05
3.3049231314505986e-07,3.1049297018202727e-07,2.528361119801359e-07,1.674398161697264e-05
3.3127716294697623e-07,3.0906831395760587e-07,2.5301774771218965e-07,1.6721969777772197e-05
3.32114143277029e-07,3.077138651450456e-07,2.5316863273654216e-07,1.670011251353512e-05
3.329987427928328e-07,3.064367465788729e-07,2.532873127185172e-07,1.6677974113884827e-05
3.339265138879621e-07,3.052444216569218e-07,2.5337302151878084e-07,1.665509222861328e-05
3.3489324414172425e-07,3.0414583930573355e-07,2.5342689073723806e-07,1.6631091522142885e-05
3.3589622049289735e-07,3.031494876025839e-07,2.534513698175054e-07,1.6605743684461074e-05
3.369354895936085e-07,3.0226204410722236e-07,2.5344905362394426e-07,1.657896094405705e-05
3.380129331417924e-07,3.014894984937525e-07,2.534228625221225e-07,1.655074184505553e-05
3.391309313030557e-07,3.008381945119028e-07,2.5337703814407227e-07,1.6521112119743672e-05
3.402918016651566e-07,3.003150339343428e-07,2.533174215663533e-07,1.6490175753659964e-05
3.4149721629677164e-07,2.9992802149991734e-07,2.532502041410551e-07,1.6458270067317966e-05
3.4274760039168217e-07,2.996865478941331e-07,2.531804241195932e-07,1.6426001642228733e-05
3.4404143464305854e-07,2.996000367787785e-07,2.531118730163978e-07,1.639412044450184e-05
3.453751223773275e-07,2.9967615368075754e-07,2.530480982644654e-07,1.636345770014613e-05
3.467442175249979e-07,2.999209636549542e-07,2.529930256981097e-07,1.6334960923605945e-05
3.481444442284432e-07,3.003394327181187e-07,2.529510886349448e-07,1.6309661453005913e-05
3.4957088394182065e-07,3.0093393122687613e-07,2.529281104390744e-07,1.628856177852244e-05
3.510163514418633e-07,3.017026540943905e-07,2.529322274900761e-07,1.627252719477228e-05
3.524708671241315e-07,3.026393511951556e-07,2.529727897757036e-07,1.6262212477784615e-05
3.539224967938558e-07,3.037335920892657e-07,2.530576914915455e-07,1.6258027939809167e-05
3.553586466938825e-07,3.049720633336401e-07,2.531913291276081e-07,1.626013662503648e-05
3.5676741095695e-07,3.0634086284759737e-07,2.5337397929537027e-07,1.6268468094302788e-05
3.581388621188996e-07,3.0782645247323944e-07,2.536027657797659e-07,1.6282734259054438e-05
3.5946558706021315e-07,3.094148322491219e-07,2.538748427418637e-07,1.6302438472458172e-05
3.6074239691801674e-07,3.110918634404541e-07,2.5419059246252685e-07,1.6326886352891405e-05
3.619659330913528e-07,3.1284487384870354e-07,2.545530385012742e-07,1.6355210979914347e-05
3.631340297507428e-07,3.14663207617778e-07,2.5496486857571287e-07,1.6386411703156225e-05
3.6424437956092797e-07,3.1653862845075123e-07,2.554271903595561e-07,1.641940329222653e-05
3.6529314261300063e-07,3.184656995662385e-07,2.559396981099961e-07,1.6453085210222243e-05
3.66274693887802e-07,3.2043998485094033e-07,2.565001249727465e-07,1.6486424954566644e-05
3.671824236664451e-07,3.2245573365654156e-07,2.571034294805841e-07,1.6518513330584555e-05
3.6800906258014394e-07,3.2450560011845487e-07,2.577423190645895e-07,1.6548566990774343e-05
3.687460344480354e-07,3.2658073850280604e-07,2.5841000879929827e-07,1.657590729011457e-05
3.693831854007442e-07,3.286697056001186e-07,2.591030227888317e-07,1.6599943417830207e-05
3.6990945304297425e-07,3.3075793648917816e-07,2.598204271401672e-07,1.66201590241356e-05
3.7031337919680034e-07,3.328293713349801e-07,2.605609441864729e-07,1.66361031102403e-05
3.705833808298354e-07,3.3486874087260536e-07,2.613221207578824e-07,1.6647384094325307e-05
3.707090507406886e-07,3.3686204088333413e-07,2.6210141694086244e-07,1.6653655093234963e-05
3.706827272225618e-07,3.3879529506577054e-07,2.6289660861138746e-07,1.6654579981867105e-05
3.704990177143806e-07,3.4065352564995125e-07,2.637051408207844e-07,1.6649789884471364e-05
3.7015314201398566e-07,3.424210423201901e-07,2.645237188407714e-07,1.6638862016688708e-05
3.696409177439893e-07,3.4408285556477015e-07,2.653486062396064e-07,1.662135445183579e-05
3.6895998374435274e-07,3.456254064604504e-07,2.6617597843364565e-07,1.6596916526662756e-05
3.6810994200275813e-07,3.4703563881512804e-07,2.6700208495140534e-07,1.6565432186840167e-05
3.670913898145571e-07,3.483008160251655e-07,2.6782346009532427e-07,1.6527077432360877e-05
3.659053739679217e-07,3.4941056149315537e-07,2.6863677039065105e-07,1.6482227399598845e-05
3.645533394515062e-07,3.503587273628095e-07,2.694382355414049e-07,1.6431295690825346e-05
3.6303665992917143e-07,3.511426464668662e-07,2.70223191039129e-07,1.637463119317824e-05
3.6135602259587044e-07,3.517606455069108e-07,2.709860706464303e-07,1.6312520453790913e-05
3.595113743047142e-07,3.5221074795644775e-07,2.7172077004462285e-07,1.6245260767354722e-05
3.5750231267786764e-07,3.5249126104051726e-07,2.724205978939305e-07,1.6173219735708757e-05
3.553286179402707e-07,3.526013205599668e-07,2.7307747860728765e-07,1.609681627459469e-05
3.529906364689578e-07,3.525408988059853e-07,2.736815103591301e-07,1.6016445501376184e-05
3.5048941593997857e-07,3.523111303362768e-07,2.74221344174548e-07,1.593242836074643e-05
3.4782740660284004e-07,3.5191476775382546e-07,2.746852102730495e-07,1.584505180971987e-05
3.450098396930757e-07,3.513562719456678e-07,2.7506261270398325e-07,1.5754702589311903e-05
3.420450329789754e-07,3.5064151777956864e-07,2.7534549356003626e-07,1.566200920459132e-05
3.389429442421018e-07,3.4977685656824124e-07,2.755278757902925e-07,1.5567868476249495e-05
3.357132924078567e-07,3.487676810444352e-07,2.756050123263679e-07,1.5473317825228127e-05
3.323643003842904e-07,3.4761812763239175e-07,2.755732398536118e-07,1.5379344609895734e-05
3.289027244975016e-07,3.463331271749535e-07,2.754302254200016e-07,1.5286761653848582e-05
3.253351102156411e-07,3.449212263590487e-07,2.7517447831731965e-07,1.5196188554990564e-05
3.216688424377848e-07,3.4339482732951323e-07,2.7480438141412056e-07,1.510807148553906e-05
3.179123962477713e-07,3.417674050516499e-07,2.7431772558074944e-07,1.5022684637118924e-05
3.1407526951989067e-07,3.400512378517155e-07,2.737116881678048e-07,1.4940160723767194e-05
3.1016753472970123e-07,3.3825746488445674e-07,2.7298315519691373e-07,1.4860633664228226e-05
3.061990790139134e-07,3.363969584564741e-07,2.721291347691308e-07,1.4784428821565826e-05
3.021790534408449e-07,3.344802735273618e-07,2.711469520743014e-07,1.4712112554817896e-05
2.9811601741159785e-07,3.325166712081389e-07,2.700347017790236e-07,1.4644365034067984e-05
2.940185871103475e-07,3.3051368448233384e-07,2.6879206167335585e-07,1.4581821388249131e-05
2.8989567399783313e-07,3.284773076904836e-07,2.674209631052571e-07,1.4524983331182929e-05
2.857568733694534e-07,3.2641179884502594e-07,2.659259816282077e-07,1.4474240727240085e-05
2.816141903226548e-07,3.243192943003722e-07,2.6431507893663396e-07,1.4430039126847006e-05
2.774829625952685e-07,3.221998811948968e-07,2.626006669538285e-07,1.4393089387327897e-05
2.7337982586988804e-07,3.2005266066657467e-07,2.607990599009582e-07,1.4364408938008637e-05
2.6932003745368197e-07,3.178779644172525e-07,2.5892749968531137e-07,1.4345173485363285e-05
2.653165970672221e-07,3.156798267118338e-07,2.570011183792288e-07,1.433653885143994e-05
2.613808502441053e-07,3.1346710672083605e-07,2.550320567963543e-07,1.4339524064971955e-05
2.575231726245985e-07,3.112519855635446e-07,2.530301396011252e-07,1.4354939163916903e-05
2.5375282485427553e-07,3.0904699407624914e-07,2.510037362554082e-07,1.4383325193915922e-05
2.500776416511947e-07,3.0686329771647725e-07,2.48960704226417e-07,1.4424906837985046e-05
2.4650393394963735e-07,3.047104271806835e-07,2.4690922324660265e-07,1.4479577817748965e-05
2.4303629768354357e-07,3.025966100952569e-07,2.44857649236647e-07,1.4546923193473785e-05
2.396778982880234e-07,3.005306087936809e-07,2.4281371434503724e-07,1.4626257044204955e-05
2.364310265306002e-07,2.985238388496094e-07,2.40784355467214e-07,1.4716654725914988e-05
2.33297292174612e-07,2.9658957598659394e-07,2.387758084742188e-07,1.4816993116688095e-05
2.3027813547692514e-07,2.947400868563847e-07,2.3679301684349608e-07,1.4926017769483082e-05
2.2737524818768358e-07,2.929848978194292e-07,2.348392827396493e-07,1.5042425653566733e-05
2.245899160886802e-07,2.913306292027758e-07,2.329168123250229e-07,1.5164949150618906e-05
2.2192218160278945e-07,2.897813287874517e-07,2.310276119588432e-07,1.5292431143831217e-05
2.1937104897941446e-07,2.8833938530518226e-07,2.291749484190434e-07,1.5423862904930935e-05
2.1693584099022652e-07,2.8700804898861735e-07,2.2736425705196185e-07,1.5558370790984534e-05
2.1461708010713375e-07,2.8579554922363616e-07,2.256018024795109e-07,1.569518244169957e-05
2.1241592584509621e-07,2.847176943095614e-07,2.238930295853896e-07,1.5833598957412075e-05
2.1033371266744002e-07,2.83795905533943e-07,2.2224232710770067e-07,1.5972961727861904e-05
2.083718289116007e-07,2.830532540563916e-07,2.2065320737833885e-07,1.6112596631161882e-05
2.065311177778655e-07,2.825123877307172e-07,2.1912884854543014e-07,1.6251745928592112e-05
2.048115766173583e-07,2.821942026696805e-07,2.176730328315929e-07,1.638953977735456e-05
2.0321262978332102e-07,2.8211596182432976e-07,2.162903060094399e-07,1.652505729761036e-05
2.0173350761736506e-07,2.822899246927365e-07,2.1498515934476037e-07,1.665744073027233e-05
2.0037407616266e-07,2.8272255860962554e-07,2.1376120577278885e-07,1.678596056874231e-05
1.9913545040625691e-07,2.8341485027496964e-07,2.1262083404409388e-07,1.6909995801877335e-05
1.980190853989134e-07,2.8436404582962827e-07,2.1156525035675867e-07,1.7028995677363454e-05
1.9702574214708293e-07,2.855646994485907e-07,2.1059450969072602e-07,1.7142484549609742e-05
1.9615629986523648e-07,2.870083993234813e-07,2.0970730156876054e-07,1.7250097470629654e-05
1.9541296981084963e-07,2.886838597669937e-07,2.089011193756745e-07,1.7351579222263327e-05
1.9479844453815626e-07,2.905772498914631e-07,2.0817313013711157e-07,1.7446719267962233e-05
1.9431381717107813e-07,2.926727004743464e-07,2.075213689899433e-07,1.7535313628486866e-05
1.939578151043933e-07,2.949543139428809e-07,2.0694532807882327e-07,1.761721770687112e-05
1.9372769017862889e-07,2.974079139098882e-07,2.0644524446669523e-07,1.7692414136115123e-05
1.9362059682550696e-07,3.000199732158937e-07,2.060212879383567e-07,1.7761028752471827e-05
1.9363428252115718e-07,3.027762109620905e-07,2.0567342911636122e-07,1.7823298693294188e-05
1.9376663187461523e-07,3.056628245247896e-07,2.0540102356501447e-07,1.787949825423551e-05
1.9401507682178945e-07,3.0866766324234927e-07,2.0520228555803906e-07,1.792983885898818e-05
1.9437643725444e-07,3.1177895137368643e-07,2.050749972476146e-07,1.7974391317543108e-05
1.9484697660261854e-07,3.1498386959444225e-07,2.0501792188001558e-07,1.801308150382604e-05
1.9542256702277797e-07,3.1826812437626535e-07,2.0503073278882051e-07,1.8045755034931848e-05
1.9609873271148493e-07,3.2161527780004486e-07,2.051128870933549e-07,1.8072247515378384e-05
1.9687083005294865e-07,3.2500595945899877e-07,2.05264094350318e-07,1.809241221706123e-05
1.9773407099954012e-07,3.284180524473159e-07,2.0548571614806786e-07,1.8106101953142508e-05
1.9868316728988012e-07,3.318282145199689e-07,2.057805857625793e-07,1.8113146475250688e-05
1.9971286509866176e-07,3.352134824139372e-07,2.0615180329019442e-07,1.8113415010627546e-05
2.0081897949968691e-07,3.3855139639699175e-07,2.066019858582689e-07,1.810695471783388e-05
2.0199823187971505e-07,3.4181935716902386e-07,2.0713311657283282e-07,1.8094037258962568e-05
2.0324780266931023e-07,3.4499457061826674e-07,2.0774671030049623e-07,1.807508588329764e-05
2.045656594289334e-07,3.480543318789677e-07,2.0844337289833848e-07,1.805061781782724e-05
2.0595008569896537e-07,3.509767282496151e-07,2.0922181117054648e-07,1.80212044508576e-05
2.073980009599569e-07,3.5374220286304344e-07,2.100790171827137e-07,1.798740403971915e-05
2.0890404458424288e-07,3.5633433486311933e-07,2.110113557090857e-07,1.7949704409749975e-05
2.1046124424008453e-07,3.587388682866589e-07,2.120145777195824e-07,1.790849892250167e-05
2.1206247500585412e-07,3.60943157508332e-07,2.130830009357879e-07,1.7864082025754174e-05
2.137014665902821e-07,3.6293717910370296e-07,2.1420904012225374e-07,1.781663736542847e-05
2.153724947465928e-07,3.6471538041688253e-07,2.1538309295021877e-07,1.7766208602870802e-05
2.1706958367951304e-07,3.6627848911535704e-07,2.1659411800707788e-07,1.7712680942610027e-05
2.1878627349806548e-07,3.676333659827757e-07,2.178314409506539e-07,1.7655796655607787e-05
2.20516245342134e-07,3.687909736439858e-07,2.1908692238862768e-07,1.759519162225904e-05
2.222556696947215e-07,3.697650833979852e-07,2.2035548344415194e-07,1.7530429009626604e-05
2.2400637123336734e-07,3.7057122994036224e-07,2.2163354359986767e-07,1.746102392684933e-05
2.257759602065107e-07,3.7122473925347207e-07,2.229174830132339e-07,1.7386466733379863e-05
2.275738185531619e-07,3.7174000848828934e-07,2.2420367586501326e-07,1.730624693439399e-05
2.2940681019913764e-07,3.7213103779520225e-07,2.2548978113073248e-07,1.721986386614716e-05
2.3127770655508126e-07,3.724110596217219e-07,2.2677578774612661e-07,1.7126821827816556e-05
2.3318581312293248e-07,3.7259187743279536e-07,2.2806339591585607e-07,1.7026631086801404e-05
2.3512865555325713e-07,3.7268387816468847e-07,2.293546033725154e-07,1.6918821470905425e-05
2.371033108379787e-07,3.726966592855912e-07,2.3065086161706969e-07,1.6802952030468375e-05
2.3910615280582616e-07,3.7263973677679097e-07,2.3195228669922323e-07,1.6678613494734213e-05
2.41132514950283e-07,3.7252169139891673e-07,2.332568625436264e-07,1.6545448744258456e-05
2.4317795544448057e-07,3.723484053805008e-07,2.345608974830977e-07,1.6403205974181184e-05
2.4523899438834856e-07,3.7212301150393425e-07,2.3586044760741434e-07,1.6251795801984078e-05
2.4731168563690465e-07,3.718466187017515e-07,2.3715229023841682e-07,1.6091317320714734e-05
2.4939029696425066e-07,3.715176560453529e-07,2.384341653011885e-07,1.5922043625687638e-05
2.5146723253492336e-07,3.711314755704811e-07,2.39704369153831e-07,1.5744369249618773e-05
2.535330677364449e-07,3.706826358797982e-07,2.409612773607053e-07,1.5558735942709506e-05
2.555764584641221e-07,3.701684042138735e-07,2.422033387272334e-07,1.5365573998733987e-05
2.575844823460893e-07,3.69589468718341e-07,2.434286047025404e-07,1.5165303250912155e-05
2.5954410046771307e-07,3.689474100479168e-07,2.4463387399235093e-07,1.4958401369506839e-05
2.614440945138272e-07,3.6824242403928864e-07,2.458147489277534e-07,1.4745464253716166e-05
2.632758340027046e-07,3.6747293135883173e-07,2.469664291488934e-07,1.4527184455878741e-05
2.6503317160427627e-07,3.6663613337986654e-07,2.4808440829227336e-07,1.4304282538916698e-05
2.6671221203136183e-07,3.6572813508813573e-07,2.491648905883924e-07,1.4077451716475229e-05
2.6831045951203604e-07,3.647432862132766e-07,2.502047759662905e-07,1.3847332354336187e-05
2.6982562317730944e-07,3.636740596530278e-07,2.51200983202867e-07,1.3614542995037445e-05
2.71255237524309e-07,3.6251196478601715e-07,2.521496129391727e-07,1.3379757152507477e-05
2.725978445701457e-07,3.612487167361999e-07,2.530459443017825e-07,1.31437385284412e-05
2.738548683153057e-07,3.598775263674772e-07,2.5388567172399964e-07,1.2907294232906272e-05
2.7503144102608817e-07,3.5839383234456204e-07,2.546667230313005e-07,1.2671201365134305e-05
2.761364053550349e-07,3.5679487548881457e-07,2.553901641378022e-07,1.2436172815786994e-05
2.771823185269528e-07,3.5507932310061593e-07,2.560592452984008e-07,1.2202895489294031e-05
2.7818442016809074e-07,3.5324692786284243e-07,2.5667807499238385e-07,1.1972124866362684e-05
2.7915789951141766e-07,3.5129755023744486e-07,2.57251553992344e-07,1.1744749464655467e-05
2.80115203018512e-07,3.4923083181546324e-07,2.5778502009300604e-07,1.1521742494223498e-05
2.810652639005816e-07,3.470472413554783e-07,2.582825736291602e-07,1.1304037698386598e-05
2.8201393587382693e-07,3.447493814417767e-07,2.587457738404798e-07,1.109244399341906e-05
2.8296409644117015e-07,3.4234188496360695e-07,2.5917377628223577e-07,1.0887630595808495e-05
2.839158681384098e-07,3.398300270983837e-07,2.59564624779113e-07,1.0690122768258507e-05
2.8486802547949446e-07,3.372192863868508e-07,2.599164178209596e-07,1.0500292899604613e-05
2.858201590139525e-07,3.34516337718052e-07,2.602273596891139e-07,1.0318383383811157e-05
2.8677392278944964e-07,3.317297144949162e-07,2.6049534403102336e-07,1.014458460216795e-05
2.877321820377111e-07,3.288688879425864e-07,2.607175448144121e-07,9.979170026926597e-06
2.88697065486007e-07,3.259422763366493e-07,2.608900912505809e-07,9.822605070868054e-06
2.8966954137159764e-07,3.229560220184372e-07,2.6100818698616125e-07,9.6755047843634e-06
2.906512019063962e-07,3.199145307355802e-07,2.6106637815726033e-07,9.538470089884739e-06
2.916456411418161e-07,3.1682175013725893e-07,2.6105856838138233e-07,9.411957249350656e-06
2.9265823399538677e-07,3.136815396151855e-07,2.6097820799067725e-07,9.296279785818261e-06
2.9369563990039893e-07,3.104971396048835e-07,2.608189597358749e-07,9.19176217683326e-06
2.9476506984547604e-07,3.0727104408241837e-07,2.6057534038682084e-07,9.098968532969998e-06
2.958734877517426e-07,3.0400539940922345e-07,2.6024279244624467e-07,9.018818059660628e-06
2.9702719649676105e-07,3.00702449032275e-07,2.598171846905193e-07,8.952489593597707e-06
2.982305938663578e-07,2.9736499223820426e-07,2.592947409428396e-07,8.901235741212668e-06
2.994849244463089e-07,2.939970302588827e-07,2.586734611145824e-07,8.866240755576871e-06
3.0078943493294056e-07,2.9060472933717266e-07,2.5795499563286693e-07,8.848518253358243e-06
3.0214348692534874e-07,2.871964624896728e-07,2.5714493089782674e-07,8.848816771293898e-06
3.0354681160277804e-07,2.837821379202986e-07,2.562511491068761e-07,8.867557056978795e-06
3.0499829691559053e-07,2.803747679545844e-07,2.5528160632818386e-07,8.904822456678157e-06
3.0649526170817827e-07,2.7699293967260707e-07,2.5424314272531727e-07,8.960384263473096e-06
3.080341534762929e-07,2.736597868935982e-07,2.531420151982638e-07,9.033735358265252e-06
3.096113948863985e-07,2.7039975997935983e-07,2.51984896354108e-07,9.124123402935485e-06
3.112232598623662e-07,2.6723662054720946e-07,2.507788572709215e-07,9.23058972540582e-06
3.1286569912555245e-07,2.6419236586025025e-07,2.495317902972557e-07,9.352009382270207e-06
3.1453421285983424e-07,2.612864808282909e-07,2.4825456241204097e-07,9.487122566161772e-06
3.162234071123836e-07,2.5853552101227524e-07,2.469619582321909e-07,9.634575434389784e-06
3.179266951665248e-07,2.559530211301607e-07,2.456702973259759e-07,9.792994257634168e-06
3.1963590820267503e-07,2.535509527412255e-07,2.4439429629782885e-07,9.961071722651162e-06
3.2134057264660685e-07,2.513418553985572e-07,2.431455980387669e-07,1.0137614314088896e-05
3.2302774199722466e-07,2.493386853633778e-07,2.419327820701861e-07,1.032154454282441e-05
3.246836230352524e-07,2.475531751772189e-07,2.4076247948773977e-07,1.0511904096335852e-05
3.262969246944472e-07,2.459950336981305e-07,2.396409684111557e-07,1.0707861565270778e-05
3.278612033990562e-07,2.446712403420387e-07,2.385746684433033e-07,1.090867497944681e-05
3.2937359575162105e-07,2.435848836182964e-07,2.3756980874600955e-07,1.1113616005765486e-05
3.308316930126566e-07,2.4273446095430806e-07,2.3663339483540072e-07,1.1321916185868766e-05
3.322318520762194e-07,2.421141796437721e-07,2.357742291691751e-07,1.1532743485967713e-05
3.335689016211891e-07,2.417156681758652e-07,2.350015510035863e-07,1.1745187245540159e-05
3.348361833064518e-07,2.415302890538761e-07,2.3432332551349248e-07,1.1958264907780616e-05
3.360266760708041e-07,2.415506066356361e-07,2.3374592855483888e-07,1.2170953032694702e-05
3.3713480384853586e-07,2.417714196209072e-07,2.332740572336245e-07,1.2382210848959426e-05
3.381570495115141e-07,2.421903535686873e-07,2.3291087916832548e-07,1.259098645950013e-05
3.390917234194544e-07,2.428065084097889e-07,2.3265840182380986e-07,1.2796230212846186e-05
3.399387083024307e-07,2.43617553978202e-07,2.3251747470056657e-07,1.2996919946260597e-05
3.406982575219641e-07,2.446175126766135e-07,2.3248850457637692e-07,1.3192068105323966e-05
3.413696799684218e-07,2.457971495250124e-07,2.3257293013638386e-07,1.3380711911394025e-05
3.4195176127542817e-07,2.471468479520179e-07,2.32773831585884e-07,1.3561922651721214e-05
3.424436276403365e-07,2.486587120364641e-07,2.330953895825056e-07,1.373484166279756e-05
3.428447420627014e-07,2.503253809706324e-07,2.3354141157084499e-07,1.3898723164826294e-05
3.43155330504723e-07,2.5213728613495266e-07,2.3411349162151112e-07,1.4052969285938287e-05
3.433769490096787e-07,2.540811864759091e-07,2.348103904523056e-07,1.4197159992293866e-05
3.435115878574441e-07,2.561407979252154e-07,2.3562888967389308e-07,1.4331062198912937e-05
3.435600739825077e-07,2.582983484752977e-07,2.36564865698486e-07,1.445457232417706e-05
3.43521552657721e-07,2.6053556217171393e-07,2.376134651418971e-07,1.4567610687791514e-05
3.433946692605204e-07,2.628343535919414e-07,2.387685362930904e-07,1.467006136759719e-05
3.4317917604565747e-07,2.6517759633189304e-07,2.4002265074675825e-07,1.476178593787912e-05
3.428762516232329e-07,2.675493039328032e-07,2.4136804142007343e-07,1.48426416155918e-05
3.42488686630272e-07,2.699347580610688e-07,2.427976151584693e-07,1.491246078576998e-05
3.420225360370772e-07,2.723207515742352e-07,2.443048228880652e-07,1.4971029468813767e-05
3.4148809279833537e-07,2.746948876305349e-07,2.458824967693716e-07,1.5018141055528617e-05
3.408981774069867e-07,2.7704436053699235e-07,2.475228309276857e-07,1.5053749596737954e-05
3.4026601058907827e-07,2.793550804366683e-07,2.492180395634035e-07,1.50780903888015e-05
3.3960485359835066e-07,2.8161140214074685e-07,2.509599065858525e-07,1.5091618048310879e-05
3.3892781595107945e-07,2.837971312789991e-07,2.5273986020795357e-07,1.5094836047644367e-05
3.382461787840416e-07,2.858970934690792e-07,2.54549903021562e-07,1.5088194607154947e-05
3.375677319885927e-07,2.878974890108996e-07,2.563820367082699e-07,1.5072127336406604e-05
3.368969042696341e-07,2.8978578339011924e-07,2.5822689309227774e-07,1.504723977099966e-05
3.362359701101325e-07,2.9155205473652747e-07,2.6007427450895766e-07,1.5014578726770356e-05
3.355862698870586e-07,2.931910171910978e-07,2.6191490550086e-07,1.4975764538166969e-05
3.349489746790855e-07,2.947025541210261e-07,2.63740524149382e-07,1.4932867085856203e-05
3.343249133311124e-07,2.960902606893839e-07,2.6554238485264173e-07,1.4888158840001496e-05
3.33714479338172e-07,2.973593168477945e-07,2.67310408808634e-07,1.4843899883909823e-05
3.331179983767093e-07,2.9851522391616676e-07,2.690338140856679e-07,1.4802185430865051e-05
3.325349415728521e-07,2.995633697646088e-07,2.7070321096118e-07,1.4764846528520809e-05
3.319627173623699e-07,3.005085330846998e-07,2.723132585599688e-07,1.4733395880216613e-05
3.3139740042827374e-07,3.0135446933103773e-07,2.7386323151908367e-07,1.4708999827501965e-05
3.308357235608225e-07,3.021043604988144e-07,2.753543808460007e-07,1.4692464014244879e-05
3.302761613518389e-07,3.027623910775208e-07,2.7678676485039386e-07,1.4684239148296728e-05
3.297186309246396e-07,3.0333531703517534e-07,2.781586298424992e-07,1.4684456642122327e-05
3.291634467097263e-07,3.038318854194183e-07,2.794679855160011e-07,1.4692987194312976e-05
3.286102060352747e-07,3.0426044875673837e-07,2.807136241016918e-07,1.4709507303194537e-05
3.280568734665814e-07,3.046279114586774e-07,2.8189454048464954e-07,1.4733569703078555e-05
3.274992296360757e-07,3.0494020093330777e-07,2.830092571506859e-07,1.4764673231975711e-05
3.269311048564953e-07,3.052021348640933e-07,2.8405585549611807e-07,1.4802321521311414e-05
3.2634549086779013e-07,3.054175078521088e-07,2.850317346691525e-07,1.4846062157837278e-05
3.257361183450897e-07,3.055899131838097e-07,2.859328638203662e-07,1.4895498691243564e-05
3.250982396376428e-07,3.057225084672298e-07,2.8675373727710736e-07,1.4950282764963104e-05
3.2442793784771627e-07,3.0581741423370577e-07,2.8748843932713534e-07,1.501010390842806e-05
3.237215602482334e-07,3.0587618971604187e-07,2.881316659207102e-07,1.5074675307168594e-05
3.229759556041647e-07,3.059002945068201e-07,2.8867855434376076e-07,1.5143707226210428e-05
3.2218815295307694e-07,3.058915275799973e-07,2.8912385258189817e-07,1.5216874330836062e-05
3.2135464917181124e-07,3.0585325794403035e-07,2.894620405133907e-07,1.5293778406332302e-05
3.2047120748019245e-07,3.0579083026522865e-07,2.896884273862142e-07,1.5373910341361443e-05
3.195331757520729e-07,3.057104750019711e-07,2.8980003120437716e-07,1.5456649490021483e-05
3.1853693829109357e-07,3.056183768962163e-07,2.897960853239488e-07,1.5541312909511828e-05
3.1748181578249997e-07,3.0552027818829045e-07,2.8967812528516456e-07,1.5627188939590733e-05
3.163702547662693e-07,3.054212371219848e-07,2.894491683354346e-07,1.5713518770155004e-05
3.1520674766407106e-07,3.053253305279431e-07,2.8911294200924807e-07,1.579947681093297e-05
3.1399721681154983e-07,3.0523518098338533e-07,2.886742312707151e-07,1.5884176712813103e-05
3.127488835967305e-07,3.05151997936622e-07,2.881391471254136e-07,1.5966694975558512e-05
3.1147004102298e-07,3.0507589279625047e-07,2.875146223685298e-07,1.604616234903599e-05
3.1016934570894666e-07,3.050058439212991e-07,2.8680816123540137e-07,1.612192046827445e-05
3.088546220381868e-07,3.0493964790273385e-07,2.860275682595305e-07,1.6193598605139102e-05
3.075318201891813e-07,3.048738747885452e-07,2.851803031950795e-07,1.6261052704936324e-05
3.062048385443686e-07,3.048037627697828e-07,2.842735032490894e-07,1.6324269434117227e-05
3.048762362504676e-07,3.047229414319382e-07,2.833142079611905e-07,1.6383285169132956e-05
3.035477500550755e-07,3.046232141709057e-07,2.823089134017305e-07,1.643810071138071e-05
3.02219959637785e-07,3.0449597136729736e-07,2.812634806639092e-07,1.6488609579596963e-05
3.008920362943781e-07,3.043348557696516e-07,2.80183317975906e-07,1.6534579509283965e-05
2.995620996145249e-07,3.041366870126936e-07,2.7907281630848106e-07,1.6575709009226665e-05
2.9822831031939193e-07,3.039006168402153e-07,2.7793506848016854e-07,1.6611740949597407e-05
2.968909143455636e-07,3.0362767614961854e-07,2.7677273073290003e-07,1.6642567308445213e-05
2.955534504931557e-07,3.033204997999011e-07,2.7558893476943376e-07,1.6668258962790617e-05
2.942216405533877e-07,3.029825144265488e-07,2.7438692773296226e-07,1.6689016800337792e-05
2.929014737337218e-07,3.026174245624181e-07,2.731689234999113e-07,1.6705085646281805e-05
2.915986440806228e-07,3.022294028536345e-07,2.719363480851307e-07,1.6716673672616058e-05
2.903195999905604e-07,3.0182327699151587e-07,2.706913616710772e-07,1.672392085772501e-05
2.890720746387896e-07,3.014043937753709e-07,2.694371896386688e-07,1.6726930339141102e-05
2.878642095574541e-07,3.009779458186699e-07,2.681768267900148e-07,1.672582395473381e-05
2.867036590392636e-07,3.0054804913657797e-07,2.669115020135651e-07,1.6720764238072304e-05
2.855965923636436e-07,3.001175668680679e-07,2.656398642550339e-07,1.6711917751353835e-05
2.845464532263859e-07,2.996882530867665e-07,2.643583709049602e-07,1.6699395911914808e-05
2.835535590336388e-07,2.9926069837758e-07,2.6306276342281237e-07,1.6683216550029403e-05
2.826155297502562e-07,2.988346182598617e-07,2.617491586540867e-07,1.6663286788200118e-05
2.81727971700425e-07,2.9840906711095426e-07,2.6041369042667954e-07,1.6639395744182664e-05
2.808850977835163e-07,2.9798191340614804e-07,2.590520930027944e-07,1.6611226117541213e-05
2.800798893984381e-07,2.975498272124783e-07,2.5766044598304353e-07,1.6578385267692707e-05
2.793040068344813e-07,2.9711051567706473e-07,2.5623645711636357e-07,1.6540426440288393e-05
2.785484989519076e-07,2.966656259576222e-07,2.547804997107491e-07,1.6496851119186152e-05
2.77805704104139e-07,2.962210606656108e-07,2.532953995205405e-07,1.6447115497104858e-05
2.770710442224657e-07,2.957857078049253e-07,2.5178476648338463e-07,1.6390650086084838e-05
2.763429510596272e-07,2.953712329765406e-07,2.5025150632759626e-07,1.6326885479332723e-05
2.7562111524395925e-07,2.949911850876157e-07,2.486973646469275e-07,1.6255275876858748e-05
2.749053477572309e-07,2.946583227429543e-07,2.471231516999372e-07,1.6175313289893838e-05
2.741955629438656e-07,2.9438348814375787e-07,2.4552949198048813e-07,1.6086542827066118e-05
2.734916677519214e-07,2.941764817981712e-07,2.439177135561951e-07,1.598858768385287e-05
2.7279422305096e-07,2.9404574321691797e-07,2.4229043006081427e-07,1.588116315301944e-05
2.7210562041914484e-07,2.9399676700115925e-07,2.4065194656700676e-07,1.576406884601475e-05
2.714291055988151e-07,2.94031548496077e-07,2.39009090409517e-07,1.5637179520844594e-05
2.707664584220909e-07,2.9415020698199746e-07,2.3737225441101126e-07,1.550044590359068e-05
2.7011776845980076e-07,2.943539349737582e-07,2.3575484867937602e-07,1.5353895563001182e-05
2.6948420294951054e-07,2.946458678895127e-07,2.341712284334813e-07,1.5197630291273264e-05
2.6887070798312866e-07,2.9502844047904236e-07,2.326357906576032e-07,1.503183116351015e-05
2.6828484382119067e-07,2.955007201230146e-07,2.3116323135474376e-07,1.4856778564802677e-05
2.677335475660152e-07,2.960583738733918e-07,2.2976827159669352e-07,1.4672868305859336e-05
2.672225381263704e-07,2.9669526602222533e-07,2.2846499915921887e-07,1.4480587488076147e-05
2.667576852162189e-07,2.9740480065270013e-07,2.2726604165556608e-07,1.42804511365457e-05
2.6634489469874745e-07,2.981802467831992e-07,2.2618185090180069e-07,1.4072949022622979e-05
2.659885259175213e-07,2.990146039596261e-07,2.252201802319997e-07,1.3858547722091788e-05
2.656901224624889e-07,2.9990071072254093e-07,2.243853641440549e-07,1.3637750798103474e-05
2.6544803779680465e-07,3.008326239639866e-07,2.236784308888792e-07,1.3411152738377514e-05
2.652577101500313e-07,3.0180844947187e-07,2.2309846309449054e-07,1.3179415050870213e-05
2.6511245931384174e-07,3.028313236454775e-07,2.2264364960711345e-07,1.2943200528502138e-05
2.6500480845738967e-07,3.039063427267405e-07,2.2231155597832852e-07,1.2703147935227513e-05
2.6492743422126326e-07,3.0503673028500534e-07,2.2209989869544238e-07,1.245989831478682e-05
2.648730230353889e-07,3.0622285986326336e-07,2.2200887253128334e-07,1.221415254472263e-05
2.6483405272292574e-07,3.074637233945003e-07,2.2204346287900305e-07,1.1966736265694746e-05
2.6480337377912223e-07,3.087581844665261e-07,2.2221242748354521e-07,1.1718617304014302e-05
2.647753947746119e-07,3.10104411419834e-07,2.2252495125101236e-07,1.1470845761586349e-05
2.647470465268499e-07,3.114983669808793e-07,2.2298902334604005e-07,1.1224460691717354e-05
2.6471724729039685e-07,3.12933366928213e-07,2.2361112055864201e-07,1.0980431830620699e-05
2.646852595288432e-07,3.144014001409019e-07,2.2439497235221157e-07,1.0739674370924058e-05
2.646502823180231e-07,3.158943176792473e-07,2.253403919527114e-07,1.0503135642937069e-05
2.6461279686517556e-07,3.1740343577359073e-07,2.2644338050588327e-07,1.0271898915963726e-05
2.6457567744765786e-07,3.189185231554765e-07,2.276970171997764e-07,1.004720885449396e-05
2.6454484041287604e-07,3.2042741110622645e-07,2.290920989169115e-07,9.830384941513622e-06
2.645300076468128e-07,3.2191697387021014e-07,2.3061717599592515e-07,9.622687623346255e-06
2.645439397715019e-07,3.233749033363544e-07,2.3225889917813282e-07,9.425213076174933e-06
2.646003914183633e-07,3.247906636718637e-07,2.340027232157353e-07,9.238842273287862e-06
2.64712906400306e-07,3.2615504630511194e-07,2.3583303610160265e-07,9.064225845680897e-06
2.648938647462124e-07,3.2745898137406066e-07,2.377330554724964e-07,8.901789508796134e-06
2.651530270312716e-07,3.286926815664758e-07,2.396854910342481e-07,8.75178846343962e-06
2.654971814889598e-07,3.298452175646829e-07,2.416738511612311e-07,8.614449437765605e-06
2.65931420862465e-07,3.309043694489756e-07,2.4368327937126413e-07,8.490138224823816e-06
2.6645953931123647e-07,3.3185716837343767e-07,2.4570035477677066e-07,8.379401003411658e-06
2.670823527631484e-07,3.3269046383432193e-07,2.477122753893543e-07,8.2828459931242e-06
2.677963824869414e-07,3.3339098437352217e-07,2.497060910988976e-07,8.20098879004783e-06
2.685942932726569e-07,3.339456495631427e-07,2.5166838138629057e-07,8.134163994766469e-06
2.694659670344205e-07,3.3434215429552577e-07,2.5358530987663173e-07,8.08254426722107e-06
2.7039945750594467e-07,3.3456954467653697e-07,2.5544271569979693e-07,8.046287341620987e-06
2.713817278727483e-07,3.346189255672101e-07,2.5722615744307136e-07,8.025718820198367e-06
2.723991092160381e-07,3.344837521568977e-07,2.589215033794897e-07,8.021377152413929e-06
2.73438029958102e-07,3.3415940092952254e-07,2.605165229691267e-07,8.033907318837052e-06
2.7448629779371337e-07,3.3364244227199825e-07,2.620023677489487e-07,8.063938346334752e-06
2.7553343447420176e-07,3.329299707772295e-07,2.633732708990071e-07,8.112008420419775e-06
2.7656943887808657e-07,3.320197299474175e-07,2.6462509003532417e-07,8.178510902966945e-06
2.775839804028445e-07,3.3091159891152e-07,2.6575438955313585e-07,8.263641903629499e-06
2.785668399971886e-07,3.296088233330691e-07,2.667578979872386e-07,8.367361410583631e-06
2.7950890770706546e-07,3.2811744122719106e-07,2.676321251674389e-07,8.489382843318912e-06
2.804037444209792e-07,3.2644598856461593e-07,2.683737195201457e-07,8.629191153907022e-06
2.812483415863039e-07,3.24606650147412e-07,2.6897991705475256e-07,8.786068188449192e-06
2.820416468083744e-07,3.2261481049640666e-07,2.694485430893496e-07,8.959098098548919e-06
2.8278270537675164e-07,3.204860845175749e-07,2.6977827854430197e-07,9.147159015959047e-06
2.834700800152464e-07,3.182341531770316e-07,2.6996904484567425e-07,9.348926727092407e-06
2.84101962630406e-07,3.1587162630735676e-07,2.700217747778649e-07,9.562902263371497e-06
2.8467700398033106e-07,3.13412742530663e-07,2.699380628144748e-07,9.787472199677364e-06
2.851956878664589e-07,3.1087449943449306e-07,2.6972034911040964e-07,1.0020992001685408e-05
2.856610147474596e-07,3.082749363220812e-07,2.693718512488973e-07,1.0261847831922699e-05
2.860781800260301e-07,3.056318801935281e-07,2.688959627534405e-07,1.0508474064253666e-05
2.8645373160562465e-07,3.029636542543792e-07,2.6829670224740264e-07,1.075934965058779e-05
2.8679567718207544e-07,3.0028908630268184e-07,2.67580176008422e-07,1.1012992868400328e-05
2.871148771785771e-07,2.976262878383932e-07,2.6675535218834944e-07,1.1267955409572815e-05
2.874243957676583e-07,2.949917613682288e-07,2.6583358594286453e-07,1.1522816580202534e-05
2.8773602867546256e-07,2.9239959568038203e-07,2.648269667208482e-07,1.1776175656787356e-05
2.880584731479981e-07,2.8986057429682824e-07,2.6374678937593627e-07,1.2026641031914954e-05
2.883990245596721e-07,2.873824724235286e-07,2.626034263949253e-07,1.227283566781082e-05
2.887650727748805e-07,2.849718710226861e-07,2.614065974077199e-07,1.251343578363396e-05
2.8916277932440854e-07,2.82635624128896e-07,2.601651167511757e-07,1.2747206574097695e-05
2.89595398348984e-07,2.803804784816793e-07,2.588863110249246e-07,1.2972988164960856e-05
2.900636876528601e-07,2.7821205879340613e-07,2.575754405015914e-07,1.3189653060619471e-05
2.9056700870459746e-07,2.761345127510695e-07,2.562356979537632e-07,1.3396094396107479e-05
2.9110321689889214e-07,2.741502327819922e-07,2.548689029442596e-07,1.3591267597887824e-05
2.9166870058480845e-07,2.722597347117093e-07,2.5347626036962607e-07,1.3774243431922605e-05
2.9226070703045356e-07,2.7046299496856233e-07,2.5205872678190133e-07,1.3944220673012967e-05
2.9288009336887076e-07,2.6876164140775515e-07,2.506169338635315e-07,1.4100520049932694e-05
2.935315641635811e-07,2.6715944585593464e-07,2.491507731435925e-07,1.4242619766846707e-05
2.942222603843201e-07,2.656608950071103e-07,2.4765906280546954e-07,1.4370243191953994e-05
2.9496005493706866e-07,2.6427033214442786e-07,2.46139687257694e-07,1.4483434514746995e-05
2.95751163699202e-07,2.629923812997019e-07,2.4459009079717426e-07,1.4582539618796882e-05
2.965982186929678e-07,2.6183168383374943e-07,2.430078496853876e-07,1.4668100220878159e-05
2.975005735540716e-07,2.607912153924046e-07,2.4139110741772606e-07,1.4740743484918836e-05
2.984558280512077e-07,2.598711523469262e-07,2.3973890389645636e-07,1.4801099978179254e-05
2.994602996539005e-07,2.5906957754209013e-07,2.3805177716881198e-07,1.4849737961925454e-05
3.0050826354178147e-07,2.583838009108391e-07,2.3633237726594092e-07,1.4887131886031147e-05
3.015916153703286e-07,2.5781069946813176e-07,2.3458510926505718e-07,1.491368461833312e-05
3.027007919393347e-07,2.5734589697171604e-07,2.3281506438323487e-07,1.4929775743544034e-05
3.038259152145341e-07,2.569831642611057e-07,2.3102782151869998e-07,1.493579140752392e-05
3.0495679701235845e-07,2.567156841722146e-07,2.2923120755216583e-07,1.4932134969745721e-05
3.06081977004354e-07,2.5653883736221284e-07,2.2743850264876852e-07,1.4919286292398251e-05
3.071880800357449e-07,2.564520094125219e-07,2.2566960590543384e-07,1.4897925124601505e-05
3.0826033972927016e-07,2.5645771755365296e-07,2.2394764567652932e-07,1.4868971000748557e-05
3.092846442833013e-07,2.565600704760301e-07,2.2229460903180027e-07,1.483344705664198e-05
3.1024995390516556e-07,2.5676523661745263e-07,2.2072950679862613e-07,1.479233741316109e-05
3.111485915597539e-07,2.570819828204646e-07,2.1926817301457076e-07,1.4746642244045373e-05
3.119747628791048e-07,2.575200365369755e-07,2.1792369155704445e-07,1.4697558760352964e-05
3.127233254477604e-07,2.5808852326389904e-07,2.1670690249430847e-07,1.4646546846154691e-05
3.133891751714219e-07,2.587956698395165e-07,2.156268286691287e-07,1.4595220828086902e-05
3.139679137582544e-07,2.596481043545799e-07,2.1469132302326898e-07,1.4545203251882175e-05
3.1445702145697604e-07,2.6064951785295274e-07,2.1390711978205217e-07,1.4498019081271801e-05
3.1485537248882017e-07,2.617998572054029e-07,2.132795398219564e-07,1.4455016309814527e-05
3.151621831871643e-07,2.630964487427038e-07,2.1281268756891557e-07,1.4417302075490331e-05
3.1537671803926e-07,2.645368689563852e-07,2.1250917163406268e-07,1.4385698964077149e-05
3.1549766199385073e-07,2.661206577866694e-07,2.123690428215441e-07,1.4360724594407392e-05
3.155220899758985e-07,2.6784840811185044e-07,2.1238957923163952e-07,1.4342592689623148e-05
3.15445379071314e-07,2.697199111859625e-07,2.1256756231099807e-07,1.4331236062597213e-05
3.1526253677899235e-07,2.7173313164704793e-07,2.129027961389473e-07,1.4326357510524697e-05
3.1496984008749863e-07,2.73884200768339e-07,2.133989912770752e-07,1.4327490395199246e-05
3.145656684120992e-07,2.7616805203367463e-07,2.140611941355437e-07,1.4334026093341333e-05
3.140501259303331e-07,2.785800725265387e-07,2.148927205592108e-07,1.4345216343015604e-05
3.1342350244775057e-07,2.8111796048404945e-07,2.158934182340669e-07,1.4360215244205544e-05
3.126848727214874e-07,2.8378152756320274e-07,2.1705912240968337e-07,1.4378174353561343e-05
3.118321037031559e-07,2.865700601686776e-07,2.183820201427222e-07,1.4398321435782181e-05
3.1086291628880786e-07,2.894791911195129e-07,2.198517884415944e-07,1.4419971636043045e-05
3.09776195820832e-07,2.924996343855161e-07,2.2145708496039127e-07,1.4442497349145584e-05
3.085730182025736e-07,2.9561844183012125e-07,2.2318701055593013e-07,1.4465304468323242e-05
3.0725673602180965e-07,2.988213462766546e-07,2.2503196795317998e-07,1.4487834325347205e-05
3.058322455265651e-07,3.020943467567187e-07,2.269831573212091e-07,1.4509581554608773e-05
3.043052470363387e-07,3.05423233998808e-07,2.29031372426544e-07,1.4530097491092298e-05
3.0268152878769987e-07,3.087916871843083e-07,2.311663831614749e-07,1.4548964421480875e-05
3.0096632665509575e-07,3.121805241340847e-07,2.3337671931937872e-07,1.4565760102342655e-05
2.991640852577969e-07,3.155689743561152e-07,2.356492657316873e-07,1.4580034150787866e-05
2.9727846150551927e-07,3.1893641822921484e-07,2.3796910141723371e-07,1.4591322115749635e-05
2.9531298521282395e-07,3.222637949107571e-07,2.403197431373077e-07,1.4599220009905942e-05
2.932725278269609e-07,3.255347127179506e-07,2.426833306995708e-07,1.4603466329731531e-05
2.911638547819172e-07,3.287353523621479e-07,2.4504113228529844e-07,1.46039407531427e-05
2.8899440075154986e-07,3.318528145641434e-07,2.4737474287166876e-07,1.4600583322200515e-05
2.867709501938113e-07,3.3487384484096623e-07,2.496669874241209e-07,1.4593312569178933e-05
2.844993412978654e-07,3.37785399825459e-07,2.519020611618529e-07,1.458199489157748e-05
2.821852613407325e-07,3.405753447245671e-07,2.540658945409916e-07,1.4566469746161083e-05
2.798359298086637e-07,3.432314850845003e-07,2.5614696902719605e-07,1.4546590012219046e-05
2.774606989438717e-07,3.4574012791297045e-07,2.581371044886703e-07,1.4522232008372415e-05
2.750695452914285e-07,3.4808588361350605e-07,2.600318465815169e-07,1.4493307564835147e-05
2.726719532324932e-07,3.502524849482628e-07,2.618298069440941e-07,1.4459831248468961e-05
2.702779618898159e-07,3.522241036404736e-07,2.6353199430207356e-07,1.4421983943157621e-05
2.67899499239019e-07,3.539875580865985e-07,2.651422672946693e-07,1.4380093779500127e-05
2.655499118752277e-07,3.555341696250645e-07,2.6666668503491203e-07,1.4334565734964816e-05
2.6324207425713096e-07,3.5685907632977525e-07,2.6811083632944923e-07,1.4285816566712747e-05
2.609864579620385e-07,3.57959700939797e-07,2.6947787221948107e-07,1.4234225485850585e-05
2.587901049265691e-07,3.588367081080203e-07,2.70768164188335e-07,1.4180101268454658e-05
2.566569149742667e-07,3.594960729312899e-07,2.7197948889379263e-07,1.4123680078273415e-05
2.545890072621548e-07,3.5994841792333274e-07,2.7310781963633325e-07,1.4065154737565753e-05
2.525880490051657e-07,3.602058747491096e-07,2.7414875505255584e-07,1.4004703449841925e-05
2.506559457110778e-07,3.602800040994892e-07,2.750985159765465e-07,1.394248919391213e-05
2.487952778768615e-07,3.601821952127804e-07,2.759535694835895e-07,1.387864481531852e-05
2.470090808320664e-07,3.599244795304675e-07,2.767093450877413e-07,1.3813323944898815e-05
2.452997336085812e-07,3.595188361367051e-07,2.773597497149681e-07,1.3746850349923968e-05
2.4366803408407826e-07,3.5897582895395297e-07,2.778981326329027e-07,1.3679814485462213e-05
2.421132951666572e-07,3.583038016912133e-07,2.7831896827289865e-07,1.3612997808286713e-05
2.406342613892868e-07,3.575085291503653e-07,2.786193880388093e-07,1.3547271206947305e-05
2.3922970293038844e-07,3.5659309599061863e-07,2.7879952457275013e-07,1.3483604831947282e-05
2.378984016528069e-07,3.5555814680327617e-07,2.788624594767653e-07,1.3423074534146436e-05
2.3664033528204093e-07,3.5440261791165337e-07,2.788151189309667e-07,1.3366763219059486e-05
2.354586890202208e-07,3.531243109656505e-07,2.786678416978364e-07,1.331563395316246e-05
2.3435930610425547e-07,3.517196861619445e-07,2.7843161241639765e-07,1.3270454625352824e-05
2.3334795174764863e-07,3.501837963165288e-07,2.781160697557901e-07,1.3231772034303675e-05
2.324290610812534e-07,3.485115363530705e-07,2.7772912813826516e-07,1.3199907587888448e-05
2.3160610851804237e-07,3.4669941261242926e-07,2.77276627051464e-07,1.3174960445965602e-05
2.308820552083085e-07,3.447461721090425e-07,2.767622512519647e-07,1.3156812127242775e-05
2.302607454861135e-07,3.426525115344017e-07,2.761888033522676e-07,1.3145132302127687e-05
