3.2482950795887125e-07,3.1036010273398013e-07,2.939279796660176e-07,3.3794518678555736e-06
3.267270273870462e-07,3.120731956235584e-07,2.934400213681412e-07,3.37135632514243e-06
3.2867464013692466e-07,3.13720064027202e-07,2.928353373127449e-07,3.366509948268471e-06
3.306710645235773e-07,3.1528676414206963e-07,2.921183640096823e-07,3.365227957606898e-06
3.327171055673767e-07,3.167594635786551e-07,2.9129241296300263e-07,3.3677864171986224e-06
3.348151796085667e-07,3.1812515823760853e-07,2.903596601590133e-07,3.374400225908676e-06
3.3696858748572913e-07,3.1937238507853515e-07,2.893218203234796e-07,3.385199682936311e-06
3.3917997877002306e-07,3.204910879374073e-07,2.881808235574075e-07,3.4002148408693075e-06
3.4145006230529645e-07,3.2147152852889125e-07,2.869387737342472e-07,3.4193746206548e-06
3.437774436087881e-07,3.223032161540708e-07,2.855975862982811e-07,3.442517401424111e-06
3.46158716472255e-07,3.2297465716049087e-07,2.841592634439385e-07,3.469406604426235e-06
3.485880026484936e-07,3.2347401574453373e-07,2.826266491782897e-07,3.499745465215198e-06
3.510569951935642e-07,3.237905641674609e-07,2.8100371610353127e-07,3.5331867907356935e-06
3.5355612347262825e-07,3.239162794935488e-07,2.792953913642468e-07,3.5693428724751333e-06
3.5607556069694976e-07,3.238462804062488e-07,2.7750745972728e-07,3.6078024682209283e-06
3.586050211898938e-07,3.235778068003277e-07,2.756463114279871e-07,3.6481494238614487e-06
3.611329032263457e-07,3.231099798246541e-07,2.7371838481419216e-07,3.689972353964612e-06
3.636460920903444e-07,3.224456772318576e-07,2.7172990428932976e-07,3.7328685513346536e-06
3.661302753892742e-07,3.215928231809821e-07,2.6968699802391845e-07,3.7764504559874534e-06
3.6856986094034267e-07,3.2056324000051363e-07,2.675955410054687e-07,3.8203479813169165e-06
3.709478350790186e-07,3.1937068091604185e-07,2.6546067023362216e-07,3.864201209670923e-06
3.732460132109412e-07,3.180293031676796e-07,2.632865091792697e-07,3.90765243107075e-06
3.754455456156593e-07,3.1655290604534577e-07,2.610763193632796e-07,3.950343863540271e-06
3.775274983904599e-07,3.149550625526287e-07,2.588326513476672e-07,3.991919175449698e-06
3.7947324607802e-07,3.132491714695886e-07,2.565571904380668e-07,4.032028373981998e-06
3.812647535288142e-07,3.1144743698720887e-07,2.542508658244604e-07,4.070335896025497e-06
3.82885415057858e-07,3.09559572389163e-07,2.519143258980759e-07,4.106529175778604e-06
3.8432157042069296e-07,3.075927957502726e-07,2.4954819719917157e-07,4.140329491738961e-06
3.855633512954705e-07,3.0555283292144043e-07,2.471537038579445e-07,4.171506518069612e-06
3.866038234415301e-07,3.0344431629818965e-07,2.447338353222916e-07,4.199887659984195e-06
3.874377975205246e-07,3.012704598316817e-07,2.422933983636239e-07,4.225357931049927e-06
3.8806138578298814e-07,2.990334158500698e-07,2.3983782531534053e-07,4.2478625757830895e-06
3.884712304210509e-07,2.9673596824706213e-07,2.373724964178508e-07,4.267411170154833e-06
3.886637408656986e-07,2.943836545898677e-07,2.3490276671466303e-07,4.284058108766471e-06
3.88635544153768e-07,2.919857774394875e-07,2.324336400335712e-07,4.2978633984278935e-06
3.8838385414094527e-07,2.8955437003372887e-07,2.299695613890648e-07,4.308867966348733e-06
3.879057476442083e-07,2.87101929461064e-07,2.2751567455924765e-07,4.317091664053743e-06
3.8719773730329145e-07,2.8463980844001014e-07,2.2507919055894288e-07,4.322552200450653e-06
3.862562924906232e-07,2.821777657370172e-07,2.2266863204963783e-07,4.3253092647132175e-06
3.850784172392305e-07,2.797243074885881e-07,2.202920575760951e-07,4.325497843193703e-06
3.836621842358933e-07,2.772879529313676e-07,2.179560607712955e-07,4.32330400547925e-06
3.820077983255014e-07,2.748779069790752e-07,2.1566554352062092e-07,4.318908893217179e-06
3.8011828772215993e-07,2.725025822657385e-07,2.1342424905631908e-07,4.312465889289125e-06
3.779987886290893e-07,2.7016782112190316e-07,2.1123572193455056e-07,4.304125540883282e-06
3.756556009738914e-07,2.6787679664742234e-07,2.0910336739958387e-07,4.2940856026036365e-06
3.73096101769578e-07,2.656309928798281e-07,2.070294820552457e-07,4.282645658187932e-06
3.703289703177679e-07,2.634311443587953e-07,2.0501471719088334e-07,4.270228940852995e-06
3.6736381923193224e-07,2.612782806759397e-07,2.0305865858898078e-07,4.2573413687654866e-06
3.642101173238185e-07,2.591750866143721e-07,2.011608764059732e-07,4.2444927707699635e-06
3.608766599680711e-07,2.571259195263626e-07,1.9932164871652826e-07,4.2321333243779206e-06
3.5737281110764773e-07,2.551348898400139e-07,1.975423086821275e-07,4.220637271864043e-06
3.537113987324465e-07,2.532044766035778e-07,1.9582575517696465e-07,4.2103220491738476e-06
3.499112496212531e-07,2.5133580995020253e-07,1.9417717804062642e-07,4.2014672655758914e-06
3.459970040114671e-07,2.495290805542426e-07,1.9260423541281945e-07,4.1943307100077085e-06
3.4199684946828536e-07,2.477831883989036e-07,1.911160183775923e-07,4.189196676044921e-06
3.3793978887162966e-07,2.4609518598221386e-07,1.8972125138095595e-07,4.186454425231076e-06
3.3385287493318227e-07,2.4446019423341647e-07,1.8842690534473105e-07,4.186627165601779e-06
3.2975966077766147e-07,2.428716748945736e-07,1.8723762901685453e-07,4.190301430338884e-06
3.2568061441003927e-07,2.413216741118335e-07,1.8615553860733849e-07,4.198018384650867e-06
3.216343386761789e-07,2.398013876187904e-07,1.8518022393882203e-07,4.210203189267464e-06
3.176383672479916e-07,2.383021689188519e-07,1.843090867938824e-07,4.227166168837244e-06
3.1370930216778524e-07,2.3681635647923927e-07,1.8353786548742468e-07,4.249196142068792e-06
3.098623490801628e-07,2.353378884345173e-07,1.828613717058168e-07,4.276695309844302e-06
3.061104305329397e-07,2.3386312016357733e-07,1.8227453449086106e-07,4.310238830404586e-06
3.0246420371754604e-07,2.3239146182411982e-07,1.817732645457949e-07,4.350521058063642e-06
2.989333547403589e-07,2.3092474098442198e-07,1.813549541463279e-07,4.398253512474984e-06
2.955273123714073e-07,2.2946524253200165e-07,1.810192232262991e-07,4.45407276273905e-06
2.9225531803577444e-07,2.2801471981861497e-07,1.807683676937115e-07,4.518477133011898e-06
2.891270239512574e-07,2.2657648846150288e-07,1.8060633111747252e-07,4.591797584270402e-06
2.8615226645389416e-07,2.251587033200901e-07,1.8053672178392962e-07,4.674195253393939e-06
2.833394233615004e-07,2.23774892929972e-07,1.8056122072339766e-07,4.7656692864449775e-06
2.806944872479045e-07,2.2244173800891e-07,1.8067931368763413e-07,4.86606671611559e-06
2.782214051021373e-07,2.211772081194067e-07,1.8088910766243497e-07,4.975095145538456e-06
2.759220987544328e-07,2.1999992237239046e-07,1.8118765662421465e-07,5.092331940691416e-06
2.737961158820692e-07,2.1892834598280486e-07,1.8157048396397602e-07,5.2172234816165355e-06
2.7184108314731014e-07,2.1797913072508698e-07,1.8203165442568775e-07,5.349086188850302e-06
2.70053494402566e-07,2.1716560543628102e-07,1.8256440221192547e-07,5.48712403975835e-06
2.684287317744228e-07,2.1649805337788333e-07,1.8316132577752714e-07,5.6304630123610976e-06
2.6696082119935806e-07,2.159856688158473e-07,1.8381431668199577e-07,5.7781945316259105e-06
2.656433152078599e-07,2.1563836559937228e-07,1.8451464975916287e-07,5.929416120285963e-06
2.644713185422073e-07,2.154672463384649e-07,1.852530353779236e-07,6.083258802393116e-06
2.63443643241427e-07,2.1548334258423033e-07,1.8601953219124576e-07,6.238899130731276e-06
2.6256414939876644e-07,2.1569534377711726e-07,1.8680387985496173e-07,6.395555078973715e-06
2.618400951016088e-07,2.1610843313534422e-07,1.8759670909476413e-07,6.5524641968809995e-06
2.612775992953281e-07,2.1672466068559761e-07,1.883906342222621e-07,6.708858157851285e-06
2.608784750151011e-07,2.1754352459608887e-07,1.8918022966563066e-07,6.863953962318487e-06
2.60640106032924e-07,2.185625337333016e-07,1.8996182585118602e-07,7.0169563654683075e-06
2.605565783408245e-07,2.1977809235665173e-07,1.907342365398364e-07,7.167059549103177e-06
2.606197048633113e-07,2.2118654446833224e-07,1.9149975572019304e-07,7.313459017606923e-06
2.6081939448309767e-07,2.227843909628676e-07,1.922645336359528e-07,7.455373578635503e-06
2.6114410218798925e-07,2.2456728776061593e-07,1.9303809291999023e-07,7.592056907885638e-06
2.615820672672327e-07,2.2652977290317307e-07,1.938316324023897e-07,7.722801789396671e-06
2.621221898100891e-07,2.2866605798825987e-07,1.9465609985623623e-07,7.846951391478791e-06
2.62753935546685e-07,2.3096958812973503e-07,1.9552110047166086e-07,7.963912578894974e-06
2.6346808869396813e-07,2.3343217988182674e-07,1.964338809388863e-07,8.073159836371771e-06
2.642592110242569e-07,2.360449843448596e-07,1.9739853960223789e-07,8.174225571201354e-06
2.6512734206559665e-07,2.3879959508213065e-07,1.9841655201435735e-07,8.266691168982382e-06
2.660774405730215e-07,2.41687443450186e-07,1.9948840317042782e-07,8.350196177086369e-06
2.67118369396252e-07,2.446988932388525e-07,2.0061490366993288e-07,8.424454530562696e-06
2.6826182585164017e-07,2.478232499873657e-07,2.0179681606019266e-07,8.489255794718245e-06
2.69519493816498e-07,2.510490282971435e-07,2.0303328443578547e-07,8.544459052698106e-06
2.7089947272337504e-07,2.5436352173945423e-07,2.043208065009896e-07,8.590008986055653e-06
2.724048383935906e-07,2.577519170297052e-07,2.0565326681148102e-07,8.625963231609305e-06
2.740350090620316e-07,2.611969723397266e-07,2.0702273950007641e-07,8.652481761222337e-06
2.757884697871409e-07,2.6467912945548374e-07,2.084213294997895e-07,8.669776037390867e-06
2.776645101933528e-07,2.681765598864315e-07,2.098437224803798e-07,8.678067508851063e-06
2.7966299093944525e-07,2.716658124847501e-07,2.112889848993979e-07,8.677578581091381e-06
2.81783363962008e-07,2.7512322855020036e-07,2.1276026902641827e-07,8.668535482176347e-06
2.8402366248656026e-07,2.785259022646152e-07,2.1426273007501887e-07,8.651163424796677e-06
2.8637987073304074e-07,2.8185169610331685e-07,2.158016651892049e-07,8.62568121858407e-06
2.888466768219863e-07,2.8507900247859483e-07,2.17381337282547e-07,8.592335170044957e-06
2.914184221201301e-07,2.881866202796841e-07,2.1900354425118532e-07,8.551495725762363e-06
2.940888866743565e-07,2.9115373450034146e-07,2.2066664597672874e-07,8.503740905634448e-06
2.968513742198731e-07,2.939600572659193e-07,2.2236588003657013e-07,8.449830829687808e-06
2.996992324072432e-07,2.965863038779782e-07,2.2409456854216137e-07,8.390601073119545e-06
3.0262516105178736e-07,2.990147843193153e-07,2.2584535681157646e-07,8.326860760932848e-06
3.056200876083469e-07,3.012293932708044e-07,2.2761046761464052e-07,8.259347230727163e-06
3.086737619977821e-07,3.032151426034499e-07,2.2938127536623092e-07,8.188780893959371e-06
3.11776435175082e-07,3.049582073630802e-07,2.3114852046726952e-07,8.115995945533075e-06
3.1491883024160604e-07,3.064472394303741e-07,2.329030948278214e-07,8.042017395602107e-06
3.180905097591279e-07,3.076756816479056e-07,2.346363904191793e-07,7.968017227127957e-06
3.2127892071324486e-07,3.086429299897289e-07,2.3633979519494586e-07,7.895218982035867e-06
3.244693361365653e-07,3.093528225847223e-07,2.380038551390956e-07,7.82481415250623e-06
3.276452191477699e-07,3.098110748133137e-07,2.3961808768219125e-07,7.757893318986016e-06
3.3078905626688164e-07,3.1002381965598467e-07,2.4117124828732745e-07,7.695395089130443e-06
3.3388283750410826e-07,3.099972346094136e-07,2.426512495252433e-07,7.638078356646132e-06
3.369078751292609e-07,3.0973715170015077e-07,2.4404498866986605e-07,7.586510692954595e-06
3.3984504917274305e-07,3.092488152359879e-07,2.453384801943372e-07,7.541070066998285e-06
3.426753609168457e-07,3.0853764855489544e-07,2.465171700765864e-07,7.501961052401488e-06
3.453795742920718e-07,3.0761034108346356e-07,2.475666144719805e-07,7.469233849056543e-06
3.4793753521243357e-07,3.0647466469290217e-07,2.4847421704375947e-07,7.4427940687216875e-06
3.503284227512947e-07,3.051379966872313e-07,2.4923123600693693e-07,7.422413536439818e-06
3.525317050760805e-07,3.036061543741515e-07,2.4983274899807763e-07,7.407761091073006e-06
3.545283701831264e-07,3.018834040889537e-07,2.502758325622435e-07,7.398453330413611e-06
3.563022291411822e-07,2.999729873514652e-07,2.50558569830061e-07,7.394106483001352e-06
3.5784039859735346e-07,2.9787755360283603e-07,2.506804883999602e-07,7.3943702802998425e-06
3.591324335372702e-07,2.9559970980563017e-07,2.506429372930724e-07,7.3989341915604474e-06
3.601691618436007e-07,2.9314270844185264e-07,2.5044894452834787e-07,7.407514319712733e-06
3.6094261423300157e-07,2.90511080219134e-07,2.501035348764892e-07,7.4198420267773055e-06
3.614467057331415e-07,2.877113706160396e-07,2.496146387758971e-07,7.435657651701438e-06
3.6167729967264045e-07,2.8475290970098427e-07,2.48993387323679e-07,7.454697040003491e-06
3.6163165474010246e-07,2.8164850995811176e-07,2.482531401384855e-07,7.4766720121986415e-06
3.613087489626168e-07,2.7841502341332e-07,2.4740807506822127e-07,7.501251099975342e-06
3.607110600786113e-07,2.7507353463223486e-07,2.4647204238459145e-07,7.528049364287236e-06
3.598456085541983e-07,2.716485178643125e-07,2.4545777563700727e-07,7.556652237455983e-06
3.587226867403522e-07,2.681654247197333e-07,2.4437670248953784e-07,7.586667805313212e-06
3.573542228175715e-07,2.6464841411991127e-07,2.4323931560039877e-07,7.6177535073438625e-06
3.5575329249521387e-07,2.6111969475573645e-07,2.4205628848630556e-07,7.649599776982797e-06
3.539344055391308e-07,2.575993974584541e-07,2.4083950082206693e-07,7.681905903920399e-06
3.51914307566614e-07,2.5410564767121694e-07,2.39601066705098e-07,7.714367424960394e-06
3.497122533425346e-07,2.50655939083967e-07,2.3835161327344732e-07,7.746672003751551e-06
3.4734850288771574e-07,2.4726913196113674e-07,2.3710054837045788e-07,7.778494429105792e-06
3.448421063367548e-07,2.439655896636385e-07,2.3585795734350553e-07,7.809480605020383e-06
3.42210643403122e-07,2.407651651059889e-07,2.3463610700068856e-07,7.839235338148734e-06
3.394725968919245e-07,2.3768539114858931e-07,2.3344964414835318e-07,7.867340383894816e-06
3.366494246031517e-07,2.3474110555062407e-07,2.323152314493433e-07,7.893397774251604e-06
3.337645420195845e-07,2.319447518818128e-07,2.3125134721027132e-07,7.917076051989537e-06
3.30840815728398e-07,2.2930646363906446e-07,2.3027719479758621e-07,7.938152940287387e-06
3.278992938698143e-07,2.268337389199854e-07,2.2941029781878967e-07,7.956538767407049e-06
3.2495907080098663e-07,2.245313874026281e-07,2.286645117958845e-07,7.972250295308501e-06
3.2203793468152706e-07,2.2240275917674235e-07,2.2804930578966762e-07,7.985344627521086e-06
3.191540239616023e-07,2.2045143522015414e-07,2.275699610697493e-07,7.995863675065297e-06
3.1632704456950694e-07,2.1868139432100486e-07,2.272284920105661e-07,8.003819627211819e-06
3.135771078602709e-07,2.1709568781118607e-07,2.2702473532702452e-07,8.009206263920512e-06
3.1092206826601786e-07,2.1569503689776588e-07,2.2695739148881282e-07,8.012006123141467e-06
3.083763979266274e-07,2.1447740390038769e-07,2.2702521164605914e-07,8.012184329132387e-06
3.05952894817055e-07,2.134389350739921e-07,2.2722769064157572e-07,8.009696424072645e-06
3.036652642193038e-07,2.125751925895887e-07,2.2756465022954806e-07,8.004554438256026e-06
3.015283013393864e-07,2.118814645326273e-07,2.2803572755778452e-07,7.9969162302304e-06
2.99555171537955e-07,2.1135252249755852e-07,2.2864112648526038e-07,7.98709005982367e-06
2.977548631292802e-07,2.109823065558942e-07,2.2938272092943798e-07,7.975445971374158e-06
2.961321185159056e-07,2.107637889074786e-07,2.3026321449572512e-07,7.962324032694376e-06
2.946887413312707e-07,2.106897069644842e-07,2.312835915268116e-07,7.947996413142673e-06
2.934247056310628e-07,2.107536148013716e-07,2.3244156395407678e-07,7.932714632110855e-06
2.923394200560739e-07,2.1095010728855293e-07,2.3373190469838943e-07,7.916827649215759e-06
2.914324437779707e-07,2.112750901568333e-07,2.351476392983541e-07,7.900861760505348e-06
2.9070230265897386e-07,2.1172679687993946e-07,2.366814704792556e-07,7.885487612125897e-06
2.901451045677007e-07,2.1230643161448481e-07,2.3832637221566228e-07,7.87142905113864e-06
2.897548700061773e-07,2.130182661859145e-07,2.4007447339159924e-07,7.85938797179597e-06
2.895242443557106e-07,2.138691659860444e-07,2.419159139617892e-07,7.849999742390021e-06
2.894443825664986e-07,2.1486634815522128e-07,2.438398867675072e-07,7.843806404440596e-06
2.8950558309275235e-07,2.1601459483957e-07,2.4583709116039137e-07,7.841232833705051e-06
2.8969859743121664e-07,2.1731586431819658e-07,2.479010047782396e-07,7.842564042695046e-06
2.900143378048076e-07,2.1877053615092314e-07,2.500270800507248e-07,7.847935361070945e-06
2.904428587337573e-07,2.2037726043949613e-07,2.522111184759201e-07,7.85733750436328e-06
2.909732222531148e-07,2.221318551363073e-07,2.544480072994581e-07,7.870629142701136e-06
2.915934076020753e-07,2.240276044088788e-07,2.5673116609290426e-07,7.887556960097338e-06
2.922903439493187e-07,2.2605646438718237e-07,2.5905251977557297e-07,7.907783360952292e-06
2.9305087536318734e-07,2.2820939708069372e-07,2.6140257979806304e-07,7.930912056860226e-06
2.938628915400703e-07,2.3047587809828228e-07,2.6377069722716717e-07,7.956508755791354e-06
2.947153597550511e-07,2.3284360095244498e-07,2.661453624780377e-07,7.984129246168664e-06
2.955973864500564e-07,2.352987950276748e-07,2.685138637921929e-07,8.01335644633798e-06
2.964977220000782e-07,2.378273067456655e-07,2.708616055758837e-07,8.043826193113881e-06
2.9740524365414143e-07,2.404161049097653e-07,2.7317241247329514e-07,8.075229755160187e-06
2.983094646930222e-07,2.430534368610351e-07,2.754302063921425e-07,8.107305849508125e-06
2.992004519141664e-07,2.457272509338652e-07,2.776207221221093e-07,8.139832332114858e-06
3.000685099352199e-07,2.4842403452191546e-07,2.797319217831855e-07,8.172612972434511e-06
3.0090428437285504e-07,2.511285800088173e-07,2.8175319058971283e-07,8.205457079951633e-06
3.016997382617718e-07,2.538240125205686e-07,2.83674327104356e-07,8.238152641650987e-06
3.0244945124654533e-07,2.564927582702352e-07,2.8548518536227737e-07,8.270443404087146e-06
3.031509823926721e-07,2.5911813195911256e-07,2.8717582206109537e-07,8.302038215328462e-06
3.0380404488295785e-07,2.6168495980408895e-07,2.887367803931234e-07,8.332654617038913e-06
3.0440978709117577e-07,2.641789303469138e-07,2.9015954634887306e-07,8.36204825266908e-06
3.04970658950988e-07,2.665857254597562e-07,2.9143706580053874e-07,8.389999250419822e-06
3.054894131689875e-07,2.6889092288496126e-07,2.9256438335000035e-07,8.416286377962008e-06
3.059673207081337e-07,2.710804769204204e-07,2.935392112079889e-07,8.440680232172252e-06
3.064037009182488e-07,2.731407110206904e-07,2.943615624808437e-07,8.462948402705822e-06
3.0679680479157105e-07,2.750576769552308e-07,2.950330548247353e-07,8.482857228337479e-06
3.071447824001534e-07,2.768170574076165e-07,2.955575346191091e-07,8.500179731927188e-06
3.074472648940248e-07,2.784049757364647e-07,2.95941584587192e-07,8.51471518440835e-06
3.07706999147607e-07,2.798091784570936e-07,2.961926797332386e-07,8.526297837958719e-06
3.079291209178425e-07,2.8102143930036767e-07,2.963168155572584e-07,8.534792282209143e-06
3.081186263169077e-07,2.820405752668232e-07,2.963176818344224e-07,8.54009196134093e-06
3.0827882402997663e-07,2.828720136376564e-07,2.961965753531709e-07,8.542117025537473e-06
3.084116396089807e-07,2.835237369833313e-07,2.959524133487489e-07,8.540804120550384e-06
3.085188233284932e-07,2.840040626179907e-07,2.955823475632946e-07,8.536089268036242e-06
3.0860305661024305e-07,2.843232833525762e-07,2.9508306676756397e-07,8.527893170361857e-06
3.086687531473052e-07,2.844950696462778e-07,2.9445188300507213e-07,8.51613348202502e-06
3.087224417834268e-07,2.845344291204913e-07,2.9368745023785007e-07,8.500764481262455e-06
3.087721742221371e-07,2.8445437003036444e-07,2.92790733629398e-07,8.481802333928156e-06
3.0882603758261077e-07,2.842647249037621e-07,2.917651016997057e-07,8.45931733484214e-06
3.088905370219624e-07,2.839735946410386e-07,2.906150994362616e-07,8.433409573869713e-06
3.0896949202932074e-07,2.835895637327428e-07,2.8934576700999057e-07,8.404190779216775e-06
3.09063491262642e-07,2.831221457560674e-07,2.879626352518466e-07,8.371809361247448e-06
3.091697924715706e-07,2.8258000850095054e-07,2.864711314532125e-07,8.336502154827378e-06
3.092829584364246e-07,2.819695058691571e-07,2.848759744236581e-07,8.29859558517664e-06
3.093958249471939e-07,2.812949633910509e-07,2.8318141951315965e-07,8.258449648638577e-06
3.0950044442100056e-07,2.8055973144613945e-07,2.8139162247760224e-07,8.216402335011938e-06
3.095896642918444e-07,2.797675503329852e-07,2.795105119542807e-07,8.172736714757376e-06
3.0965873595144484e-07,2.7892442348076496e-07,2.775417849704928e-07,8.127662552736846e-06
3.0970517436426345e-07,2.780397048199057e-07,2.754896437529256e-07,8.081310684272221e-06
3.097270315808943e-07,2.771247960834462e-07,2.7335950316957346e-07,8.033739332421139e-06
3.097213788621473e-07,2.761905708083658e-07,2.711581342135864e-07,7.984944086614796e-06
3.0968365626461005e-07,2.752462249513189e-07,2.688943762081973e-07,7.934867172338559e-06
3.096076339350282e-07,2.743001012567985e-07,2.6657963770381487e-07,7.883407925505189e-06
3.094859403639836e-07,2.733611242928389e-07,2.6422624450959377e-07,7.83043443293526e-06
3.0931083360902565e-07,2.724396439989592e-07,2.618451202787007e-07,7.775793442850296e-06
3.090745383778857e-07,2.7154732001344065e-07,2.594449800254536e-07,7.719318395288503e-06
3.0876888272080693e-07,2.706970008499701e-07,2.570324863423856e-07,7.66083929994565e-06
3.083848083229812e-07,2.6990276965556405e-07,2.546123144345918e-07,7.6001989108969666e-06
3.079122331855028e-07,2.691786518722698e-07,2.521877782810033e-07,7.53727454390337e-06
3.0734037267425106e-07,2.685364222986185e-07,2.497626680092148e-07,7.471988404832575e-06
3.0665890153066445e-07,2.6798431481693805e-07,2.4734253317090877e-07,7.40429004617201e-06
3.058597624309098e-07,2.67526721006098e-07,2.4493380640701945e-07,7.334128056360477e-06
3.0493869181878466e-07,2.671643740888247e-07,2.425421710995644e-07,7.261439568856281e-06
3.038958352978881e-07,2.6689566196256827e-07,2.4017181087891565e-07,7.1861558118552685e-06
3.0273533004655354e-07,2.6671989849718605e-07,2.378252989128002e-07,7.1082078218866574e-06
3.014642181886045e-07,2.6663990873643744e-07,2.3550369269642984e-07,7.027531166371338e-06
3.000912213161396e-07,2.666601914642157e-07,2.332070083126916e-07,6.944071015305935e-06
2.986259508139025e-07,2.667830727587349e-07,2.3093481699325237e-07,6.8577847779578206e-06
2.9707963612455377e-07,2.670074343447104e-07,2.2868641467625126e-07,6.768645816020957e-06
2.954667615511437e-07,2.673294418048755e-07,2.264611190826293e-07,6.6766497372209876e-06
2.93804603520283e-07,2.6774277822378484e-07,2.2425925110516267e-07,6.58181615168558e-06
2.921105590114126e-07,2.682386661030972e-07,2.2208277367612239e-07,6.4841859546562525e-06
2.903999559206185e-07,2.688069866848065e-07,2.1993503250002451e-07,6.383823627434101e-06
2.8868507693189263e-07,2.694375506720547e-07,2.1782052533676754e-07,6.280823802489107e-06
2.869750143965568e-07,2.701201643823915e-07,2.1574557224246415e-07,6.17531612551672e-06
2.8527644895852986e-07,2.70844408928526e-07,2.137192725279773e-07,6.06747118635697e-06
2.8359556150317586e-07,2.715997309787282e-07,2.1175290505994246e-07,5.957506129138763e-06
2.8193969666944233e-07,2.723751051401896e-07,2.0985791126380936e-07,5.845681787316265e-06
2.8031670199874487e-07,2.731588133906421e-07,2.0804419759850298e-07,5.73228527503163e-06
2.78733433034612e-07,2.739394058041959e-07,2.063193436127559e-07,5.617605959240267e-06
2.771957337454496e-07,2.74706785857801e-07,2.0468917840757333e-07,5.501937646953497e-06
2.7570857057891147e-07,2.754516349167047e-07,2.0315930355369e-07,5.385617291847246e-06
2.7427516241182627e-07,2.761639818031479e-07,2.017352596783161e-07,5.269049719718396e-06
2.7289668497516505e-07,2.768331697584919e-07,2.004212701509084e-07,5.152677656922328e-06
2.7157347054662644e-07,2.7744895601974467e-07,1.992200157957736e-07,5.036928850192608e-06
2.7030708828210376e-07,2.7800170050432786e-07,1.981331601707773e-07,4.9221942139865445e-06
2.691019037913879e-07,2.784818522532949e-07,1.9716098313304282e-07,4.8088507378016965e-06
2.679641182299365e-07,2.788805045680268e-07,1.9630181808918077e-07,4.697311871040207e-06
2.6689883937230567e-07,2.7919051020296307e-07,1.955520121905927e-07,4.588072999479148e-06
2.659083033637714e-07,2.7940658830610923e-07,1.9490615268159765e-07,4.481709238922543e-06
2.6499249913381803e-07,2.795247707143945e-07,1.9435795831243825e-07,4.378817643603407e-06
2.6415100064574983e-07,2.7954174664546966e-07,1.9390217457907871e-07,4.279947020300241e-06
2.6338509034204414e-07,2.794543236024633e-07,1.935362294463964e-07,4.1855548468877575e-06
2.62699388597394e-07,2.792598193821216e-07,1.9326003830538969e-07,4.09599531076449e-06
2.621011675869485e-07,2.7895665620434124e-07,1.9307422298896609e-07,4.011524412170616e-06
2.6159737684254174e-07,2.7854384069061657e-07,1.9297828950307128e-07,3.9323087249012264e-06
2.6119220411735967e-07,2.7802020441461373e-07,1.929700043224489e-07,3.8584457131869515e-06
2.608864043061893e-07,2.773846766345141e-07,1.930459566641215e-07,3.7900270096296976e-06
2.606778563559449e-07,2.766373824984676e-07,1.932019002058829e-07,3.727222342314054e-06
2.605635660635608e-07,2.7578021294805605e-07,1.9343277904887727e-07,3.6702951921345763e-06
2.605416862026445e-07,2.748160195334015e-07,1.93733668609967e-07,3.6195391421499428e-06
2.606113565867082e-07,2.73747654892923e-07,1.9410027485550586e-07,3.5752190187874872e-06
2.607714203240624e-07,2.725783232029334e-07,1.9452756442479037e-07,3.5375526532245416e-06
2.6102036279510287e-07,2.713125092525201e-07,1.9500845702535078e-07,3.5067252606311983e-06
2.613575058437145e-07,2.6995638173449304e-07,1.9553402418230266e-07,3.4829564434440346e-06
2.6178307757773216e-07,2.6851863419708386e-07,1.9609447899363852e-07,3.466588193061484e-06
2.6229647494266014e-07,2.670117326860593e-07,1.9668026678706891e-07,3.4581004250673117e-06
2.6289518190641604e-07,2.654516403901368e-07,1.9728310892088393e-07,3.4580475048828117e-06
2.635752853372686e-07,2.6385628445313547e-07,1.9789660554359301e-07,3.4669879273208e-06
2.643321639588854e-07,2.622446315336366e-07,1.9851598500925969e-07,3.4854333315049523e-06
2.6516081897743423e-07,2.60636583610844e-07,1.991376721648264e-07,3.5138044669942727e-06
2.660563066678721e-07,2.590522280309407e-07,1.9975946188466608e-07,3.5523917092411765e-06
2.670139860506888e-07,2.575103432419581e-07,2.003808319732639e-07,3.6013251690509065e-06
2.6802956441323837e-07,2.5602763169482545e-07,2.0100266724159738e-07,3.6605632832478898e-06
2.6909958250416376e-07,2.5461840224890864e-07,2.0162664178318843e-07,3.7299024836136384e-06
2.702216700859817e-07,2.532939626955242e-07,2.0225455149300845e-07,3.808992257755263e-06
2.7139380402239257e-07,2.5206261090537106e-07,2.0288746624012765e-07,3.897344380204621e-06
2.726130522155296e-07,2.509306170630364e-07,2.035252290184935e-07,3.9943432149771655e-06
2.7387463690361897e-07,2.499034299011443e-07,2.0416671281593627e-07,4.099263247096307e-06
2.751722167767539e-07,2.489864378602996e-07,2.0481042934852689e-07,4.2112971466941285e-06
2.7649909379072576e-07,2.481848495401537e-07,2.0545515272532906e-07,4.3295956078622786e-06
2.778486790744957e-07,2.4750359230095765e-07,2.061002355300107e-07,4.4533067878644585e-06
2.792135797707429e-07,2.469483393116704e-07,2.067455806560581e-07,4.5815996313179435e-06
2.8058447310241773e-07,2.46526198769901e-07,2.073917607542778e-07,4.713674075907617e-06
2.819502537087725e-07,2.462448209232007e-07,2.0804033331330898e-07,4.8487737625153615e-06
2.832996033579873e-07,2.461105926053019e-07,2.0869461081611452e-07,4.986198791592742e-06
2.846226303107661e-07,2.461266416946568e-07,2.0936146894039921e-07,5.125298366674379e-06
2.859112775149981e-07,2.462915923934299e-07,2.10052642370779e-07,5.2654425926232425e-06
2.8715845413265467e-07,2.465997059191858e-07,2.1078293847834746e-07,5.4059951130687485e-06
2.883573977838244e-07,2.4704214842452823e-07,2.1156652882559032e-07,5.5463000358846065e-06
2.8950246649148376e-07,2.476087639918589e-07,2.1241501555319384e-07,5.685692711056025e-06
2.905905712807725e-07,2.482895016763245e-07,2.133377543921621e-07,5.8235402751633815e-06
2.916228762925753e-07,2.4907472455620326e-07,2.1434202531595696e-07,5.959283874664155e-06
2.9260613590927164e-07,2.499546160112029e-07,2.1543226213382286e-07,6.092447688047401e-06
2.935515392517773e-07,2.5091907458636804e-07,2.1660996424754682e-07,6.222620875222703e-06
2.9447225124450085e-07,2.5195828896577847e-07,2.1787499256978e-07,6.349436349465931e-06
2.953824309399204e-07,2.530629052591261e-07,2.192266058556277e-07,6.472552237755681e-06
2.96296446621194e-07,2.5422403673670784e-07,2.2066351272049083e-07,6.591633167497209e-06
2.972266997848392e-07,2.5543355913529964e-07,2.2218384991362166e-07,6.706340843089258e-06
2.9818169119013336e-07,2.5668411716824705e-07,2.2378483867703175e-07,6.8163412183336154e-06
2.991656827685124e-07,2.579690637671839e-07,2.2546163647904066e-07,6.921317409987367e-06
3.0017899413348946e-07,2.5928319645989085e-07,2.2720682373662381e-07,7.020983774238693e-06
3.0121823413980426e-07,2.606241191138493e-07,2.290120930760211e-07,7.115105272702617e-06
3.0227755719193513e-07,2.6199319886422034e-07,2.3087137794962245e-07,7.2035245515007154e-06
3.0335082161560823e-07,2.633950430328703e-07,2.327831281738644e-07,7.286195109134404e-06
3.044323482499196e-07,2.648355410873591e-07,2.3474987725349087e-07,7.36319124697853e-06
3.0551600449541216e-07,2.6632027574053625e-07,2.3677517508093739e-07,7.434670854622372e-06
3.065948481790053e-07,2.6785409412747606e-07,2.388603544744462e-07,7.5008158764264386e-06
3.076618119583037e-07,2.694408403184536e-07,2.4100319581315184e-07,7.561784771556224e-06
3.087099337365268e-07,2.710834393524538e-07,2.4319821020528555e-07,7.617689957283326e-06
3.0973188053733213e-07,2.727840384787093e-07,2.454376751119525e-07,7.668592088505666e-06
3.107198110048423e-07,2.7454294081564693e-07,2.477128434253673e-07,7.71449410544883e-06
3.1166601683370254e-07,2.763576730612835e-07,2.5001474147173255e-07,7.755346960359295e-06
3.125639060273664e-07,2.7822339159615225e-07,2.5233440226113297e-07,7.791105988368092e-06
3.134086818008257e-07,2.801337667970687e-07,2.546627782874397e-07,7.821826954644278e-06
3.141972386862004e-07,2.8208166550120247e-07,2.569908541640654e-07,7.847711488672817e-06
3.149271859539412e-07,2.840591870519988e-07,2.593103724961488e-07,7.869052570668561e-06
3.155959681517209e-07,2.860578416178867e-07,2.6161467171001497e-07,7.8861437241002e-06
3.1620106368146747e-07,2.8806949279887555e-07,2.638989980739029e-07,7.899229758535843e-06
3.1674046303430097e-07,2.9008661606126423e-07,2.661601849253362e-07,7.908534494433811e-06
3.1721276526514216e-07,2.921016153679899e-07,2.683958957091573e-07,7.914373214599996e-06
3.176175076651096e-07,2.9410613578562665e-07,2.706039240535977e-07,7.917285047978875e-06
3.17955013078013e-07,2.960904231298798e-07,2.7278210223937864e-07,7.918072097422302e-06
3.182248670077768e-07,2.980438813115989e-07,2.749287266863884e-07,7.917724707770413e-06
3.1842473455492345e-07,2.999574959680357e-07,2.7704225201489625e-07,7.917310683817667e-06
3.185510712580688e-07,3.018251844883884e-07,2.7912019973278626e-07,7.917881467039058e-06
3.186011077465947e-07,3.036424029789548e-07,2.811590059058416e-07,7.920400099865015e-06
3.185745929866034e-07,3.0540483572382807e-07,2.831544008087719e-07,7.925689314180908e-06
3.1847377920549524e-07,3.071088597361448e-07,2.851010267436705e-07,7.934401457642075e-06
3.183018224605576e-07,3.087521677683967e-07,2.8699236644395645e-07,7.947012185242763e-06
3.180614991267953e-07,3.103335018319216e-07,2.888215754808802e-07,7.96383088489539e-06
3.17754918131124e-07,3.118522624522204e-07,2.905821218291036e-07,7.985009542720386e-06
3.1738322028896924e-07,3.133088165466172e-07,2.922676444646481e-07,8.010542535101803e-06
3.169460331607869e-07,3.147054016777354e-07,2.938714378763681e-07,8.040273196354076e-06
3.164417341970725e-07,3.1604669698728827e-07,2.9538616561374934e-07,8.07392036715287e-06
3.158686689245625e-07,3.1733921070532217e-07,2.968039595261818e-07,8.111116565409361e-06
3.152256615240734e-07,3.185898323623661e-07,2.981168855706515e-07,8.151449316949377e-06
3.145112327758381e-07,3.1980412801814946e-07,2.993171616710225e-07,8.19450649748829e-06
3.137235432682465e-07,3.209846682879044e-07,3.003966901908715e-07,8.239912053079597e-06
3.1286202771623e-07,3.221302480420244e-07,3.013470424277924e-07,8.287334593903012e-06
3.1192898083603626e-07,3.232363258480714e-07,3.02160376019453e-07,8.336481749898055e-06
3.1092986823660303e-07,3.242956681021714e-07,3.028303946698287e-07,8.387097406459371e-06
3.098721946273804e-07,3.252987369890576e-07,3.0335296337698734e-07,8.438949591262898e-06
3.0876330025001175e-07,3.262346698618036e-07,3.037266178229316e-07,8.491803439426819e-06
3.0760927362247085e-07,3.2709277181639015e-07,3.0395311203341193e-07,8.545398283194088e-06
3.064161718778439e-07,3.2786338188306605e-07,3.0403708845174034e-07,8.599432861526418e-06
3.05191503908062e-07,3.285377045914631e-07,3.039841506204934e-07,8.653556477847275e-06
3.039437888312561e-07,3.2910722873718984e-07,3.037989291537254e-07,8.707389445625501e-06
3.026806092856461e-07,3.295639463042951e-07,3.034849337953061e-07,8.760569984409381e-06
3.014072746107192e-07,3.2990128960433395e-07,3.030459986779225e-07,8.812773674715864e-06
3.001266711596544e-07,3.301142242625093e-07,3.0248818667258957e-07,8.86368392354032e-06
2.988392464908276e-07,3.301987660242605e-07,3.018209834977723e-07,8.91295033520611e-06
2.975430543363828e-07,3.301527571523424e-07,3.0105666344878176e-07,8.960166374402687e-06
2.96234151314358e-07,3.299770131838828e-07,3.002080197352475e-07,9.004880734942805e-06
2.949069548799705e-07,3.296742865456476e-07,2.9928654048506604e-07,9.046655436591433e-06
2.9355465305038705e-07,3.29247318079753e-07,2.983023027282096e-07,9.0851429475141e-06
2.921705017184591e-07,3.286991343226229e-07,2.972652353563213e-07,9.120120412131823e-06
2.907502652721867e-07,3.280344012692077e-07,2.961866847082569e-07,9.151471127155843e-06
2.892937847107341e-07,3.272590491107759e-07,2.950795616309945e-07,9.179151632066097e-06
2.87803543326467e-07,3.2637910401261266e-07,2.9395766927576215e-07,9.203159804191706e-06
2.862821409224261e-07,3.254003625261619e-07,2.928364402750533e-07,9.223502395481619e-06
2.847317503359289e-07,3.243285395665004e-07,2.917342417621119e-07,9.240164615383807e-06
2.8315501527214716e-07,3.231692878732983e-07,2.9067147599347393e-07,9.253087265545263e-06
2.815557137953001e-07,3.2192808924332554e-07,2.896672239293292e-07,9.26216872436221e-06
2.799389263093498e-07,3.2061045854483253e-07,2.8873655881225874e-07,9.26730057204841e-06
2.783101872201779e-07,3.192226904343455e-07,2.878903904702356e-07,9.268411481405662e-06
2.766738192700201e-07,3.177731382434633e-07,2.871360264970214e-07,9.265488468317966e-06
2.7503228723157556e-07,3.162730374148642e-07,2.864774055424918e-07,9.258574191851996e-06
2.7338677700951054e-07,3.1473522966045735e-07,2.85915898570171e-07,9.247748306522397e-06
2.717374940377573e-07,3.1317185866825125e-07,2.854516723826763e-07,9.233093244188408e-06
2.7008373796604536e-07,3.115933042870899e-07,2.8508591790923977e-07,9.2146698067241e-06
2.6842441997066694e-07,3.1000833713564106e-07,2.848237073220356e-07,9.192535154505824e-06
2.667587901380051e-07,3.084249074822613e-07,2.8467390496170304e-07,9.16677941275086e-06
2.650874378312352e-07,3.0685069503659977e-07,2.846454721316537e-07,9.137537062193243e-06
2.634124960262346e-07,3.052922467540446e-07,2.8474473871290695e-07,9.104975480492895e-06
2.617358597770657e-07,3.037541138722569e-07,2.849755129986825e-07,9.069276543889526e-06
2.6005737792526086e-07,3.022398647125241e-07,2.8534025105392984e-07,9.030613770500282e-06
2.583752732790761e-07,3.007535801668674e-07,2.858406102814879e-07,8.989131462882569e-06
2.5668848985037606e-07,2.992996510354743e-07,2.864771098068757e-07,8.944926420005984e-06
2.549988337418137e-07,2.9788146578106304e-07,2.872485191908185e-07,8.898032634991845e-06
2.5331211717635426e-07,2.965008802429568e-07,2.881510471981945e-07,8.84841975047507e-06
2.516396015834529e-07,2.951586105670407e-07,2.891783571138966e-07,8.796005652644323e-06
2.4999801455786584e-07,2.938546934271773e-07,2.903231789982721e-07,8.740672535474437e-06
2.484059493627727e-07,2.925884221112063e-07,2.9157797364551224e-07,8.68227823692376e-06
2.4687986261248045e-07,2.913576887236715e-07,2.929336031553283e-07,8.62066196209464e-06
2.4543327298805473e-07,2.9015904177328164e-07,2.943794419277945e-07,8.55564900247085e-06
2.440778479322825e-07,2.889895371256558e-07,2.959059167241848e-07,8.487055907643312e-06
2.428235208614348e-07,2.8784901795929923e-07,2.975062113975829e-07,8.414698454673798e-06
2.41678543557004e-07,2.867403024067462e-07,2.991760314895971e-07,8.338408694814874e-06
2.4065170677854104e-07,2.856673729493147e-07,3.0091296033890424e-07,8.258056643959987e-06
2.397544174216681e-07,2.846346362759695e-07,3.0271606918466894e-07,8.173563297787578e-06
2.3899966292055377e-07,2.8364786262266086e-07,3.045857643609125e-07,8.084901494752814e-06
2.3839943528158626e-07,2.827140682015572e-07,3.065241601639545e-07,7.992089004162798e-06
2.3796335219847804e-07,2.818398876893429e-07,3.0853545304681096e-07,7.895175902032415e-06
2.3769923405625306e-07,2.810304137206187e-07,3.1062445137843924e-07,7.79423075038907e-06
2.3761412404166452e-07,2.8028873661041297e-07,3.127934918636884e-07,7.689337487449698e-06
2.3771428086689769e-07,2.796157571672522e-07,3.1504036034916226e-07,7.580610853593874e-06
2.380047781574564e-07,2.790109590318717e-07,3.173579601675326e-07,7.468219162650427e-06
2.384885821155121e-07,2.784731298031768e-07,3.19734888198004e-07,7.352395105014088e-06
2.3916485565551765e-07,2.779996685113349e-07,3.221562988138345e-07,7.233430026985412e-06
2.400283238217465e-07,2.775861694011623e-07,3.246047732865408e-07,7.111658947597867e-06
2.410703867903539e-07,2.772270459012543e-07,3.270622480453408e-07,6.9874384537359935e-06
2.422806533342193e-07,2.7691558923733287e-07,3.2951331977819825e-07,6.861123898384647e-06
2.4364786659533904e-07,2.7664352042672104e-07,3.3194787155915843e-07,6.733063278673868e-06
2.451600668468667e-07,2.7640088912487786e-07,3.343621118442685e-07,6.603602058828794e-06
2.4680453466567445e-07,2.761761704495647e-07,3.367578726090917e-07,6.47307472619786e-06
2.4856842728503577e-07,2.7595649675828373e-07,3.3913942734322573e-07,6.3417892511210834e-06
2.504400308808468e-07,2.757282991740672e-07,3.4151060916756416e-07,6.210028268546095e-06
2.524092520858128e-07,2.754785188792138e-07,3.4387578230598576e-07,6.078072396873628e-06
2.5446673712838986e-07,2.7519547790844176e-07,3.462426087425408e-07,5.946237107436476e-06
2.5660275289484937e-07,2.7486850202715026e-07,3.4862267834490497e-07,5.814902710466536e-06
2.5880726036355325e-07,2.7448715972733325e-07,3.510299844466759e-07,5.6845126053368974e-06
2.61070570239118e-07,2.7404085922715304e-07,3.534792249343655e-07,5.55553935789789e-06
2.633833355760581e-07,2.735186514259777e-07,3.5598396708369647e-07,5.428440880464777e-06
2.657368747766921e-07,2.7290970249839377e-07,3.5855404592988897e-07,5.303628084239338e-06
2.6812387449195014e-07,2.722046627744886e-07,3.611935016136494e-07,5.181464870190346e-06
2.7053740265757194e-07,2.7139679381656525e-07,3.639003112347158e-07,5.0623068503593875e-06
2.7296869536857794e-07,2.704821743268588e-07,3.6666773285123033e-07,4.9465425376301235e-06
2.7540610102107624e-07,2.694597182763201e-07,3.694865037485864e-07,4.834594267178305e-06
2.77835635247262e-07,2.6833127588911057e-07,3.723458885841355e-07,4.726883044097006e-06
2.802426046822143e-07,2.671013223904721e-07,3.752334497894186e-07,4.623789357551334e-06
2.82613471140193e-07,2.6577606961784465e-07,3.7813737021385476e-07,4.5256306819919714e-06
2.8493621592456515e-07,2.643623460218317e-07,3.8105126917712405e-07,4.432652638385821e-06
2.871989498776529e-07,2.6286667261667447e-07,3.839753602283297e-07,4.3450214355966244e-06
2.893885971478803e-07,2.61294655086184e-07,3.8691219816612184e-07,4.262825324158716e-06
2.914907078423077e-07,2.5965071018254773e-07,3.89862251116913e-07,4.186110109585148e-06
2.934901439301793e-07,2.5793805827906627e-07,3.928225237241727e-07,4.114956875836981e-06
2.953721255324744e-07,2.5615889920282327e-07,3.9578724742799097e-07,4.0495512494579245e-06
2.971230778957839e-07,2.543147163353432e-07,3.987498200368361e-07,3.990171466973931e-06
2.987315864902759e-07,2.524066533105769e-07,4.0170447683911207e-07,3.937110426227913e-06
3.0018974808374056e-07,2.504360135684043e-07,4.046452882715479e-07,3.890605993106358e-06
3.014940235780604e-07,2.484049547700898e-07,4.0756372054228566e-07,3.850816628837696e-06
3.0264555545224576e-07,2.463180856315777e-07,4.104479898375246e-07,3.8178680293004065e-06
3.036499295406928e-07,2.441845705904889e-07,4.132841979342137e-07,3.7919671532365907e-06
3.0451518195327657e-07,2.420178062832128e-07,4.1605717044970423e-07,3.7734856919475366e-06
3.052488989191029e-07,2.398325903237723e-07,4.1875025117428034e-07,3.7629306653904565e-06
3.058571586133198e-07,2.3764335586458611e-07,4.2134493508036256e-07,3.760848867833834e-06
3.063458709962101e-07,2.354640728526452e-07,4.2382202947176325e-07,3.767748022132247e-06
3.067219529290772e-07,2.3330893576661282e-07,4.2616545907810433e-07,3.7840541014163766e-06
3.0699255023044056e-07,2.3119383859141158e-07,4.283660229601089e-07,3.8100858323894713e-06
3.071637674823951e-07,2.291366847490776e-07,4.3042088588521507e-07,3.8460317509577625e-06
3.07240615238222e-07,2.271559010161056e-07,4.323296811363889e-07,3.891930319754415e-06
3.0722765296784694e-07,2.2526889773440107e-07,4.3409125213804856e-07,3.947664872905385e-06
3.071292199497627e-07,2.2349080702932215e-07,4.357027023336419e-07,4.012978266193606e-06
3.06949526669274e-07,2.2183349603761488e-07,4.371596104926176e-07,4.0874888942135565e-06
3.0669280360265193e-07,2.2030516725305036e-07,4.384561931575491e-07,4.170694516530155e-06
3.063626770422177e-07,2.189103575842098e-07,4.3958574976630003e-07,4.261980814246125e-06
3.059611473912384e-07,2.176502724294404e-07,4.4054170717124433e-07,4.360646163479048e-06
3.0548890152784e-07,2.1652392917759122e-07,4.413190734330848e-07,4.465932467744346e-06
3.0494713775350185e-07,2.155301315460496e-07,4.4191576297967683e-07,4.577058127480997e-06
3.043383767028889e-07,2.146683841444142e-07,4.423330039078572e-07,4.693252291283346e-06
3.0366508977533287e-07,2.1393768107955527e-07,4.4257465558179217e-07,4.8137775204076415e-06
3.0292889123786715e-07,2.1333519593843298e-07,4.426455078911662e-07,4.937932251544858e-06
3.0213243823812645e-07,2.128565898341223e-07,4.4254942601638356e-07,5.0650408617703075e-06
3.012820065185609e-07,2.124973806089773e-07,4.4228884739501924e-07,5.194441418379942e-06
3.0038738202746074e-07,2.122547670665824e-07,4.41865361351738e-07,5.325474279107032e-06
2.994592858151816e-07,2.1212938081584282e-07,4.4127982226869143e-07,5.457472617414511e-06
2.9850732349654603e-07,2.1212498580828572e-07,4.405317934788848e-07,5.589756832707847e-06
2.975401018131563e-07,2.1224605132813533e-07,4.3961924948918036e-07,5.721634707389002e-06
2.9656699823633646e-07,2.1249620634857262e-07,4.3853912177369307e-07,5.85240822993468e-06
2.9559944846097495e-07,2.1287828229834425e-07,4.3728848353763497e-07,5.981385061518016e-06
2.946505232781736e-07,2.1339438570895652e-07,4.3586514756182263e-07,6.107883780919128e-06
2.937344721912898e-07,2.1404557676055385e-07,4.342669952302891e-07,6.231227642270315e-06
2.928674008266505e-07,2.1483142163609947e-07,4.3249163685422366e-07,6.350744095611678e-06
2.920670623687642e-07,2.1575059398639177e-07,4.3053774434308605e-07,6.4657826113741714e-06
2.91350256518338e-07,2.168026455010593e-07,4.2840651416180994e-07,6.575735148957421e-06
2.9073001088154e-07,2.1798813153200411e-07,4.261014470593094e-07,6.680040351231307e-06
2.902146227343953e-07,2.1930664937277368e-07,4.236271419099083e-07,6.7781785752788674e-06
2.898077714296596e-07,2.2075552410012712e-07,4.20988734301097e-07,6.8696724140006824e-06
2.895090590573293e-07,2.223296661137837e-07,4.181927367278483e-07,6.954089766504233e-06
2.893158666308492e-07,2.240216627383101e-07,4.152483271921889e-07,7.03104523441275e-06
2.892256825828353e-07,2.258218314370866e-07,4.121671158092068e-07,7.1002095985564715e-06
2.8923606021746085e-07,2.2771831805013317e-07,4.0896160902053927e-07,7.161342838844517e-06
2.8934261282854123e-07,2.296979209649429e-07,4.0564389418721844e-07,7.21433562638103e-06
2.895386800242801e-07,2.3174752808293961e-07,4.0222464350509095e-07,7.259209189288472e-06
2.8981774369132717e-07,2.338552175117216e-07,3.987126141878715e-07,7.2960634245925705e-06
2.901762237326723e-07,2.3601096643874196e-07,3.9511513798281116e-07,7.325022875185789e-06
2.906141488878268e-07,2.3820689575160494e-07,3.9143863966146005e-07,7.3462179340974275e-06
2.9113365433381024e-07,2.404366521575146e-07,3.8768835941155476e-07,7.359796442462558e-06
2.9173768375946605e-07,2.4269431423803684e-07,3.8386818583826006e-07,7.365942927625997e-06
2.9242979240574193e-07,2.449737465059617e-07,3.79981007900804e-07,7.364880938751863e-06
2.9321309539552565e-07,2.4726922805854244e-07,3.760289706099809e-07,7.356868984864403e-06
2.940885857505907e-07,2.495767805564412e-07,3.72013612996406e-07,7.342244515156635e-06
2.950552183434907e-07,2.5189433072071535e-07,3.6793664854819725e-07,7.321500610510701e-06
2.961109533283258e-07,2.542201109592032e-07,3.638019043269765e-07,7.295292917335958e-06
2.9725317469889013e-07,2.565507938457475e-07,3.5961673552963954e-07,7.264355618766968e-06
2.984788275722229e-07,2.5888098087831393e-07,3.5539147005525973e-07,7.229402501659799e-06
2.997837795354452e-07,2.6120371240943905e-07,3.511382642008098e-07,7.191072558175757e-06
3.011616079591604e-07,2.635108788954075e-07,3.468699770097891e-07,7.149961316498552e-06
3.026034925449011e-07,2.65794272829664e-07,3.4259899718998533e-07,7.106738189803165e-06
3.0409920861538036e-07,2.680475473525325e-07,3.383369799776057e-07,7.062253038687198e-06
3.056384156698236e-07,2.7026654200469627e-07,3.340949413954364e-07,7.017537613627499e-06
3.072120164782548e-07,2.724478451177809e-07,3.298827602082405e-07,6.973723343223776e-06
3.088130365395007e-07,2.745883911200604e-07,3.257088003040107e-07,6.931946958295005e-06
3.1043682927592676e-07,2.7668553876122124e-07,3.2157975438753505e-07,6.893274338826503e-06
3.120801860703357e-07,2.787362292200515e-07,3.175001302101265e-07,6.85863987006475e-06
3.1373889497174385e-07,2.8073647826049423e-07,3.134720262554243e-07,6.828799661332258e-06
3.154060723919087e-07,2.8268136993098914e-07,3.0949564232809613e-07,6.8043085632319075e-06
3.170733935163271e-07,2.845646915125603e-07,3.055697994012829e-07,6.7855260190661365e-06
3.187327963331667e-07,2.86379011926804e-07,3.016922652747969e-07,6.772637503237049e-06
3.203767120536546e-07,2.881168701257484e-07,2.978605187741543e-07,6.765673550118012e-06
3.219987308887865e-07,2.897714048110269e-07,2.940725954865648e-07,6.764525885307792e-06
3.235944990388097e-07,2.9133536968312545e-07,2.90327005118921e-07,6.768972131890641e-06
3.2516054434813514e-07,2.9280051844313466e-07,2.866220797405687e-07,6.778708558186492e-06
3.2669203753749264e-07,2.941587067249699e-07,2.8295595402790585e-07,6.793385443149073e-06
3.281820129807401e-07,2.954037963286373e-07,2.7932756941405297e-07,6.812646085782374e-06
3.296225487562312e-07,2.965333890820197e-07,2.757379977805504e-07,6.836162748319413e-06
3.3100672174576657e-07,2.9754922197038397e-07,2.721919150871292e-07,6.863653174036672e-06
3.3232987080376806e-07,2.984554734718349e-07,2.686990763348809e-07,6.894874676074371e-06
3.335894922862188e-07,2.992564226746781e-07,2.652740578659221e-07,6.929612693255967e-06
3.347846325367797e-07,2.999552003670693e-07,2.619338447974559e-07,6.967672616135153e-06
3.359156821330736e-07,3.005537166670485e-07,2.5869521035869066e-07,7.008865517650416e-06
3.3698383975621576e-07,3.0105328621516407e-07,2.555733965260877e-07,7.052983282591608e-06
3.37990024364119e-07,3.014553532039286e-07,2.525817672293428e-07,7.099769901693613e-06
3.389344343677895e-07,3.0176165948412947e-07,2.4973127819002123e-07,7.14890407112294e-06
3.3981701272518556e-07,3.019737545211107e-07,2.4702991258824856e-07,7.20001946811185e-06
3.406383217507734e-07,3.020920047109779e-07,2.4448297052208496e-07,7.252762689481835e-06
3.4140077152077197e-07,3.0211483352378374e-07,2.4209426774161074e-07,7.306839785291336e-06
3.421093038029664e-07,3.0203938134703586e-07,2.3986754764044864e-07,7.36201682854086e-06
3.4277032737348977e-07,3.018629783603166e-07,2.3780669187028045e-07,7.418090096868622e-06
3.4338973402068613e-07,3.0158377990464265e-07,2.359142602135747e-07,7.474854552749072e-06
3.439719606925056e-07,3.0120127136116577e-07,2.341899897158212e-07,7.532088147700662e-06
3.445206444111731e-07,3.007175323996443e-07,2.3263042786558122e-07,7.589546191020158e-06
3.450395940476001e-07,3.0013740606553695e-07,2.3122940609296637e-07,7.646949003802573e-06
3.45532830173668e-07,2.9946655575687176e-07,2.2997932507358012e-07,7.703973915435849e-06
3.4600427675970173e-07,2.9870943154697264e-07,2.2887351172351928e-07,7.760274596084403e-06
3.464577723660804e-07,2.978689207232991e-07,2.279085262608664e-07,7.815522614899597e-06
3.4689655948512957e-07,2.969471899172125e-07,2.2708443432319583e-07,7.869450603629906e-06
3.4732238641413287e-07,2.9594672704308336e-07,2.2640311647873827e-07,7.921888531154476e-06
3.47735360089556e-07,2.948708164429112e-07,2.2586607378181805e-07,7.972787734312719e-06
3.4813479652885943e-07,2.937229460510888e-07,2.2547256502522478e-07,8.022214357654464e-06
3.4852067743740566e-07,2.9250626484373345e-07,2.2521912663757272e-07,8.070300922772012e-06
3.4889457547194555e-07,2.9122442561890923e-07,2.251004122835967e-07,8.11717303224458e-06
3.4925849660839485e-07,2.898826524672623e-07,2.2510956907090135e-07,8.16289091083962e-06
3.4961230661551885e-07,2.884869412051312e-07,2.2523782010476212e-07,8.207432855537781e-06
3.499529834110925e-07,2.870419465893322e-07,2.25474385643747e-07,8.250703533096644e-06
3.502764850976511e-07,2.855497745911075e-07,2.2580739099859085e-07,8.292538971752434e-06
3.5057942107160184e-07,2.8401042525319463e-07,2.2622596219963762e-07,8.332719291746563e-06
3.508593411527138e-07,2.8242326081771606e-07,2.267219708438886e-07,8.371031424745022e-06
3.511152614377895e-07,2.8078843448959515e-07,2.2728937757453608e-07,8.40736813270293e-06
3.513490026019687e-07,2.791074256555493e-07,2.279226542072177e-07,8.441762978382357e-06
3.515656341133207e-07,2.7738282942179885e-07,2.2861640121168495e-07,8.474316694347601e-06
3.5177231899540657e-07,2.7561784986052264e-07,2.293650188247807e-07,8.505098835947345e-06
3.5197681226219395e-07,2.738156389108603e-07,2.3016174163016748e-07,8.534116185113068e-06
3.5218593903663245e-07,2.7197863577649284e-07,2.309986454966159e-07,8.561372719016873e-06
3.5240387303138826e-07,2.701082437773875e-07,2.3186800720326768e-07,8.586994973697376e-06
3.5263114006532737e-07,2.6820514469856724e-07,2.3276358701419306e-07,8.611338763551944e-06
3.528650500606329e-07,2.662701659607368e-07,2.3368080014000965e-07,8.634994420304179e-06
3.531016040942265e-07,2.643054735470983e-07,2.3461607865140548e-07,8.658707317723964e-06
3.5333769460700563e-07,2.623153529057148e-07,2.355663567413393e-07,8.68328224424664e-06
3.535712097645104e-07,2.603061020923296e-07,2.365285640799706e-07,8.709502361350145e-06
3.537990373096761e-07,2.582860521930671e-07,2.3749873183640012e-07,8.73806417227224e-06
3.540154723753855e-07,2.5626568641363147e-07,2.3847158982004016e-07,8.769525823573738e-06
3.542120950325346e-07,2.542563644628893e-07,2.39441267754596e-07,8.804271895803841e-06
3.5437838961083067e-07,2.522685834134976e-07,2.4040279360691645e-07,8.842502802578411e-06
3.545024438209429e-07,2.503123420052677e-07,2.413538863445724e-07,8.884244427557354e-06
3.5457162107986423e-07,2.4839885282048613e-07,2.422961516027676e-07,8.92936314656162e-06
3.5457346461033493e-07,2.465405523398106e-07,2.4323495692247163e-07,8.977583424642923e-06
3.5449679823911966e-07,2.447494754370626e-07,2.441778909829484e-07,9.028513892599756e-06
3.5433214659398156e-07,2.430366791722964e-07,2.451327380092576e-07,9.081675245785793e-06
3.5407142104081774e-07,2.4141308732367645e-07,2.461065425552665e-07,9.136524912922424e-06
3.537083521249061e-07,2.3988977308952184e-07,2.4710562937542117e-07,9.192491931836847e-06
3.5323943347151154e-07,2.384772507703092e-07,2.481352977897173e-07,9.249024518288196e-06
3.526637886693521e-07,2.371844412137345e-07,2.4919953041938965e-07,9.305625460675419e-06
3.5198205389399747e-07,2.360176651443027e-07,2.503012728066584e-07,9.361862254940084e-06
3.511949167956177e-07,2.3498079277411013e-07,2.514422505333137e-07,9.417368980949628e-06
3.5030188869358486e-07,2.3407634003038135e-07,2.526221074049312e-07,9.471850458772644e-06
3.4930094872563574e-07,2.333056930506371e-07,2.5383816617545384e-07,9.525076131819296e-06
3.4818903285819026e-07,2.326684110973196e-07,2.550859040069877e-07,9.576854365844411e-06
3.4696313134876873e-07,2.3216172215132107e-07,2.563590451804073e-07,9.626997202716504e-06
3.4562173022047163e-07,2.3178054622320718e-07,2.5764938217788837e-07,9.67528757480619e-06
3.441666980802116e-07,2.3151839717883855e-07,2.58947174432764e-07,9.721459140571409e-06
3.4260515595399947e-07,2.3136935026161328e-07,2.6024171972481143e-07,9.765210460160537e-06
3.409494368068748e-07,2.313293037079795e-07,2.615214446202285e-07,9.806246057500227e-06
3.39214878622778e-07,2.3139539363892445e-07,2.627743923960109e-07,9.844291550642013e-06
3.3741731767777535e-07,2.3156511871140733e-07,2.639894042941489e-07,9.879067797197342e-06
3.355711580094812e-07,2.318356687800145e-07,2.65156704629598e-07,9.910269066497102e-06
3.336881776669397e-07,2.322032074418035e-07,2.6626825684898466e-07,9.93757259964658e-06
3.317781284183155e-07,2.3266321143979612e-07,2.673186441947176e-07,9.960657224201912e-06
3.298510687122397e-07,2.3321162312791618e-07,2.6830486921363856e-07,9.979203975882177e-06
3.279185663800538e-07,2.3384523644432172e-07,2.6922491410393704e-07,9.992889638803557e-06
3.259924345021246e-07,2.3456104661602267e-07,2.700774568546761e-07,1.000140108981181e-05
3.2408322498170464e-07,2.3535577789672908e-07,2.708628179447311e-07,1.0004469069782927e-05
3.221998545583921e-07,2.3622665729475178e-07,2.715828616885323e-07,1.0001897932682076e-05
3.2035022131655044e-07,2.3717238495269688e-07,2.722399839533123e-07,9.993591252862038e-06
3.185424198336337e-07,2.381924666500884e-07,2.7283702452349284e-07,9.979579081943691e-06
3.1678560810769264e-07,2.392853440666029e-07,2.733778530227393e-07,9.960011023204525e-06
3.1509033378605556e-07,2.4044743430595986e-07,2.7386712326078725e-07,9.935095462535477e-06
3.1346815304972294e-07,2.416738178415641e-07,2.7430945686748446e-07,9.905038916511002e-06
3.119299112548244e-07,2.4295916814467804e-07,2.747096994707112e-07,9.870036975380777e-06
3.104839601841237e-07,2.4429833401702883e-07,2.750733659983597e-07,9.83029951966082e-06
3.0913618058214943e-07,2.4568680759422764e-07,2.754053220471284e-07,9.786066751064971e-06
3.0789085404470657e-07,2.471203560002005e-07,2.7570819041896354e-07,9.737596756023806e-06
3.067507922446705e-07,2.4859448925489933e-07,2.759825075780037e-07,9.685142054469773e-06
3.0571769757589174e-07,2.5010460377489493e-07,2.762277415142051e-07,9.628966415928907e-06
3.047929248976593e-07,2.51645433281561e-07,2.764426702727688e-07,9.56941295356981e-06
3.0397700185076606e-07,2.532098455880881e-07,2.7662533789005945e-07,9.506940619148272e-06
3.0326872354521945e-07,2.547888927370573e-07,2.7677305322980143e-07,9.44207030469487e-06
3.026652723282001e-07,2.563734640646024e-07,2.768822269808985e-07,9.375290931546345e-06
3.02162501080228e-07,2.579563384640036e-07,2.769485880993554e-07,9.306996204851144e-06
3.017550808992485e-07,2.595330033613329e-07,2.769682308880694e-07,9.237490692375716e-06
3.014373244725467e-07,2.61100325543466e-07,2.769387776613877e-07,9.167083045050427e-06
3.0120419202192347e-07,2.626549742275496e-07,2.768599129811772e-07,9.096210290875946e-06
3.0105160762380236e-07,2.6419427750828037e-07,2.7673364187548e-07,9.025479327436211e-06
3.0097664218546293e-07,2.6571826301027305e-07,2.7656446262684924e-07,8.955599436260062e-06
3.0097733502331416e-07,2.6722971109017624e-07,2.763584415083681e-07,8.887285937519725e-06
3.0105137459224784e-07,2.6873234985926505e-07,2.761216292642673e-07,8.821193701989047e-06
3.011952890473345e-07,2.70228884834152e-07,2.758593859458992e-07,8.757880742637973e-06
3.014046380091083e-07,2.7171921103602706e-07,2.7557620961966283e-07,8.697788688002525e-06
3.016736432810124e-07,2.731994814027326e-07,2.752751757574892e-07,8.641232260950751e-06
3.019956228826079e-07,2.746625975513129e-07,2.749574141916403e-07,8.588397130385038e-06
3.023658316235693e-07,2.7609912097304437e-07,2.746220835854134e-07,8.539348071723363e-06
3.0278429877119453e-07,2.774977574518819e-07,2.742668401761537e-07,8.494040918441667e-06
3.032562864996606e-07,2.7884568944143325e-07,2.7388871056541107e-07,8.452329350574589e-06
3.037909310853298e-07,2.80129287040714e-07,2.7348479914479285e-07,8.413970945210353e-06
3.0439898268729303e-07,2.81335357213724e-07,2.7305209761893175e-07,8.378641275029887e-06
3.050906473000592e-07,2.824522393939105e-07,2.7258680583148517e-07,8.345956228236964e-06
3.05874589883145e-07,2.834701523781547e-07,2.720842077858625e-07,8.315500369028477e-06
3.0675714030582207e-07,2.84381474028839e-07,2.7153970349052656e-07,8.28685550609612e-06
3.077410162904625e-07,2.8518192362424587e-07,2.709510929523098e-07,8.259619015204292e-06
3.0882470233761547e-07,2.8587227015880145e-07,2.7032080818528943e-07,8.23340761672869e-06
3.100027062778178e-07,2.8645834442677523e-07,2.6965651245348804e-07,8.207855302636485e-06
3.112661547050604e-07,2.869486324866167e-07,2.689696342924365e-07,8.182618403452272e-06
3.126040565658955e-07,2.8735224701487087e-07,2.682724807645467e-07,8.157383948618297e-06
3.1400521135769305e-07,2.876786924003522e-07,2.675761425437129e-07,8.131866515535353e-06
3.154595001531705e-07,2.879380945084774e-07,2.6688990923666483e-07,8.105794407081502e-06
3.169576661745214e-07,2.881415900340172e-07,2.6622062757942327e-07,8.078895872129257e-06
3.184899508824645e-07,2.883016699211511e-07,2.6557209432936144e-07,8.050893353705145e-06
3.2004462231827394e-07,2.884316975810284e-07,2.649452558398633e-07,8.021518086019666e-06
3.216074473207568e-07,2.88545620880225e-07,2.643387209744953e-07,7.990540057484433e-06
3.231626530792811e-07,2.886582273635977e-07,2.637490107198029e-07,7.957781543004264e-06
3.2469520676340085e-07,2.887839272063828e-07,2.6317052948074065e-07,7.923100794187038e-06
3.2619291175552894e-07,2.889342265912128e-07,2.6259602336726285e-07,7.886363632428089e-06
3.276465962891339e-07,2.8911658553377087e-07,2.62017853023574e-07,7.847426733435834e-06
3.2904918581313374e-07,2.893353282103897e-07,2.6142953202813576e-07,7.806141751751033e-06
3.303956875701945e-07,2.8959310230952036e-07,2.608276268815381e-07,7.762368114308375e-06
3.316838564187314e-07,2.8989210223003923e-07,2.602129923693847e-07,7.715994283047668e-06
3.3291386484839346e-07,2.9023481427233906e-07,2.595894194844957e-07,7.666989740659048e-06
3.3408694090022075e-07,2.9062328322110253e-07,2.5896126503945365e-07,7.6154764271328126e-06
3.352045467785809e-07,2.910571318574141e-07,2.5833273128416824e-07,7.561760921410031e-06
3.362687352026854e-07,2.9153232379628194e-07,2.577082365525011e-07,7.50629949492191e-06
3.372826365938113e-07,2.9204127773967463e-07,2.570922685024919e-07,7.449629155135753e-06
3.3825018733378174e-07,2.9257411208729656e-07,2.5648918520487773e-07,7.392295623224742e-06
3.391752723633884e-07,2.93121401872632e-07,2.5590417581953266e-07,7.334793302784967e-06
3.400606942736944e-07,2.936761481663178e-07,2.553437824729462e-07,7.277544999842015e-06
3.409072746819265e-07,2.9423256601131805e-07,2.548143117314954e-07,7.220928932147432e-06
3.417135891169949e-07,2.9478465231988203e-07,2.5431985307431175e-07,7.165316604065947e-06
3.4247641781021164e-07,2.9532705916829683e-07,2.5386134693775466e-07,7.111091944585997e-06
3.4319121382730105e-07,2.9585614953618844e-07,2.534364378729811e-07,7.058654220631851e-06
3.438524752289133e-07,2.963695716012065e-07,2.530403714199381e-07,7.008401964895114e-06
3.444545040933119e-07,2.968651699252179e-07,2.526681712863497e-07,6.960705552346121e-06
3.4499308840599327e-07,2.973403373044181e-07,2.523165267789476e-07,6.91591799262261e-06
3.454682400773573e-07,2.977917413211961e-07,2.519839839258816e-07,6.874416382044889e-06
3.4588572215729124e-07,2.9821477716948254e-07,2.516711157078219e-07,6.836597878905992e-06
3.4625515393781235e-07,2.986030087463121e-07,2.51382010487842e-07,6.802857398772088e-06
3.465864646700244e-07,2.9894823526101925e-07,2.5112468747066296e-07,6.7736163716561075e-06
3.468875300531855e-07,2.99240810239862e-07,2.509089248790792e-07,6.74934434895896e-06
3.47163507415842e-07,2.99470225619337e-07,2.507437191639648e-07,6.730517268854974e-06
3.47416921703451e-07,2.996270202399834e-07,2.506360221677749e-07,6.717559901624698e-06
3.476476623005652e-07,2.9970476389960186e-07,2.505904704108262e-07,6.710811928525648e-06
3.478528713328456e-07,2.996997021200777e-07,2.5060970603138764e-07,6.710510861893431e-06
3.480272023787879e-07,2.996094293159242e-07,2.506949608134749e-07,6.716780813260663e-06
3.481638778066645e-07,2.9943284160705444e-07,2.5084696912828644e-07,6.7296230413393485e-06
3.482562949488678e-07,2.991700843513049e-07,2.510667406820944e-07,6.7489103903422814e-06
3.482988990078566e-07,2.988213907354063e-07,2.513556407315002e-07,6.774391751644686e-06
3.4828656261437896e-07,2.983864778145557e-07,2.517157675322197e-07,6.805704832774407e-06
3.482132468171025e-07,2.9786530873962026e-07,2.52150483760057e-07,6.8423863285624564e-06
3.4807104074833014e-07,2.9725897718492407e-07,2.5266330175798204e-07,6.883878294737137e-06
3.4785037828483466e-07,2.9656964697240484e-07,2.532557939152004e-07,6.929539191129527e-06
3.475414407071779e-07,2.95799708768254e-07,2.539268542469501e-07,6.978664135593159e-06
3.4713550333804997e-07,2.949512155734824e-07,2.5467301266366647e-07,7.030515570906551e-06
3.4662501910467645e-07,2.940258690900184e-07,2.554884365279485e-07,7.0843621814352735e-06
3.4600259859348105e-07,2.9302494732637853e-07,2.563648324761183e-07,7.139513287257286e-06
3.4526025606949464e-07,2.919493739218198e-07,2.5729148601376173e-07,7.195330854840306e-06
3.443897410205182e-07,2.908004439374495e-07,2.5825554758604445e-07,7.251221152573109e-06
3.433830578028226e-07,2.895809044033398e-07,2.592432419769197e-07,7.306627920066269e-06
3.422324011485331e-07,2.8829533699471476e-07,2.602419086703507e-07,7.361035179425258e-06
3.409299773751423e-07,2.869493865742411e-07,2.6124142146981465e-07,7.4139720364962295e-06
3.394683205943428e-07,2.855487340312963e-07,2.622341925803851e-07,7.465017786298607e-06
3.378415916322018e-07,2.840986719939252e-07,2.6321474403482104e-07,7.513803845228903e-06
3.360473456495801e-07,2.826044689827556e-07,2.64179312106252e-07,7.560006723008528e-06
3.340872176566714e-07,2.810720191049676e-07,2.6512484853445105e-07,7.603339042831189e-06
3.319662895530883e-07,2.795081050756513e-07,2.6604765920826513e-07,7.64353901468362e-06
3.296917603694499e-07,2.779201710202304e-07,2.6694282485986984e-07,7.680356420487684e-06
3.272714789399338e-07,2.76315704568322e-07,2.678048431613336e-07,7.713564330126756e-06
3.2471432699083307e-07,2.7470172463804324e-07,2.6862840700202624e-07,7.7430049490528e-06
3.22032915638915e-07,2.730843387007186e-07,2.694082786856393e-07,7.76861355748996e-06
3.1924480736885237e-07,2.7146786926736715e-07,2.7013906443253997e-07,7.790382876331786e-06
3.163703521653267e-07,2.698545027454916e-07,2.708161091226253e-07,7.80830420825896e-06
3.1343017801122973e-07,2.682455545671938e-07,2.7143677874291747e-07,7.822340955919604e-06
3.10444199973874e-07,2.6664403426186556e-07,2.720001945614714e-07,7.832441522915379e-06
3.074307658817621e-07,2.650566516855009e-07,2.7250574963682053e-07,7.838552871474949e-06
3.044055913900801e-07,2.634929504704628e-07,2.729529760943824e-07,7.840618687799359e-06
3.0138191262797944e-07,2.619623846624815e-07,2.7334294421406844e-07,7.838579970812722e-06
2.983716189172705e-07,2.604729596469432e-07,2.7367871822628624e-07,7.832380776115342e-06
2.953857705920424e-07,2.590327554892195e-07,2.739644013726852e-07,7.82196695351275e-06
2.9243495182916626e-07,2.576517452089297e-07,2.742042348191357e-07,7.807274282596056e-06
2.8953036515548875e-07,2.5634120604062964e-07,2.744021542248735e-07,7.788217667237034e-06
2.866842386026923e-07,2.551112608235855e-07,2.745622846888149e-07,7.764694807408643e-06
2.83908484855645e-07,2.539691646511628e-07,2.746904564121128e-07,7.736599573617118e-06
2.812129829746303e-07,2.529197313751689e-07,2.747949337450738e-07,7.70383912329316e-06
2.786048610281178e-07,2.519667733180581e-07,2.7488563067937323e-07,7.666360467455937e-06
2.7608869310404376e-07,2.511135901687832e-07,2.749732144440537e-07,7.624174969522902e-06
2.7366713656582285e-07,2.503625388600397e-07,2.75069714390088e-07,7.5773554085318584e-06
2.7134198200089413e-07,2.497154224917455e-07,2.75190241505062e-07,7.526016155820982e-06
2.6911578771818376e-07,2.491742801035915e-07,2.753532541981589e-07,7.4703156738143585e-06
2.669931187183018e-07,2.487404740625949e-07,2.755792144691628e-07,7.4104924293890244e-06
2.6497969712607105e-07,2.4841278079516056e-07,2.758894721244955e-07,7.3468975782624195e-06
2.6307995386894933e-07,2.481867450445984e-07,2.7630447853813766e-07,7.279974462247147e-06
2.612952644941141e-07,2.48055261708676e-07,2.768406893048568e-07,7.210192769160132e-06
2.596239909585824e-07,2.480091972440772e-07,2.775089593661044e-07,7.137990894014821e-06
2.580626651244729e-07,2.480378218755037e-07,2.78315948158067e-07,7.063748630302789e-06
2.5660707190799537e-07,2.481291639308423e-07,2.7926592899430734e-07,6.9877868137201124e-06
2.5525239447380944e-07,2.4827030676047426e-07,2.803608852469769e-07,6.910376446288533e-06
2.5399246585354034e-07,2.484483754578123e-07,2.8159956033662336e-07,6.831735339769062e-06
2.5281921777614214e-07,2.486524405186535e-07,2.8297658989454146e-07,6.752022151455425e-06
2.517232338460054e-07,2.488747367850218e-07,2.8448333102691715e-07,6.671340663167127e-06
2.5069480839395465e-07,2.4911032434451535e-07,2.8611064177025927e-07,6.5897495235919074e-06
2.4972437939782484e-07,2.493558357391427e-07,2.878505025294233e-07,6.507277122586762e-06
2.4880238274020337e-07,2.496082751326627e-07,2.8969549695359697e-07,6.42393975641424e-06
2.4791951950381066e-07,2.498650893176054e-07,2.916389994072351e-07,6.3397584481359495e-06
2.470673714503859e-07,2.5012490043970307e-07,2.936759672641861e-07,6.254774545737631e-06
2.462383029844045e-07,2.5038697449036467e-07,2.958019677644444e-07,6.169061075468586e-06
2.4542461076187017e-07,2.5064988520814336e-07,2.98011574311136e-07,6.08272502512461e-06
2.446176735733588e-07,2.50911675805588e-07,3.0029781917931104e-07,5.9958968810186505e-06
2.4380770998039824e-07,2.5117152890253105e-07,3.0265192727517763e-07,5.90870899468328e-06
2.429843396627034e-07,2.514301094641272e-07,3.05063458641589e-07,5.821278661972973e-06
2.4213724241345766e-07,2.5168865904057066e-07,3.0752191864315965e-07,5.733704830350237e-06
2.412562552546591e-07,2.5195011171245234e-07,3.100186374877596e-07,5.646066035312528e-06
2.4033130609469014e-07,2.52221372764796e-07,3.125463977850439e-07,5.558414735404339e-06
2.393527620641478e-07,2.5251306404637016e-07,3.1509680819462564e-07,5.470776641479762e-06
2.383122590262015e-07,2.528367166735924e-07,3.17658183416067e-07,5.383157182576191e-06
2.372039453484157e-07,2.532024500797005e-07,3.2021587421603534e-07,5.295553337220565e-06
2.3602547382434397e-07,2.536194619326878e-07,3.227545940228441e-07,5.207967468040911e-06
2.3477771597447616e-07,2.5409784518704637e-07,3.252603974325017e-07,5.120417992424127e-06
2.334641114230701e-07,2.546477841329084e-07,3.277202814924637e-07,5.032946702936699e-06
2.3209073210609108e-07,2.552763634057975e-07,3.3012048901741925e-07,4.945618099781625e-06
2.3066584597154738e-07,2.559860533834277e-07,3.324456281491263e-07,4.8585078678384356e-06
2.2919911869006648e-07,2.567755929587177e-07,3.34678879583566e-07,4.771698455396531e-06
2.2770190912769728e-07,2.576409434955924e-07,3.3680308540299394e-07,4.6852930200723344e-06
2.2618776305904879e-07,2.58575822467776e-07,3.3880290867780625e-07,4.599429709867913e-06
2.2467156031245135e-07,2.5957227517149805e-07,3.406669048384737e-07,4.514277828335821e-06
2.2316770934454538e-07,2.606209072026928e-07,3.423874483637629e-07,4.430018754935873e-06
2.2168906911621266e-07,2.6171128840094717e-07,3.4395878750598605e-07,4.3468241795739506e-06
2.202470275827949e-07,2.628336157533909e-07,3.4537523145251104e-07,4.2648419049513355e-06
2.188515362880448e-07,2.639811721289758e-07,3.466304530271748e-07,4.184200320143827e-06
2.175108870027281e-07,2.6515156912073734e-07,3.477181074052744e-07,4.105037553482078e-06
2.1623205999616647e-07,2.663452744931636e-07,3.4863286628280713e-07,4.027537915051481e-06
2.1502199753387904e-07,2.675627070289973e-07,3.493703557255848e-07,3.951937313866134e-06
2.1388917842354138e-07,2.688026580448553e-07,3.499267979799583e-07,3.878489909174585e-06
2.1284410892306585e-07,2.700625494002477e-07,3.502999910979981e-07,3.8074540048542814e-06
2.118986269987495e-07,2.713393089572539e-07,3.5049051676145967e-07,3.7391370776024467e-06
2.1106484193397301e-07,2.726300676447628e-07,3.50501229052168e-07,3.673942074386698e-06
2.1035372940791487e-07,2.7393161826898194e-07,3.5033558212455594e-07,3.612347910811503e-06
2.0977377305129442e-07,2.752387779976755e-07,3.4999638564033605e-07,3.554842886390725e-06
2.09330072101088e-07,2.765438115716865e-07,3.4948531388840885e-07,3.501862833319487e-06
2.090238011067784e-07,2.7783775614988843e-07,3.488034849392056e-07,3.453757969305856e-06
2.088524627944884e-07,2.79112694378721e-07,3.4795323110747817e-07,3.4107873119930287e-06
2.0881124003914272e-07,2.803634045940762e-07,3.4693940549796857e-07,3.3731208747726415e-06
2.0889446772605538e-07,2.815868533108751e-07,3.4576921828123736e-07,3.3408363604368026e-06
2.090960897574677e-07,2.8278106975188543e-07,3.44451045592305e-07,3.313918783164029e-06
2.094095541622328e-07,2.839462275720589e-07,3.4299255605602486e-07,3.292269813374332e-06
2.098277807770692e-07,2.850859129863498e-07,3.4139973711229055e-07,3.2757435489185914e-06
2.10342959785876e-07,2.862054662135065e-07,3.396778905504737e-07,3.264231889855628e-06
2.109465051143091e-07,2.873095845582735e-07,3.378324173106592e-07,3.2577504915886807e-06
2.1162964680948309e-07,2.884019048546895e-07,3.358681065198994e-07,3.256432718236413e-06
2.123842790361872e-07,2.894858514297435e-07,3.337891746997789e-07,3.2604498291760257e-06
2.132034811752871e-07,2.905655010686613e-07,3.3160076769697583e-07,3.2699738664324487e-06
2.1408173230817865e-07,2.9164546557115284e-07,3.2930931017622517e-07,3.285213360311297e-06
2.150147226203395e-07,2.927295115311005e-07,3.269210523224987e-07,3.30643769286898e-06
2.1599854260391203e-07,2.9381948055224964e-07,3.244409960944979e-07,3.333946300164087e-06
2.1702884861982762e-07,2.9491523576259607e-07,3.2187307071113787e-07,3.3680197515076264e-06
2.1810059051225649e-07,2.9601472185714026e-07,3.192209713335161e-07,3.408882949245168e-06
2.1920841166291307e-07,2.9711459967550464e-07,3.164893681772892e-07,3.4566823479876937e-06
2.203472941024652e-07,2.9821249978204327e-07,3.1368511021118214e-07,3.5114723806976493e-06
2.2151293255992898e-07,2.993095638098832e-07,3.108175334955413e-07,3.5732051094947326e-06
2.227019455176126e-07,3.004106161223267e-07,3.078972649534437e-07,3.641723356148175e-06
2.2391175316638173e-07,3.015223616043999e-07,3.049348297102116e-07,3.7167611929639535e-06
2.2514017643411513e-07,3.026524544487667e-07,3.0194099680179273e-07,3.7979546931169496e-06
2.2638504320254437e-07,3.0380929574825694e-07,2.989277179825948e-07,3.884864347423704e-06
2.2764352948181982e-07,3.050013361237709e-07,2.9590740758764485e-07,3.976997861635416e-06
2.2891178234333023e-07,3.062366938327299e-07,2.92891460088703e-07,4.073813364814822e-06
2.3018514107139612e-07,3.075226767194225e-07,2.8988974654261777e-07,4.1747067913183935e-06
2.3145801490845608e-07,3.0886469266178896e-07,2.8691096304775425e-07,4.27901166926345e-06
2.327235897497966e-07,3.1026592148212037e-07,2.83963100568968e-07,4.38602402810339e-06
2.339743084414427e-07,3.117273358485021e-07,2.8105337186719444e-07,4.495038109948565e-06
2.3520292377466587e-07,3.1324699220690307e-07,2.781875331762617e-07,4.605376865284878e-06
2.364030196268383e-07,3.148198334365409e-07,2.753696655963266e-07,4.716413294871016e-06
2.3756846024123567e-07,3.164384455731831e-07,2.726033820928164e-07,4.8275835364624425e-06
2.386927355572659e-07,3.1809396852904027e-07,2.698937871093245e-07,4.93839738208349e-06
2.397693913417873e-07,3.1977748594520195e-07,2.6724822640839205e-07,5.048449785280168e-06
2.4079324579635247e-07,3.214815030992999e-07,2.646750120466403e-07,5.157416911982177e-06
2.417607225159879e-07,3.231997772241116e-07,2.621818869028435e-07,5.265023504578752e-06
2.4266929505326945e-07,3.2492572155619786e-07,2.5977621977157323e-07,5.371000528344436e-06
2.435184220166477e-07,3.266511709077627e-07,2.574658601539125e-07,5.4750580508100316e-06
2.443116566520264e-07,3.283660254093657e-07,2.5525830232980753e-07,5.576878920205011e-06
2.450564975789953e-07,3.3005896856493105e-07,2.531588979070925e-07,5.6761315905597475e-06
2.4576202883951304e-07,3.317189015162705e-07,2.5117038105041577e-07,5.772498689652828e-06
2.4643790179406034e-07,3.333353742122126e-07,2.4929333958739164e-07,5.865703993429406e-06
2.4709466972785877e-07,3.3489819618162423e-07,2.475264272330373e-07,5.955513318677654e-06
2.477425596897031e-07,3.363977569691842e-07,2.458667919995982e-07,6.041707967556708e-06
2.4838936118982694e-07,3.378251267703718e-07,2.4431083508888897e-07,6.124061127548508e-06
2.4904036680917964e-07,3.39171056393506e-07,2.4285467424264137e-07,6.20234563452468e-06
2.496996905459509e-07,3.404253996715577e-07,2.414943054164226e-07,6.2763674877858976e-06
2.503702826617487e-07,3.415775571669128e-07,2.4022536685070854e-07,6.345991672277543e-06
2.5105280987226906e-07,3.42617213645019e-07,2.3904267722307637e-07,6.411132822108382e-06
2.517453537483221e-07,3.4353583152101805e-07,2.379403087487741e-07,6.471719430795117e-06
2.524450484052147e-07,3.443286461576257e-07,2.3691197038723408e-07,6.5276612995624296e-06
2.5315098042344736e-07,3.4499490446964925e-07,2.35951044269633e-07,6.578841513915263e-06
2.5386523804277344e-07,3.455365030446697e-07,2.35050448804454e-07,6.6251477542597415e-06
2.54590531835198e-07,3.4595675125794676e-07,2.3420267699035398e-07,6.666529898020763e-06
2.5532807533698174e-07,3.46258729586921e-07,2.3339999455437488e-07,6.703028993472642e-06
2.5607931991825e-07,3.4644367463012015e-07,2.326345764454043e-07,6.734747172161016e-06
2.568496204756894e-07,3.465105323656103e-07,2.318985894401856e-07,6.7617912675446405e-06
2.576496704127317e-07,3.464558961270174e-07,2.3118430100914011e-07,6.7842372670905884e-06
2.584933735068068e-07,3.4627408227846587e-07,2.3048396791355285e-07,6.8021302942507485e-06
2.593944983044254e-07,3.459579795415382e-07,2.2978948271234197e-07,6.8154990674277325e-06
2.6036508587331337e-07,3.455004336458812e-07,2.2909207738822798e-07,6.8243632017334484e-06
2.614153895475748e-07,3.448951965919787e-07,2.28382337057828e-07,6.828750190398488e-06
2.6255358821720145e-07,3.441371350850024e-07,2.2765079146968307e-07,6.8287541573101e-06
2.6378505041874053e-07,3.4322223990828745e-07,2.268887397924712e-07,6.8246082211652476e-06
2.6511127296235736e-07,3.4214782986974824e-07,2.2608862642973505e-07,6.816692548095978e-06
2.665290617935244e-07,3.409135756483604e-07,2.2524405532132088e-07,6.80546078398935e-06
2.680307840068892e-07,3.395229862072434e-07,2.2434963500867038e-07,6.7913458864005385e-06
2.696055439125984e-07,3.379832061807634e-07,2.2340086793446842e-07,6.774709635475638e-06
2.712409425156121e-07,3.363031415681063e-07,2.2239471789666032e-07,6.755879185342893e-06
2.729246136325749e-07,3.344926258819601e-07,2.2133054679972487e-07,6.73526910631676e-06
2.7464482767359466e-07,3.3256306266702966e-07,2.2021048516399841e-07,6.713496539401511e-06
2.7639076810158274e-07,3.305280492885898e-07,2.190396120002921e-07,6.69138691349292e-06
2.781530709142845e-07,3.284035369322227e-07,2.1782629602311073e-07,6.669884886147083e-06
2.799240863934439e-07,3.2620672386421965e-07,2.1658171175666362e-07,6.649950450887186e-06
2.816974074985867e-07,3.2395366232566964e-07,2.153185094941958e-07,6.632476592443084e-06
2.8346747760409976e-07,3.216575349770625e-07,2.140502349212699e-07,6.618227999282878e-06
2.852297619579597e-07,3.1932818825388805e-07,2.127918999331109e-07,6.607802396453271e-06
2.869805872095645e-07,3.169721346389424e-07,2.1155981146086372e-07,6.601619664993563e-06
2.887162872336977e-07,3.145929848152034e-07,2.1036990650396512e-07,6.59993161724746e-06
2.90432432986994e-07,3.1219256750081356e-07,2.0923655282838732e-07,6.602837995794982e-06
2.921234627410522e-07,3.097723189448256e-07,2.081730623766461e-07,6.610301636249455e-06
2.93782744305775e-07,3.073346852354181e-07,2.0719239617964584e-07,6.622164829315268e-06
2.95403069024224e-07,3.048849391786859e-07,2.063062552670491e-07,6.6381755143725074e-06
2.969765445811194e-07,3.024324188879002e-07,2.055235643271157e-07,6.6580221085037176e-06
2.984937089700291e-07,2.999895751279422e-07,2.0485018671497053e-07,6.681361722012692e-06
2.999431986115246e-07,2.975694454961613e-07,2.042898573810138e-07,6.707840939342367e-06
3.01312079576293e-07,2.951836507758718e-07,2.0384522102330195e-07,6.737122655364977e-06
3.0258630223306666e-07,2.9284228931587273e-07,2.0351786027939414e-07,6.768909493015696e-06
3.037515145996173e-07,2.905552280807931e-07,2.0330801345972645e-07,6.802947330683882e-06
3.047941377570577e-07,2.883329505409503e-07,2.0321525796238416e-07,6.839020944965215e-06
3.057023532455286e-07,2.861858551348714e-07,2.0323875761236655e-07,6.8769531317804976e-06
3.064662671777944e-07,2.8412278745024283e-07,2.0337645174732772e-07,6.916600766086212e-06
3.070767083865613e-07,2.8215025858527304e-07,2.0362583263960572e-07,6.9578419179255e-06
3.07524129535648e-07,2.802727916593736e-07,2.03986341784518e-07,7.000547062749208e-06
3.077989365883313e-07,2.784935617080095e-07,2.044598065952537e-07,7.044539340901646e-06
3.078926782578917e-07,2.768142933085976e-07,2.050481031215422e-07,7.0895765271716325e-06
3.077989048909896e-07,2.7523472017678497e-07,2.057510956500645e-07,7.135371575240997e-06
3.075133076482065e-07,2.73752331718873e-07,2.0656716332161106e-07,7.181618943742247e-06
3.070349825204336e-07,2.72362252632067e-07,2.0749478339656209e-07,7.2279931558773e-06
3.06369355520368e-07,2.710572936964608e-07,2.0853280199219626e-07,7.27412972293331e-06
3.0552897464381306e-07,2.69828417805162e-07,2.0967996154515144e-07,7.319618209739991e-06
3.045306082291543e-07,2.6866556636802967e-07,2.1093452644459637e-07,7.364018660270912e-06
3.033923670150282e-07,2.6755898838494675e-07,2.1229369844641228e-07,7.406883949240793e-06
3.021332796701124e-07,2.6650096163949214e-07,2.1375320553511555e-07,7.4477709029719176e-06
3.007738994753792e-07,2.654865508846606e-07,2.1530745143532568e-07,7.486245181816838e-06
2.9933602687411647e-07,2.645125655845186e-07,2.1695008558162604e-07,7.521886646544537e-06
2.978416002605516e-07,2.6357684487360296e-07,2.186743009790842e-07,7.554297386199935e-06
2.9631247154422513e-07,2.626797405994295e-07,2.2047239010549107e-07,7.5831209698563186e-06
2.947717794421667e-07,2.618256887046171e-07,2.2233522955165143e-07,7.608078418700048e-06
2.932449015059036e-07,2.61022179043149e-07,2.242521672038937e-07,7.629001696217168e-06
2.9175785497075784e-07,2.6027672843636923e-07,2.262115968429211e-07,7.645826364857612e-06
2.903343757641947e-07,2.595943548955361e-07,2.2820214985105533e-07,7.658538827376601e-06
2.889939510036169e-07,2.589769850797872e-07,2.3021328218831767e-07,7.667124531724649e-06
2.877510662893125e-07,2.5842435135151895e-07,2.3223488657172352e-07,7.67155630991537e-06
2.866157113123656e-07,2.579355070121282e-07,2.3425682203709922e-07,7.671814465006905e-06
2.855948463955037e-07,2.5750990378461784e-07,2.3626871788105322e-07,7.667906351705925e-06
2.846931219685961e-07,2.57147255743117e-07,2.382601239238672e-07,7.65986653358013e-06
2.839127289692261e-07,2.5684689721601764e-07,2.402209692356567e-07,7.647749432151975e-06
2.83253954484333e-07,2.566074786603845e-07,2.4214144434553546e-07,7.631654263877996e-06
2.8271647577512896e-07,2.5642792975937386e-07,2.440114285630344e-07,7.61178405921265e-06
2.823006515414685e-07,2.563097601476034e-07,2.458212488969606e-07,7.588460753594423e-06
2.8200833764992856e-07,2.5625809079853216e-07,2.475639054664863e-07,7.562055601695246e-06
2.8184218617887576e-07,2.5627986541315943e-07,2.492369886828123e-07,7.532903703719679e-06
2.8180387163920606e-07,2.563812241031141e-07,2.508424937262515e-07,7.501274897831177e-06
2.8189437747270695e-07,2.565664245497661e-07,2.5238408482376297e-07,7.467422261947583e-06
2.8211699709968037e-07,2.5683786196883744e-07,2.538643928799149e-07,7.431702130462199e-06
2.824785134214719e-07,2.571956227988148e-07,2.552845393061888e-07,7.39469347723449e-06
2.829866883513865e-07,2.576372519555013e-07,2.566444245972614e-07,7.357214802958331e-06
2.836475694289722e-07,2.5815849692293893e-07,2.579422626817355e-07,7.320241758733988e-06
2.8446407024704466e-07,2.587543104286512e-07,2.591740895363327e-07,7.284806003309668e-06
2.8543568955829156e-07,2.594203461018394e-07,2.603342196903037e-07,7.2519129508950976e-06
2.865602079278865e-07,2.6015519823626107e-07,2.614165520265475e-07,7.2224782193116825e-06
2.878355489560296e-07,2.6096129759699297e-07,2.624156848772218e-07,7.197285266672066e-06
2.892602197843875e-07,2.6184312506149075e-07,2.633268266442927e-07,7.176963187477881e-06
2.9083332127388603e-07,2.6280486787126807e-07,2.641448068644286e-07,7.161974534776808e-06
2.925537299624647e-07,2.638492485847092e-07,2.648633143886868e-07,7.152607108369608e-06
2.9441862941558863e-07,2.649771826010093e-07,2.6547494688968847e-07,7.148975345402832e-06
2.9642297295540005e-07,2.661882125372444e-07,2.659718035764814e-07,7.151039767698792e-06
2.985594027803343e-07,2.674813347152531e-07,2.6634615654218614e-07,7.158643697847418e-06
3.008178540248689e-07,2.6885501325533327e-07,2.6659129247499525e-07,7.1715557054029435e-06
3.0318538534693177e-07,2.703062051799197e-07,2.667023469437073e-07,7.189508581099512e-06
3.056463325479075e-07,2.718292970921178e-07,2.666764842741123e-07,7.21223548727366e-06
3.0818275091950357e-07,2.734157040474055e-07,2.665125048242002e-07,7.239504502669814e-06
3.107754009511538e-07,2.750547502478364e-07,2.6621046031074947e-07,7.271140124899026e-06
3.134047040367621e-07,2.767353909388701e-07,2.657715363714946e-07,7.307022048249486e-06
3.160511422207853e-07,2.7844709560347837e-07,2.651977441268482e-07,7.3470780707167286e-06
3.186951041716962e-07,2.8017977539573013e-07,2.6449133808397997e-07,7.391288296880354e-06
3.213163466748137e-07,2.8192343550913683e-07,2.6365474053216253e-07,7.439683484199893e-06
3.238939176991641e-07,2.8366725107601446e-07,2.62690948830974e-07,7.492314275737325e-06
3.264066695366819e-07,2.853987585204677e-07,2.616037069997465e-07,7.5492014274361845e-06
3.2883376094118965e-07,2.871043618671733e-07,2.6039698079242413e-07,7.6102915768287766e-06
3.311557800644532e-07,2.8877069801159763e-07,2.590739610317989e-07,7.675431906437124e-06
3.333566836501499e-07,2.903852193820412e-07,2.576365382726334e-07,7.744376188441437e-06
3.3542453599009253e-07,2.919356572355294e-07,2.560858418138529e-07,7.81681386405415e-06
3.3735008929460806e-07,2.934100257669101e-07,2.544235560444005e-07,7.892384834560908e-06
3.391254631667739e-07,2.947975101848768e-07,2.526528403480259e-07,7.970674184187894e-06
3.4074469380605185e-07,2.960888798326086e-07,2.5077812506560816e-07,8.051217558862042e-06
3.422047773697711e-07,2.972762953643369e-07,2.488047024367031e-07,8.13352993551365e-06
3.4350507997574656e-07,2.983529740682259e-07,2.467389853943288e-07,8.21713840249471e-06
3.446459105056635e-07,2.993127062200796e-07,2.4458917511397646e-07,8.301585004185643e-06
3.456286753710876e-07,3.001494041518476e-07,2.4236534423254963e-07,8.386402979910111e-06
3.46456837271562e-07,3.008572148311586e-07,2.400784093451266e-07,8.471117499190659e-06
3.47135531135478e-07,3.0143203515579127e-07,2.3773907760495768e-07,8.555275360783071e-06
3.4767027567877174e-07,3.018734906377312e-07,2.353575218110025e-07,8.638448366250141e-06
3.4806693091809965e-07,3.0218513633456824e-07,2.3294331798227767e-07,8.720199728996459e-06
3.4833375159255386e-07,3.023733390125926e-07,2.3050583100597405e-07,8.80005155274899e-06
3.484826075668395e-07,3.0244578783038174e-07,2.2805542271232647e-07,8.877472710231737e-06
3.4852750362093297e-07,3.0240965366724346e-07,2.256046542093938e-07,8.951893033477297e-06
3.484828525524478e-07,3.0227094169873097e-07,2.2316810497258587e-07,9.022750264558653e-06
3.4836226014204586e-07,3.020349090046415e-07,2.2076113648055447e-07,9.089549062805271e-06
3.481771225132948e-07,3.017061600180289e-07,2.1840020211279717e-07,9.151890317426551e-06
3.47937099921172e-07,3.012893931411566e-07,2.161047911511137e-07,9.209456826606502e-06
3.476531994411353e-07,3.007909991485385e-07,2.1389688955458497e-07,9.261974420229367e-06
3.473396731271419e-07,3.002198855858773e-07,2.1179720494264775e-07,9.309179524988396e-06
3.470122945376062e-07,2.995870470254859e-07,2.0982259116326805e-07,9.350842951077521e-06
3.466854778662439e-07,2.989046460276585e-07,2.079861462319075e-07,9.386865620460837e-06
3.463705639824729e-07,2.981849633303232e-07,2.0629784641328406e-07,9.417345580334094e-06
3.4607515876839674e-07,2.9743930656487973e-07,2.047654309358988e-07,9.442523728564608e-06
3.4580289411317075e-07,2.966779770547872e-07,2.033958505926784e-07,9.462696175787464e-06
3.4555341964431126e-07,2.95911575863842e-07,2.021959358512053e-07,9.478194684978765e-06
3.45323101658045e-07,2.951513141194438e-07,2.0117181787858653e-07,9.489380050681903e-06
3.4510643614516285e-07,2.944075306823957e-07,2.0032847124310447e-07,9.496596078993809e-06
3.448975562958493e-07,2.9368913321060146e-07,1.996695749358512e-07,9.500118684468422e-06
3.4469067526051177e-07,2.930050946898306e-07,1.991965945882832e-07,9.500132507480908e-06
3.444788592586948e-07,2.9236669840794674e-07,1.9890799858843815e-07,9.496737989947883e-06
3.442528914756644e-07,2.917894318399939e-07,1.9880032758720625e-07,9.489969796122848e-06
3.440017906223628e-07,2.91292594987712e-07,1.9887072010398703e-07,9.479804971920738e-06
3.4371488724811267e-07,2.9089595950620817e-07,1.991194351606578e-07,9.466162112943773e-06
3.433845518681644e-07,2.906161754151848e-07,1.9955042998383912e-07,9.448903393451444e-06
3.4300782384860397e-07,2.9046503451716625e-07,2.00168917560874e-07,9.427842959481262e-06
3.425856119551302e-07,2.904498423739057e-07,2.0097828167523087e-07,9.402761444289038e-06
3.421198965760387e-07,2.9057514317519067e-07,2.0197880671901807e-07,9.373429327882393e-06
3.4161214066113e-07,2.908438457812181e-07,2.0316765960398983e-07,9.339636797956896e-06
3.410656969747161e-07,2.912570030335495e-07,2.0453903280812921e-07,9.301215047609704e-06
3.404886592326417e-07,2.918134276381981e-07,2.0608414400878545e-07,9.258033747861414e-06
3.3989241800789106e-07,2.925105376911795e-07,2.07791334646962e-07,9.209981733701863e-06
3.392880321664843e-07,2.9334653428205137e-07,2.0964673695294732e-07,9.156950110767742e-06
3.38683888688154e-07,2.94321518740285e-07,2.1163574219802338e-07,9.098823969059547e-06
3.3808455641333517e-07,2.954362094760272e-07,2.137446647583089e-07,9.035480489938368e-06
3.3749043258161715e-07,2.966909656132994e-07,2.159614599201067e-07,8.966794050581396e-06
3.3689801842503517e-07,2.980864690485768e-07,2.1827601442181157e-07,8.892652351551972e-06
3.363008347353514e-07,2.9962347653128573e-07,2.206807560133472e-07,8.812981754095354e-06
3.356915659774597e-07,3.013007865715865e-07,2.2317005295911056e-07,8.727764440060617e-06
3.350640505277151e-07,3.031134001763352e-07,2.2573803743020428e-07,8.637032599067746e-06
3.3441305071601144e-07,3.050519540699214e-07,2.2837713979680681e-07,8.540848026266232e-06
3.337329645806821e-07,3.071033773888056e-07,2.3107790661275936e-07,8.439284676526025e-06
3.3301723905102065e-07,3.092521494759304e-07,2.338291528260427e-07,8.332422706152227e-06
3.322582860425476e-07,3.11481363478415e-07,2.366191530821135e-07,8.220359451734248e-06
3.314480911790028e-07,3.13773628018807e-07,2.394374411985736e-07,8.103241373044838e-06
3.3057989058450034e-07,3.161115313997645e-07,2.422749151594456e-07,7.981293990062182e-06
3.296497396831517e-07,3.184769992233293e-07,2.451224170618523e-07,7.854817395280838e-06
3.286561437194701e-07,3.208508488719198e-07,2.4796961935560175e-07,7.724169660236131e-06
3.275979637949339e-07,3.232148476299173e-07,2.5080466588552364e-07,7.589771236520906e-06
3.2647349884301237e-07,3.255553303998837e-07,2.5361459234885924e-07,7.45210233885558e-06
3.2528198459094784e-07,3.2786405248978786e-07,2.563863323234784e-07,7.3116745154821225e-06
3.240247709707401e-07,3.301351615778709e-07,2.591070301010464e-07,7.169003270992357e-06
3.2270459857366164e-07,3.323623390867103e-07,2.6176370083803985e-07,7.024586834765695e-06
3.213250615211368e-07,3.3453821907251674e-07,2.64343918140786e-07,6.878887186786777e-06
3.198912256420836e-07,3.366554851848381e-07,2.6683715433487805e-07,6.732340418744632e-06
3.1840989058557217e-07,3.387090592000807e-07,2.692348561152991e-07,6.585401966391846e-06
3.168885771398529e-07,3.406964202846022e-07,2.7152955650497264e-07,6.43858968095953e-06
3.1533411595607034e-07,3.426156573471689e-07,2.737148743396981e-07,6.292500262532618e-06
3.137525802487001e-07,3.44465572565666e-07,2.75785769709426e-07,6.147795618947916e-06
