5.731783375036046e-07,1.7476574287954518e-06,6.156786585953095e-07,8.158316899773006e-06
5.69682613697331e-07,1.7566765160810913e-06,6.159309871891414e-07,8.321165629839678e-06
5.668824699862596e-07,1.7648845026072076e-06,6.163710374328706e-07,8.47598885477958e-06
5.647651534772515e-07,1.7722581873042583e-06,6.170028099687676e-07,8.62228467950509e-06
5.633142754295884e-07,1.7787653888124889e-06,6.178256520309465e-07,8.759715109028104e-06
5.62509569987667e-07,1.7843674348234435e-06,6.188332984202606e-07,8.888135564434827e-06
5.623272820970546e-07,1.7890224707892915e-06,6.200146435394167e-07,9.007543629388437e-06
5.627410285829768e-07,1.7926881079119252e-06,6.21354459405923e-07,9.117981508843789e-06
5.63723706262665e-07,1.7953211294577274e-06,6.22833105681076e-07,9.219466833865577e-06
5.652521938139301e-07,1.7968759577963658e-06,6.244280383764753e-07,9.31197585204242e-06
5.673095629570565e-07,1.79730483328624e-06,6.261171456178307e-07,9.395452237313418e-06
5.698812897981696e-07,1.7965602697459614e-06,6.278804831033387e-07,9.469823329196692e-06
5.729528505977914e-07,1.7945982638170241e-06,6.296998891122636e-07,9.535025390204183e-06
5.765136178459373e-07,1.791380843101013e-06,6.315583335674599e-07,9.591062377393458e-06
5.80561519215259e-07,1.78688159559706e-06,6.334383939027528e-07,9.638103161626876e-06
5.851039412486288e-07,1.7811006938903786e-06,6.353199643766467e-07,9.676531712069087e-06
5.901546630834997e-07,1.7740852534160804e-06,6.371795327250994e-07,9.706884949068808e-06
5.957273081875983e-07,1.7659373794487111e-06,6.389908858274732e-07,9.729742222671956e-06
6.018310635892673e-07,1.756798642869051e-06,6.407257515500196e-07,9.745646234377895e-06
6.084734142067222e-07,1.7468211536091987e-06,6.423547043580172e-07,9.755091354758155e-06
6.1566543543718e-07,1.7361445854996743e-06,6.438490552191619e-07,9.758614075735355e-06
6.234255969037914e-07,1.7248870784937348e-06,6.451828255556141e-07,9.756935432465813e-06
6.31782619260174e-07,1.7131454837510712e-06,6.463329172875543e-07,9.75101019306043e-06
6.407756772836675e-07,1.7010029475520068e-06,6.472773454261554e-07,9.741942310158953e-06
6.504477425790114e-07,1.6885452777352763e-06,6.479933711197429e-07,9.73086963170043e-06
6.608338338609493e-07,1.675879172094429e-06,6.484568052304493e-07,9.718891587995644e-06
6.719560070372e-07,1.6631422791032708e-06,6.486422829581195e-07,9.7070296164828e-06
6.838311282257022e-07,1.6505038117615602e-06,6.485242870187814e-07,9.696191579842827e-06
6.964794593158478e-07,1.6381588522239183e-06,6.480792888454523e-07,9.687130778735355e-06
7.099217562050625e-07,1.6263167878918012e-06,6.472874259915203e-07,9.680414643852513e-06
7.241683273045219e-07,1.6151839255029796e-06,6.461318328709765e-07,9.676420055064191e-06
7.392107951022545e-07,1.6049441561888834e-06,6.445985217871369e-07,9.675345684963998e-06
7.550215768575777e-07,1.595744263511446e-06,6.426800334649274e-07,9.67722224524353e-06
7.715571942720199e-07,1.587687776623993e-06,6.403793288142018e-07,9.681921610542592e-06
7.887607367728906e-07,1.5808360489919324e-06,6.377084819584164e-07,9.689173215836424e-06
8.065649383753926e-07,1.5752129827576043e-06,6.34683824221128e-07,9.698586807277404e-06
8.248976126839903e-07,1.570812830534185e-06,6.313233716043218e-07,9.709681700647596e-06
8.43686604188043e-07,1.5676121440356125e-06,6.276467228396774e-07,9.721925110225567e-06
8.628609582645435e-07,1.565579705012382e-06,6.236736464448715e-07,9.734765716376307e-06
8.823490925836618e-07,1.564676218795386e-06,6.194221254028575e-07,9.747643377624617e-06
9.020777047379736e-07,1.5648496872860028e-06,6.149091579546332e-07,9.759991740843203e-06
9.219716822527435e-07,1.5660407538637803e-06,6.101528340272697e-07,9.771267782896264e-06
9.419517535513685e-07,1.5681998494537122e-06,6.051716892603367e-07,9.780999189865378e-06
9.619309370921527e-07,1.5713053130969044e-06,5.999821763894688e-07,9.788808445531824e-06
9.81814652464544e-07,1.5753745203562437e-06,5.945982917606201e-07,9.794396928121896e-06
1.0015057926764792e-06,1.5804662592169027e-06,5.890338812270545e-07,9.79750457009439e-06
1.0209112994362699e-06,1.586671922640091e-06,5.833050763309804e-07,9.79787394883658e-06
1.0399456913393964e-06,1.5940939717670666e-06,5.774324464109553e-07,9.795248535185574e-06
1.0585298027732026e-06,1.6028228419050844e-06,5.714446220203118e-07,9.789395128648758e-06
1.0765875518224311e-06,1.6129292872549538e-06,5.653818409053484e-07,9.780105390963471e-06
1.0940441951021316e-06,1.6244672931436804e-06,5.592959236691797e-07,9.767171823118706e-06
1.1108262618829693e-06,1.6374691861672424e-06,5.532468403255065e-07,9.750366319861063e-06
1.1268635271568041e-06,1.6519350237403685e-06,5.472971390644159e-07,9.729429448602032e-06
1.1420937599821628e-06,1.6678286757542764e-06,5.415069508997835e-07,9.704076079594307e-06
1.156466103069691e-06,1.685079259530324e-06,5.359352592570168e-07,9.674029517247153e-06
1.1699385339031477e-06,1.7035840754627566e-06,5.306465682809089e-07,9.639070834169886e-06
1.182471722143402e-06,1.7232140890907482e-06,5.257144349428051e-07,9.599070093907567e-06
1.1940257936150437e-06,1.7438189468281653e-06,5.212166947180098e-07,9.553994004902853e-06
1.2045642166863155e-06,1.7652290770405925e-06,5.172252779861418e-07,9.503909744020697e-06
1.2140618261823312e-06,1.7872581164998902e-06,5.137989602047358e-07,9.448996951311703e-06
1.2225086223019144e-06,1.809708080801616e-06,5.109838427353941e-07,9.389568605443677e-06
1.2299054151361999e-06,1.8323766967802761e-06,5.088179155333887e-07,9.326072309806663e-06
1.2362557723206759e-06,1.8550646795393143e-06,5.073345532182208e-07,9.259036388222095e-06
1.241560345900586e-06,1.8775788572567769e-06,5.065617934430857e-07,9.188986280909911e-06
1.2458166191600444e-06,1.8997293481507259e-06,5.065172106328264e-07,9.11639770992218e-06
1.249023068599341e-06,1.9213253543443714e-06,5.072033512073775e-07,9.041705733591e-06
1.2511821428906708e-06,1.942175271971046e-06,5.086087494800492e-07,8.965330782547115e-06
1.2522984501669556e-06,1.962090420593248e-06,5.107144467650856e-07,8.887690200600232e-06
1.2523756731268504e-06,1.9808884935240987e-06,5.135000885794903e-07,8.809195050077811e-06
1.251416050675619e-06,1.9983972560933875e-06,5.169435519007525e-07,8.730263567392157e-06
1.2494217447075128e-06,2.014459456874194e-06,5.210184608961757e-07,8.651383482537668e-06
1.246396501105998e-06,2.028935230142379e-06,5.256976715849297e-07,8.573164201194383e-06
1.2423467085030874e-06,2.0417000563760992e-06,5.309591929855869e-07,8.496294608183199e-06
1.237281644645845e-06,2.052642587953223e-06,5.367861812467853e-07,8.421446697473137e-06
1.231215071354732e-06,2.0616682657742543e-06,5.431617684077418e-07,8.349205388908564e-06
1.2241712521565632e-06,2.068707072847534e-06,5.500642594013593e-07,8.280058147524505e-06
1.2161949933142984e-06,2.0737175749209016e-06,5.574645707614054e-07,8.214485950289194e-06
1.2073587892199884e-06,2.0766855894350985e-06,5.653266682699703e-07,8.153118989062372e-06
1.1977577303537974e-06,2.077619599448345e-06,5.736112735087817e-07,8.096804704431143e-06
1.1874941442390058e-06,2.076544888531884e-06,5.822790066848909e-07,8.046534865208671e-06
1.176668151178112e-06,2.073502803297974e-06,5.912898153449343e-07,8.003333149146934e-06
1.165382887084077e-06,2.068557099771146e-06,6.006003994766465e-07,7.968177451199257e-06
1.153753048152433e-06,2.061801447306679e-06,6.101622111987628e-07,7.941952592634038e-06
1.1419042809216475e-06,2.053364690668803e-06,6.199221751991649e-07,7.925417367265782e-06
1.1299651741460216e-06,2.043408752720439e-06,6.29826548055783e-07,7.919182074802065e-06
1.1180594916566285e-06,2.03211587062482e-06,6.398237094324299e-07,7.92370238380461e-06
1.1063047778103214e-06,2.0196850061379376e-06,6.49863109742566e-07,7.93928311976517e-06
1.0948195366135564e-06,2.0063531739948557e-06,6.598931756665025e-07,7.966066338445521e-06
1.083731002369438e-06,1.9924143621477124e-06,6.698601920394418e-07,8.003999272636638e-06
1.0731712980349441e-06,1.9782042601231664e-06,6.797077632668334e-07,8.052814486541336e-06
1.0632632156243894e-06,1.96406027877192e-06,6.893774899608196e-07,8.112044860808586e-06
1.0541093563067094e-06,1.9502907160517605e-06,6.988116267128963e-07,8.18106253640104e-06
1.0457902352231494e-06,1.937170063493984e-06,7.079562958654401e-07,8.259132740348786e-06
1.0383649799024679e-06,1.924948062587761e-06,7.16762352464776e-07,8.345482718338711e-06
1.031871802059239e-06,1.9138549198380333e-06,7.251838553159717e-07,8.439361211192211e-06
1.0263308404685455e-06,1.9040960290602672e-06,7.331770282104706e-07,8.540056188029692e-06
1.021749135617874e-06,1.895843687638675e-06,7.406998708410233e-07,8.646883674859442e-06
1.0181255990575384e-06,1.8892415018055245e-06,7.477121445060738e-07,8.759181695626616e-06
1.0154535173291863e-06,1.884422900745956e-06,7.5417825134161e-07,8.876308878373023e-06
1.0137190147621857e-06,1.8815291099588798e-06,7.600711821606932e-07,8.997639870800448e-06
1.012898699962126e-06,1.8807108174871208e-06,7.653728121199834e-07,9.122570125792876e-06
1.01295912004784e-06,1.8821153846438603e-06,7.700711875457819e-07,9.25052379055436e-06
1.0138565649690092e-06,1.885894754887768e-06,7.741570386467543e-07,9.380938871217121e-06
1.01553923005296e-06,1.892249712103648e-06,7.776209874904403e-07,9.513238938409774e-06
1.01795253623351e-06,1.901460405328266e-06,7.804541638004695e-07,9.64682566673511e-06
1.0210406395411257e-06,1.913859652324179e-06,7.8265243852909e-07,9.78108925391371e-06
1.0247431952023977e-06,1.929768631335775e-06,7.842214477721226e-07,9.915413156969566e-06
1.028995954012883e-06,1.949436813203725e-06,7.851786081563259e-07,1.0049174983300102e-05
1.0337364664422347e-06,1.973011105867638e-06,7.855499877302066e-07,1.0181752146467336e-05
1.0389078339443213e-06,2.000533980493756e-06,7.853664204402341e-07,1.0312526606517348e-05
1.044458542453687e-06,2.0319552758936133e-06,7.846629974211645e-07,1.0440891030473778e-05
1.0503406253846872e-06,2.0671493864534115e-06,7.834775026173027e-07,1.056628104822085e-05
1.0565054024559526e-06,2.105937496954021e-06,7.818450701873265e-07,1.0688226998525616e-05
1.0628982752550078e-06,2.1481087908280583e-06,7.797947463385099e-07,1.0806379722326453e-05
1.0694571930001513e-06,2.193432148976332e-06,7.773520978667152e-07,1.092050018076058e-05
1.0761137374553102e-06,2.241658325140873e-06,7.74543727860769e-07,1.1030425605266016e-05
1.082793647108937e-06,2.292519505522547e-06,7.713974300669356e-07,1.1136016768757742e-05
1.089418100111015e-06,2.345732869934e-06,7.679397008757413e-07,1.1237105697752237e-05
1.095906678367983e-06,2.4010110053246537e-06,7.641959007619704e-07,1.1333462129376802e-05
1.1021805384687209e-06,2.4580755344361743e-06,7.601913806201197e-07,1.1424787105344965e-05
1.108165511094927e-06,2.5166626015861177e-06,7.559509589234029e-07,1.151074563827908e-05
1.1137949501813802e-06,2.5765115931245882e-06,7.514991511992422e-07,1.1591022951047285e-05
1.119010436876461e-06,2.6373457690053355e-06,7.468624006049094e-07,1.1665356876413494e-05
1.1237591278852036e-06,2.6988633495206454e-06,7.420707851283313e-07,1.173352782040684e-05
1.127989464336956e-06,2.760746658099985e-06,7.371572830839048e-07,1.179532958224977e-05
1.1316490638957376e-06,2.82268044488102e-06,7.321582652172864e-07,1.1850565588109794e-05
1.134686307591532e-06,2.8843639639989014e-06,7.271181576408937e-07,1.1899092015096594e-05
1.1370522803184069e-06,2.9455096051138933e-06,7.220918131039451e-07,1.194085416079622e-05
1.1387006741952205e-06,3.005838012368748e-06,7.171390833493137e-07,1.1975888875801695e-05
1.1395887719527106e-06,3.065085755437956e-06,7.123159307206245e-07,1.2004328094632375e-05
1.139682910565916e-06,3.1230234757008615e-06,7.076683721813861e-07,1.2026387534116161e-05
1.138965811437241e-06,3.1794647715082355e-06,7.032313572903529e-07,1.2042320216170795e-05
1.1374395070696828e-06,3.234257065275842e-06,6.990308738957522e-07,1.205236644361854e-05
1.1351209604714394e-06,3.287263993468374e-06,6.950861581611404e-07,1.205672869730798e-05
1.132033092769275e-06,3.338350082125516e-06,6.91412209704051e-07,1.2055575326680154e-05
1.1281970739947658e-06,3.387374415398131e-06,6.880259413392753e-07,1.2049048848872216e-05
1.1236292461636655e-06,3.434195599387225e-06,6.849539069071255e-07,1.2037250134287994e-05
1.118341086835833e-06,3.4786790885922867e-06,6.822347163856525e-07,1.2020208717779166e-05
1.1123406316770498e-06,3.5206952891798227e-06,6.799144826885272e-07,1.1997870544546386e-05
1.105634754100462e-06,3.560111578606807e-06,6.780384572516042e-07,1.1970107175822342e-05
1.0982304016906986e-06,3.5967892955537184e-06,6.766425796261496e-07,1.19367304262225e-05
1.0901345391900551e-06,3.630586214580227e-06,6.757487131195074e-07,1.1897505665909135e-05
1.0813548059306734e-06,3.6613573444272803e-06,6.753644226103671e-07,1.1852166056078933e-05
1.0719010489182422e-06,3.688953605249698e-06,6.75484700929903e-07,1.1800431510567455e-05
1.0617870237613371e-06,3.713223414889319e-06,6.760933184257365e-07,1.1742037500505941e-05
1.0510339417717971e-06,3.7340175140086236e-06,6.771639507717418e-07,1.1676769627427126e-05
1.0396775724623423e-06,3.7511949569654093e-06,6.786622954478522e-07,1.1604483123714533e-05
1.0277775363542198e-06,3.764631962417198e-06,6.805497161098605e-07,1.1525097093360188e-05
1.015424001706613e-06,3.774234462764039e-06,6.827879784000516e-07,1.1438580000414878e-05
1.0027370401373337e-06,3.7799496477382623e-06,6.85342611048189e-07,1.1344941870410048e-05
9.898598421581386e-07,3.7817678299364386e-06,6.881819540596393e-07,1.1244230490494943e-05
9.769508443092286e-07,3.779712741971405e-06,6.912748081716987e-07,1.1136526926952373e-05
9.641759030663108e-07,3.773835676359543e-06,6.945942022852256e-07,1.1021942479783146e-05
9.516979378212566e-07,3.7642242008502623e-06,6.981266310475246e-07,1.090061893401239e-05
9.396652998633169e-07,3.7510108884393813e-06,7.018769277936232e-07,1.0772733988360587e-05
9.282058323380057e-07,3.734365594399898e-06,7.058641370968306e-07,1.06385105388214e-05
9.174284202701496e-07,3.7144742310722777e-06,7.101122520122469e-07,1.0498220579592732e-05
9.074248620770469e-07,3.6915207598020273e-06,7.146404300340609e-07,1.0352173385100121e-05
8.982694834168982e-07,3.6656843251622145e-06,7.194559134998754e-07,1.0200697936862759e-05
8.900202426913082e-07,3.6371452582999305e-06,7.245515463314613e-07,1.0044153154295165e-05
8.827212718034758e-07,3.6060884606816567e-06,7.299068801847874e-07,9.88295616495988e-06
8.764054967228785e-07,3.5727003401928407e-06,7.354904159782721e-07,9.717567765353689e-06
8.710986556244731e-07,3.5371613639346093e-06,7.412614149969457e-07,9.548437889083144e-06
8.668250504756928e-07,3.499642382617744e-06,7.47171755435868e-07,9.375977000117904e-06
8.636138332466259e-07,3.460310651207292e-06,7.531700533231658e-07,9.200575849236335e-06
8.615039752856881e-07,3.419340246109706e-06,7.592071485400872e-07,9.022656055011207e-06
8.605455715918141e-07,3.376917399304529e-06,7.652383669273885e-07,8.842718861739059e-06
8.607968052352301e-07,3.333235016418932e-06,7.712214956804614e-07,8.661340656283505e-06
8.623166438963238e-07,3.288480780330328e-06,7.771137029577505e-07,8.47911002521792e-06
8.65153802863604e-07,3.2428345801997094e-06,7.82869837880879e-07,8.296568956969144e-06
8.693381265906841e-07,3.19648175648433e-06,7.884429437269444e-07,8.114213954524769e-06
8.748824756098622e-07,3.1496262664599394e-06,7.937867128116922e-07,7.932559214909339e-06
8.817920184749691e-07,3.1024865761669836e-06,7.988570089557443e-07,7.752207001917468e-06
8.900684548261186e-07,3.055275985548749e-06,8.036104613088867e-07,7.573853820732356e-06
8.997044823493894e-07,3.0081817642322456e-06,8.080038282736605e-07,7.398224162940683e-06
9.106759982685343e-07,2.9613539440841772e-06,8.119978221501373e-07,7.225996631452597e-06
9.229386992642205e-07,2.9149042080783423e-06,8.155638186783882e-07,7.0577794196001554e-06
9.364285387400944e-07,2.8689107049778937e-06,8.186900838074718e-07,6.894118388798932e-06
9.51064885989205e-07,2.8234273565048766e-06,8.213830828219569e-07,6.73548896047839e-06
9.667560721160557e-07,2.7784973641242453e-06,8.236616024554587e-07,6.582270764188603e-06
9.834042629985135e-07,2.7341664792243334e-06,8.255509564469731e-07,6.434739378501028e-06
1.0009077232236141e-06,2.6904905181887355e-06,8.270845406693656e-07,6.293109872324462e-06
1.0191617105136557e-06,2.6475347669152324e-06,8.283079448927509e-07,6.1576453676473645e-06
1.038057673193963e-06,2.6053648786633474e-06,8.292780623632725e-07,6.0287593558672896e-06
1.0574803344501845e-06,2.564033612551057e-06,8.30055715196621e-07,5.90700449078506e-06
1.0773065534603478e-06,2.523571908948745e-06,8.306953836448404e-07,5.7929609826985874e-06
1.09740854762179e-06,2.483988991584964e-06,8.312389139388298e-07,5.687130770728961e-06
1.1176575703624195e-06,2.445281264791597e-06,8.317176880455849e-07,5.589910365156001e-06
1.137924742214267e-06,2.4074486615400663e-06,8.321614504912195e-07,5.501673040484283e-06
1.1580814635343255e-06,2.37051421762564e-06,8.32606837512479e-07,5.422903107607644e-06
1.178001419337454e-06,2.334536420899035e-06,8.330980311268866e-07,5.354237966593905e-06
1.1975617138304844e-06,2.299606497207126e-06,8.336801206070853e-07,5.2963730428883276e-06
1.2166414187403392e-06,2.265836432294063e-06,8.343927990029253e-07,5.249929954072885e-06
1.2351198220836396e-06,2.2333480085303828e-06,8.352686723899044e-07,5.2153805537564124e-06
1.2528762852561408e-06,2.202264949518689e-06,8.363376904846356e-07,5.193035897295483e-06
1.2697917438992808e-06,2.172705747134288e-06,8.376349456183514e-07,5.183060079041031e-06
1.2857525204561035e-06,2.1447766138357902e-06,8.392012782244923e-07,5.185477108152361e-06
1.3006553641575676e-06,2.118565326013709e-06,8.410736029226664e-07,5.200171006348896e-06
1.3144096903406723e-06,2.0941362379914737e-06,8.432747571214348e-07,5.226893346198714e-06
1.326936464917461e-06,2.0715258723397566e-06,8.458099946269304e-07,5.265282472564164e-06
1.3381677624327558e-06,2.0507398962004554e-06,8.48668804840063e-07,5.314879427773967e-06
1.3480470088224329e-06,2.031756660677861e-06,8.51827963784281e-07,5.3751262428506274e-06
1.3565262961161815e-06,2.014538952905768e-06,8.552534072348949e-07,5.445359217065268e-06
1.3635626880107388e-06,1.9990442784872084e-06,8.589016474162991e-07,5.524818419795405e-06
1.3691185774455062e-06,1.9852267018875235e-06,8.627237070585257e-07,5.612670033156476e-06
1.3731647651884142e-06,1.973037518631267e-06,8.66673675994273e-07,5.70802869961758e-06
1.3756803993067222e-06,1.962430778288097e-06,8.707174380133009e-07,5.809978924465848e-06
1.3766500051288618e-06,1.9533674329227363e-06,8.74832432052479e-07,5.917594487491155e-06
1.3760633952027114e-06,1.9458147679524445e-06,8.789985936375597e-07,6.029952561871173e-06
1.3739188911792151e-06,1.939747228718364e-06,8.831908912479044e-07,6.146148161112753e-06
1.3702249146959938e-06,1.935148347135889e-06,8.873786688912834e-07,6.265311551128859e-06
1.364997905010796e-06,1.9320048237500906e-06,8.915292549730276e-07,6.386614595837674e-06
1.358258671133501e-06,1.930293062061035e-06,8.956120607424112e-07,6.5092614683721135e-06
1.350029926145048e-06,1.9299700207770666e-06,8.99599923550914e-07,6.632482142979281e-06
1.340336205677143e-06,1.930972393594883e-06,9.034676106087799e-07,6.755531153192608e-06
1.3292058879952031e-06,1.9332186188199867e-06,9.071904375860319e-07,6.877676290340814e-06
1.3166747990209831e-06,1.936614577552244e-06,9.107449134225441e-07,6.998184731902436e-06
1.3027901188380146e-06,1.9410640291571896e-06,9.14110195880804e-07,7.116319019350694e-06
1.2876112445213095e-06,1.946474664174366e-06,9.172685659432476e-07,7.2313364552076615e-06
1.2712064639058099e-06,1.9527538514210357e-06,9.202052235845205e-07,7.342491147992792e-06
1.2536490549442694e-06,1.9598031717282256e-06,9.229077959261124e-07,7.449041644996671e-06
1.235014565268435e-06,1.967522012991834e-06,9.253654927235964e-07,7.550259199930583e-06
1.2153787068625013e-06,1.97581280378271e-06,9.275674736571303e-07,7.645435921960303e-06
1.1948172065313318e-06,1.984576160046152e-06,9.295001098205204e-07,7.733898201502699e-06
1.173407133601411e-06,1.993702548930952e-06,9.311461400849443e-07,7.815029292474639e-06
1.1512271296269028e-06,2.003070951137441e-06,9.324886669674118e-07,7.888299964004217e-06
1.1283570606139544e-06,2.0125523835101554e-06,9.335167596451895e-07,7.953295358225357e-06
1.1048788490589684e-06,2.022017399535991e-06,9.342261142202382e-07,8.009723345453145e-06
1.080876877399118e-06,2.031349112093648e-06,9.346134214607872e-07,8.057418062044622e-06
1.0564367895340842e-06,2.0404551530534224e-06,9.346707476285715e-07,8.096350105280999e-06
1.0316458311284038e-06,2.049275005863432e-06,9.343853106087595e-07,8.126606239770603e-06
1.0065946309019487e-06,2.057786619016022e-06,9.337427520368328e-07,8.148336000208636e-06
9.813753777747944e-07,2.066010564851545e-06,9.327302892044218e-07,8.161737022611038e-06
9.560774792889073e-07,2.074005516451017e-06,9.313394581271284e-07,8.167098054427121e-06
9.30786845741766e-07,2.081855283560208e-06,9.295688035557327e-07,8.164836639358507e-06
9.055895743914957e-07,2.089650936275638e-06,9.27424562624789e-07,8.15549798868476e-06
8.805756519345348e-07,2.0974728859427367e-06,9.249171131541964e-07,8.139721912360543e-06
8.558390863099261e-07,2.105387545006416e-06,9.220555320502596e-07,8.118198802476879e-06
8.314742367527151e-07,2.11346414353188e-06,9.188447898859176e-07,8.091679703851413e-06
8.075703225568428e-07,2.1217876986868143e-06,9.152857929709416e-07,8.061049623756653e-06
7.842077649064558e-07,2.1304470567570687e-06,9.11376254752855e-07,8.027340515919223e-06
7.614596785107336e-07,2.139509633973413e-06,9.071120453713888e-07,7.991620708070903e-06
7.393964067827812e-07,2.149005748785122e-06,9.02488789682844e-07,7.954859699002024e-06
7.180878637040022e-07,2.1589315951542258e-06,8.975028366024057e-07,7.917869451470386e-06
6.976019149977387e-07,2.16926743410084e-06,8.921527328579973e-07,7.881353817103514e-06
6.780010261265313e-07,2.1800019075131865e-06,8.864431262875464e-07,7.84605290878357e-06
6.593398240997419e-07,2.191151106513807e-06,8.803889028038773e-07,7.812878511396553e-06
6.416633868423843e-07,2.202764219631264e-06,8.740158444947798e-07,7.782914158002639e-06
6.250052350447244e-07,2.214913224162427e-06,8.673582480003408e-07,7.757297101577783e-06
6.093860539597943e-07,2.227671021725052e-06,8.604561914013071e-07,7.737090345526605e-06
5.948137647862848e-07,2.2410882543512747e-06,8.533527436396599e-07,7.723193182353027e-06
5.81284591655066e-07,2.255178757239687e-06,8.460904403192701e-07,7.716287525477896e-06
5.68786342942994e-07,2.2699206844831503e-06,8.387091669882273e-07,7.716822190750572e-06
5.573050959532722e-07,2.2852730458881732e-06,8.312463506121486e-07,7.72503549137517e-06
5.468332029717327e-07,2.301195742097261e-06,8.237365926658614e-07,7.740994547367882e-06
5.373754498691622e-07,2.3176585048674703e-06,8.162115973992877e-07,7.764627262800052e-06
5.289513905933945e-07,2.3346332397099e-06,8.087040498626246e-07,7.795739301233199e-06
5.215906769069143e-07,2.3520766243775033e-06,8.012523366721384e-07,7.834012857302398e-06
5.153221009807716e-07,2.3699168037500723e-06,7.939003999173619e-07,7.878998527136247e-06
5.101681542596268e-07,2.388050794281361e-06,7.866932348968273e-07,7.930124673024143e-06
5.06153576783419e-07,2.4063482077270425e-06,7.796715557637594e-07,7.986732968000765e-06
5.033163669965338e-07,2.424658319403318e-06,7.728694501435556e-07,8.04813842984715e-06
5.017050208480966e-07,2.442821623623827e-06,7.663181790305319e-07,8.11370432671648e-06
5.013634582623047e-07,2.4606838468442713e-06,7.600536901159578e-07,8.182898367149852e-06
5.023171196159611e-07,2.478105821338869e-06,7.54121270441219e-07,8.25530256516597e-06
5.045679166028725e-07,2.494963355510324e-06,7.485736167395792e-07,8.330594695424878e-06
5.080954085252777e-07,2.51113878552452e-06,7.434647251482786e-07,8.408534329204898e-06
5.128599687501354e-07,2.526512577398021e-06,7.38844375641187e-07,8.488953050813443e-06
5.188074197469288e-07,2.540962471006108e-06,7.347559734125527e-07,8.571735181415245e-06
5.258737998636537e-07,2.554371162276445e-06,7.312370308619598e-07,8.656795767216795e-06
5.339876327934518e-07,2.566636035105845e-06,7.283183388242894e-07,8.744055254357138e-06
5.430697667910082e-07,2.5776714636368547e-06,7.260206481893489e-07,8.833394675677251e-06
5.530331041767691e-07,2.587401700263654e-06,7.243534238354132e-07,8.924608108580441e-06
5.637837326979778e-07,2.5957541040825922e-06,7.233190615563768e-07,9.01738090500092e-06
5.752219940447538e-07,2.602659500564144e-06,7.229180253494765e-07,9.111284751200094e-06
5.872430471945591e-07,2.6080542731524084e-06,7.231479771202723e-07,9.205781713938554e-06
5.997406891793901e-07,2.6118796769904254e-06,7.239992420216147e-07,9.300251489349962e-06
6.126155810276903e-07,2.614081581867271e-06,7.25452617271272e-07,9.394034150847227e-06
6.257820325034844e-07,2.6146119519742266e-06,7.274786176644663e-07,9.486462016165936e-06
6.391677015704515e-07,2.6134281399487963e-06,7.300371274051166e-07,9.57689042125211e-06
6.527078419537052e-07,2.6104905629068852e-06,7.33080545240707e-07,9.664739365885378e-06
6.663396073161864e-07,2.605766527791735e-06,7.365601776183134e-07,9.749511389852009e-06
6.799991987067067e-07,2.5992415179694086e-06,7.404307636473513e-07,9.830774740503483e-06
6.9362086486579e-07,2.5909261581828493e-06,7.446501476822086e-07,9.908133469730072e-06
7.071360767128696e-07,2.580849726311702e-06,7.491768657873703e-07,9.98118897254714e-06
7.204734848030999e-07,2.569047671968793e-06,7.539693562354364e-07,1.004951128062949e-05
7.33561495722829e-07,2.5555549944576885e-06,7.589861652822834e-07,1.011264983850558e-05
7.463333268455961e-07,2.5404049641445285e-06,7.641845334065166e-07,1.0170187087398014e-05
7.587328765293686e-07,2.5236272054001585e-06,7.695178407898628e-07,1.0221817554012564e-05
7.70720288359558e-07,2.5052457774427446e-06,7.749343095287501e-07,1.0267418364617813e-05
7.822750343817307e-07,2.4852810749436115e-06,7.80377580713317e-07,1.030707454330568e-05
7.93392467840697e-07,2.4637561156403524e-06,7.857879706057619e-07,1.034105606470885e-05
8.040741723485264e-07,2.440703159362333e-06,7.911034676999354e-07,1.0369766505565171e-05
8.143199620134389e-07,2.4161643883043443e-06,7.962615630098097e-07,1.039367648380082e-05
8.24127648012491e-07,2.390186305773233e-06,8.012027038395444e-07,1.0413258752151324e-05
8.334989165431469e-07,2.362816898434101e-06,8.058723731186328e-07,1.0428950083030557e-05
8.424469457233798e-07,2.334113194228566e-06,8.10219421359251e-07,1.044115698089597e-05
8.510016005027395e-07,2.304152563694626e-06,8.141938328889504e-07,1.045028418098896e-05
8.592085032613819e-07,2.273032882289629e-06,8.17747544158556e-07,1.0456731903021384e-05
8.671209945579516e-07,2.2408606844734835e-06,8.20837532053147e-07,1.0460850716452896e-05
8.74789587299156e-07,2.2077412954059617e-06,8.234287756341985e-07,1.0462894330450902e-05
8.822580281410715e-07,2.173776059821064e-06,8.254949509882468e-07,1.0462994847107234e-05
8.89568274404425e-07,2.139060678929597e-06,8.27015524180703e-07,1.046116118875564e-05
8.967655321841715e-07,2.103683204681586e-06,8.279714878890419e-07,1.0457302588242228e-05
9.038976977736687e-07,2.0677241866036444e-06,8.283438921532873e-07,1.045127042260549e-05
9.110131623720407e-07,2.031258746031648e-06,8.281153653400341e-07,1.044289410555017e-05
9.181604110569856e-07,1.9943588416132853e-06,8.272712019448046e-07,1.0431999928032131e-05
9.253876448566681e-07,1.957094373775047e-06,8.257994762863114e-07,1.0418426467566904e-05
9.327401215429424e-07,1.9195319108421603e-06,8.236931592914795e-07,1.0402040791228281e-05
9.402553207604635e-07,1.8817317557919288e-06,8.209536558735475e-07,1.0382739452557806e-05
9.479585668431109e-07,1.843747579643666e-06,8.175910331328264e-07,1.036042611327181e-05
9.558624110418228e-07,1.8056321945476384e-06,8.136206094453344e-07,1.0334982068507367e-05
9.639693131790236e-07,1.767446595683673e-06,8.090604908799915e-07,1.0306253815490118e-05
9.72273851780495e-07,1.7292637250134288e-06,8.039308526279745e-07,1.027406590780245e-05
9.807625296228878e-07,1.6911631489611397e-06,7.982526037933148e-07,1.023824564879451e-05
9.894121195137327e-07,1.6532235582699458e-06,7.920467740315471e-07,1.01986357064441e-05
9.981886101015995e-07,1.6155203985886287e-06,7.85336790299038e-07,1.0155083783236562e-05
1.00704881801473e-06,1.5781292105519072e-06,7.78150697542552e-07,1.0107424588812758e-05
1.015945454622326e-06,1.54113303734152e-06,7.705195815888797e-07,1.005547292809323e-05
1.0248342506668649e-06,1.5046309840544662e-06,7.62474622458778e-07,9.999027440348573e-06
1.0336804779193672e-06,1.4687419309403627e-06,7.540469069267545e-07,9.93787695691615e-06
1.0424631928211799e-06,1.4335984213434397e-06,7.452685834458801e-07,9.871810629019902e-06
1.0511778945252194e-06,1.399337240983813e-06,7.361719584297759e-07,9.80063338842009e-06
1.059837830887072e-06,1.3661015478040042e-06,7.267869991309069e-07,9.724177846617447e-06
1.0684705940670813e-06,1.3340532350819821e-06,7.171400064176816e-07,9.642307381765213e-06
1.0771080908180508e-06,1.303375181830014e-06,7.072541674648639e-07,9.554915198466079e-06
1.0857748369577328e-06,1.2742546817020201e-06,6.971502697042935e-07,9.461924359098641e-06
1.0944830241440258e-06,1.2468654081626906e-06,6.86846719135366e-07,9.363294671802202e-06
1.1032387252834463e-06,1.221368070902118e-06,6.763598320478443e-07,9.25903643243374e-06
1.1120556231915103e-06,1.1979264250304632e-06,6.657046049209931e-07,9.149216124173256e-06
1.120967602293795e-06,1.176714452802778e-06,6.548955022067011e-07,9.033945278624507e-06
1.1300310732504123e-06,1.1579003626596341e-06,6.439479014032444e-07,8.913368473582539e-06
1.1393141173076236e-06,1.1416273271969808e-06,6.328798035933532e-07,8.787670428097587e-06
1.1488797352817664e-06,1.1280173073413187e-06,6.217125382073401e-07,8.657107629072526e-06
1.1587726292129366e-06,1.1171928224934046e-06,6.104705982590072e-07,8.522056268218489e-06
1.1690141670957471e-06,1.1092960560987556e-06,5.9918046062048e-07,8.383045409217665e-06
1.1796049191648632e-06,1.1044957154924611e-06,5.878688229994765e-07,8.240741805788329e-06
1.1905282679942623e-06,1.1029808471998087e-06,5.765622774059037e-07,8.095891482015124e-06
1.201749960128558e-06,1.1049403947371558e-06,5.652879673346567e-07,7.949248463559886e-06
1.2132165943806102e-06,1.1105362909918465e-06,5.540729354425505e-07,7.801529076258802e-06
1.2248575303278865e-06,1.1198944759389214e-06,5.429429805517356e-07,7.65343435500858e-06
1.2365901648577094e-06,1.1331219119210176e-06,5.31923866645027e-07,7.5057298132537215e-06
1.2483256264023417e-06,1.1503234223689913e-06,5.210454869838955e-07,7.35930054099097e-06
1.2599726876473891e-06,1.1715944606848517e-06,5.103465789556482e-07,7.2151186470158295e-06
1.2714402365469184e-06,1.1969937490281569e-06,4.998762502377146e-07,7.0741441382155805e-06
1.282638158697479e-06,1.2265178048612854e-06,4.896899371554857e-07,6.937229592935327e-06
1.2934756642737005e-06,1.2600934984369751e-06,4.798417158570954e-07,6.805078902597288e-06
1.3038590658463422e-06,1.2975849176966034e-06,4.703788974708415e-07,6.678252733571676e-06
1.3136921284032868e-06,1.3388070216503806e-06,4.6134321682727383e-07,6.557186435459583e-06
1.322878794119912e-06,1.383542830090177e-06,4.527766463940225e-07,6.4422184134252475e-06
1.331325585485965e-06,1.4315558869223766e-06,4.447257848230961e-07,6.333664075560589e-06
1.3389427920675013e-06,1.4825936745284619e-06,4.372403761827752e-07,6.2319334945821625e-06
1.3456463937691071e-06,1.5363870222536143e-06,4.303674365681713e-07,6.1376016966090986e-06
1.3513615398381487e-06,1.5926506012251825e-06,4.2414598782891523e-07,6.051358495015527e-06
1.356024830439095e-06,1.6510875621671174e-06,4.186045090993896e-07,5.973888037976727e-06
1.3595828164133159e-06,1.711395420870191e-06,4.137601244018513e-07,5.905764221774902e-06
1.3619888302063364e-06,1.7732663795713012e-06,4.0961857961522297e-07,5.847421839178745e-06
1.3632015162407292e-06,1.836388010365824e-06,4.0617488110007796e-07,5.7992622363540355e-06
1.3631848919036123e-06,1.9004565633194861e-06,4.034149915656978e-07,5.7618470312635235e-06
1.361908676920662e-06,1.9651972487386348e-06,4.0131812447526004e-07,5.736000616842303e-06
1.3593495362900893e-06,2.030373729609192e-06,3.998599029157824e-07,5.722741096114327e-06
1.3554933792579808e-06,2.095780481316331e-06,3.990179109054825e-07,5.7231398244760104e-06
1.35033631665995e-06,2.1612261447154173e-06,3.987761904622333e-07,5.73820639037072e-06
1.3438841646776794e-06,2.226516295477916e-06,3.9912292096127143e-07,5.76880859771685e-06
1.3361523130382536e-06,2.291439342108936e-06,4.0004497695559576e-07,5.815612401329192e-06
1.3271656308010948e-06,2.355760879582416e-06,4.0152766289747255e-07,5.8790399227917985e-06
1.3169593358886039e-06,2.419229157697483e-06,4.035573130075421e-07,5.959247541696891e-06
1.3055797555866971e-06,2.4815850084847357e-06,4.0611911933201544e-07,6.056123199185066e-06
1.2930808732916435e-06,2.542568784124409e-06,4.091919911356964e-07,6.1692992483252295e-06
1.279518953726706e-06,2.6019232092042402e-06,4.12746998624465e-07,6.2981699784624625e-06
1.2649497302497281e-06,2.65939442512563e-06,4.1674978883576725e-07,6.4419103616719876e-06
1.2494283396736697e-06,2.7147345026248685e-06,4.2116325610836977e-07,6.599506136634806e-06
1.2330131165889357e-06,2.767706948882011e-06,4.259483280207174e-07,6.769796676336532e-06
1.215771537006351e-06,2.8180929354326048e-06,4.3106354505265685e-07,6.951524581805464e-06
1.1977807207722358e-06,2.8656953545968573e-06,4.3646502314564884e-07,7.143389802999815e-06
1.1791218996529093e-06,2.910339113194116e-06,4.421064521085186e-07,7.344096063019324e-06
1.159878027554104e-06,2.9518684652333782e-06,4.4793838045132724e-07,7.552372357141008e-06
1.1401377094437885e-06,2.9901450341933493e-06,4.5390817635175036e-07,7.766973097193793e-06
1.1199971223045856e-06,3.0250470482999816e-06,4.599615791058489e-07,7.986669372692213e-06
1.099555140166555e-06,3.0564668627590594e-06,4.660450457588835e-07,8.21023436448026e-06
1.07890961328761e-06,3.084309421825847e-06,4.7210791456142817e-07,8.436431328849523e-06
1.0581621640159596e-06,3.1084960464356534e-06,4.781035875642007e-07,8.66401344561849e-06
1.0374260793006205e-06,3.1289681875061864e-06,4.839906422112271e-07,8.891726368859876e-06
1.016826579046838e-06,3.145686482219309e-06,4.897350055557378e-07,9.118306080496867e-06
9.964907322949752e-07,3.1586349250450512e-06,4.953102469508379e-07,9.342487942146408e-06
9.76534949692662e-07,3.167835533696115e-06,5.006936855039717e-07,9.563031579622192e-06
9.570582823949115e-07,3.1733573538128808e-06,5.058623901818079e-07,9.778732671298977e-06
9.381428169478136e-07,3.175307170629905e-06,5.107929989338847e-07,9.988413993765276e-06
9.198591810935942e-07,3.173818600875088e-06,5.15463551567877e-07,1.0190927132612396e-05
9.022727001631494e-07,3.1690633244035166e-06,5.198542471743954e-07,1.0385167480900675e-05
8.85445368838802e-07,3.161276949602457e-06,5.23948421875268e-07,1.0570081429924944e-05
8.69434551498377e-07,3.1507702853488108e-06,5.277370851369672e-07,1.0744684255288504e-05
8.542914584391126e-07,3.137913830274586e-06,5.312244489471167e-07,1.0908105145216086e-05
8.400606015387055e-07,3.123105846306575e-06,5.344283816656179e-07,1.105963042135854e-05
8.267802516432729e-07,3.1067377249005573e-06,5.373753319847548e-07,1.119872576798224e-05
8.144813271630316e-07,3.089165517776167e-06,5.400932525040858e-07,1.1325046575556164e-05
8.031860992102419e-07,3.0706953431366436e-06,5.426058406743021e-07,1.143844752168607e-05
7.929147640053998e-07,3.0515870019805146e-06,5.44932109559435e-07,1.1538997738055168e-05
7.83701434929723e-07,3.032067721648445e-06,5.470921978886123e-07,1.1626979324439052e-05
7.756101959450663e-07,3.0123415882655986e-06,5.491132397557711e-07,1.1702827496050388e-05
7.687394659591128e-07,2.992588543149864e-06,5.510284726732461e-07,1.1767024642188796e-05
7.632090629754139e-07,2.9729577077793886e-06,5.528706457499028e-07,1.1820021645976739e-05
7.591368900415297e-07,2.9535646341454498e-06,5.546660662139832e-07,1.1862224529769847e-05
7.566183933911194e-07,2.9344945197213694e-06,5.564327388826239e-07,1.1894015775084155e-05
7.557158782767314e-07,2.915804816882566e-06,5.581815710855089e-07,1.1915783163591577e-05
7.564572268435449e-07,2.8975308913740965e-06,5.599178754194438e-07,1.1927943411120955e-05
7.588392250957254e-07,2.87970560721658e-06,5.61642197186407e-07,1.1930947016561627e-05
7.628316646041777e-07,2.8623852615475675e-06,5.633526557477367e-07,1.19252962504944e-05
7.683825045553228e-07,2.8456579879722527e-06,5.650495678719328e-07,1.1911584273432407e-05
7.754227690589091e-07,2.8296247589034002e-06,5.667399070837969e-07,1.1890474174488233e-05
7.838686109746113e-07,2.8143707691102996e-06,5.684402144481444e-07,1.1862606062386604e-05
7.936216760029833e-07,2.799948451363696e-06,5.70177106847093e-07,1.1828541963595066e-05
8.045696126236734e-07,2.78637312076469e-06,5.719835732221986e-07,1.1788820071326696e-05
8.165890253699769e-07,2.7736242121668856e-06,5.738957809956868e-07,1.1744101597057781e-05
8.295549135065416e-07,2.761649614359786e-06,5.759597263400545e-07,1.1695333117217578e-05
8.433563060106223e-07,2.750372005193359e-06,5.78245480488446e-07,1.1643803998930913e-05
8.579102360329811e-07,2.7397013532149934e-06,5.808535291142326e-07,1.1591053997083446e-05
8.731645624966671e-07,2.729555418408254e-06,5.839026235690771e-07,1.153871522411662e-05
8.890866911227001e-07,2.719874770710721e-06,5.875078748273772e-07,1.1488374787476401e-05
9.056450722235537e-07,2.7106187065763532e-06,5.917652699205656e-07,1.1441483024711702e-05
9.227943478073137e-07,2.701747633985231e-06,5.967460311318168e-07,1.1399305353778333e-05
9.40469356592983e-07,2.6932112505322567e-06,6.02496135097111e-07,1.1362895059075365e-05
9.585861287842095e-07,2.6849541072814227e-06,6.090391807025712e-07,1.133306597813088e-05
9.770458984338604e-07,2.676929664364882e-06,6.163817856616869e-07,1.1310375311711622e-05
9.957392561389038e-07,2.6691095832128955e-06,6.245192684981612e-07,1.129513054272301e-05
1.0145508273574278e-06,2.6614884754458918e-06,6.334382740169509e-07,1.1287408596651551e-05
1.0333662973299477e-06,2.654085591549879e-06,6.431152088551903e-07,1.1287079549299374e-05
1.0520801634026822e-06,2.6469354974006503e-06,6.535139559210532e-07,1.1293852437489474e-05
1.0706012248134442e-06,2.6400696065263285e-06,6.645856214061758e-07,1.1307347273843115e-05
1.0888540228954484e-06,2.6335083586993183e-06,6.762702668935667e-07,1.132717032364149e-05
1.106774984708778e-06,2.6272712357108527e-06,6.88501620609009e-07,1.1352974892403212e-05
1.1243088527951584e-06,2.621387025414413e-06,7.012143753577196e-07,1.1384497993402596e-05
1.1414142746168006e-06,2.61589057188145e-06,7.143493208436344e-07,1.1421564945057488e-05
1.1580732934377462e-06,2.610808934843077e-06,7.278527789188418e-07,1.1464074068344334e-05
1.1742912495169987e-06,2.6061471678743443e-06,7.416729801830105e-07,1.1511980375955866e-05
1.1900867840688642e-06,2.601882510609007e-06,7.557576096267419e-07,1.1565276627713056e-05
1.2054813846171151e-06,2.5979659910609647e-06,7.700520689812938e-07,1.162396770016158e-05
1.220492860918145e-06,2.594325636301173e-06,7.84496923472722e-07,1.1688041976142238e-05
1.2351315954135583e-06,2.590872592488142e-06,7.990266132794403e-07,1.1757440093255114e-05
1.2493977062435304e-06,2.587514237392629e-06,8.13571199229746e-07,1.1832019423795778e-05
1.263279168285536e-06,2.584168415653354e-06,8.280598418122974e-07,1.1911515573775486e-05
1.2767524468729205e-06,2.580766258917461e-06,8.424235490712363e-07,1.1995520009676625e-05
1.2897858897650752e-06,2.5772441736555752e-06,8.565955772136544e-07,1.2083490033444584e-05
1.3023436336178642e-06,2.5735416554761524e-06,8.705099186825007e-07,1.2174771993789525e-05
1.3143870392686591e-06,2.569610928273365e-06,8.840995435232458e-07,1.2268622372908071e-05
1.325875408498658e-06,2.56542279812148e-06,8.972958596642609e-07,1.2364241160068464e-05
1.3367706150218417e-06,2.560957732247986e-06,9.100295334867462e-07,1.2460821928276475e-05
1.347045361063254e-06,2.5561909350825557e-06,9.222317079504525e-07,1.2557586580022106e-05
1.3566908309589286e-06,2.551084611188796e-06,9.338367455566624e-07,1.2653772268551644e-05
1.3657172771793971e-06,2.545589032021031e-06,9.447870504600577e-07,1.2748597396870195e-05
1.3741433723585146e-06,2.539645191866462e-06,9.550348969644242e-07,1.2841270104857898e-05
1.3819816940412528e-06,2.533188913517679e-06,9.64539840136753e-07,1.2931031319257848e-05
1.3892318486752709e-06,2.5261629506467005e-06,9.732673161023028e-07,1.3017159501634525e-05
1.3958826009551682e-06,2.518533098952309e-06,9.811887939880778e-07,1.3098930652589215e-05
1.4019159169056705e-06,2.5102945875193585e-06,9.8828055539324e-07,1.3175588608587372e-05
1.4073076966723231e-06,2.5014623515419025e-06,9.945220553011715e-07,1.3246352152341565e-05
1.412026622615947e-06,2.492052691209504e-06,9.99894448598468e-07,1.3310464169040025e-05
1.4160343859500618e-06,2.482068392468388e-06,1.0043791269541322e-06,1.3367274525604136e-05
1.419287612954554e-06,2.471492697937304e-06,1.007957165464507e-06,1.3416313439973085e-05
1.4217411416587197e-06,2.460290893730496e-06,1.010609414191818e-06,1.3457306176263918e-05
1.4233544090747688e-06,2.4484179238385233e-06,1.0123169713780472e-06,1.3490123734923242e-05
1.4241025402064932e-06,2.4358318005213583e-06,1.0130630327449092e-06,1.3514710315107092e-05
1.4239876568422594e-06,2.422512559692526e-06,1.0128351977995071e-06,1.3531053864916174e-05
1.4230411742472638e-06,2.408480864863099e-06,1.0116262783295024e-06,1.353925744323041e-05
1.4213136531481816e-06,2.3938006165493788e-06,1.0094339490379878e-06,1.3539653858163016e-05
1.418860736232715e-06,2.37856041779492e-06,1.0062600617345924e-06,1.3532804883091016e-05
1.4157385152286831e-06,2.3628539388811064e-06,1.0021099531895701e-06,1.3519370269328933e-05
1.4120090867395554e-06,2.346772816825592e-06,9.969923577543305e-07,1.3500010904763115e-05
1.4077431690510211e-06,2.3304048619823303e-06,9.90919939084181e-07,1.3475376242671816e-05
1.4030145999724708e-06,2.3138349073233826e-06,9.839097542884457e-07,1.3446075665542865e-05
1.3978943902619032e-06,2.2971458009325038e-06,9.759833078412218e-07,1.3412619043802127e-05
1.3924495507464494e-06,2.2804116595638735e-06,9.671675403747505e-07,1.3375380590225993e-05
1.3867448338497006e-06,2.2636916166204572e-06,9.574974583952328e-07,1.3334590638206693e-05
1.3808437293328398e-06,2.2470369021609283e-06,9.470183420099079e-07,1.3290345776507719e-05
1.374807031783811e-06,2.230504512312043e-06,9.357855658310223e-07,1.3242635600288499e-05
1.3686886991759714e-06,2.214162576609034e-06,9.238613150530395e-07,1.3191376701649574e-05
1.3625302271647891e-06,2.198082448427171e-06,9.113096232998756e-07,1.3136435545259698e-05
1.3563574295722276e-06,2.182324548778371e-06,8.981928157063501e-07,1.3077630283413957e-05
1.350181523888803e-06,2.166932098522431e-06,8.845698015650215e-07,1.3014734404795355e-05
1.3440034197074101e-06,2.1519415035718484e-06,8.704950589013264e-07,1.294750783562284e-05
1.3378206890582023e-06,2.1373997233485414e-06,8.560188625087397e-07,1.2875743196686102e-05
1.331635052286383e-06,2.1233686203710927e-06,8.411891563137505e-07,1.2799296189471326e-05
1.3254566934515878e-06,2.1099122648065947e-06,8.26053377977714e-07,1.2718083037465302e-05
1.3193039469517151e-06,2.097086098846713e-06,8.106589228909966e-07,1.2632050348270544e-05
1.3131982157725546e-06,2.084940556119416e-06,7.950528281055406e-07,1.2541140793208173e-05
1.3071567786239023e-06,2.07352759666531e-06,7.792809167124083e-07,1.2445272745483967e-05
1.301190314017358e-06,2.0628987633308134e-06,7.633873414332617e-07,1.2344333573708055e-05
1.295306042080716e-06,2.0531004093418896e-06,7.474164787305644e-07,1.2238182724813852e-05
1.2895095057869169e-06,2.0441716929037258e-06,7.314153776578405e-07,1.2126659908255428e-05
1.2838037086806098e-06,2.036143236209697e-06,7.154338296929369e-07,1.2009593452533334e-05
1.2781892588529305e-06,2.0290361027832817e-06,6.995238657931693e-07,1.1886811093991561e-05
1.2726639777800765e-06,2.0228598505491408e-06,6.837397135619813e-07,1.1758153139889955e-05
1.2672196457644704e-06,2.017609304527422e-06,6.681357345382811e-07,1.1623481666606975e-05
1.2618384472013598e-06,2.013265595516638e-06,6.52763825931821e-07,1.1482683626291444e-05
1.256491990670117e-06,2.0098000465461014e-06,6.376733275022487e-07,1.1335671307480268e-05
1.2511431193073923e-06,2.007173971084564e-06,6.229119806722376e-07,1.1182388255041741e-05
1.245749314087127e-06,2.005335151876484e-06,6.085266665770125e-07,1.1022836337075148e-05
1.2402652772850816e-06,2.004213692703197e-06,5.945633980943516e-07,1.0857121803931033e-05
1.2346434441183687e-06,2.0037189241891382e-06,5.810646137319075e-07,1.0685475379962463e-05
1.2288358677282435e-06,2.003741676037863e-06,5.68065160320138e-07,1.0508224791187307e-05
1.222802153790901e-06,2.0041641203879416e-06,5.555907987350485e-07,1.0325773317601292e-05
1.2165199800687356e-06,2.004874590050417e-06,5.436603420973338e-07,1.0138605789894451e-05
1.2099877635845646e-06,2.0057794172611857e-06,5.322890928440905e-07,9.94727014777507e-06
1.2032164034655277e-06,2.0068020382614346e-06,5.214900563445843e-07,9.7523304450579e-06
1.1962182644079711e-06,2.0078721739709497e-06,5.112735854968418e-07,9.554333339685145e-06
1.1890022364623144e-06,2.008920463446256e-06,5.01648242564135e-07,9.3537989020737e-06
1.1815766341867148e-06,2.0098836666798666e-06,4.926214568556464e-07,9.151238499129943e-06
1.1739558430330556e-06,2.0107094556293063e-06,4.841983697474429e-07,8.947197233525386e-06
1.166166713911609e-06,2.011352355672717e-06,4.7638090219061965e-07,8.742298342043031e-06
1.1582522551381728e-06,2.011765884462741e-06,4.691693677062202e-07,8.537280549955181e-06
1.1502700753305078e-06,2.0119042328836454e-06,4.6256537676969783e-07,8.333020500131225e-06
1.1422846319147603e-06,2.011737415448331e-06,4.5657277305184325e-07,8.130503428076834e-06
1.13435604385525e-06,2.011263174238141e-06,4.511960351224771e-07,7.930733553429714e-06
1.1265319701292052e-06,2.0104998562705563e-06,4.464378748286687e-07,7.73463881258649e-06
1.1188467422799329e-06,2.0094697848038157e-06,4.422988671347704e-07,7.543017224097966e-06
1.1113238099791901e-06,2.0081928158353443e-06,4.3878020739330093e-07,7.356524296958411e-06
1.1039764018434758e-06,2.006692551018096e-06,4.358862773588622e-07,7.175683398379484e-06
1.0968074597707823e-06,2.0050029680200663e-06,4.336252595881894e-07,7.000901925662123e-06
1.0898112127561429e-06,2.0031664697905756e-06,4.320085057660589e-07,6.832499230512503e-06
1.0829754311503369e-06,2.0012236255289725e-06,4.3104723052529785e-07,6.670778240930085e-06
1.0762834921815736e-06,1.9992009800300616e-06,4.30746767633527e-07,6.5161033502965935e-06
1.0697180056029126e-06,1.9971045229838084e-06,4.311023295649965e-07,6.36888243104619e-06
1.063266541882934e-06,1.994921009799628e-06,4.320986477567061e-07,6.229469600803844e-06
1.0569261712811882e-06,1.9926216615506247e-06,4.337115706939808e-07,6.098109477935162e-06
1.050703738787696e-06,1.9901635050151908e-06,4.3590879008593466e-07,5.9749620385937024e-06
1.0446128234085422e-06,1.987491848275777e-06,4.386502849209304e-07,5.860193986373042e-06
1.0386705955006342e-06,1.984549005189388e-06,4.4189030916662436e-07,5.754134278968909e-06
1.0328965962525514e-06,1.981285436078116e-06,4.455802713136067e-07,5.6574042231462775e-06
1.027312849408441e-06,1.977662932155814e-06,4.4967260988952405e-07,5.5709026810588605e-06
1.0219425769333193e-06,1.9736464051115137e-06,4.5412646230482273e-07,5.495677564988443e-06
1.016806281003141e-06,1.969193500900932e-06,4.589112306701418e-07,5.432797452828887e-06
1.0119184139422814e-06,1.964251534779264e-06,4.6400445399263355e-07,5.383268374856052e-06
1.0072891113301602e-06,1.9587611463702547e-06,4.693866843967672e-07,5.347985339376395e-06
1.002932590778952e-06,1.9526621529325438e-06,4.750368049315359e-07,5.327699749656115e-06
9.988782958850745e-07,1.945898041984604e-06,4.809288027634653e-07,5.322988220676207e-06
9.951758073157648e-07,1.9384189064451685e-06,4.870310031589921e-07,5.334224097671028e-06
9.918879709162628e-07,1.930186579312977e-06,4.933076035682211e-07,5.361559193649749e-06
9.89076901133389e-07,1.9211793873356044e-06,4.997202570443143e-07,5.404915721078963e-06
9.867925880695732e-07,1.911393772115984e-06,5.062291230563244e-07,5.463997089806802e-06
9.850706303416618e-07,1.900850069069629e-06,5.127946221485272e-07,5.538329407793345e-06
9.839393710689885e-07,1.8895988403012287e-06,5.193788088544293e-07,5.627317466609205e-06
9.834309218962064e-07,1.877713623449803e-06,5.25944645066859e-07,5.730294156138881e-06
9.83588758046333e-07,1.8652793865255627e-06,5.324543955518225e-07,5.8465687140896e-06
9.84468099418925e-07,1.8523977646280376e-06,5.388689418869785e-07,5.975480293972137e-06
9.861297508610165e-07,1.8391998632812439e-06,5.451484751754085e-07,6.1164378298938174e-06
9.88630093473533e-07,1.8258399499370369e-06,5.512555552987745e-07,6.268925508487751e-06
9.92011276652506e-07,1.812470005136265e-06,5.571601413951358e-07,6.432481697637601e-06
9.962962199403362e-07,1.7992197115025975e-06,5.628423327385097e-07,6.606666750796064e-06
1.0014902504255691e-06,1.786194310960006e-06,5.68289918030487e-07,6.791020535571724e-06
1.0075866774905728e-06,1.773482477162135e-06,5.734931233922413e-07,6.985011023032193e-06
1.0145708308763408e-06,1.76116679790706e-06,5.784406309692503e-07,7.187984012502576e-06
1.022419521141369e-06,1.7493353566442997e-06,5.831181339916497e-07,7.3991306401818345e-06
1.0311005209550802e-06,1.7380936656654426e-06,5.875080223993506e-07,7.617491883085286e-06
1.0405790662057866e-06,1.7275752210831647e-06,5.915899858332989e-07,7.841992821022905e-06
1.0508292003596148e-06,1.7179431222561547e-06,5.953431331094845e-07,8.071466982615406e-06
1.0618426735723114e-06,1.7093752453559704e-06,5.987477755106149e-07,8.304657173198452e-06
1.0736358541419486e-06,1.702037597710904e-06,6.017855689933584e-07,8.540225603764832e-06
1.0862566029997723e-06,1.6960604581830464e-06,6.0444018032547e-07,8.776795636444434e-06
1.099783613112578e-06,1.691529561320461e-06,6.066990572163798e-07,9.013003832947736e-06
1.1143120524360745e-06,1.6884935088231182e-06,6.085541505817669e-07,9.247538272755624e-06
1.1299321734191457e-06,1.6869792557877825e-06,6.100015131703333e-07,9.479178970287577e-06
1.1467116527231907e-06,1.6870056131257753e-06,6.110403933273905e-07,9.706840815350308e-06
1.1646859775388871e-06,1.6885880791340613e-06,6.116722962999518e-07,9.929579443946458e-06
1.1838552764155596e-06,1.6917333567383448e-06,6.119034635743406e-07,1.0146559156417708e-05
1.204185395065165e-06,1.696428053388318e-06,6.11751355285444e-07,1.035701089430097e-05
1.2256144939956005e-06,1.7026302895095541e-06,6.112476283842003e-07,1.0560189200877578e-05
1.2480664151006857e-06,1.7102691105811086e-06,6.104331655229947e-07,1.0755342300548503e-05
1.2714651237263528e-06,1.7192488130325603e-06,6.093505129805557e-07,1.0941711379960167e-05
1.2957427247964006e-06,1.729453598046963e-06,6.080390073189294e-07,1.1118560927860473e-05
1.3208413644806163e-06,1.7407520867570268e-06,6.065329415357442e-07,1.1285238514889105e-05
1.346712697559574e-06,1.7530043699897773e-06,6.048622057917772e-07,1.144124309510676e-05
1.3733156941813421e-06,1.7660729101698959e-06,6.030541169410936e-07,1.1586259785043179e-05
1.4006143719249302e-06,1.7798327292638638e-06,6.011341062605163e-07,1.1720144479608862e-05
1.4285773531150475e-06,1.7941725983509772e-06,5.991254896420582e-07,1.1842869372526293e-05
1.4571751899080618e-06,1.8089859406227054e-06,5.970497869364307e-07,1.1954452553892026e-05
1.486370692633371e-06,1.8241619046608048e-06,5.94926329807114e-07,1.2054911997382433e-05
1.5161071114414963e-06,1.8395876937130921e-06,5.927703855567208e-07,1.2144262182735111e-05
1.5463033841193515e-06,1.8551594014850041e-06,5.905923669925364e-07,1.2222545260168182e-05
1.576857782074585e-06,1.8707888167128143e-06,5.884012792974725e-07,1.228987092038844e-05
1.607654619247686e-06,1.886400380910064e-06,5.862127609192502e-07,1.2346412970253815e-05
1.6385724037372592e-06,1.901922936083725e-06,5.840572472847753e-07,1.2392354719143235e-05
1.6694954216457238e-06,1.9172830955925025e-06,5.819807197889771e-07,1.2427833747677568e-05
1.7003271340957018e-06,1.932401935770793e-06,5.8003561843317e-07,1.2452924099311999e-05
1.7309992550742386e-06,1.947194327874968e-06,5.782707328304646e-07,1.24676530185998e-05
1.7614693535965241e-06,1.961574657145252e-06,5.767290258073382e-07,1.247202497102307e-05
1.7917059844702859e-06,1.9754701075142918e-06,5.754491118556667e-07,1.2466045461756015e-05
1.8216699945716075e-06,1.9888332080601983e-06,5.74462830905939e-07,1.2449755034303246e-05
1.8513031184202067e-06,2.001645228767268e-06,5.737916241322332e-07,1.2423259348030608e-05
1.880527316859312e-06,2.0139111709404628e-06,5.73447314272265e-07,1.2386733212469016e-05
1.909249490164687e-06,2.0256524440063555e-06,5.734351853487667e-07,1.2340400615862438e-05
1.937367862377781e-06,2.036898584800931e-06,5.737545189566988e-07,1.2284503736934448e-05
1.964780161822788e-06,2.0476772176836387e-06,5.743975143861071e-07,1.2219270379968609e-05
1.991389693001604e-06,2.0580114848468497e-06,5.753508121143608e-07,1.214489539644119e-05
2e-07,2.0679328035321457e-06,5.766001263654231e-07,1.2061552223599199e-05
2e-07,2.0774958403976584e-06,5.781343533765986e-07,1.1969419428015687e-05
2e-07,2.0867774564747213e-06,5.799467050997522e-07,1.186868629579967e-05
2e-07,2.0958615416734317e-06,5.820332487460839e-07,1.175953518929901e-05
2e-07,2.1048246479844474e-06,5.843894055715469e-07,1.1642128692169239e-05
2e-07,2.113727881288161e-06,5.87006364936822e-07,1.1516611954997626e-05
2e-07,2.1226111570222058e-06,5.898702043215248e-07,1.1383121560845834e-05
2e-07,2.13149268445093e-06,5.929622751379886e-07,1.1241794845058454e-05
2e-07,2.140377852296716e-06,5.962587815389168e-07,1.1092777046371388e-05
2e-07,2.1492694905695907e-06,5.997320779228721e-07,1.093622655067462e-05
2e-07,2.1581691363807665e-06,6.033544017163157e-07,1.0772326609868384e-05
2e-07,2.1670696251225663e-06,6.071003812006419e-07,1.0601311543646001e-05
2e-07,2.175949192296851e-06,6.109470091632748e-07,1.0423496186384662e-05
2e-07,2.184776357002737e-06,6.148722527194075e-07,1.02392888571883e-05
2e-07,2.1935204315187682e-06,6.188529309682479e-07,1.0049194187899813e-05
2e-07,2.2021551255594043e-06,6.228631345871147e-07,9.853828103255836e-06
2e-07,2.210658522948014e-06,6.268746259958771e-07,9.653931515106537e-06
2e-07,2.2190233291154244e-06,6.30858494969635e-07,9.450339340851354e-06
2e-07,2.227274237380679e-06,6.347860023264358e-07,9.243908681231577e-06
2e-07,2.2354768448379522e-06,6.386289916678984e-07,9.035463908355956e-06
2e-07,2.243732813561821e-06,6.423610954548718e-07,8.825790038798151e-06
2e-07,2.2521642689133656e-06,6.459577321793887e-07,8.615661992990071e-06
2e-07,2.260891377699109e-06,6.493947300899767e-07,8.405882142254317e-06
2e-07,2.270014297774076e-06,6.526501366009994e-07,8.197290093960724e-06
2e-07,2.2796183788139776e-06,6.557094111723903e-07,7.990740247618465e-06
2e-07,2.289806585224135e-06,6.585679198415816e-07,7.787085815317416e-06
2e-07,2.3007338430699292e-06,6.612287599240964e-07,7.587183225523401e-06
2e-07,2.3126141765157743e-06,6.63699252129456e-07,7.391895806643649e-06
2e-07,2.3256948488525937e-06,6.659875675365911e-07,7.2020880960352155e-06
2e-07,2.340212657171164e-06,6.680992701580656e-07,7.0186098969674255e-06
2e-07,2.35635581863825e-06,6.700350376552639e-07,6.842263631462764e-06
1.9762726858715642e-06,2.3742507034482213e-06,6.717917889351111e-07,6.67376095541378e-06
1.9450533591415046e-06,2.3939712330554167e-06,6.733673959249901e-07,6.513685446682016e-06
1.912615125307641e-06,2.4155483202083624e-06,6.747642133098082e-07,6.362470181601182e-06
1.8791516553293641e-06,2.4389681412037794e-06,6.759868788587507e-07,6.22039251812342e-06
1.8448801219929127e-06,2.464173284376217e-06,6.770372720164892e-07,6.08758497585678e-06
1.810018485205616e-06,2.49107896551288e-06,6.779122852368534e-07,5.964058049319712e-06
1.7747689790644386e-06,2.5195933007720267e-06,6.786056134765704e-07,5.849747976445522e-06
1.739316091865393e-06,2.5496211370548763e-06,6.791101083970631e-07,5.744613781262113e-06
1.7038335330915987e-06,2.5810488460171138e-06,6.794177568114757e-07,5.648743356676302e-06
1.6684931947209886e-06,2.613731062334294e-06,6.795191587081895e-07,5.562369670992449e-06
1.633471388239604e-06,2.647497418449056e-06,6.794046472859202e-07,5.4857975480971115e-06
1.5989481959610487e-06,2.682173305064169e-06,6.790664708234761e-07,5.4193282368896026e-06
1.5650991143287227e-06,2.7175978732559533e-06,6.785016462310865e-07,5.36319695173739e-06
1.5320823951794476e-06,2.7536307194655208e-06,6.777143499878109e-07,5.317512596567309e-06
1.5000284817788609e-06,2.7901472923589728e-06,6.767147975779225e-07,5.282227411076676e-06
1.4690366669310381e-06,2.8270272025645902e-06,6.755143841732587e-07,5.25714511072351e-06
1.4391795639931106e-06,2.864142826674752e-06,6.741224203972921e-07,5.241953617668726e-06
1.4105136649909838e-06,2.9013518414198365e-06,6.725495908536566e-07,5.236262515618885e-06
1.383093388555561e-06,2.9384915581424413e-06,6.708178889350322e-07,5.239623278776416e-06
1.3569826285453475e-06,2.975377473829104e-06,6.689694091470705e-07,5.2515277901869205e-06
1.3322549176267578e-06,3.011808178282097e-06,6.670638454178978e-07,5.271397829417507e-06
1.3089824451821399e-06,3.0475706917497537e-06,6.651661175051423e-07,5.298581463391466e-06
1.2872295238820677e-06,3.082446752518698e-06,6.633355501422055e-07,5.3323633783681916e-06
1.2670583247936194e-06,3.1162260697997367e-06,6.616212928608168e-07,5.371988781935743e-06
1.2485343757976982e-06,3.1487190004671267e-06,6.600605021428944e-07,5.416698039384459e-06
1.2317248419295365e-06,3.179756330729424e-06,6.586773720490504e-07,5.465756073776847e-06
1.2166972056977214e-06,3.209178085129145e-06,6.57483604610335e-07,5.5184549064620136e-06
1.2035215884594558e-06,3.2368215688904565e-06,6.564801384157475e-07,5.574092579191288e-06
1.1922705957667289e-06,3.2625154076526747e-06,6.556596070567523e-07,5.631958888350995e-06
1.1830108123525764e-06,3.286081728557165e-06,6.550084028906457e-07,5.691344327404856e-06
1.1757884232346614e-06,3.307344384365756e-06,6.545071064441812e-07,5.75155825238042e-06
1.1706183342986988e-06,3.3261382358266064e-06,6.541302008691918e-07,5.81194086935709e-06
1.1674818543724396e-06,3.342315918639936e-06,6.53846506452673e-07,5.8718647584512415e-06
1.1663288687130104e-06,3.355751634884836e-06,6.53620489448656e-07,5.930729003267513e-06
1.1670804324802818e-06,3.3663422450029283e-06,6.534153101341654e-07,5.9879543659276125e-06
1.1696335729735602e-06,3.3740048996594964e-06,6.531986739146902e-07,6.042988414346465e-06
1.1738684865484292e-06,3.3786706049504112e-06,6.52948489065575e-07,6.095318562212238e-06
1.1796530196740166e-06,3.3802769792700825e-06,6.526527438688104e-07,6.14447694075564e-06
1.186843221035159e-06,3.3787667739782945e-06,6.523035071319949e-07,6.1900367961652825e-06
1.195284969785778e-06,3.374094113309108e-06,6.51891147138727e-07,6.231619301926245e-06
1.204818358650113e-06,3.366233133020666e-06,6.514030726465437e-07,6.268918126384861e-06
1.215282764655341e-06,3.3551818948024988e-06,6.50826456303265e-07,6.301733641651893e-06
1.2265222198236824e-06,3.3409581538843507e-06,6.501517508897729e-07,6.32998530530151e-06
1.2383908323774085e-06,3.323592222591101e-06,6.493730315495068e-07,6.3536742272914255e-06
1.25075667320345e-06,3.30312722261706e-06,6.484845702404161e-07,6.372827359946189e-06
1.263501753864253e-06,3.279627052461855e-06,6.474775724386903e-07,6.3874668785906816e-06
1.2765168598686285e-06,3.25317955975854e-06,6.463399676139261e-07,6.397611839482152e-06
1.2896938162164437e-06,3.223887563416095e-06,6.450586492004199e-07,6.403305731499814e-06
1.3029195315393968e-06,3.1918567428361883e-06,6.436214891281482e-07,6.404642261919925e-06
1.316074283550346e-06,3.157194152895038e-06,6.42016908539429e-07,6.401767595487842e-06
1.3290342307209637e-06,3.120019269414613e-06,6.402322617111634e-07,6.394872332436635e-06
1.3416765067579904e-06,3.0804763564768484e-06,6.382533728453171e-07,6.38417928540715e-06
1.353884719563752e-06,3.0387377152335e-06,6.360652671018078e-07,6.3699260815585766e-06
1.3655523469980016e-06,2.9949970195934863e-06,6.336530621893476e-07,6.352355689226855e-06
1.3765818844612749e-06,2.949457057772418e-06,6.310026527953543e-07,6.331722078286356e-06
1.3868813967155591e-06,2.9023203291745617e-06,6.281010148086899e-07,6.30829902373022e-06
1.3963623393649193e-06,2.8537916494573438e-06,6.249359784771761e-07,6.282375527168353e-06
1.4049397882610668e-06,2.8040881061666654e-06,6.21496321829794e-07,6.254234484561293e-06
1.412534754553039e-06,2.7534406604483683e-06,6.17772341346214e-07,6.224127554757098e-06
1.419076748400534e-06,2.7020814073683377e-06,6.137561421485177e-07,6.1922712638693536e-06
1.424503452553317e-06,2.650225972849968e-06,6.094422436315667e-07,6.158867677069255e-06
1.428758359906806e-06,2.598064747774705e-06,6.048288463789022e-07,6.1241188852828024e-06
1.4317895025522888e-06,2.545770116610688e-06,5.999191465460443e-07,6.088237740791536e-06
1.433549690913622e-06,2.493513858786483e-06,5.947222759716564e-07,6.051502570123976e-06
1.4339976270253853e-06,2.4414776125297746e-06,5.892524825134153e-07,6.014331061068082e-06
1.433099181153264e-06,2.3898470153385154e-06,5.835265824792439e-07,5.977276772681937e-06
1.4308270485373666e-06,2.338803859022455e-06,5.77562677226882e-07,5.940960916835455e-06
1.4271594449846952e-06,2.2885303540692767e-06,5.713812958440116e-07,5.906025384323679e-06
1.4220814939549714e-06,2.2392129554686334e-06,5.650088151412461e-07,5.873100722328901e-06
1.4155886029696526e-06,2.1910345577426588e-06,5.584830631485471e-07,5.842763297827571e-06
1.407686912834654e-06,2.144166382059857e-06,5.518566579455875e-07,5.815507454867769e-06
1.3983905719680937e-06,2.0987655932651558e-06,5.451927880235554e-07,5.7917431019449215e-06
1.3877202868141248e-06,2.0549770051622963e-06,5.385564595643315e-07,5.771798671952275e-06
1.3757049564009951e-06,2.012947351659256e-06,5.320111760932889e-07,5.7559201067453264e-06
1.3623832829527217e-06,1.9728502744843847e-06,5.256247989712754e-07,5.744273954049861e-06
1.3478019557601513e-06,1.9348976605065116e-06,5.194756956015139e-07,5.736953369953053e-06
1.3320117844889937e-06,1.8993193459931545e-06,5.136496038011054e-07,5.733978657952557e-06
1.3150652465529563e-06,1.8663234264746727e-06,5.082290125782942e-07,5.73529099733703e-06
1.2970157739237915e-06,1.8360660759140618e-06,5.032835952341896e-07,5.740743466428736e-06
1.2779183176380048e-06,1.808643417710933e-06,4.988668191257695e-07,5.750100354904686e-06
1.257831715013802e-06,1.7840960159271653e-06,4.950181301262179e-07,5.763052881582707e-06
1.2368207913724678e-06,1.7624182710753448e-06,4.917671084401881e-07,5.779240511504721e-06
1.2149554502382174e-06,1.7435765241447991e-06,4.891369654205392e-07,5.798267322106735e-06
1.192308006069053e-06,1.7275388489903165e-06,4.871466496170765e-07,5.8197219833198635e-06
1.1689517687047053e-06,1.7143059606657197e-06,4.858111623657264e-07,5.8432089286196745e-06
1.1449620491792387e-06,1.7039223128034412e-06,4.851426735867833e-07,5.868378104435932e-06
1.1204185817637769e-06,1.6964574698506538e-06,4.851537529700999e-07,5.894926998809658e-06
1.0954069038892566e-06,1.6919719542363709e-06,4.858567928845143e-07,5.922570823169527e-06
1.0700175297729824e-06,1.6904896463737176e-06,4.872574292581214e-07,5.951012662847345e-06
1.0443439090161604e-06,1.6919860773407032e-06,4.893492517151273e-07,5.97993498866673e-06
1.0184794649263507e-06,1.6963895843728415e-06,4.921151682466723e-07,6.009000979845081e-06
9.925138471357993e-07,1.7035883669606696e-06,4.955324757053876e-07,6.0378527355059756e-06
9.665298226517914e-07,1.7134376732992188e-06,4.99575492790597e-07,6.066109385254226e-06
9.406018641913996e-07,1.7257688792516627e-06,5.042142843105264e-07,6.0933710120951975e-06
9.147965727701037e-07,1.7404057571028202e-06,5.094134044955944e-07,6.119230391595176e-06
8.89174603415188e-07,1.7571854962420445e-06,5.151320424004309e-07,6.1432986158777615e-06
8.637933836502546e-07,1.7759755342993378e-06,5.213238165623435e-07,6.165248812506493e-06
8.38709395197252e-07,1.7966769864748615e-06,5.279384201048364e-07,6.184860016784328e-06
8.139785514809683e-07,1.8192106443896408e-06,5.349265873294715e-07,6.202025897919823e-06
7.896549897002719e-07,1.8434925404087784e-06,5.422433388491351e-07,6.2167165115191105e-06
7.65791862906707e-07,1.869414917275084e-06,5.498470568053238e-07,6.228921353196832e-06
7.424477315792755e-07,1.8968427901472664e-06,5.576995431065293e-07,6.238607538825129e-06
7.196960003312416e-07,1.925621311451461e-06,5.657690814050702e-07,6.245714423823584e-06
6.976280287672935e-07,1.955585453712289e-06,5.740305073359817e-07,6.2501957937379175e-06
6.763440764559908e-07,1.986568698317514e-06,5.824608822897776e-07,6.2520832460902965e-06
6.559387256699839e-07,2.0184087393180906e-06,5.910372399487766e-07,6.251510024716624e-06
6.36491238681293e-07,2.0509484774323816e-06,5.997376362636622e-07,6.248671726057611e-06
6.180632776976179e-07,2.084032353282311e-06,6.08541515470499e-07,6.2437647139268536e-06
6.006999133342586e-07,2.117499147874867e-06,6.174288409820948e-07,6.236952527300535e-06
5.84430972234967e-07,2.1511754451217813e-06,6.263792731183151e-07,6.228377309887709e-06
5.692733905768479e-07,2.1848785145650377e-06,6.35372155132833e-07,6.2182039247265665e-06
5.552336223644693e-07,2.218429711517505e-06,6.443873746965826e-07,6.206661893121987e-06
5.423080158548951e-07,2.25166473149772e-06,6.534057219337287e-07,6.1940424199983886e-06
5.304836110907379e-07,2.28443053433502e-06,6.624075007016747e-07,6.180647445036268e-06
5.197428422756811e-07,2.316575428266706e-06,6.713695681402358e-07,6.166737830061744e-06
5.1007177090974e-07,2.347943349128741e-06,6.802627891623049e-07,6.152523874908529e-06
5.014681831374392e-07,2.3783735818727626e-06,6.890523975203498e-07,6.138189009398954e-06
4.939447803955795e-07,2.40770290866272e-06,6.977024726143224e-07,6.123902831963712e-06
4.875268787069186e-07,2.435773452743209e-06,7.061842142259359e-07,6.109815022296161e-06
4.82247130041282e-07,2.4624492041014992e-06,7.144836011871386e-07,6.09607973666166e-06
4.781375269840239e-07,2.487634252323145e-06,7.226028829912985e-07,6.082943854540939e-06
4.752241410537158e-07,2.5112782272838178e-06,7.305574166435309e-07,6.0708292594254374e-06
4.735316903418811e-07,2.5333626099268564e-06,7.383718612516309e-07,6.060312068213403e-06
4.7309006871767206e-07,2.55388593166286e-06,7.460746744851746e-07,6.052022974690758e-06
4.739310153508747e-07,2.57287084829978e-06,7.536906431682752e-07,6.046554928722853e-06
4.7607716451497935e-07,2.590385506884717e-06,7.612361305367307e-07,6.044418332244377e-06
4.795326378458174e-07,2.606552855901073e-06,7.687186479000171e-07,6.046076948678478e-06
4.8427945852256e-07,2.6215388997172217e-06,7.761363912296052e-07,6.0520695310767875e-06
4.902788048354999e-07,2.635528172277004e-06,7.834763687283385e-07,6.063110852012478e-06
4.974755984984554e-07,2.648696241867756e-06,7.907141966751199e-07,6.0800698093605765e-06
5.058049865556359e-07,2.6611923131644023e-06,7.978161428302468e-07,6.103877009434921e-06
5.151976722188586e-07,2.6731396180639758e-06,8.047413602909145e-07,6.135455294892429e-06
5.255817140132807e-07,2.6846411523753617e-06,8.114440920937364e-07,6.1756788533878575e-06
5.36881724063503e-07,2.6957787315867458e-06,8.178776383693001e-07,6.225337364466121e-06
5.490193231215023e-07,2.706612749065999e-06,8.239985848494444e-07,6.285101412122486e-06
5.619172977378401e-07,2.717189653551717e-06,8.297666939172298e-07,6.355488729320857e-06
5.755036631884589e-07,2.727549493821067e-06,8.351412256724439e-07,6.4368295203295935e-06
5.897103682246854e-07,2.737723599659893e-06,8.400794122998083e-07,6.529234899604587e-06
6.044685886638021e-07,2.7477249959044826e-06,8.445389655234095e-07,6.632577698173563e-06
6.197064439683203e-07,2.757544775064147e-06,8.484815195900621e-07,6.746494829657235e-06
6.353495462480554e-07,2.7671601145101827e-06,8.518738064717267e-07,6.870410448597364e-06
6.513207535852071e-07,2.776543620958289e-06,8.546863149247961e-07,7.0035641951416425e-06
6.675391418434806e-07,2.7856631016064592e-06,8.568922059438187e-07,7.145043561742398e-06
6.839208650482073e-07,2.794477074253041e-06,8.58469452845372e-07,7.293845580695546e-06
7.00382811631984e-07,2.802939325909933e-06,8.594050979350595e-07,7.4489629882160274e-06
7.168482467900177e-07,2.811014263157204e-06,8.596964667898589e-07,7.609446795211052e-06
7.332512403437324e-07,2.8186932833780965e-06,8.593479735917505e-07,7.774429984273027e-06
7.495369049595368e-07,2.826000964842352e-06,8.583685929289875e-07,7.943140885079283e-06
7.656583034174474e-07,2.832982986275102e-06,8.567717347027606e-07,8.114906817306396e-06
7.81572393427054e-07,2.8396793849459167e-06,8.545746749805923e-07,8.289127813708461e-06
7.972383975948381e-07,2.846101437049622e-06,8.517984133504905e-07,8.465235419035804e-06
8.12619545334482e-07,2.8522256138960563e-06,8.484682561010502e-07,8.642659416317723e-06
8.276839037918874e-07,2.8579992111756037e-06,8.446113984694378e-07,8.820797835624501e-06
8.424035387470705e-07,2.8633490978788347e-06,8.402525604822827e-07,8.99899515410389e-06
8.56755576441533e-07,2.8681936129100133e-06,8.35412570117433e-07,9.176547056652184e-06
8.707242000506236e-07,2.872456598984882e-06,8.301097573583044e-07,9.352718080662179e-06
8.842992780675648e-07,2.876078021096438e-06,8.243607527285283e-07,9.526744778501626e-06
8.974715239178825e-07,2.8790172340985645e-06,8.181803268874276e-07,9.697828621937093e-06
9.102282496945057e-07,2.8812483527063244e-06,8.115826090422628e-07,9.865142074286673e-06
9.225520414916901e-07,2.88275061294595e-06,8.045848039172227e-07,1.0027851501902499e-05
9.344231547619494e-07,2.883498739336833e-06,7.9721124926707e-07,1.0185133866196983e-05
9.458267473560257e-07,2.883456394553772e-06,7.894939509000304e-07,1.0336179776711842e-05
9.567621440337238e-07,2.882572830634559e-06,7.814689876514068e-07,1.0480203205849196e-05
9.672461778796517e-07,2.880782919367119e-06,7.731725715913655e-07,1.0616465994377015e-05
9.773063302527631e-07,2.878011283211655e-06,7.646389646510567e-07,1.0744304225209353e-05
9.869730631639922e-07,2.874177351332081e-06,7.558993598647253e-07,1.0863149235130485e-05
9.962853886737243e-07,2.869196879304219e-06,7.469817758077334e-07,1.0972557930043916e-05
1.0053058362364807e-06,2.862982395325003e-06,7.379120769103797e-07,1.107224825388896e-05
1.0141261222008881e-06,2.8554493998480917e-06,7.287160832977141e-07,1.1162093831281758e-05
1.0228561389297958e-06,2.8465309094210656e-06,7.194236667005039e-07,1.1242062623567556e-05
1.0316053709550038e-06,2.836193654427699e-06,7.100728093154887e-07,1.131214110871034e-05
1.0404672894340488e-06,2.824444869033866e-06,7.007095013561221e-07,1.1372285492738148e-05
1.0495113497630025e-06,2.8113265412357302e-06,6.913831141175966e-07,1.1422411171810519e-05
1.0587822727426209e-06,2.796901179743825e-06,6.821410165936703e-07,1.1462404493632733e-05
1.0683034140371268e-06,2.781234680747952e-06,6.73026240879065e-07,1.1492141860728965e-05
1.0780797804371391e-06,2.7643866971529687e-06,6.64079944782497e-07,1.1511537671326985e-05
1.0880980445714386e-06,2.746415811161627e-06,6.553472964846254e-07,1.1520649798730987e-05
1.0983262762508102e-06,2.727391334779504e-06,6.468828050315217e-07,1.1519783629191433e-05
1.10871756371444e-06,2.707397471507878e-06,6.387526554287772e-07,1.1509481739844025e-05
1.1192162979753546e-06,2.6865261501469024e-06,6.310323957986759e-07,1.1490399825529234e-05
1.1297632645922917e-06,2.6648665126198703e-06,6.237989816001089e-07,1.1463176092287579e-05
1.1402993492859164e-06,2.642499387669256e-06,6.171216900027525e-07,1.1428384602457425e-05
1.1507687279733141e-06,2.619497494632826e-06,6.110572331770179e-07,1.138662231689909e-05
1.1611192653807168e-06,2.5959279881089317e-06,6.056491362805207e-07,1.1338693139941694e-05
1.171298960017543e-06,2.5718537851829285e-06,6.009293524364802e-07,1.1285738114875322e-05
1.1812516477430479e-06,2.5473321288992888e-06,5.969197010314969e-07,1.1229205270249736e-05
1.19091500877358e-06,2.522417983970966e-06,5.93631105656912e-07,1.1170716572602057e-05
1.200220869184994e-06,2.4971796184235838e-06,5.910616977476624e-07,1.111193999350835e-05
1.2090967324047373e-06,2.4717154460873108e-06,5.891963043091124e-07,1.1054507048566507e-05
1.217469008024046e-06,2.4461569063590303e-06,5.880082016755841e-07,1.0999960888895613e-05
1.2252689688200294e-06,2.420655103636346e-06,5.874620932998548e-07,1.094971261063148e-05
1.2324380812727101e-06,2.395358998508572e-06,5.875172511470327e-07,1.0905004579722452e-05
1.2389276452069195e-06,2.370402930499136e-06,5.881318917071845e-07,1.0866890793713989e-05
1.2446960334580708e-06,2.34591239258926e-06,5.892688311284465e-07,1.0836234298622605e-05
1.249712670143424e-06,2.322011227176432e-06,5.908995471223567e-07,1.0813707135628129e-05
1.2539685715714148e-06,2.298816936736105e-06,5.930046972137381e-07,1.0799780484881478e-05
1.2574818332716093e-06,2.276431232283469e-06,5.955700561816555e-07,1.0794710089234093e-05
1.2602912625813976e-06,2.2549336308606893e-06,5.985792770635216e-07,1.07985248835446e-05
1.2624439561200449e-06,2.234382042573727e-06,6.020092699337743e-07,1.081103122379744e-05
1.2639860827771095e-06,2.2148248757687943e-06,6.058306383803977e-07,1.083185110913876e-05
1.2649608782738584e-06,2.1963214033084135e-06,6.100090453438057e-07,1.0860485873215152e-05
1.2654093071248596e-06,2.178956967838921e-06,6.145047771401404e-07,1.0896374869183714e-05
1.2653665883418751e-06,2.162839125750613e-06,6.192721877871485e-07,1.093893655185384e-05
1.2648569405591659e-06,2.148077448643657e-06,6.242603552480706e-07,1.0987598590473199e-05
1.2638932813146289e-06,2.134771525841259e-06,6.29414538131668e-07,1.1041820692520402e-05
1.2624823713711356e-06,2.1230195517273816e-06,6.346777787388103e-07,1.110110445318456e-05
1.260631880925818e-06,2.1129278989074902e-06,6.399918254848804e-07,1.1164984701412808e-05
1.2583556365037331e-06,2.1046025081614897e-06,6.452971962464455e-07,1.1233006845600007e-05
1.255673529555891e-06,2.09812702939585e-06,6.505332377352563e-07,1.1304692694401185e-05
1.2526065334533295e-06,2.0935468137236425e-06,6.556388030726662e-07,1.1379497469583953e-05
1.249172334339628e-06,2.0908673376533438e-06,6.605532001105941e-07,1.1456785855396872e-05
1.245385431949208e-06,2.090056545801516e-06,6.652167205771375e-07,1.1535841835001038e-05
1.2412591754359476e-06,2.0910454571638297e-06,6.695710451679691e-07,1.1615887948605413e-05
1.236806351126345e-06,2.0937330877522493e-06,6.735603795405772e-07,1.169610384208677e-05
1.2320400139788427e-06,2.097995376511752e-06,6.771329820550057e-07,1.1775644653465336e-05
1.2269748444441408e-06,2.1036947565845712e-06,6.802423486478225e-07,1.185364992077198e-05
1.22162475543387e-06,2.1106951239228197e-06,6.828483519849441e-07,1.1929257449147593e-05
1.2159984287870398e-06,2.1188848311360147e-06,6.849194614396912e-07,1.2001638353536254e-05
1.210098433993722e-06,2.1281974485675962e-06,6.864366811653694e-07,1.2070032228204844e-05
1.203922442463422e-06,2.1386151659150256e-06,6.87397036063353e-07,1.21337621718493e-05
1.1974639389290965e-06,2.1501498961404827e-06,6.878128348775119e-07,1.2192241280143258e-05
1.190715908167215e-06,2.162812382658589e-06,6.877058541195813e-07,1.2244988995034736e-05
1.1836809194554457e-06,2.176586843071972e-06,6.870998838158219e-07,1.2291664526338436e-05
1.1763840995916912e-06,2.191423956267472e-06,6.860169361977825e-07,1.2332096816177533e-05
1.168878713772633e-06,2.2072511978136e-06,6.844802725930307e-07,1.2366265377763845e-05
1.161237158030734e-06,2.223989443484782e-06,6.825212761582259e-07,1.2394225135013793e-05
1.1535335075921929e-06,2.24156808882806e-06,6.801830402108464e-07,1.2416028817620615e-05
1.145830924583703e-06,2.259935195050745e-06,6.775175848913893e-07,1.2431698693830914e-05
1.1381778597863498e-06,2.279056882605025e-06,6.745806850743229e-07,1.2441250635925036e-05
1.1306081702854808e-06,2.2989026637542114e-06,6.71429774943659e-07,1.2444739107916956e-05
1.1231443452681172e-06,2.319424555817106e-06,6.681249493576923e-07,1.2442285169295669e-05
1.1158033234601043e-06,2.3405451530477533e-06,6.647277785300657e-07,1.2434068783340456e-05
1.1085995787288922e-06,2.362162680671736e-06,6.6129638109767e-07,1.2420330415323887e-05
1.1015446913381048e-06,2.3841676963028915e-06,6.578818127996701e-07,1.2401424874257525e-05
1.0946479206945313e-06,2.4064590004911687e-06,6.545279737613598e-07,1.2377851617346167e-05
1.0879180067860935e-06,2.4289475184002302e-06,6.512725109968954e-07,1.235017989778836e-05
1.0813628144923658e-06,2.451547381179161e-06,6.4814834401451e-07,1.2318926529391605e-05
1.0749873164732509e-06,2.474164016334317e-06,6.45185658305091e-07,1.2284494893314688e-05
1.0687918553490507e-06,2.4966863133838334e-06,6.424118006723913e-07,1.2247235387568532e-05
1.0627697367226637e-06,2.518983197943608e-06,6.398502585407708e-07,1.2207616521459246e-05
1.056904677903364e-06,2.5409043352930732e-06,6.375247262589157e-07,1.2166382148164933e-05
1.0511708131413131e-06,2.5622849414746967e-06,6.354691985078262e-07,1.2124551880692434e-05
1.04553507183634e-06,2.5829548423720922e-06,6.337363713436946e-07,1.2083284438320232e-05
1.0399596393125264e-06,2.602749839336196e-06,6.323968175041852e-07,1.204372668728402e-05
1.0344047070612212e-06,2.6215195059788645e-06,6.315284977428307e-07,1.2006906132749224e-05
1.0288323796097551e-06,2.639128928797327e-06,6.312035188527689e-07,1.1973656996259693e-05
1.0232098458353412e-06,2.655458480067246e-06,6.314800637462943e-07,1.19445680612606e-05
1.0175105527295465e-06,2.6704056492174197e-06,6.324001055298317e-07,1.1919960323544175e-05
1.0117133198290336e-06,2.6838882770622544e-06,6.339893466532458e-07,1.1899902334625987e-05
1.0057991362824836e-06,2.6958470274404136e-06,6.36258250637154e-07,1.1884250123716147e-05
9.997489285412589e-07,2.7062490893612863e-06,6.392030467867398e-07,1.1872688013987522e-05
9.935461192026944e-07,2.715093694909172e-06,6.428057145770603e-07,1.1864759676259916e-05
9.871815460954858e-07,2.722411123967438e-06,6.470349767496235e-07,1.1859903572890093e-05
9.806550945384564e-07,2.7282499094917976e-06,6.518488646720372e-07,1.1857504917557975e-05
9.739722922583338e-07,2.732663671600948e-06,6.571972929298184e-07,1.1856949467394785e-05
9.67139502910575e-07,2.7357104155798543e-06,6.63025973426996e-07,1.1857669122698386e-05
9.601612373664292e-07,2.7374562196634315e-06,6.692827853692094e-07,1.1859187644827315e-05
9.53040005639315e-07,2.73796881249526e-06,6.759237626706744e-07,1.1861149342268548e-05
9.457799235859072e-07,2.7373050690249342e-06,6.829155438053645e-07,1.1863302902226123e-05
9.383947786547865e-07,2.735503703433757e-06,6.902335339362078e-07,1.1865457862866549e-05
9.309161188015699e-07,2.7325830796040417e-06,6.978574290037205e-07,1.1867443812904813e-05
9.233953902864996e-07,2.7285414551731894e-06,7.057665274784148e-07,1.1869071747765284e-05
9.158976506503937e-07,2.72336317160576e-06,7.139358895959105e-07,1.1870094535000535e-05
9.084894216196586e-07,2.7170300652390264e-06,7.223340903644184e-07,1.1870182768928737e-05
9.012284414652681e-07,2.7095303095221507e-06,7.309229710774362e-07,1.186893987294077e-05
8.941605306933953e-07,2.7008608396673093e-06,7.39658475437045e-07,1.1865967960226047e-05
8.873197821818949e-07,2.6910252819135588e-06,7.484931236459934e-07,1.1860961903475185e-05
8.807281202182066e-07,2.680029807321201e-06,7.573796575504751e-07,1.1853772322373958e-05
8.743958155237587e-07,2.66787940309426e-06,7.662715969957301e-07,1.1844394048807173e-05
8.683236506308291e-07,2.654579798665643e-06,7.751209400673585e-07,1.1832906819466458e-05
8.62506626841448e-07,2.6401491064671242e-06,7.838781785124026e-07,1.1819423308006676e-05
8.569401677794694e-07,2.6246308192800383e-06,7.924952106420656e-07,1.1804061980110815e-05
8.51625781385624e-07,2.608092200722925e-06,8.009284757601253e-07,1.1786924962228242e-05
8.46572465665051e-07,2.590607677865112e-06,8.091423370492753e-07,1.176806178771505e-05
8.417960963235814e-07,2.572246744902657e-06,8.171127086519213e-07,1.1747445275754585e-05
8.373200338179135e-07,2.5530777729671964e-06,8.248270494097901e-07,1.1725014590672065e-05
8.331757522487116e-07,2.53317536066727e-06,8.322787881201652e-07,1.1700778502654175e-05
8.294008934704077e-07,2.512617912401297e-06,8.394615695884564e-07,1.167489423275614e-05
8.260349047639626e-07,2.491478523242252e-06,8.463686927519502e-07,1.1647662590427905e-05
8.231138152318391e-07,2.4698180781152246e-06,8.529948319963144e-07,1.161946007084232e-05
8.206657875893309e-07,2.4476842919167753e-06,8.593338054804754e-07,1.1590660551236138e-05
8.187114918072111e-07,2.4251151929351933e-06,8.653736662760982e-07,1.1561576423290532e-05
8.172714501982767e-07,2.402143365671688e-06,8.710955093089971e-07,1.1532421410541495e-05
8.163747728145177e-07,2.3787971403865793e-06,8.764766234165419e-07,1.1503302474761185e-05
8.160618270471912e-07,2.3551011139256764e-06,8.814941974059532e-07,1.1474241546324082e-05
8.163792148453844e-07,2.331087755194775e-06,8.861274315530495e-07,1.1445199719653513e-05
8.173712014463395e-07,2.3068209981330365e-06,8.903573237300894e-07,1.141608688712908e-05
8.190730506708869e-07,2.282408395735824e-06,8.941646774568087e-07,1.1386769619809287e-05
8.215071635486123e-07,2.2579914688682157e-06,8.97527893165354e-07,1.1357115845080044e-05
8.246796363750404e-07,2.233741224053572e-06,9.004232617081276e-07,1.1327090301899993e-05
8.285788265810545e-07,2.2098739489916483e-06,9.028312777466109e-07,1.1296809105618234e-05
8.331782467747626e-07,2.1866629444352047e-06,9.047462253113254e-07,1.126648530820286e-05
8.384408482613259e-07,2.164423768877081e-06,9.06179636168065e-07,1.123638297799556e-05
8.443219689642142e-07,2.143476968556199e-06,9.071542431990265e-07,1.1206866157778031e-05
8.50771468877613e-07,2.124108468600174e-06,9.07694195915787e-07,1.1178426279268408e-05
8.577354239753841e-07,2.106545924569305e-06,9.078183050165432e-07,1.1151609109513111e-05
8.651578316090299e-07,2.0909521033973406e-06,9.075392028051524e-07,1.1126909602342916e-05
8.729825723698883e-07,2.0774273547698586e-06,9.068658368015228e-07,1.1104695051980611e-05
8.811538405954559e-07,2.066016617772012e-06,9.058050972384535e-07,1.1085164577883673e-05
8.896140888937523e-07,2.0567215820641546e-06,9.043624823439964e-07,1.106833980484912e-05
8.983017661118263e-07,2.049522242339184e-06,9.025443008355728e-07,1.105407503825696e-05
9.071507031377199e-07,2.0444040809495547e-06,9.003611211924696e-07,1.1042075968739604e-05
9.160910888682571e-07,2.0413767389986143e-06,8.978288804064669e-07,1.1031923426321311e-05
9.250519400782423e-07,2.0404775798717395e-06,8.949659516053852e-07,1.102309897643456e-05
9.339649891788792e-07,2.0417688557786688e-06,8.917893451658361e-07,1.1015005732922274e-05
9.427694980564439e-07,2.0453360769993897e-06,8.883142284953364e-07,1.1006983780999407e-05
9.514149924418659e-07,2.051280873031441e-06,8.845558110222365e-07,1.09983279335215e-05
9.598590808757028e-07,2.0596998024158943e-06,8.805297694276815e-07,1.0988316602282504e-05
9.680626911522082e-07,2.0706578895098786e-06,8.762517435646789e-07,1.0976255575381821e-05
9.759856638271995e-07,2.084180695162331e-06,8.717380899103056e-07,1.0961528837759764e-05
9.835833508872507e-07,2.100273706477332e-06,8.670062957626854e-07,1.0943632690731957e-05
9.90806105217635e-07,2.118945333519208e-06,8.620730498076637e-07,1.092217101999472e-05
9.976030978180584e-07,2.14020980600992e-06,8.569517285776176e-07,1.0896819928302142e-05
1.003927071421236e-06,2.1640743341618117e-06,8.516523459865756e-07,1.0867291973309333e-05
1.009735769062923e-06,2.1905250953924597e-06,8.461833893579063e-07,1.0833318646135774e-05
1.0149927810664222e-06,2.2195176468834744e-06,8.405522511311528e-07,1.0794650536515697e-05
1.0196719817720615e-06,2.2509709583264253e-06,8.347639358605845e-07,1.0751067124611534e-05
1.0237627944825682e-06,2.2847637988676475e-06,8.288209107949342e-07,1.070238477400815e-05
1.0272729501896266e-06,2.3207340490637704e-06,8.227241370302728e-07,1.0648453778775817e-05
1.0302284696078731e-06,2.3586831740187047e-06,8.164726499935031e-07,1.0589144753797568e-05
1.0326709489736035e-06,2.398384382882691e-06,8.100627427050413e-07,1.0524335861260273e-05
1.0346540787929398e-06,2.43958826576924e-06,8.034893768783339e-07,1.0453931361735904e-05
1.0362400662428202e-06,2.48202784631657e-06,7.967480048406274e-07,1.0377929619132724e-05
1.0374929166608068e-06,2.5254320422696165e-06,7.898342729053433e-07,1.029648957159875e-05
1.0384699623939957e-06,2.5695448685649433e-06,7.827439959632953e-07,1.020992066739588e-05
1.039219574312904e-06,2.614140624161017e-06,7.754764354903394e-07,1.0118600301910396e-05
1.0397876435109292e-06,2.659029590814157e-06,7.680389879407477e-07,1.0022896112114373e-05
1.0402252912934592e-06,2.7040491028312984e-06,7.604503377168117e-07,9.923147668172024e-06
1.0405892517656544e-06,2.749044634156925e-06,7.527415433754702e-07,9.819696023489397e-06
1.040933670814933e-06,2.793859907981263e-06,7.449540642888726e-07,9.712913329297162e-06
1.0413007393799342e-06,2.8383445525961632e-06,7.371345955829544e-07,9.60320426340698e-06
1.0417169710673607e-06,2.882364427743956e-06,7.293308111931865e-07,9.491011930473524e-06
1.042195016992406e-06,2.925797510750688e-06,7.21590625069077e-07,9.376851512519056e-06
1.042742509173358e-06,2.9685206895483632e-06,7.139610346457804e-07,9.261320617951806e-06
1.043377287935747e-06,3.0104115381656624e-06,7.064836484738327e-07,9.14505393224939e-06
1.0441374063046462e-06,3.0513758304342225e-06,6.991909595503682e-07,9.028659677030343e-06
1.0450784216888336e-06,3.0913812232708684e-06,6.921078972946159e-07,8.912672380160935e-06
1.0462636656165452e-06,3.1304693179409167e-06,6.852572020897297e-07,8.797529753121479e-06
1.047753725530483e-06,3.1687371956883703e-06,6.786639191444559e-07,8.683587328313444e-06
1.0495970943146091e-06,3.2063020548825136e-06,6.723561428338702e-07,8.571173667794448e-06
1.0518247584137337e-06,3.2432668564852414e-06,6.66361730807836e-07,8.4606437690994e-06
1.0544511105029397e-06,3.279695688107141e-06,6.607034165633647e-07,8.352381429283756e-06
1.057479444304678e-06,3.31560466009248e-06,6.553962772168153e-07,8.24675225254343e-06
1.0609085779216394e-06,3.350968906197225e-06,6.504484835503471e-07,8.144056274674652e-06
1.0647377336649915e-06,3.3857345660529077e-06,6.458627592351286e-07,8.04454549129572e-06
1.068966427345442e-06,3.419825592880638e-06,6.416363149978222e-07,7.948514658663557e-06
1.0735888282911935e-06,3.4531438193758063e-06,6.377599103515586e-07,7.856367716803901e-06
1.078586947283029e-06,3.4855654037765616e-06,6.342187429079805e-07,7.76860880745764e-06
1.0839281557438271e-06,3.5169421204063387e-06,6.309953835513952e-07,7.685837601042871e-06
1.0895698200880795e-06,3.547113551795056e-06,6.280721712704437e-07,7.608756900572522e-06
1.0954687893207823e-06,3.5759228387556686e-06,6.254323323121181e-07,7.538111926657931e-06
1.1015889681258574e-06,3.6032247062227744e-06,6.230611967261467e-07,7.474589388465637e-06
1.1079019718916314e-06,3.6288829561363563e-06,6.209483308713002e-07,7.4187508692056626e-06
1.1143824468795731e-06,3.652763028838186e-06,6.190897947933608e-07,7.3709968755303265e-06
1.1210019429798329e-06,3.6747319479528673e-06,6.174897690719699e-07,7.33154955301145e-06
1.1277241663840136e-06,3.6946710114662217e-06,6.161612647102109e-07,7.300461105158827e-06
1.134504617836676e-06,3.7124853778316163e-06,6.151233634723814e-07,7.277634883615635e-06
1.1412939069420174e-06,3.728096235597969e-06,6.143956501307136e-07,7.262848283705409e-06
1.1480393632721274e-06,3.741430086892948e-06,6.139974111551951e-07,7.255780660101172e-06
1.1546836154330072e-06,3.752426599388494e-06,6.139540065959479e-07,7.256040694261306e-06
1.1611647144563474e-06,3.761059922916256e-06,6.14303743793541e-07,7.263178042399507e-06
1.1674190671273432e-06,3.7673513943827295e-06,6.150989573207541e-07,7.276677678837817e-06
1.17338441546748e-06,3.7713622895683853e-06,6.163991868334429e-07,7.295956194062343e-06
1.179002398505797e-06,3.773172670984362e-06,6.182600431150655e-07,7.320370878222012e-06
1.1842206444710665e-06,3.7728598286124534e-06,6.207246957880765e-07,7.349241215501497e-06
1.1889927014572935e-06,3.7704886976797737e-06,6.238199192027597e-07,7.3818821032648236e-06
1.1932753192215262e-06,3.766121843903917e-06,6.275546179706445e-07,7.417630175123358e-06
1.1970252292899678e-06,3.759844494924542e-06,6.319202673033156e-07,7.455854576371788e-06
1.2001983236457528e-06,3.7517855160648385e-06,6.368925524568703e-07,7.495971553726861e-06
1.202750969931261e-06,3.7421146899892442e-06,6.424336271442399e-07,7.5374599417220165e-06
1.2046408217157977e-06,3.731020773792733e-06,6.484965160360389e-07,7.579853408358032e-06
1.2058267341470637e-06,3.7187030480421294e-06,6.550305618527977e-07,7.622714920939328e-06
1.206269296807003e-06,3.7053891244930914e-06,6.619841525004176e-07,7.665620853031177e-06
1.2059325210185594e-06,3.6913435796389673e-06,6.693053862587311e-07,7.708160711985725e-06
1.2047867973108238e-06,3.676844180256795e-06,6.769425022447893e-07,7.749936758124487e-06
1.2028124006537564e-06,3.662161663950402e-06,6.848425145596456e-07,7.790553283253836e-06
1.2000004698889446e-06,3.6475787096221603e-06,6.92949031947905e-07,7.829601572770457e-06
1.1963500064717501e-06,3.6334210623024803e-06,7.012014968270882e-07,7.8666612551915e-06
