6.70501558951881e-07,2.958572072908847e-06,5.791612282429991e-07,1.0497241358296157e-05
6.705958982554693e-07,2.9530082111233976e-06,5.818163967454433e-07,1.0535260631487615e-05
6.706370476261785e-07,2.9443271741828507e-06,5.843773423471362e-07,1.0572570540506903e-05
6.706034136913666e-07,2.9325816264584487e-06,5.868250360797567e-07,1.0608929344967384e-05
6.704822756052364e-07,2.9178600028580033e-06,5.891408946171041e-07,1.0644061244891374e-05
6.702718814539143e-07,2.9002894904394816e-06,5.91307126779079e-07,1.0677680016697616e-05
6.699782678718455e-07,2.880036522725405e-06,5.933063874861527e-07,1.0709489713026824e-05
6.696106880841805e-07,2.8573085904810903e-06,5.951232002492936e-07,1.0739166709272148e-05
6.691804657405424e-07,2.8323519336565863e-06,5.967461040658057e-07,1.0766341716445676e-05
6.687026453288403e-07,2.8054354382333727e-06,5.981669005657846e-07,1.0790618105848133e-05
6.681966182558958e-07,2.776825705686403e-06,5.993772299866796e-07,1.0811632798647827e-05
6.676847179192871e-07,2.7467690744208046e-06,6.003661040722075e-07,1.0829096379756771e-05
6.671901331619018e-07,2.7154876702681635e-06,6.011199400614397e-07,1.0842763508634504e-05
6.6673370729915e-07,2.683186938179464e-06,6.016237707820804e-07,1.0852382526517627e-05
6.663297177260692e-07,2.6500654441667218e-06,6.01862148946853e-07,1.0857700100209294e-05
6.659831332665628e-07,2.616315247041539e-06,6.018193107503438e-07,1.0858506057230836e-05
6.656897503702232e-07,2.582115234854316e-06,6.014788991767482e-07,1.0854643736783493e-05
6.654384591147796e-07,2.5476277352385053e-06,6.00823898345154e-07,1.0845976809599085e-05
6.652136792667346e-07,2.5129992399086887e-06,5.998367896406184e-07,1.0832375287676815e-05
6.649963431009701e-07,2.478369619275696e-06,5.984997191565041e-07,1.081377103875261e-05
6.647638067596734e-07,2.443896542614865e-06,5.96795320694349e-07,1.079026290438774e-05
6.644896299436711e-07,2.4097811158192193e-06,5.947081584844551e-07,1.076217441223291e-05
6.641441437267784e-07,2.3762725842696225e-06,5.922255260379854e-07,1.072999792461307e-05
6.636976770857957e-07,2.3436473235463957e-06,5.893379791711366e-07,1.0694275134538202e-05
6.631257115959575e-07,2.312175395259197e-06,5.860415000826882e-07,1.065549098695607e-05
6.62410626688026e-07,2.2820948040639907e-06,5.82339911997617e-07,1.0614030183208684e-05
6.615387486723414e-07,2.253603724909681e-06,5.782437792204791e-07,1.0570249877021927e-05
6.605002383622986e-07,2.226860899229935e-06,5.737661421118654e-07,1.052464058377799e-05
6.592977832236174e-07,2.2019820454082244e-06,5.689192664521269e-07,1.0477921834811425e-05
6.579587193312439e-07,2.1790374901632902e-06,5.637146122187335e-07,1.0430987920030292e-05
6.56537238829653e-07,2.1580588143841354e-06,5.581644631918532e-07,1.0384784126605104e-05
6.551016334081025e-07,2.139047584098416e-06,5.522830336127686e-07,1.0340202921408307e-05
6.537196774548872e-07,2.12197765345345e-06,5.460868850306757e-07,1.0298021061951667e-05
6.524564298474339e-07,2.1067945325647617e-06,5.39595662172571e-07,1.0258878025236412e-05
6.513835610052126e-07,2.0934196948608762e-06,5.328327605531443e-07,1.0223282088430113e-05
6.50591171293852e-07,2.081759892235713e-06,5.258245921717224e-07,1.0191622060664382e-05
6.501938484258163e-07,2.0717135493193385e-06,5.185994534056779e-07,1.0164174101125133e-05
6.503263705303644e-07,2.0631708858183708e-06,5.111871549063387e-07,1.014109564888953e-05
6.511302891925787e-07,2.0560145249334863e-06,5.036185740768219e-07,1.0122404946972192e-05
6.527371932136222e-07,2.050124533743232e-06,4.959272269583048e-07,1.0107970779192456e-05
6.552552568090096e-07,2.0453818489691613e-06,4.881561475731339e-07,1.0097539913122113e-05
6.587642813929989e-07,2.041665218969599e-06,4.803659641513565e-07,1.0090789521740642e-05
6.633198042435235e-07,2.038846267635216e-06,4.7263542717843904e-07,1.0087373694242804e-05
6.689585852059789e-07,2.0367897127483774e-06,4.650523061880517e-07,1.008696651969348e-05
6.756988863608683e-07,2.035358040736252e-06,4.5770125209187143e-07,1.008931169747233e-05
6.835403924500539e-07,2.03441440137144e-06,4.5065618604449556e-07,1.0094256288266607e-05
6.924681257905743e-07,2.0338216198033816e-06,4.439790137117115e-07,1.010175456273568e-05
7.024546364016458e-07,2.0334427174222647e-06,4.3772109089842653e-07,1.0111861492247267e-05
7.134582046432054e-07,2.033150060677436e-06,4.3192556546037224e-07,1.0124727070840691e-05
7.254229460115628e-07,2.0328410581347302e-06,4.266314848321098e-07,1.0140577551918464e-05
7.382825817693825e-07,2.0324463446120463e-06,4.2187724006116844e-07,1.015967130142018e-05
7.51966121463304e-07,2.0319204471951582e-06,4.176998204610951e-07,1.0182231671037241e-05
7.664066322119733e-07,2.031225200665634e-06,4.1413129587700145e-07,1.020837442790516e-05
7.815504050304435e-07,2.0303246852172592e-06,4.1119649457167626e-07,1.0238063011837257e-05
7.973585572830365e-07,2.029193850265967e-06,4.0891268388729504e-07,1.0271108274151056e-05
8.137992195024585e-07,2.0278253243450904e-06,4.072901872745135e-07,1.030718657033335e-05
8.308361663421679e-07,2.0262236832753533e-06,4.063350379557376e-07,1.0345854593104107e-05
8.484196961514641e-07,2.024397259897925e-06,4.0605380394617026e-07,1.0386580331272792e-05
8.664833785964539e-07,2.022364829998764e-06,4.064575631918917e-07,1.042880494425343e-05
8.849466861645266e-07,2.0201759163209912e-06,4.075625565887214e-07,1.0472008940830168e-05
9.037192184906586e-07,2.01792370292754e-06,4.093869043008485e-07,1.0515736043056318e-05
9.227043887475264e-07,2.015733122986905e-06,4.11945002700362e-07,1.0559559405030189e-05
9.418044231801957e-07,2.013735306547388e-06,4.15243743790573e-07,1.0603035565041138e-05
9.60926646723834e-07,2.0120605595073706e-06,4.192827876321378e-07,1.064568766559188e-05
9.799888309187371e-07,2.010860945641874e-06,4.240569603518493e-07,1.0687005480872086e-05
9.989206601035462e-07,2.0103380257340504e-06,4.2955882911357757e-07,1.0726460929561646e-05
1.0176590044607912e-06,2.010745933908245e-06,4.3578058303941144e-07,1.0763563241418824e-05
1.0361417499519243e-06,2.0123639420200127e-06,4.4271386541764994e-07,1.0797922768363126e-05
1.0543070526679856e-06,2.015459308106786e-06,4.503468732251132e-07,1.0829252154174704e-05
1.0720947417802583e-06,2.020263016462182e-06,4.5866015129587e-07,1.0857306008572419e-05
1.08944522948267e-06,2.026959561072004e-06,4.6762557405336715e-07,1.0881835516604016e-05
1.1062993280906971e-06,2.0356801516998715e-06,4.772114875518455e-07,1.0902597631962288e-05
1.1225993868742972e-06,2.046498574795936e-06,4.873893307774898e-07,1.0919387128455782e-05
1.138287985133714e-06,2.059438061796656e-06,4.981349571893371e-07,1.0932045825275574e-05
1.1533053785529982e-06,2.0744876813178e-06,5.094239281454077e-07,1.0940437468655118e-05
1.1675895477820206e-06,2.0916124523875013e-06,5.212255804113851e-07,1.0944446235877218e-05
1.1810796759850164e-06,2.110748012370604e-06,5.335012949013247e-07,1.0944070976674793e-05
1.193719251091954e-06,2.1317914786299823e-06,5.462072254908208e-07,1.093954779006572e-05
1.2054556868809826e-06,2.154607720423446e-06,5.592975185471778e-07,1.0931353906996263e-05
1.2162399323429464e-06,2.179055600101582e-06,5.727256330794287e-07,1.0920091567168152e-05
1.22602845277665e-06,2.205018928594297e-06,5.864428039275776e-07,1.090635652216053e-05
1.2347841589470029e-06,2.2324224526614393e-06,6.003944535619187e-07,1.0890658772362882e-05
1.2424752182651635e-06,2.261225326831153e-06,6.145180034768578e-07,1.0873456789227948e-05
1.249073285733141e-06,2.2913990398142085e-06,6.287436558128998e-07,1.0855314836460244e-05
1.2545520325642833e-06,2.3229031913141066e-06,6.429965296425286e-07,1.0837048270711458e-05
1.2588874784102208e-06,2.355668482122461e-06,6.57198660998392e-07,1.0819732733610264e-05
1.2620595803913945e-06,2.3895874725346026e-06,6.712707433052097e-07,1.0804619932935902e-05
1.2640533424608224e-06,2.424512565499305e-06,6.851339851968434e-07,1.0793043126371242e-05
1.2648590110633037e-06,2.4602616020167257e-06,6.987124770707678e-07,1.0786321602195597e-05
1.264470813533485e-06,2.496627031606586e-06,7.119356592847034e-07,1.078566247624849e-05
1.2628858012098743e-06,2.5333891894075696e-06,7.24739800555488e-07,1.0792083897574166e-05
1.2601056354030424e-06,2.570336978078036e-06,7.370679023927617e-07,1.0806375530864373e-05
1.2561409608186225e-06,2.6072864319037118e-06,7.488676168937255e-07,1.0829091020980355e-05
1.2510161530702574e-06,2.6440855294580302e-06,7.600886952350148e-07,1.0860560697022607e-05
1.2447705904249138e-06,2.6806066641387963e-06,7.70682705984548e-07,1.0900910771559752e-05
1.237453366695954e-06,2.716734462377236e-06,7.806043299528443e-07,1.0950070872367188e-05
1.229117293417085e-06,2.7523545108944342e-06,7.898131418464146e-07,1.1007765779206776e-05
1.219820573695807e-06,2.78734455724333e-06,7.982769166886616e-07,1.1073515857753353e-05
1.2096334294290049e-06,2.821570248018183e-06,8.059751722650868e-07,1.114667016101718e-05
1.1986407486415985e-06,2.854889436513239e-06,8.128997813616651e-07,1.122646995853842e-05
1.1869378243677065e-06,2.887160733617823e-06,8.190514823196356e-07,1.1312124776929775e-05
1.1746223939637672e-06,2.9182465025636384e-06,8.244345606389687e-07,1.1402876608873034e-05
1.1617878198200113e-06,2.9480120179031034e-06,8.290538994408032e-07,1.1498040377383753e-05
1.1485241687886596e-06,2.9763272642780534e-06,8.329155189030281e-07,1.159703189935651e-05
1.1349297241659318e-06,3.003066454481187e-06,8.360275869843045e-07,1.1699386567464212e-05
1.1211214120796977e-06,3.0281021326353225e-06,8.384002152307257e-07,1.1804754327392725e-05
1.1072301436292836e-06,3.0513047755398907e-06,8.400450259785665e-07,1.1912868435792935e-05
1.0933844224533077e-06,3.0725532303646494e-06,8.409742895740729e-07,1.2023500929058513e-05
1.0796965393036849e-06,3.091745361998473e-06,8.411989389211569e-07,1.2136407280102424e-05
1.0662591289771095e-06,3.108800476133955e-06,8.407274501751886e-07,1.22512604573143e-05
1.0531513156979152e-06,3.123654288300916e-06,8.395680987083715e-07,1.236760212076158e-05
1.0404486861324366e-06,3.1362490880860678e-06,8.37733237063607e-07,1.2484830962515817e-05
1.0282292921351385e-06,3.146524626948139e-06,8.352414417931288e-07,1.2602209643773194e-05
1.0165720092902442e-06,3.15441521205853e-06,8.321166821642914e-07,1.2718878578820042e-05
1.0055496155236479e-06,3.1598508697797544e-06,8.283875998779167e-07,1.283388443434134e-05
9.9522191694546e-07,3.162759103434115e-06,8.240872268636907e-07,1.2946224072581195e-05
9.85632420120777e-07,3.163069887416608e-06,8.192504605035489e-07,1.305488644195369e-05
9.768074764358562e-07,3.160725028766143e-06,8.139104607428736e-07,1.3158868547128909e-05
9.6875682020258e-07,3.1556851328242033e-06,8.080981446202635e-07,1.3257170990591415e-05
9.614771220525855e-07,3.1479286380622344e-06,8.018445525149091e-07,1.334880220394624e-05
9.549586311642214e-07,3.1374481968464686e-06,7.951829897431576e-07,1.3432806637479066e-05
9.491907514280392e-07,3.124252487703836e-06,7.881522446513021e-07,1.350831449395844e-05
9.441616545139944e-07,3.1083724798066536e-06,7.808019462185821e-07,1.357459852879332e-05
9.398529469779892e-07,3.0898658090807597e-06,7.731942354275738e-07,1.3631101432192912e-05
9.362356325939848e-07,3.0688147745942052e-06,7.653985352242781e-07,1.3677397974427445e-05
9.332705504494335e-07,3.0453169009465362e-06,7.574848606535046e-07,1.3713126798287179e-05
9.309108425079006e-07,3.019473319382222e-06,7.495199103030885e-07,1.373797970615804e-05
9.291042855396551e-07,2.9913826039691767e-06,7.415648953611257e-07,1.3751756309589576e-05
9.277973183020996e-07,2.961139732167167e-06,7.336734268827761e-07,1.3754402811604504e-05
9.269406613898485e-07,2.928835340851477e-06,7.258894617488103e-07,1.3746000407633691e-05
9.26492375903258e-07,2.8945547255373003e-06,7.182470235512669e-07,1.372673055799093e-05
9.264171394673872e-07,2.8583785197880123e-06,7.107722340906754e-07,1.369684831823419e-05
9.266832931810718e-07,2.8203880152938577e-06,7.034854754307425e-07,1.3656718356283654e-05
9.272592205953078e-07,2.7806754229825242e-06,6.964024253595808e-07,1.3606910690792325e-05
9.2811099023925e-07,2.7393507016152968e-06,6.895353255104832e-07,1.3548227501240348e-05
9.292010197425831e-07,2.696537209258566e-06,6.828947866454061e-07,1.3481604582489204e-05
9.304880116848673e-07,2.6523606960051724e-06,6.764904406586407e-07,1.3407986489253462e-05
9.319325738750994e-07,2.606942125689875e-06,6.703304774089807e-07,1.332825302900395e-05
9.335079611188897e-07,2.5604003843145044e-06,6.64421731877086e-07,1.3243230474279794e-05
9.352061114375713e-07,2.512863849285108e-06,6.587714851960976e-07,1.3153807905692813e-05
9.370338476020813e-07,2.464483486812532e-06,6.533906235088352e-07,1.3061062668991554e-05
9.390042750439451e-07,2.4154387216459147e-06,6.48295132039263e-07,1.2966263480241185e-05
9.411302296737469e-07,2.36593267140615e-06,6.43503623447625e-07,1.2870772290715918e-05
9.434246819527808e-07,2.316178873843476e-06,6.390326105347373e-07,1.2775941430142226e-05
9.459056353122673e-07,2.266384181496368e-06,6.348923983023333e-07,1.2683036297755922e-05
9.485968908232736e-07,2.216735516112737e-06,6.31084955273497e-07,1.2593175296814729e-05
9.515239707933756e-07,2.1673961711766656e-06,6.276041991625468e-07,1.2507289668830086e-05
9.547112426913772e-07,2.1185094097204048e-06,6.24439557192702e-07,1.242611398631221e-05
9.581807883562485e-07,2.0702042909215128e-06,6.215819846330111e-07,1.235020516553072e-05
9.619498186926846e-07,2.022599224047475e-06,6.190278475389206e-07,1.2279965750483955e-05
9.660271105658987e-07,1.975800096638764e-06,6.167774604948472e-07,1.2215644326161835e-05
9.704110291246692e-07,1.929895772442756e-06,6.148300210831478e-07,1.2157312804825328e-05
9.75088776911038e-07,1.8849577973010468e-06,6.13179491160512e-07,1.2104854307488353e-05
9.80036499613814e-07,1.8410518335345455e-06,6.118162292490118e-07,1.20579888779318e-05
9.852225214455706e-07,1.7982645770939513e-06,6.107344896654651e-07,1.2016326884928944e-05
9.90612916185162e-07,1.7567357258160126e-06,6.099387103079539e-07,1.1979428983001967e-05
9.961746112593763e-07,1.7166755524350804e-06,6.094420923330816e-07,1.1946862696155542e-05
1.001873647300098e-06,1.6783553259789225e-06,6.092605337138331e-07,1.1918245345174612e-05
1.0076711869098104e-06,1.6420726965546655e-06,6.094080571979472e-07,1.1893270225751207e-05
1.0135210976238706e-06,1.6081168125065163e-06,6.098934689295008e-07,1.1871731906185954e-05
1.0193702007274747e-06,1.576760771250901e-06,6.107174474521565e-07,1.185355097799066e-05
1.0251604176175188e-06,1.5482715510839519e-06,6.118725622129011e-07,1.1838767130647882e-05
1.0308324709611929e-06,1.5229065379056397e-06,6.133454135200396e-07,1.182748957024904e-05
1.036331300364032e-06,1.50089181366945e-06,6.151168906070843e-07,1.1819835993088025e-05
1.0416120319808227e-06,1.4823994138812197e-06,6.171606126862057e-07,1.181587946786264e-05
1.0466427258976956e-06,1.4675373695728946e-06,6.194434681891658e-07,1.1815607052680293e-05
1.0514026925700377e-06,1.4563568271152544e-06,6.219295974652205e-07,1.1818923312194534e-05
1.0558797288360908e-06,1.4488702388774137e-06,6.245856038297375e-07,1.1825694528864233e-05
1.0600665119944688e-06,1.445069214947716e-06,6.273847563536122e-07,1.1835761277251335e-05
1.063956197992741e-06,1.444934386896821e-06,6.303085800796827e-07,1.1848906687212073e-05
1.067543442313448e-06,1.448435565290516e-06,6.33344167390122e-07,1.1864844089740519e-05
1.070832946595032e-06,1.4555239758042096e-06,6.364781504931324e-07,1.1883246425099545e-05
1.073848080994886e-06,1.4661213955749656e-06,6.396921253657448e-07,1.1903769606021096e-05
1.0766327783599984e-06,1.48011340139473e-06,6.429632662230737e-07,1.1926029893837347e-05
1.0792459532916882e-06,1.4973501611539213e-06,6.462677222059912e-07,1.1949569562982864e-05
1.0817506672473707e-06,1.5176553327154983e-06,6.495812220885765e-07,1.197386763685329e-05
1.0842027548016277e-06,1.5408459990064726e-06,6.528763643706215e-07,1.1998390081085615e-05
1.0866449966571856e-06,1.5667572874845508e-06,6.561208731859997e-07,1.2022636467875453e-05
1.089107485215012e-06,1.5952518534064356e-06,6.5927834032336e-07,1.2046174187583929e-05
1.091609390754303e-06,1.6262044568601436e-06,6.623100172848307e-07,1.2068668135293208e-05
1.0941606563307323e-06,1.6594778085660591e-06,6.651770080389357e-07,1.2089879404075094e-05
1.0967662393315334e-06,1.6949134064578086e-06,6.678418363980659e-07,1.2109614485460413e-05
1.0994318800292978e-06,1.732337243642485e-06,6.702683096791479e-07,1.2127660481937911e-05
1.1021659133109038e-06,1.7715622981676945e-06,6.724212010271139e-07,1.2143757093087475e-05
1.1049755329939662e-06,1.812388008311295e-06,6.742680632998014e-07,1.2157616329370094e-05
1.107862025875352e-06,1.8546094565616485e-06,6.757837032584371e-07,1.2168958849208126e-05
1.1108180892247304e-06,1.8980274229927646e-06,6.769548280730237e-07,1.2177538120164165e-05
1.1138274979327198e-06,1.942444304609285e-06,6.777801257186865e-07,1.218314979857562e-05
1.116868057201496e-06,1.9876579413496453e-06,6.782648099426257e-07,1.218565942864835e-05
1.119915791932319e-06,2.033469015756992e-06,6.784147891151474e-07,1.2185065373885934e-05
1.122944700793424e-06,2.079690154116498e-06,6.782359900591142e-07,1.2181521113255045e-05
1.1259221540011437e-06,2.126140643283652e-06,6.777389026391365e-07,1.2175258971171367e-05
1.1288077137473749e-06,2.172632087268013e-06,6.769427787677117e-07,1.2166494018403705e-05
1.131560452452243e-06,2.218959170863801e-06,6.758743641209471e-07,1.215540707032296e-05
1.1341498828935742e-06,2.264898849397641e-06,6.745630181414842e-07,1.2142222026534333e-05
1.1365608339451174e-06,2.3102129668788947e-06,6.730381688472118e-07,1.2127344244816452e-05
1.1387891175405631e-06,2.354653976516236e-06,6.713293178126732e-07,1.2111473214681344e-05
1.1408350636035393e-06,2.3979749558345227e-06,6.694643767248075e-07,1.2095581906568953e-05
1.1427062139365934e-06,2.439940660362324e-06,6.674680212782565e-07,1.2080771813957248e-05
1.1444324822507293e-06,2.480335949581337e-06,6.653647496543144e-07,1.2068110495257714e-05
1.146082009768279e-06,2.5189683853054167e-06,6.631832093154508e-07,1.205851822644992e-05
1.1477614997433142e-06,2.555664034787601e-06,6.609556573666543e-07,1.205271331041569e-05
1.1495961665885435e-06,2.5902605275893842e-06,6.587149943853961e-07,1.2051195442411094e-05
1.1517015443207384e-06,2.622603468391427e-06,6.564933581205864e-07,1.2054237508930538e-05
1.154166951447084e-06,2.6525515770029585e-06,6.543210830506106e-07,1.2061885226996146e-05
1.157058657128362e-06,2.679988950564353e-06,6.522255758983568e-07,1.2073973286037186e-05
1.1604321140121428e-06,2.704833035644952e-06,6.502314035105082e-07,1.2090148171179166e-05
1.1643387850715688e-06,2.727030623588722e-06,6.483620902394105e-07,1.2109895193317198e-05
1.168825267325117e-06,2.746547582223458e-06,6.466417559552664e-07,1.2132581034701575e-05
1.1739302430825537e-06,2.76336133842499e-06,6.450928587292478e-07,1.2157515895228164e-05
1.179681122113092e-06,2.7774572691923044e-06,6.437311227151619e-07,1.21840286676949e-05
1.1860896519311613e-06,2.7888259521004424e-06,6.425627254953332e-07,1.2211541034346778e-05
1.193147802961079e-06,2.797463160567823e-06,6.415846825259608e-07,1.2239618374966274e-05
1.2008258064144158e-06,2.803379380377895e-06,6.407862697603186e-07,1.2267978137795855e-05
1.2090734649914786e-06,2.806614712650903e-06,6.401511004282437e-07,1.2296460320300864e-05
1.2178263308159426e-06,2.8072409898227226e-06,6.396597448460516e-07,1.2324984221875447e-05
1.2270171285893074e-06,2.8053493690740107e-06,6.392910060005521e-07,1.2353509049748872e-05
1.2365871629008513e-06,2.801042527407473e-06,6.390221646976724e-07,1.238200725008858e-05
1.2464887241720654e-06,2.7944344418647374e-06,6.388308009840254e-07,1.241045450911976e-05
1.2566763763868472e-06,2.785646678533823e-06,6.386964378280618e-07,1.2438819533593615e-05
1.2670960939261342e-06,2.7748103033992883e-06,6.385985684391063e-07,1.2467031321515856e-05
1.2776812740136824e-06,2.7620844121497258e-06,6.385136855830999e-07,1.2494948923904095e-05
1.2883546003591872e-06,2.7476703482237247e-06,6.384161647765382e-07,1.2522383453542928e-05
1.2990307795415009e-06,2.731798002134189e-06,6.382819960378602e-07,1.2549154757084922e-05
1.3096201462590072e-06,2.7146954968114917e-06,6.38090550136612e-07,1.2575120721464018e-05
1.320033867715829e-06,2.696570798726148e-06,6.378238091562628e-07,1.2600169643810714e-05
1.3301886820517228e-06,2.6776109800668855e-06,6.374657833543545e-07,1.2624206716056861e-05
1.3400104310415674e-06,2.6579813527142503e-06,6.370018275294326e-07,1.264715694424032e-05
1.3494364783238395e-06,2.637819989300333e-06,6.364170365035308e-07,1.2668974654559185e-05
1.3584162053393326e-06,2.6172414497879355e-06,6.356955155279645e-07,1.2689616518917723e-05
1.3669093141428944e-06,2.596353003436585e-06,6.348212887822079e-07,1.2708980650161213e-05
1.3748818712304213e-06,2.575266517703767e-06,6.33779539918828e-07,1.2726890332491e-05
1.3823015039464265e-06,2.5540922845721235e-06,6.325579729328353e-07,1.2743159585321405e-05
1.3891372674078855e-06,2.532927628878556e-06,6.311485323508039e-07,1.2757666471066659e-05
1.3953661746510491e-06,2.511855246786744e-06,6.295484110078909e-07,1.277035620925684e-05
1.4009774098106225e-06,2.490945686958925e-06,6.277614661809893e-07,1.2781192690909993e-05
1.405966795649192e-06,2.4702662108215325e-06,6.258009654789971e-07,1.2790111743252153e-05
1.4103283629674097e-06,2.449902827311775e-06,6.236892711620962e-07,1.2796990676939535e-05
1.4140542069731217e-06,2.4299740779587404e-06,6.214523299578696e-07,1.280163792715412e-05
1.4171411993260901e-06,2.410616554324252e-06,6.191137285653333e-07,1.2803808255656007e-05
1.4195928871240455e-06,2.391964286794556e-06,6.166924720709327e-07,1.2803219859401366e-05
1.4214134406938368e-06,2.3741493829462743e-06,6.142051630703097e-07,1.279954812276077e-05
1.4226031968192904e-06,2.357311603399908e-06,6.116724506388682e-07,1.2792414114046318e-05
1.4231627706660792e-06,2.341591834853921e-06,6.091255386277056e-07,1.2781413640062925e-05
1.4231014039186624e-06,2.3271101270380844e-06,6.066051589665942e-07,1.2766226701585236e-05
1.4224404107332946e-06,2.313948971452602e-06,6.041544463092202e-07,1.2746778978489944e-05
1.4212080229559425e-06,2.3021545580322566e-06,6.018161081355096e-07,1.2723314306592322e-05
1.4194310953552098e-06,2.2917482703436506e-06,5.996365994210906e-07,1.26962969897589e-05
1.4171323609558204e-06,2.282736111192585e-06,5.976683930420658e-07,1.2666294309012684e-05
1.4143337264915844e-06,2.2751109498113227e-06,5.959641657374327e-07,1.2633979870811085e-05
1.411057231043057e-06,2.268847932092888e-06,5.94568263698295e-07,1.2600166196097653e-05
1.4073208128418436e-06,2.2639014621576604e-06,5.935131435825262e-07,1.2565767882382287e-05
1.4031361373013236e-06,2.2602127481158627e-06,5.928207949124798e-07,1.2531733666096265e-05
1.3985135381650956e-06,2.257723729326157e-06,5.92504347458362e-07,1.2498985382180616e-05
1.3934703287355645e-06,2.256386125581004e-06,5.925679290413835e-07,1.2468360740182582e-05
1.3880356391668141e-06,2.2561584521537447e-06,5.930069253696261e-07,1.2440567562457433e-05
1.3822476819216237e-06,2.256993676321588e-06,5.938096812880503e-07,1.241616067102218e-05
1.3761451417414168e-06,2.25883213106652e-06,5.949610305237779e-07,1.2395529947318085e-05
1.36976016316943e-06,2.2616059635416973e-06,5.964491033118118e-07,1.2378885222227467e-05
1.3631180036990344e-06,2.265243575022081e-06,5.982722011651882e-07,1.2366252362288393e-05
1.3562396490390965e-06,2.269669981732898e-06,6.004402849721867e-07,1.2357500632855086e-05
1.3491431639710677e-06,2.2748092798689043e-06,6.029721060340122e-07,1.2352393000723296e-05
1.341844792467075e-06,2.2805855215301047e-06,6.05891522197373e-07,1.2350626870029895e-05
1.3343585307217725e-06,2.2869157874448188e-06,6.092225977761753e-07,1.2351838815526305e-05
1.326692084490601e-06,2.293702392290327e-06,6.129833587352141e-07,1.235559511964527e-05
1.3188430928292379e-06,2.300832363974141e-06,6.171811174858262e-07,1.2361418235443945e-05
1.310799264553869e-06,2.308179842330322e-06,6.218115345232257e-07,1.2368847465485295e-05
1.3025413618169745e-06,2.3156066557687315e-06,6.268613597166668e-07,1.2377485222416146e-05
1.294047563882096e-06,2.3229643379899043e-06,6.323125611277679e-07,1.238700309806556e-05
1.2852978083631418e-06,2.330100437253409e-06,6.38144465538807e-07,1.2397122239049764e-05
1.27627617821862e-06,2.3368688784884043e-06,6.443337971659471e-07,1.2407598549612973e-05
1.2669731652776803e-06,2.343140041784291e-06,6.508542540379867e-07,1.2418226550557804e-05
1.2573890501805227e-06,2.348803241009078e-06,6.576751037282737e-07,1.2428845818649205e-05
1.2475334296875823e-06,2.353763203875327e-06,6.647596036820422e-07,1.2439324769983356e-05
1.2374205051711872e-06,2.3579407748952675e-06,6.720653918183665e-07,1.244951674335666e-05
1.2270668487945782e-06,2.3612775257047363e-06,6.795459810064771e-07,1.2459209922971235e-05
1.2164930862550423e-06,2.363731944759764e-06,6.871527168176109e-07,1.2468097524677065e-05
1.2057262071899984e-06,2.3652668472261927e-06,6.948381092835486e-07,1.2475791943906925e-05
1.194802009545127e-06,2.365840737444393e-06,7.02558594472459e-07,1.248189410390036e-05
1.1837658693331492e-06,2.3654064941782487e-06,7.102746619520138e-07,1.2486077332835394e-05
1.1726672618343649e-06,2.3639126568960784e-06,7.179504918341724e-07,1.248811152161432e-05
1.161551476838157e-06,2.3613074040054053e-06,7.255547543906088e-07,1.2487808001301642e-05
1.1504588000946204e-06,2.357545826769257e-06,7.330598964309311e-07,1.248494853335624e-05
1.1394326081561314e-06,2.3525939667636862e-06,7.404390268777072e-07,1.2479267885240973e-05
1.1285277294930238e-06,2.346425406098976e-06,7.476641382805244e-07,1.247048475093922e-05
1.1178127128073728e-06,2.3390212573800187e-06,7.54708300225618e-07,1.2458322554872445e-05
1.107366782256714e-06,2.330384231245966e-06,7.615503511142556e-07,1.2442497564059524e-05
1.0972753234648417e-06,2.320556822472905e-06,7.681770263269412e-07,1.242270200007632e-05
1.0876250445946986e-06,2.309626681569506e-06,7.745794457561098e-07,1.2398601728070896e-05
1.0784973422512086e-06,2.2977177725994043e-06,7.807491106929866e-07,1.2369844178311167e-05
1.0699614466327248e-06,2.2849776178247934e-06,7.86678631519892e-07,1.2336066434982905e-05
1.0620702580471485e-06,2.2715651688205096e-06,7.92363878936605e-07,1.2296898677628994e-05
1.054859620065418e-06,2.2576366023482608e-06,7.978039088431225e-07,1.2251965282837164e-05
1.048352059201685e-06,2.243333716553769e-06,8.029996552878217e-07,1.2200889995159955e-05
1.042564248305199e-06,2.228787939002808e-06,8.079518789682321e-07,1.214331743817191e-05
1.037514293845564e-06,2.214142919637549e-06,8.126597801583581e-07,1.2078952605833874e-05
1.033225196707767e-06,2.1995776580460897e-06,8.171226322144212e-07,1.2007588189151296e-05
1.0297216826475323e-06,2.1853042771031134e-06,8.213412932439976e-07,1.1929094585847784e-05
1.027021216151136e-06,2.171538500641513e-06,8.253167964233014e-07,1.1843403318679476e-05
1.025125340802966e-06,2.1584736070936258e-06,8.290497219951938e-07,1.175052947035216e-05
1.0240166667316344e-06,2.1462792238073217e-06,8.325409910429478e-07,1.1650631155939434e-05
1.0236617623986893e-06,2.135110848678537e-06,8.357911895155852e-07,1.1544051930081573e-05
1.0240167678689163e-06,2.12511079695833e-06,8.388006369048363e-07,1.1431284353502803e-05
1.0250315414406268e-06,2.1163991743905465e-06,8.415726474681102e-07,1.1312879818105185e-05
1.0266506915333201e-06,2.109063032385533e-06,8.44116845115987e-07,1.118938789857466e-05
1.0288135952580398e-06,2.103150768572436e-06,8.464507594716437e-07,1.1061336263331844e-05
1.0314545002399332e-06,2.0986750899823343e-06,8.486027003541341e-07,1.0929214685609816e-05
1.034501948339237e-06,2.0956228075665318e-06,8.506152204473342e-07,1.0793457964024513e-05
1.0378785571745657e-06,2.0939637327514808e-06,8.525445798493805e-07,1.0654436463055824e-05
1.041502073463855e-06,2.0936545788558613e-06,8.54455781687511e-07,1.0512452125568804e-05
1.0452869224343894e-06,2.094639549492896e-06,8.564149337294499e-07,1.0367738841615092e-05
1.049147619587598e-06,2.096847103287448e-06,8.584806093772908e-07,1.0220470170067801e-05
1.0530057973036491e-06,2.1001870251572653e-06,8.60697964234418e-07,1.0070770304041258e-05
1.0567957811336286e-06,2.104554061236131e-06,8.630972733204455e-07,9.918725103675744e-06
1.0604620038508323e-06,2.1098333909717e-06,8.656942055031956e-07,9.764399997733524e-06
1.0639514766027815e-06,2.115901486680686e-06,8.684903896117874e-07,9.607868290061915e-06
1.0672089580241225e-06,2.1226237885603327e-06,8.714757021213753e-07,9.449241491239476e-06
1.0701761229687388e-06,2.129852969025621e-06,8.74631834615617e-07,9.288686925583616e-06
1.0727923220412529e-06,2.137429890391552e-06,8.779341759549255e-07,9.126418771740713e-06
1.074995751613113e-06,2.1451874601162367e-06,8.813513250355749e-07,8.962666093538416e-06
1.076724918663717e-06,2.152955112184805e-06,8.848451944839351e-07,8.797641698695085e-06
1.0779202324678445e-06,2.160561071180117e-06,8.883743702634986e-07,8.631532818614461e-06
1.07852595189254e-06,2.167835402069264e-06,8.918995536063909e-07,8.464521805105344e-06
1.078494118143479e-06,2.1746200749776248e-06,8.953864084126902e-07,8.29682548329384e-06
1.077790509990517e-06,2.1807861250641817e-06,8.988033402034838e-07,8.128717445913916e-06
1.0763978315877016e-06,2.186251433752792e-06,9.021176785620388e-07,7.960513728339283e-06
1.0743121700537772e-06,2.1909886488156294e-06,9.052937845234377e-07,7.792549627830549e-06
1.0715369661639691e-06,2.1950150720487287e-06,9.082925092691543e-07,7.6251796344072965e-06
1.068080488341837e-06,2.1983692291002075e-06,9.11071253693928e-07,7.458791648075299e-06
1.0639556678228323e-06,2.201088374425632e-06,9.135850699347221e-07,7.293804706802298e-06
1.0591796673172877e-06,2.2031981378606137e-06,9.15788490000586e-07,7.130638566497003e-06
1.0537735694540166e-06,2.2047188452046884e-06,9.176380468383308e-07,6.969675959008507e-06
1.047760911648555e-06,2.2056848829431618e-06,9.190950230018629e-07,6.811249728653255e-06
1.041165015344331e-06,2.206165749534545e-06,9.201262043560957e-07,6.655665850341476e-06
1.0340105890737778e-06,2.2062809725906843e-06,9.207027844779701e-07,6.503236965230602e-06
1.0263315627355028e-06,2.20620514464977e-06,9.207993334460938e-07,6.354285754947786e-06
1.0181784362259242e-06,2.206155042533172e-06,9.203930039526079e-07,6.209112461047086e-06
1.0096192337755337e-06,2.2063607507209147e-06,9.194634041000412e-07,6.0679596235774104e-06
1.0007341355159986e-06,2.207039201587751e-06,9.179930159829159e-07,5.931001287682513e-06
9.916073012616608e-07,2.208380800046508e-06,9.159675928002588e-07,5.7983763623755726e-06
9.823231349728836e-07,2.2105447345322663e-06,9.133779498955605e-07,5.6702720548271304e-06
9.729718343340649e-07,2.2136563582643293e-06,9.102226354907429e-07,5.5470083160357834e-06
9.636575582215768e-07,2.2178029475908605e-06,9.065081704129645e-07,5.4290546467245565e-06
9.544981800602496e-07,2.2230324323911616e-06,9.022459792938274e-07,5.316976049900174e-06
9.456140942984751e-07,2.2293635142120566e-06,8.974481203241138e-07,5.211352384454858e-06
9.371138973508074e-07,2.2368041961288658e-06,8.921254146198765e-07,5.1127016848810345e-06
9.290870963909952e-07,2.245367394468694e-06,8.862917611588745e-07,5.0214503857796956e-06
9.216059299426784e-07,2.255076490401682e-06,8.799723784267393e-07,4.93798349756726e-06
9.147296060462959e-07,2.265961313026499e-06,8.732069966816117e-07,4.862711954069059e-06
9.085050855574985e-07,2.278052421901464e-06,8.660446608541181e-07,4.796071300472267e-06
9.029654841299684e-07,2.2913793695588908e-06,8.585373853428238e-07,4.7384617777446014e-06
8.981310116316472e-07,2.3059657240971117e-06,8.507376587958714e-07,4.6901884833043316e-06
8.94013999746793e-07,2.321814750557061e-06,8.426959376455414e-07,4.651431318725152e-06
8.906223533329659e-07,2.338896221884048e-06,8.344560642031006e-07,4.622240069924795e-06
8.879561893369051e-07,2.357144733630264e-06,8.260530654154965e-07,4.602539526580005e-06
8.860021518118315e-07,2.3764636341125267e-06,8.175157024673091e-07,4.5921495980427525e-06
8.847324403983636e-07,2.396727719630879e-06,8.088709111410844e-07,4.590848580212806e-06
8.841083897049094e-07,2.417789697833326e-06,8.001464938461509e-07,4.598493866909809e-06
8.840857498497715e-07,2.439490371823608e-06,7.913706150062982e-07,4.6151334551460674e-06
8.846206541882358e-07,2.4616612755023654e-06,7.825698772441828e-07,4.641004151616987e-06
8.856737008099516e-07,2.484119743813873e-06,7.737682354131461e-07,4.676420947961789e-06
8.872087080953371e-07,2.506667294927788e-06,7.649872471780261e-07,4.721646210808238e-06
8.891882463854445e-07,2.5290935919156085e-06,7.562481242193384e-07,4.776810921421287e-06
8.915727528564158e-07,2.5511822864954183e-06,7.475739859001988e-07,4.841955437473403e-06
8.943241985380033e-07,2.5727165370576233e-06,7.389884182457495e-07,4.9171935620077015e-06
8.974072776412278e-07,2.5934827367538435e-06,7.305109278445095e-07,5.002856180636313e-06
9.00785211886223e-07,2.6132719988018208e-06,7.221543872297619e-07,5.099478138911708e-06
9.044155558683913e-07,2.6318804662744135e-06,7.139256896809629e-07,5.207669525377166e-06
9.082496671106598e-07,2.649112134108178e-06,7.058264103286099e-07,5.3279792662781136e-06
9.122340609491484e-07,2.664784850239868e-06,6.978526676507421e-07,5.460791798305377e-06
9.163128733429514e-07,2.6787325129826832e-06,6.89996444063667e-07,5.606261124197908e-06
9.204314020372091e-07,2.6908006440399706e-06,6.822498595404222e-07,5.764283630881649e-06
9.245374339942585e-07,2.7008417275530607e-06,6.746107939617877e-07,5.9344990788310324e-06
9.285789624399988e-07,2.7087154138170517e-06,6.670860344708615e-07,6.116304283048919e-06
9.325016211239858e-07,2.71429515314216e-06,6.596900532993928e-07,6.308874875434567e-06
9.362493673743351e-07,2.7174812230106176e-06,6.524404552105739e-07,6.5111931503992375e-06
9.397700516252665e-07,2.7182155805512684e-06,6.453531379275348e-07,6.722080020737826e-06
9.430227631005457e-07,2.7164909603769064e-06,6.38441372161761e-07,6.940242062931605e-06
9.459797381418148e-07,2.71234900742051e-06,6.317186906702398e-07,7.164330441718596e-06
9.486221727201698e-07,2.7058671792489017e-06,6.252006314703532e-07,7.39298444930873e-06
9.509371570747248e-07,2.6971393651604915e-06,6.189032440889711e-07,7.624858233138382e-06
9.529187218681395e-07,2.6862607312895057e-06,6.128412917847401e-07,7.85864990826265e-06
9.54568518303107e-07,2.6733247888530253e-06,6.070283703026497e-07,8.093122532123327e-06
9.558918034159479e-07,2.658428397414571e-06,6.014774914461039e-07,8.327097741021779e-06
9.56891164170449e-07,2.6416777730957907e-06,5.962013308419715e-07,8.559430513233888e-06
9.575645046345051e-07,2.62319488484176e-06,5.91212906560242e-07,8.788986595247754e-06
9.579087208353062e-07,2.603122174196239e-06,5.865253127795233e-07,9.014637398070489e-06
9.579244902197096e-07,2.5816202921401093e-06,5.821494424306522e-07,9.235268112104064e-06
9.57618002909588e-07,2.5588563911179532e-06,5.780918831850897e-07,9.449784636430994e-06
9.569985220721435e-07,2.534989038298642e-06,5.743547349697712e-07,9.65712602771778e-06
9.56073146125008e-07,2.510163662381934e-06,5.709360134078322e-07,9.856304359972577e-06
9.548426638975432e-07,2.4845210737387976e-06,5.67829490348679e-07,1.0046460733976277e-05
9.533022495667163e-07,2.4582031046427187e-06,5.650248692398677e-07,1.0226886620750296e-05
9.514463254777151e-07,2.431348873423928e-06,5.625081083789909e-07,1.0396990253175183e-05
9.49274499937566e-07,2.4040928686826717e-06,5.6026127808599e-07,1.0556246053910726e-05
9.467948284149252e-07,2.3765681164341046e-06,5.582629684482536e-07,1.0704164359173804e-05
9.440202786322764e-07,2.348905859809319e-06,5.564893280185736e-07,1.0840285651383374e-05
9.409616191211979e-07,2.3212279130407595e-06,5.549152135775904e-07,1.0964191580593724e-05
9.37625047307653e-07,2.2936386717065137e-06,5.535161499288208e-07,1.1075532959080697e-05
9.340141171458157e-07,2.2662297608195823e-06,5.522708790198653e-07,1.1174067457263749e-05
9.301306268532984e-07,2.2390996192897254e-06,5.511625765301118e-07,1.1259687859817e-05
9.259746688763244e-07,2.212368849837304e-06,5.501778787646999e-07,1.1332434143323363e-05
9.215450288846844e-07,2.186172790033372e-06,5.493046102746829e-07,1.1392496135583977e-05
9.168403487002168e-07,2.1606420084974566e-06,5.485295534372283e-07,1.1440230298363478e-05
9.118634904919461e-07,2.1358988594152612e-06,5.478383558838057e-07,1.1476187633535132e-05
9.066272060836977e-07,2.112076242858989e-06,5.472182783812947e-07,1.1501085945572113e-05
9.011546057413116e-07,2.0893343725944933e-06,5.466604863566667e-07,1.151570549116171e-05
8.954739094390379e-07,2.0678528574671193e-06,5.461589408887031e-07,1.1520781456914782e-05
8.89612807096393e-07,2.0478042992534447e-06,5.457076014536783e-07,1.1516950186284985e-05
8.83594876475614e-07,2.02933843799104e-06,5.452984060681039e-07,1.1504744685620715e-05
8.774384201783699e-07,2.0125923245455787e-06,5.449204586370978e-07,1.1484617991150995e-05
8.711597196186373e-07,1.9977118936547008e-06,5.445611678262417e-07,1.1456969646427638e-05
8.647787898874244e-07,1.984867586689136e-06,5.442086375448289e-07,1.1422173775204702e-05
8.583199972447861e-07,1.974258124115788e-06,5.43852022592207e-07,1.1380659448739414e-05
8.518063299841908e-07,1.966097419054393e-06,5.434799620546219e-07,1.133302525807135e-05
8.452554852874707e-07,1.960587082095753e-06,5.430807769694434e-07,1.128005940627726e-05
8.386808191317456e-07,1.957896440229009e-06,5.426439424265319e-07,1.1222636159921616e-05
8.320921129016368e-07,1.9581696839390093e-06,5.421597064057486e-07,1.1161589938831076e-05
8.254946850225395e-07,1.96154395430486e-06,5.416184737898002e-07,1.1097643913855913e-05
8.188902267237363e-07,1.968145632041231e-06,5.410123306915062e-07,1.1031454848692502e-05
8.122799898297725e-07,1.9780650619601317e-06,5.403363011108604e-07,1.0963795259156438e-05
8.056687173887897e-07,1.9913420021138844e-06,5.395893717364068e-07,1.0895734890326393e-05
7.990690036218919e-07,2.007980287138582e-06,5.387791217124986e-07,1.0828659051596986e-05
7.925046522618352e-07,2.027971979305737e-06,5.379262629526854e-07,1.0764149655602966e-05
7.860097257808978e-07,2.051299959798188e-06,5.370613126206681e-07,1.070384508623465e-05
7.796228318981308e-07,2.0779201208130586e-06,5.36215844054471e-07,1.0649323422354207e-05
7.733814911026145e-07,2.1077525761293583e-06,5.354185567529847e-07,1.060200775167966e-05
7.673203912193609e-07,2.14069249992085e-06,5.347004654801712e-07,1.0563097731942026e-05
7.61470709511229e-07,2.1766250648071567e-06,5.341030615133863e-07,1.0533540485528245e-05
7.558574607195709e-07,2.2154385173588847e-06,5.336807332211845e-07,1.0514045180767987e-05
7.504972541825621e-07,2.257038881747697e-06,5.334946404633753e-07,1.0505115356556596e-05
7.453992348236222e-07,2.3013586103211048e-06,5.33603155523986e-07,1.0507054934257846e-05
7.405671537050931e-07,2.348349587186701e-06,5.340560781962271e-07,1.0519938523026797e-05
7.359995214581383e-07,2.39796026603611e-06,5.348927706008479e-07,1.0543596031243557e-05
7.316891531264751e-07,2.4501096003391657e-06,5.361400897423724e-07,1.0577651775442378e-05
7.276240450572352e-07,2.5046812287890057e-06,5.378106984878543e-07,1.0621603603065871e-05
7.237891188946248e-07,2.5615448982319498e-06,5.399043549394417e-07,1.0674919035959327e-05
7.201687389298918e-07,2.6205834693460757e-06,5.424111415390796e-07,1.0737127794776932e-05
7.16750533697994e-07,2.6817029348440158e-06,5.453137301325461e-07,1.0807879450664836e-05
7.135292855260018e-07,2.7448200783311507e-06,5.485878084188468e-07,1.0886954720060674e-05
7.105068559468973e-07,2.809834613125929e-06,5.522026028246482e-07,1.0974242822979287e-05
7.076866091657266e-07,2.876601835929335e-06,5.561240842229416e-07,1.1069694189971796e-05
7.050675479413906e-07,2.9449234429000166e-06,5.603198587580167e-07,1.1173256858836172e-05
7.026430329370504e-07,3.014559066008753e-06,5.647604559231578e-07,1.1284814750538445e-05
7.00403150073285e-07,3.0852455668517984e-06,5.694155447807797e-07,1.1404145144853748e-05
6.983375044691342e-07,3.156710246307929e-06,5.74250154650045e-07,1.1530892850208907e-05
6.96436812768457e-07,3.228670426386848e-06,5.792247678977047e-07,1.1664548789295525e-05
6.946940823936366e-07,3.3008228055439547e-06,5.842981925777547e-07,1.1804446959393685e-05
6.931047462303032e-07,3.3728385990292786e-06,5.89429996659552e-07,1.1949793815522293e-05
6.916635700913388e-07,3.4443759156039133e-06,5.945810437854689e-07,1.2099706019531226e-05
6.903607453652697e-07,3.515099536254708e-06,5.997127676868559e-07,1.2253237056870872e-05
6.891809033150877e-07,3.5846896576485687e-06,6.047866296374993e-07,1.2409400372031724e-05
6.881043812383587e-07,3.6528345589663454e-06,6.097650473305193e-07,1.2567198453254765e-05
6.871093856570012e-07,3.71921793901295e-06,6.14612403150087e-07,1.2725645908417275e-05
6.861736246306984e-07,3.783516332235881e-06,6.192944276346399e-07,1.2883762704601316e-05
6.852732820005094e-07,3.845413434008951e-06,6.237776788129204e-07,1.3040546704636904e-05
6.843817168965347e-07,3.904622445890307e-06,6.280304091973238e-07,1.319495684341958e-05
6.834727510237525e-07,3.960899693674727e-06,6.320231559127126e-07,1.3345925144820007e-05
6.825270720727075e-07,4.014039736930417e-06,6.357285233737852e-07,1.3492402611455126e-05
6.815351527354917e-07,4.063857308656487e-06,6.391218280874612e-07,1.3633429231958695e-05
6.804943045314715e-07,4.110171801771669e-06,6.421826604817425e-07,1.3768197393096112e-05
6.794041086334795e-07,4.1528038294715895e-06,6.448952121284015e-07,1.3896059066395005e-05
6.782655077750955e-07,4.191581228881513e-06,6.472464779935004e-07,1.4016462573517306e-05
6.770825379113257e-07,4.226350306434665e-06,6.492242267634296e-07,1.4128883530932435e-05
6.758611380510892e-07,4.2569888094515054e-06,6.508166386942676e-07,1.4232813118914416e-05
6.746067393575704e-07,4.283414848514849e-06,6.520128119217157e-07,1.4327788560344198e-05
6.733253275487073e-07,4.305585727415215e-06,6.528031231994052e-07,1.4413417544436413e-05
6.720241530634426e-07,4.3234838436460466e-06,6.531808124230378e-07,1.4489371517260339e-05
6.707090469742074e-07,4.337098041372634e-06,6.531444982997247e-07,1.4555365207670673e-05
6.69382132574059e-07,4.3464176486454815e-06,6.526983657350808e-07,1.4611186544190024e-05
6.68041659362947e-07,4.351444887968865e-06,6.518503358852197e-07,1.4656791156497015e-05
6.666820757202455e-07,4.352211468908792e-06,6.506116414482403e-07,1.4692352274035986e-05
6.652934869209023e-07,4.348782993559456e-06,6.489968791069004e-07,1.4718184969992895e-05
6.63862345284647e-07,4.341248273904011e-06,6.470222169121966e-07,1.4734612185783413e-05
6.623751988106961e-07,4.32970231306101e-06,6.447035005292893e-07,1.4741880183414453e-05
6.608227815813126e-07,4.3142350864842866e-06,6.420559988179793e-07,1.474018437602164e-05
6.592014530200959e-07,4.294930335715756e-06,6.390953942701718e-07,1.4729815553656823e-05
6.575149769575774e-07,4.2718674357580075e-06,6.358382058752063e-07,1.4711327585919456e-05
6.557780215827232e-07,4.245121232302416e-06,6.322999361234762e-07,1.4685572904252978e-05
6.54017140445692e-07,4.21476321360218e-06,6.284928901189059e-07,1.4653594338497607e-05
6.522674136364285e-07,4.180867469940533e-06,6.244258396196897e-07,1.4616493026066476e-05
6.505669362029135e-07,4.143518905721317e-06,6.201044577905375e-07,1.4575338711364844e-05
6.489539532723883e-07,4.10281721563422e-06,6.155318809887647e-07,1.4531107220660785e-05
6.474684830309053e-07,4.0588725829533585e-06,6.107103663413532e-07,1.4484634551801563e-05
6.461516435439706e-07,4.011796947247317e-06,6.056444160725323e-07,1.4436597919645828e-05
6.450403340248074e-07,3.961698244987245e-06,6.003439092920455e-07,1.4387516333105896e-05
6.441645072144026e-07,3.908679822731149e-06,5.948259304689357e-07,1.4337750658892866e-05
6.43548553498531e-07,3.852842523284725e-06,5.891161479534942e-07,1.4287501756191778e-05
6.432119778193956e-07,3.7942877783904815e-06,5.832486103441097e-07,1.4236821317614722e-05
6.431697594996582e-07,3.7331221402895554e-06,5.772616594926226e-07,1.4185643681548553e-05
6.434346001756861e-07,3.6694631024661684e-06,5.711930585837633e-07,1.4133823977119147e-05
6.440173659846531e-07,3.603443358816042e-06,5.650776799213471e-07,1.4081166657861807e-05
6.449234550026255e-07,3.53521366824111e-06,5.589472511807092e-07,1.4027454905463541e-05
6.46150301177645e-07,3.464951591006981e-06,5.528328118533844e-07,1.397249016848746e-05
6.476895330093157e-07,3.3928763935017416e-06,5.467680816227887e-07,1.3916122986562534e-05
6.495300793026053e-07,3.319252709117722e-06,5.40788525034979e-07,1.3858258535226004e-05
6.516589297604787e-07,3.2443714220667772e-06,5.34926571436528e-07,1.3798848378643313e-05
6.540613198480518e-07,3.1685283200510486e-06,5.292089109068501e-07,1.3737879853923932e-05
6.56720743510944e-07,3.0920256001757283e-06,5.23658374823619e-07,1.3675359084825795e-05
6.596168792655278e-07,3.0151855406092962e-06,5.182962087548043e-07,1.3611291573301206e-05
6.627234695057525e-07,2.938350827379988e-06,5.131407790956204e-07,1.3545669573011157e-05
6.660085855636673e-07,2.8618699804116e-06,5.082055759903168e-07,1.3478460101274546e-05
6.694363735464346e-07,2.786083251308524e-06,5.035001561949783e-07,1.3409590584379186e-05
6.729695885997356e-07,2.7113147778542813e-06,4.990313227985195e-07,1.3338956301680678e-05
6.765724123307024e-07,2.637864599706396e-06,4.948021735301709e-07,1.3266450896096093e-05
6.802133203203581e-07,2.566000330847698e-06,4.908120299276162e-07,1.319197407713562e-05
6.838687732041121e-07,2.495957160224871e-06,4.870579529045148e-07,1.311540814549032e-05
6.875253654251286e-07,2.4279447321614688e-06,4.835352317818513e-07,1.3036609126629421e-05
6.911770753254418e-07,2.362150739137905e-06,4.802368664469507e-07,1.2955431279147735e-05
6.94823145254042e-07,2.298744849368697e-06,4.771540316886243e-07,1.287174964489509e-05
6.984745482093522e-07,2.237890165302885e-06,4.742783979637184e-07,1.2785445910323599e-05
7.021620692512443e-07,2.179748816353644e-06,4.7160378687844705e-07,1.2696377425496787e-05
7.059320006248857e-07,2.1244724537796727e-06,4.691242385634215e-07,1.2604371200237635e-05
7.098305074802766e-07,2.072196094708921e-06,4.6683063656632356e-07,1.2509256795204194e-05
7.138907050172377e-07,2.023046465713704e-06,4.647096114314931e-07,1.2410930895398378e-05
7.18130797298833e-07,1.9771477409719183e-06,4.6274476749637116e-07,1.2309435829123418e-05
7.225597720189255e-07,1.934611050403414e-06,4.609179495369287e-07,1.2205018927980562e-05
7.271828429985759e-07,1.895516773131507e-06,4.5920919183066215e-07,1.2098123628023722e-05
7.320022904076377e-07,1.8599037163504185e-06,4.575965003852705e-07,1.1989295583893496e-05
7.37015564577762e-07,1.8277669355868684e-06,4.560575696462058e-07,1.1879072763235435e-05
7.422144528926579e-07,1.7990597916365658e-06,4.5457366454915526e-07,1.1767948721793025e-05
7.47585332177866e-07,1.7736995752690976e-06,4.531331121520834e-07,1.1656410148789372e-05
7.531087638485455e-07,1.7515740019714482e-06,4.5173165670647726e-07,1.1544978359210993e-05
7.587592562911472e-07,1.7325447219234813e-06,4.503707260238924e-07,1.1434204172052848e-05
7.645071715150895e-07,1.7164500012907254e-06,4.490562331302721e-07,1.1324626834499871e-05
7.703217598386686e-07,1.7031088726933162e-06,4.477979299188925e-07,1.1216770196999733e-05
7.761721730158727e-07,1.692326399996095e-06,4.466082771245554e-07,1.111122664672751e-05
7.820258815638009e-07,1.6839025425202576e-06,4.4550076058172424e-07,1.1008736567624092e-05
7.878465235106624e-07,1.677647945462566e-06,4.4448991458656247e-07,1.0910146611314239e-05
7.935941936138978e-07,1.6734017247034408e-06,4.4359518387589943e-07,1.0816291179943583e-05
7.992308731566767e-07,1.671035967973666e-06,4.4284557080908756e-07,1.0727896506769363e-05
8.047275049469548e-07,1.670441514258077e-06,4.4228038202838775e-07,1.0645550141658547e-05
8.100649379870032e-07,1.6715176710026585e-06,4.4194446723937856e-07,1.0569778641863976e-05
8.152281056906527e-07,1.674187642092891e-06,4.418799657808483e-07,1.050119482873207e-05
8.202000956368842e-07,1.6784253913719775e-06,4.421199514204653e-07,1.0440561221697724e-05
8.249608574276688e-07,1.6842641772810668e-06,4.4268736979734773e-07,1.038872341148936e-05
8.294887925790542e-07,1.6917771718215768e-06,4.435970663525856e-07,1.0346515885954151e-05
8.33760724066081e-07,1.7010431438257538e-06,4.4485734161292317e-07,1.0314702442311611e-05
8.377510862368218e-07,1.71211552078387e-06,4.4647087726215527e-07,1.029393302566322e-05
8.414343692614559e-07,1.7250050699342389e-06,4.484365343752236e-07,1.0284698842819227e-05
8.447888559384751e-07,1.7396754275938418e-06,4.5075015488176327e-07,1.0287298352020681e-05
8.477967000005537e-07,1.7560452300762088e-06,4.5340258161343615e-07,1.0301836129840793e-05
8.504416827201585e-07,1.7739933588180957e-06,4.563775952616436e-07,1.032825589125548e-05
8.527099567743933e-07,1.7933661748415981e-06,4.5965226323838775e-07,1.036637799173765e-05
8.545940125854536e-07,1.8139849535038002e-06,4.631999447667367e-07,1.0415902302015296e-05
8.56094906396797e-07,1.8356549238694214e-06,4.6699417718928776e-07,1.0476373730482301e-05
8.572211783257687e-07,1.8581787812064724e-06,4.710093969730068e-07,1.0547152338200837e-05
8.579888323991412e-07,1.8813733673618958e-06,4.752181119064557e-07,1.0627426398029124e-05
8.584250039736574e-07,1.9050863293538449e-06,4.795890354934829e-07,1.0716265706305257e-05
8.585727014824719e-07,1.92920770922056e-06,4.840884253527771e-07,1.0812683447357665e-05
8.584922064492408e-07,1.953669734614032e-06,4.886835524365905e-07,1.0915679684037114e-05
8.582556689404799e-07,1.9784336696857935e-06,4.933464886632653e-07,1.1024265571482436e-05
8.579364948468444e-07,2.003469773257445e-06,4.980551774468161e-07,1.1137491180296907e-05
8.575995755532045e-07,2.0287416758392223e-06,5.027914373136372e-07,1.125449173813682e-05
8.57295631152029e-07,2.054203365132249e-06,5.075405439633094e-07,1.1374532546264218e-05
8.570590505625362e-07,2.0798012984514675e-06,5.122940041223739e-07,1.149702083046099e-05
8.569085333179925e-07,2.105470457122332e-06,5.170506204060458e-07,1.1621475479714584e-05
8.568502786387078e-07,2.1311283328878973e-06,5.218124713395695e-07,1.1747471712050232e-05
8.568820974940968e-07,2.1566750957775e-06,5.265794282632643e-07,1.1874578212077134e-05
8.569955350304452e-07,2.1819962107945284e-06,5.313483070327124e-07,1.2002293666561329e-05
8.571757564427149e-07,2.2069627245035053e-06,5.361166357218307e-07,1.2130003585932125e-05
8.574019505072965e-07,2.231435259954928e-06,5.408845077561893e-07,1.2256976483725438e-05
8.576489405588291e-07,2.255273961455842e-06,5.456534377450293e-07,1.2382388851652291e-05
8.57888197105249e-07,2.278344315698748e-06,5.504284275187173e-07,1.2505366098114114e-05
8.580877282565359e-07,2.300513297835081e-06,5.552216154448337e-07,1.2625031222011801e-05
8.582131657174055e-07,2.3216434889582354e-06,5.600500741499107e-07,1.2740540015447313e-05
8.582326491157069e-07,2.3415950811625698e-06,5.649300479352393e-07,1.2851080832650121e-05
8.581237493476773e-07,2.3602398749773827e-06,5.69874994368365e-07,1.2955852358273967e-05
8.578767097501872e-07,2.377484295913809e-06,5.748980174040492e-07,1.3054066435272455e-05
8.574921296529402e-07,2.3932913138142445e-06,5.80014041895556e-07,1.314498834720986e-05
8.569776876300057e-07,2.4076902326165248e-06,5.852388291433466e-07,1.3227975778549001e-05
8.56345854531707e-07,2.4207657525825995e-06,5.90585590893997e-07,1.3302498286881716e-05
8.556095816277273e-07,2.4326272637821012e-06,5.960617860739463e-07,1.3368154900990394e-05
8.547766736489869e-07,2.4433824319734104e-06,6.016696847406964e-07,1.3424677154953454e-05
8.538467028898156e-07,2.4531348450707407e-06,6.074101362666416e-07,1.3471887608751492e-05
8.528110594591704e-07,2.4619916848408265e-06,6.132834018739938e-07,1.35096528465153e-05
8.516549532830572e-07,2.470065616623313e-06,6.192853088036027e-07,1.3537901043282447e-05
8.503605526864784e-07,2.4774744178787012e-06,6.254032471952229e-07,1.3556684088746898e-05
8.489100358055141e-07,2.4843417629524523e-06,6.316149792496978e-07,1.3566202710573837e-05
8.472886173075599e-07,2.490795562734915e-06,6.37889703275081e-07,1.3566773851734261e-05
8.454892298061487e-07,2.496959070507075e-06,6.44190191507882e-07,1.3558775119713146e-05
8.435169955206971e-07,2.5029363955426053e-06,6.504758646049658e-07,1.3542612794842888e-05
8.413883905800056e-07,2.5088050841737004e-06,6.567058786943732e-07,1.351876474603364e-05
8.391271312773947e-07,2.5146239143753747e-06,6.628399062058982e-07,1.3487851755747535e-05
8.367655921852801e-07,2.520443226821617e-06,6.688368291420208e-07,1.3450611391638315e-05
8.34351368555243e-07,2.5263028403670304e-06,6.746543920081524e-07,1.3407778422033375e-05
8.319480755362895e-07,2.532227246424081e-06,6.802503190446754e-07,1.3359984919790911e-05
8.296268907341291e-07,2.5382364678156867e-06,6.855828106333676e-07,1.3307748603629105e-05
8.274557114263451e-07,2.544364440949871e-06,6.906110076481804e-07,1.3251577538096625e-05
8.254907997458006e-07,2.55065876399985e-06,6.952968807222464e-07,1.3192141005942708e-05
8.23772276242815e-07,2.557158878659318e-06,6.996063695968178e-07,1.3130352047516604e-05
8.22324462335918e-07,2.5638770702083084e-06,7.03508182723954e-07,1.3067289115462128e-05
8.211598254659336e-07,2.5707947355856603e-06,7.069728591061095e-07,1.3004049206044427e-05
8.202836736074026e-07,2.57786421071398e-06,7.099743958277899e-07,1.2941626539226696e-05
8.196967147510642e-07,2.5850130045944363e-06,7.124925770100221e-07,1.2880833974357055e-05
8.1939474892974e-07,2.5921566082985627e-06,7.145123301592979e-07,1.2822262528072952e-05
8.193704666247095e-07,2.599216034878784e-06,7.160204230214168e-07,1.27662724996857e-05
8.196204819818029e-07,2.6061291727762573e-06,7.170032753077543e-07,1.2713004473128695e-05
8.201496886005939e-07,2.6128497323924306e-06,7.174473711633804e-07,1.266240066141002e-05
8.209665979138817e-07,2.6193353727046866e-06,7.173410159097764e-07,1.2614233444597815e-05
8.220780490096812e-07,2.625537158936281e-06,7.16675677791898e-07,1.2568140705188793e-05
8.234915594967374e-07,2.6314018541099848e-06,7.154475140678312e-07,1.2523662947468825e-05
8.252183683966907e-07,2.6368789968513284e-06,7.13662379677762e-07,1.2480279525822887e-05
8.272685376254371e-07,2.641917897988977e-06,7.113430068667256e-07,1.2437454235103966e-05
8.296440924212634e-07,2.646458779988829e-06,7.085307201516144e-07,1.2394699529368515e-05
8.323403608349783e-07,2.650434322667203e-06,7.052783034581194e-07,1.2351647581380468e-05
8.353516298973589e-07,2.653783544932323e-06,7.016398012528287e-07,1.2308095637810588e-05
8.386710430166312e-07,2.656462870444448e-06,6.976643637820653e-07,1.2264004000370544e-05
8.42286701109921e-07,2.6584444211450344e-06,6.933956748133388e-07,1.2219467689167138e-05
8.461822908517077e-07,2.659707333451438e-06,6.888735641497961e-07,1.2174691137735395e-05
8.503422956276032e-07,2.6602324191795955e-06,6.841339212216898e-07,1.212995553603166e-05
8.547556058179012e-07,2.6600010182859533e-06,6.792072938240796e-07,1.2085561861628282e-05
8.594138733574428e-07,2.6589934428318804e-06,6.741198775833677e-07,1.204176634882294e-05
8.643060088344465e-07,2.657194668962125e-06,6.688970212856679e-07,1.1998731595141075e-05
8.694132332633787e-07,2.6546153085310524e-06,6.635649539877665e-07,1.1956515970125252e-05
8.747071731323006e-07,2.651312727543652e-06,6.581486269114403e-07,1.1915130139127548e-05
8.80149967474299e-07,2.6473929978441824e-06,6.526689407843173e-07,1.1874629761676837e-05
8.856963631401772e-07,2.64299420176545e-06,6.471433002565711e-07,1.1835158900743672e-05
8.913000001949824e-07,2.6382635602228317e-06,6.415887621853309e-07,1.1796924885068014e-05
8.969227637492096e-07,2.633338033785886e-06,6.360254586976509e-07,1.1760160879430313e-05
9.025399184875946e-07,2.6283299824653383e-06,6.30479007121911e-07,1.1725122243075165e-05
9.081384437381599e-07,2.6233192537048515e-06,6.249798845640953e-07,1.1692116093172032e-05
9.137171773112543e-07,2.6183584389292197e-06,6.195598143941528e-07,1.1661513643101456e-05
9.192911141698029e-07,2.6134929969311218e-06,6.142478353999861e-07,1.1633707710942848e-05
9.248894746403893e-07,2.6087872220389978e-06,6.090679505239656e-07,1.1609053356219975e-05
9.305447704781048e-07,2.604343445195583e-06,6.040395057192524e-07,1.1587834191722576e-05
9.362819372067171e-07,2.600304151490002e-06,5.99179596663653e-07,1.1570236926304553e-05
9.421129319114573e-07,2.5968326281782497e-06,5.945051307040861e-07,1.1556323396842951e-05
9.480361588287557e-07,2.594080429288583e-06,5.900348210742671e-07,1.1546037180944822e-05
9.540392433957484e-07,2.5921627486523084e-06,5.857930676439511e-07,1.1539248135178578e-05
9.601030138702672e-07,2.5911557514920588e-06,5.818139306827906e-07,1.1535774302275607e-05
9.662058314414992e-07,2.5911079102445263e-06,5.781405232616743e-07,1.153536119088211e-05
9.72328117178801e-07,2.5920509423222243e-06,5.74820346414027e-07,1.1537670450855793e-05
9.784542648496862e-07,2.5940070801655042e-06,5.71901644673395e-07,1.1542297594736965e-05
9.845699903897335e-07,2.596994295334198e-06,5.69430584291456e-07,1.1548778100779535e-05
9.906581668486615e-07,2.601024034077904e-06,5.674470160677847e-07,1.1556572330828259e-05
9.96696978126123e-07,2.6060892304912368e-06,5.65981826771177e-07,1.1565077260872455e-05
1.0026603130953544e-06,2.6121573674461054e-06,5.650576197684992e-07,1.157371709167385e-05
1.0085202097791391e-06,2.6191785842821082e-06,5.646897271549645e-07,1.1582117237224264e-05
1.0142519091422877e-06,2.62709385621275e-06,5.648859402178285e-07,1.1590259064518475e-05
1.019837161539678e-06,2.63582949798564e-06,5.656460983405246e-07,1.1598481220106533e-05
1.025261528205363e-06,2.645287317912232e-06,5.669621105455886e-07,1.1607346163738915e-05
1.0305087784216598e-06,2.655342204947384e-06,5.688179186641469e-07,1.1617495257948536e-05
1.0355569800924408e-06,2.665846016676083e-06,5.711892956649218e-07,1.162954482383789e-05
1.0403774349924013e-06,2.6766330448409453e-06,5.740445226829086e-07,1.1644032604537662e-05
1.0449356490348111e-06,2.6875248401665584e-06,5.773468424980389e-07,1.1661442832297115e-05
1.0491931544891084e-06,2.698337420845309e-06,5.810568612326922e-07,1.1682263399962555e-05
1.0531118358411374e-06,2.708893768387907e-06,5.851326509766314e-07,1.1706972453595505e-05
1.0566621253178787e-06,2.7190349703519144e-06,5.895291172906447e-07,1.1735959510956032e-05
1.0598292204709714e-06,2.7286240684677384e-06,5.941994747187501e-07,1.1769461136337386e-05
1.0626113080956554e-06,2.737544092602517e-06,5.990983273127257e-07,1.1807534055516735e-05
1.065013116602955e-06,2.7456921634898018e-06,6.041826491270236e-07,1.1850049522802824e-05
1.067041055315327e-06,2.752972830002618e-06,6.094089480759304e-07,1.1896703908191964e-05
1.068700349243495e-06,2.7592928184667837e-06,6.147300636604964e-07,1.19470444870114e-05
1.0699917996714836e-06,2.7645569016229906e-06,6.200949013978772e-07,1.2000503841128587e-05
1.0709094164050396e-06,2.7686718608087397e-06,6.254506259120639e-07,1.205643499522745e-05
1.0714422202997032e-06,2.7715660604131704e-06,6.307465553935056e-07,1.2114137112438956e-05
1.0715788361993445e-06,2.7732168925195288e-06,6.359379647302498e-07,1.2172862797166912e-05
1.0713091241407844e-06,2.773670497188573e-06,6.409859955272821e-07,1.223181315685491e-05
1.0706213842329165e-06,2.7730437409793728e-06,6.458545561436478e-07,1.229014185587289e-05
1.0694997561583471e-06,2.771505646665999e-06,6.505087434502928e-07,1.2346986411914654e-05
1.0679245731807889e-06,2.769244410602886e-06,6.549149682404197e-07,1.2401520626423773e-05
1.0658741759557546e-06,2.7664372235522675e-06,6.590411891534847e-07,1.2453000144933886e-05
1.0633271376493572e-06,2.763239962677918e-06,6.628579219391596e-07,1.2500780783942783e-05
1.0602641287263908e-06,2.75979451239895e-06,6.663397144505122e-07,1.2544315753246453e-05
1.0566679416459734e-06,2.7562377777771744e-06,6.694652684800067e-07,1.2583148008352364e-05
1.052523483328304e-06,2.75270871466483e-06,6.722158387355574e-07,1.2616895120384167e-05
1.047819889727998e-06,2.749359842078907e-06,6.745737348404703e-07,1.264521677473241e-05
1.0425521385632009e-06,2.7463656035225443e-06,6.765226144510142e-07,1.2667780539611392e-05
1.0367201774045431e-06,2.7439102731616368e-06,6.780498848299193e-07,1.2684244567272947e-05
1.0303268712221023e-06,2.7421592545387824e-06,6.791509096502996e-07,1.2694256166548042e-05
1.023375702966275e-06,2.741242995424664e-06,6.798323877363493e-07,1.2697480904522905e-05
1.015869607539713e-06,2.7412681385215103e-06,6.801106924606518e-07,1.2693663551491828e-05
1.0078119147079878e-06,2.742333987848298e-06,6.80005321175451e-07,1.2682656802022964e-05
9.99207503620858e-07,2.7445312620940705e-06,6.795328246625849e-07,1.2664382162813725e-05
9.900643642906318e-07,2.7479280326980666e-06,6.787053485562968e-07,1.2638784626205604e-05
9.803989585483064e-07,2.752557561291457e-06,6.775325971871143e-07,1.2605842058828034e-05
9.702426842123629e-07,2.7584126749030317e-06,6.760238872409581e-07,1.2565603423044096e-05
9.596420880338276e-07,2.765445560007681e-06,6.741906491557452e-07,1.2518191932917975e-05
9.486534095075037e-07,2.7735719299975657e-06,6.720509576309382e-07,1.2463775626119173e-05
9.373381448370615e-07,2.782678808528413e-06,6.696316059594986e-07,1.2402540095128052e-05
9.257609469439724e-07,2.792635864081379e-06,6.669634143405248e-07,1.2334655012907407e-05
9.139862089274577e-07,2.803303984385408e-06,6.640745238268773e-07,1.2260241043791604e-05
9.020733558257395e-07,2.8145337019695754e-06,6.609871715156429e-07,1.2179363370255558e-05
8.900743093363333e-07,2.8261629118849974e-06,6.577175530973704e-07,1.2092052232298934e-05
8.780340175332782e-07,2.8380253374066305e-06,6.542780229131467e-07,1.1998340812477135e-05
8.659941054775744e-07,2.849960814246867e-06,6.506799280748047e-07,1.1898303847299367e-05
8.539984339205843e-07,2.8618144435345835e-06,6.469335591547507e-07,1.1792087578414481e-05
8.42094496242797e-07,2.8734290603108415e-06,6.430462850775738e-07,1.1679937445978545e-05
8.303284498184908e-07,2.8846463553040293e-06,6.390223257910728e-07,1.1562215586103281e-05
8.187408250699583e-07,2.895321034293977e-06,6.348639858347426e-07,1.1439391311948746e-05
8.073673843768122e-07,2.905336013491804e-06,6.305733960810596e-07,1.1312003935572796e-05
7.962419289641583e-07,2.914608580643328e-06,6.261555000287922e-07,1.118061442276039e-05
7.854005124673752e-07,2.9230884873627565e-06,6.216207309971704e-07,1.1045795253210955e-05
7.748892625079312e-07,2.930751915299145e-06,6.169841822358279e-07,1.0908187860452447e-05
7.647720835114584e-07,2.937592159300725e-06,6.122637840718471e-07,1.0768538186556846e-05
7.55133742765569e-07,2.9436066412194738e-06,6.074821152270592e-07,1.0627629984821974e-05
7.460771144214391e-07,2.948785103118473e-06,6.02668863104453e-07,1.0486183537786293e-05
7.377122876659467e-07,2.953106721252896e-06,5.978583874440756e-07,1.0344804385081927e-05
7.301401027323696e-07,2.9565476625760267e-06,5.930834512947199e-07,1.0203991153651004e-05
7.234402662919845e-07,2.959094872331491e-06,5.883705979335348e-07,1.0064166504300933e-05
7.17670415231793e-07,2.960758358881996e-06,5.837398071748918e-07,9.925694687803073e-06
7.128744344654698e-07,2.9615729496761904e-06,5.792071281653218e-07,9.788890050720717e-06
7.090943873224851e-07,2.9615878046927967e-06,5.747886719205048e-07,9.654022842688237e-06
7.063781081098934e-07,2.960851126578537e-06,5.705031596864178e-07,9.52131313092111e-06
7.047771551985116e-07,2.9594028542903493e-06,5.663699983406415e-07,9.390921389250951e-06
7.043371366021826e-07,2.957285446098875e-06,5.624046541515953e-07,9.262949127673816e-06
7.050869085047575e-07,2.954565129937828e-06,5.586155222543043e-07,9.137450244002437e-06
7.070325065465889e-07,2.951342494183295e-06,5.550039855184826e-07,9.014445584237172e-06
7.101568485759606e-07,2.947740359067088e-06,5.515668876699529e-07,8.893933294259156e-06
7.144221367933838e-07,2.943877253600497e-06,5.482988787461296e-07,8.775896672364119e-06
7.197725340828725e-07,2.9398500345320928e-06,5.451931512316664e-07,8.660309127082823e-06
7.26136991673322e-07,2.9357402945094814e-06,5.42242815401704e-07,8.547126220189943e-06
7.334332655350735e-07,2.931633347045019e-06,5.394433711173339e-07,8.436272676950349e-06
7.415736664904809e-07,2.9276321447151426e-06,5.367922163801514e-07,8.327651254557503e-06
7.504720820998909e-07,2.923858147597504e-06,5.342851892095135e-07,8.221174367919026e-06
7.600503115062109e-07,2.920437114847986e-06,5.31915308556796e-07,8.116791219756691e-06
7.702391119890187e-07,2.9174819084100114e-06,5.296743965698084e-07,8.014496185044529e-06
7.809721553586721e-07,2.9150948505954574e-06,5.275537116871659e-07,7.914317046712123e-06
7.921793639007937e-07,2.9133886482411548e-06,5.255425227964317e-07,7.816286529807657e-06
8.037867907924403e-07,2.912496973061609e-06,5.236268751261726e-07,7.720427231783863e-06
8.157229221684795e-07,2.9125576521308636e-06,5.217901235813929e-07,7.626772620961853e-06
8.279255396272752e-07,2.91368626458191e-06,5.200141895158237e-07,7.535391568448299e-06
8.403425406496395e-07,2.915972735363889e-06,5.182797906668142e-07,7.446376860276938e-06
8.52927070598554e-07,2.9195062789217966e-06,5.16566809348155e-07,7.35980732733098e-06
8.656338486282623e-07,2.924397004100385e-06,5.148577458146218e-07,7.275721791886383e-06
8.784184796987697e-07,2.930766049857833e-06,5.131428425918382e-07,7.194135389447659e-06
8.912360479967794e-07,2.938711357220704e-06,5.114211505449957e-07,7.115095462572383e-06
9.040397118792937e-07,2.948280805512176e-06,5.096960957635935e-07,7.038720565497295e-06
9.167827243483587e-07,2.9594716572494218e-06,5.079705593300238e-07,6.965172219119267e-06
9.294215477666495e-07,2.9722450925303847e-06,5.062450111455868e-07,6.894598899553684e-06
9.419144015314924e-07,2.986540534615456e-06,5.04517247245381e-07,6.827120676613545e-06
9.542160051529854e-07,3.0022847795282622e-06,5.027822564609788e-07,6.7628566565104775e-06
9.662744644791778e-07,3.019390766759177e-06,5.010329876232437e-07,6.7019645619168725e-06
9.780318121078446e-07,3.037747034971348e-06,4.992620095705914e-07,6.6446723133678325e-06
9.894259857931605e-07,3.0572095497246553e-06,4.974633868357442e-07,6.591273151517876e-06
1.0003934898504952e-06,3.077602316343782e-06,4.956344310030072e-07,6.542067324703623e-06
1.010873000833372e-06,3.098725379717823e-06,4.937764887427064e-07,6.497290018929744e-06
1.0208088185003306e-06,3.120365406724655e-06,4.918946880417617e-07,6.457084711821579e-06
1.0301513326891222e-06,3.142299824956421e-06,4.899967127440939e-07,6.421540936505547e-06
1.0388550452019458e-06,3.1642961695075382e-06,4.880906334201774e-07,6.3907863658632226e-06
1.0468776645555771e-06,3.1861184440685418e-06,4.861833726642117e-07,6.3650907449126125e-06
1.0541798427195671e-06,3.2075397807787592e-06,4.842808344392587e-07,6.344899922017725e-06
1.0607240900446469e-06,3.228352494515218e-06,4.82388831559021e-07,6.330760346696869e-06
1.066474451664809e-06,3.248371126852392e-06,4.805131250961991e-07,6.3231863775597625e-06
1.0713979621270944e-06,3.267425910894652e-06,4.786587342218415e-07,6.322558396317478e-06
1.0754664464079126e-06,3.285350406252806e-06,4.768311071964428e-07,6.32909181632665e-06
1.0786571006612407e-06,3.3019724606614306e-06,4.750388991274786e-07,6.342842177582973e-06
1.0809524728645384e-06,3.3171114989951332e-06,4.7329476797559355e-07,6.363710340772743e-06
1.0823400840413135e-06,3.330580375223813e-06,4.7161280517429904e-07,6.3914693695739934e-06
1.0828104815559948e-06,3.342190575134002e-06,4.7000461266753857e-07,6.425850696584083e-06
1.0823551487495057e-06,3.3517598016599988e-06,4.684770385741065e-07,6.466658474101837e-06
1.0809664477516802e-06,3.3591232007276784e-06,4.6703284666147574e-07,6.5138083975266055e-06
1.0786388380668292e-06,3.3641464700770227e-06,4.6567237920946253e-07,6.567251568938213e-06
1.075370783683693e-06,3.3667298361918438e-06,4.643938677178923e-07,6.626862887604813e-06
1.0711682593816923e-06,3.3667991013569733e-06,4.6319269961969137e-07,6.692385781074121e-06
1.0660490076707985e-06,3.3642998840577813e-06,4.620612190204121e-07,6.7634939751074076e-06
1.0600440332595362e-06,3.3592067851094052e-06,4.609893397209483e-07,6.8399824590687305e-06
1.0531938833653523e-06,3.351535836060728e-06,4.5996501309066384e-07,6.9219654062010586e-06
1.0455422437063878e-06,3.3413455029893105e-06,4.5897426900378657e-07,7.009912222590903e-06
1.037131219432716e-06,3.3287249375265882e-06,4.5800115042617207e-07,7.1045218278502246e-06
1.0279993607502374e-06,3.3137755810252253e-06,4.570281361514162e-07,7.2065614037059296e-06
1.0181817149896142e-06,3.2965958531570725e-06,4.5603851382625846e-07,7.3167412704686495e-06
1.0077121103763183e-06,3.2772771452992423e-06,4.5501983784257353e-07,7.435624517541362e-06
9.96627742462339e-07,3.255908977796539e-06,4.5396477983122895e-07,7.5635584892208126e-06
9.849735828455256e-07,3.232583889278815e-06,4.5286849204800177e-07,7.70063279458962e-06
9.728033615028772e-07,3.2073957174137316e-06,4.5172557369941704e-07,7.846673711735116e-06
9.601775272859946e-07,3.1804329507419623e-06,4.505300083072997e-07,8.001265475802291e-06
9.471619777776934e-07,3.1517746481891115e-06,4.492799052600725e-07,8.16377985174599e-06
9.338308982733892e-07,3.1214937748085007e-06,4.4798619645724103e-07,8.333413030236861e-06
9.202704455013916e-07,3.0896650783968138e-06,4.466803100771519e-07,8.509237617880138e-06
9.065750694160829e-07,3.0563727845315225e-06,4.4541451184311025e-07,8.69025878614539e-06
8.928374796025681e-07,3.0217154735274435e-06,4.4425309753306656e-07,8.875458560871755e-06
8.791431135644188e-07,2.985804128139252e-06,4.4325973891450824e-07,9.063836905425416e-06
8.655727052643898e-07,2.948752357390532e-06,4.4248921003800296e-07,9.254465127627386e-06
8.522055174595735e-07,2.9106685752712153e-06,4.4198665020159323e-07,9.446537031923758e-06
8.391174824225219e-07,2.871657664541012e-06,4.4179071489109527e-07,9.639392613093753e-06
8.263759558149441e-07,2.8318257758927267e-06,4.4193501308442966e-07,9.832508901685828e-06
8.140359557024663e-07,2.791282097386989e-06,4.424457375961333e-07,1.0025450923281046e-05
8.021409774793028e-07,2.75013666411337e-06,4.4333879061904323e-07,1.0217782375720869e-05
7.907263447937246e-07,2.7084949127868802e-06,4.446195704949528e-07,1.040897908393024e-05
7.798204017132269e-07,2.6664577681458188e-06,4.4628430301078394e-07,1.0598396852945616e-05
7.694429396497552e-07,2.624131325576638e-06,4.483213902212889e-07,1.0785302380641846e-05
7.596039696860538e-07,2.581631779728179e-06,4.5071269145303775e-07,1.0968946905714067e-05
7.503039117224906e-07,2.539075894809515e-06,4.534346922318204e-07,1.1148652479553554e-05
7.415347471606258e-07,2.4965676948526868e-06,4.5646139321406155e-07,1.1323866565678945e-05
7.332837520937937e-07,2.4541919446149944e-06,4.5977003727289456e-07,1.1494156950820835e-05
7.255393006237195e-07,2.412012693456744e-06,4.633457134999069e-07,1.165916922587282e-05
7.182937791165054e-07,2.370075186496729e-06,4.6718148065376406e-07,1.1818587055671855e-05
7.115429046063953e-07,2.3284150414459703e-06,4.7127561737195404e-07,1.1972103740356274e-05
7.052848515599494e-07,2.287073923805407e-06,4.756284363859768e-07,1.2119393049887154e-05
6.995183848919492e-07,2.2461105014264754e-06,4.802392397073046e-07,1.226009078851084e-05
6.942395760744488e-07,2.205597655325991e-06,4.851031092624001e-07,1.2393807401763325e-05
6.894398216304247e-07,2.165611750058371e-06,4.902082961679335e-07,1.2520159590899573e-05
6.851053407022735e-07,2.12622543675557e-06,4.955359876951378e-07,1.2638801077241584e-05
6.812189022700194e-07,2.0875095658797684e-06,5.010628153427099e-07,1.2749458803547405e-05
6.77765669075569e-07,2.0495442471044867e-06,5.067639256859244e-07,1.285199370122328e-05
6.747385219062753e-07,2.0124330853967787e-06,5.126144135449976e-07,1.2946473870442293e-05
6.721373461088067e-07,1.976312274530432e-06,5.185898369714248e-07,1.303320256298304e-05
6.699670553534256e-07,1.941351837391663e-06,5.24667005173785e-07,1.3112672292446335e-05
6.682402456619731e-07,1.907748866007589e-06,5.308238360730224e-07,1.3185473570924146e-05
6.669798157631864e-07,1.875709924333793e-06,5.370373472165292e-07,1.3252188119874153e-05
6.662151788674747e-07,1.845424981029063e-06,5.432824373817735e-07,1.331329456294275e-05
6.659732861036173e-07,1.8170459458615825e-06,5.495342393753922e-07,1.336911266164546e-05
6.662702977065811e-07,1.7906787472207545e-06,5.557706918956006e-07,1.3419787501771944e-05
6.671081915721554e-07,1.7663850995907275e-06,5.619704952788661e-07,1.3465314358703736e-05
6.684758575500253e-07,1.7441881249296653e-06,5.681087086116766e-07,1.3505621768339152e-05
6.70351529814364e-07,1.7240775515709495e-06,5.741552022811553e-07,1.3540690599726555e-05
6.72704989793002e-07,1.7060127219910143e-06,5.800764495371021e-07,1.3570604443467751e-05
6.75501791278117e-07,1.689925940784186e-06,5.858380455721728e-07,1.359547328657384e-05
6.787102464934439e-07,1.6757259937771888e-06,5.914062039175768e-07,1.3615330453609993e-05
6.823052428329265e-07,1.6633016424350228e-06,5.967478335662966e-07,1.3630116600558635e-05
6.862644882064103e-07,1.6525306782196055e-06,6.018306144449825e-07,1.3639769040962594e-05
6.905614762502993e-07,1.6432974089138494e-06,6.066253335323966e-07,1.364439377633497e-05
6.951631004886157e-07,1.635513908895403e-06,6.111095374441661e-07,1.3644432389077871e-05
7.000370310247371e-07,1.6291373787738267e-06,6.152683063271049e-07,1.3640700891655666e-05
7.051655922661458e-07,1.6241756090742731e-06,6.190912267286691e-07,1.3634302788176336e-05
7.105537066438066e-07,1.6206758311262254e-06,6.225705199567161e-07,1.3626508478994952e-05
7.162220455952513e-07,1.6187011318872925e-06,6.257031211055346e-07,1.3618635234939748e-05
7.221912644484344e-07,1.6183064717093476e-06,6.284916550259719e-07,1.3611926984457608e-05
7.28470205453538e-07,1.6195237039284182e-06,6.30940329957684e-07,1.360745522206839e-05
7.350530909754746e-07,1.622354625409939e-06,6.330499058599632e-07,1.3606060855394859e-05
7.419209359007139e-07,1.6267679807555815e-06,6.348162860818052e-07,1.3608339686088274e-05
7.49042711166023e-07,1.6327027086092053e-06,6.362318881463514e-07,1.361466186643367e-05
7.563762957233954e-07,1.6400796501766653e-06,6.372878078339074e-07,1.3625197186971046e-05
7.638702232377677e-07,1.6488150043401932e-06,6.379759946843925e-07,1.3639918117427016e-05
7.714672860247403e-07,1.6588275307493504e-06,6.382903416021786e-07,1.3658591859680274e-05
7.791104209942623e-07,1.6700385141451963e-06,6.382273368229089e-07,1.3680791871276155e-05
7.867493882081657e-07,1.6823666593122994e-06,6.377880462872635e-07,1.3705931978658525e-05
7.943460711743744e-07,1.6957204931378678e-06,6.369789399980099e-07,1.3733307756267289e-05
8.018768411761075e-07,1.7099924397105117e-06,6.358090236728454e-07,1.3762135931323074e-05
8.093316475716595e-07,1.7250598946285213e-06,6.342865940962268e-07,1.3791586767899274e-05
8.167100582272365e-07,1.740794486948471e-06,6.324190309087793e-07,1.3820814416711167e-05
8.24015208944108e-07,1.7570715173440055e-06,6.302158792773389e-07,1.384900528276928e-05
8.312497458955005e-07,1.7737705453125874e-06,6.276941707936042e-07,1.38754435586638e-05
8.38416382259934e-07,1.7907689129169587e-06,6.248815005086473e-07,1.3899557401099402e-05
8.455181389675054e-07,1.8079386024108151e-06,6.21812357975606e-07,1.3920923911546167e-05
8.525547198807144e-07,1.8251508391455863e-06,6.185208787826519e-07,1.3939245763641019e-05
8.595191664374716e-07,1.8422812867241382e-06,6.150367894761178e-07,1.3954311869049256e-05
8.663976976345081e-07,1.8592110410664189e-06,6.113854942596918e-07,1.3965945584285813e-05
8.731715808158388e-07,1.87582691315485e-06,6.075888500260353e-07,1.397395641491074e-05
8.798195308874372e-07,1.8920217127590546e-06,6.036653830868097e-07,1.3978114016521356e-05
8.863186710534692e-07,1.907691289898166e-06,5.996310275572021e-07,1.3978136772868219e-05
8.926425677762373e-07,1.9227301244212767e-06,5.955013196514648e-07,1.3973683455086413e-05
8.987589297784971e-07,1.937029941104407e-06,5.912952811025418e-07,1.3964356770342416e-05
9.046318445192273e-07,1.950483486046308e-06,5.870397150396361e-07,1.3949719256380215e-05
9.10227337777855e-07,1.9629935717425927e-06,5.827713667352361e-07,1.3929312326766031e-05
9.155159547498735e-07,1.974482145771244e-06,5.78535836541841e-07,1.390267922193407e-05
9.204718407402269e-07,1.984892639474954e-06,5.743843892125054e-07,1.3869394674515573e-05
9.250749961340887e-07,1.994184426566209e-06,5.703696365953891e-07,1.3829094938795858e-05
9.29318954258778e-07,2.0023245174993418e-06,5.665408197319338e-07,1.3781494241896765e-05
9.332167842888102e-07,2.009287088445697e-06,5.629400833934742e-07,1.3726385356232898e-05
9.3679950064543e-07,2.015063881276916e-06,5.596004988259553e-07,1.3663648559149486e-05
9.401085287067112e-07,2.0196734004722437e-06,5.565458882863235e-07,1.3593283029321373e-05
9.431864712356786e-07,2.023160475523597e-06,5.537916597548566e-07,1.3515419658196433e-05
9.460697162267383e-07,2.0255889175483163e-06,5.513459280762849e-07,1.3430272741916502e-05
9.487856217791141e-07,2.02703028948718e-06,5.492121700638889e-07,1.3338066955461427e-05
9.513536634925819e-07,2.0275576233804334e-06,5.47392669528331e-07,1.3239012652804285e-05
9.537876771705253e-07,2.027259075256872e-06,5.458897433565172e-07,1.3133339021025535e-05
9.560975709834257e-07,2.026268180682752e-06,5.447056424528857e-07,1.3021334297723172e-05
9.58289208395713e-07,2.0247809903907087e-06,5.438426599687554e-07,1.2903358959885301e-05
9.603638463845145e-07,2.0230366025781537e-06,5.43302018550041e-07,1.2779834955992994e-05
9.6231992752737e-07,2.021280246279464e-06,5.43081938511557e-07,1.2651254490685862e-05
9.641549389943303e-07,2.0197480814924312e-06,5.431760880415384e-07,1.251825716320254e-05
9.6586527034629e-07,2.0186757576123814e-06,5.435722468425714e-07,1.2381707575899396e-05
9.674478793833158e-07,2.01830066557144e-06,5.442524025445565e-07,1.2242652235974632e-05
9.6890669988703e-07,2.0188454301905764e-06,5.451950827217578e-07,1.210217729424566e-05
9.702595810189876e-07,2.0204984785968103e-06,5.463778787407235e-07,1.1961276820186314e-05
9.715387482145957e-07,2.0234078560351973e-06,5.477777061811764e-07,1.1820811241606447e-05
9.727843193287072e-07,2.027683102647765e-06,5.493688827879293e-07,1.1681607803164145e-05
9.740359477123877e-07,2.033392620423426e-06,5.511216804745439e-07,1.1544640016031565e-05
9.753264303392424e-07,2.0405595251630505e-06,5.530034037840272e-07,1.1411105731831544e-05
9.766802855347989e-07,2.0491645465681763e-06,5.549811763817931e-07,1.1282342520035609e-05
9.781173623745149e-07,2.059156281341082e-06,5.570237484116744e-07,1.115969983486223e-05
9.796562092320394e-07,2.0704682448352883e-06,5.591010078752259e-07,1.1044459265067945e-05
9.813130213821954e-07,2.083042036536031e-06,5.611830163736677e-07,1.0937787196904543e-05
9.83097594664682e-07,2.096846016665852e-06,5.632403665761314e-07,1.0840693236169533e-05
9.850115057178282e-07,2.11187485460246e-06,5.652452030066914e-07,1.0753996639516763e-05
9.870511573690529e-07,2.1281287984311487e-06,5.671713962879871e-07,1.067830343716349e-05
9.892112494032351e-07,2.145588401951741e-06,5.68994238858648e-07,1.0613992812588424e-05
9.914840767488692e-07,2.164204231561696e-06,5.706926213399166e-07,1.0561216190165297e-05
9.938569530774058e-07,2.18390691518386e-06,5.722534846721285e-07,1.0519905690343447e-05
9.963125228022922e-07,2.204624092987214e-06,5.736727083323957e-07,1.0489789632097584e-05
9.98833044355605e-07,2.226288914129604e-06,5.749505777502226e-07,1.0470427607883736e-05
1.0014060629718236e-06,2.2488394873814682e-06,5.760875107109178e-07,1.0461268184519665e-05
1.004027441502097e-06,2.272220728724096e-06,5.770838679898615e-07,1.0461712415378267e-05
1.006698936623128e-06,2.2963925110295934e-06,5.779426315771467e-07,1.047116346809652e-05
1.0094216142994015e-06,2.3213322491240976e-06,5.786723718783978e-07,1.0489045342958957e-05
1.0121891983985451e-06,2.3470222128703245e-06,5.792870735962169e-07,1.0514787255117017e-05
1.0149844565385359e-06,2.3734288511558555e-06,5.798024226167366e-07,1.0547797777461274e-05
1.017779638710329e-06,2.400491758960784e-06,5.802336256270596e-07,1.0587458059995703e-05
1.0205391924057043e-06,2.42812994087741e-06,5.805972777530468e-07,1.0633133436190674e-05
1.0232221840867832e-06,2.456255937288799e-06,5.80913417361378e-07,1.0684180937504933e-05
1.0257847611292694e-06,2.4847872335592582e-06,5.812043870155067e-07,1.0739943990004939e-05
1.0281821434481858e-06,2.513648274709183e-06,5.814917663013971e-07,1.0799740898540926e-05
1.0303679992451912e-06,2.5427596051456972e-06,5.817939330759244e-07,1.0862856063726344e-05
1.0322928950178728e-06,2.5720240519439536e-06,5.821249795366265e-07,1.0928555275766041e-05
1.0339043964682326e-06,2.6013237704745024e-06,5.824948854590998e-07,1.0996128040653612e-05
1.0351488815099043e-06,2.63052433514944e-06,5.829105968154256e-07,1.1064914567071914e-05
1.0359742766901057e-06,2.6594744361190337e-06,5.833770084284867e-07,1.1134295523199174e-05
1.036331476438375e-06,2.688004706425223e-06,5.83897655643258e-07,1.1203672780945076e-05
1.0361741178908736e-06,2.715934669143655e-06,5.844754246948576e-07,1.1272470236239873e-05
1.0354605319927162e-06,2.7430839322019e-06,5.851120546502335e-07,1.134015033570744e-05
1.0341584121915115e-06,2.769277270187702e-06,5.858066144239782e-07,1.1406208350698386e-05
1.032247588274828e-06,2.7943406868538025e-06,5.865553943631894e-07,1.1470131081774992e-05
1.0297189112912198e-06,2.8180958233506093e-06,5.87352280457906e-07,1.1531366828180492e-05
1.0265738752874322e-06,2.8403619463092168e-06,5.881873755647347e-07,1.1589348535359565e-05
1.0228300014629178e-06,2.8609665031961897e-06,5.890459443673565e-07,1.1643559441938787e-05
1.0185272317695231e-06,2.8797573391527657e-06,5.899106782371182e-07,1.1693607394876254e-05
1.0137252560714992e-06,2.8966077914037763e-06,5.907660435824121e-07,1.173928113801886e-05
1.0084912131285571e-06,2.911410434605315e-06,5.91600727732292e-07,1.178055974527708e-05
1.0028869143321031e-06,2.924066908952755e-06,5.924069642623372e-07,1.1817548855247755e-05
9.969624617014354e-07,2.9344835875984863e-06,5.931792550022624e-07,1.1850371763579934e-05
9.907555417184064e-07,2.9425715481097138e-06,5.93913987415576e-07,1.187909620555512e-05
9.84293327256145e-07,2.9482468217018963e-06,5.946084444155185e-07,1.1903729821319882e-05
9.77596469688734e-07,2.951431240648284e-06,5.952584583815858e-07,1.1924238902326508e-05
9.706838964052287e-07,2.9520531519682887e-06,5.958568335362021e-07,1.1940552248347305e-05
9.635748802952203e-07,2.9500488338969686e-06,5.963941340414372e-07,1.19525575770384e-05
9.562879311618788e-07,2.945369312493672e-06,5.96861181065556e-07,1.1960139255895497e-05
9.488399022069185e-07,2.937991619142071e-06,5.972524660814363e-07,1.1963300703722748e-05
9.412475323487243e-07,2.9279237076702306e-06,5.975688087518993e-07,1.196228847937699e-05
9.335289865716469e-07,2.915197285769068e-06,5.978160503306714e-07,1.195757957621194e-05
9.257034165249607e-07,2.8998564122283713e-06,5.980001068839465e-07,1.1949754032550066e-05
9.177953509408144e-07,2.881949533955005e-06,5.981231900029338e-07,1.1939370791333486e-05
9.098492033639799e-07,2.86152667811474e-06,5.98183183755738e-07,1.1926900538266862e-05
9.019422821441509e-07,2.8386424146756656e-06,5.981742372979615e-07,1.191275866558603e-05
8.941809895054156e-07,2.8133615529486027e-06,5.980879776267282e-07,1.1897441635457093e-05
8.866834024379032e-07,2.7857680747407486e-06,5.979160180595359e-07,1.1881634288011336e-05
8.795638836551523e-07,2.755981696537923e-06,5.97653883370325e-07,1.186618188388314e-05
8.72926096632849e-07,2.7241726270737245e-06,5.973045143974794e-07,1.1851981319090316e-05
8.668587441803751e-07,2.690563222548798e-06,5.968774635884383e-07,1.183987494248711e-05
8.614305988985703e-07,2.655423124187401e-06,5.963842949185375e-07,1.1830573544492475e-05
8.566882223726034e-07,2.619061822364509e-06,5.958364918946337e-07,1.182461874686268e-05
8.526579324293962e-07,2.581807829579739e-06,5.952477240898892e-07,1.1822384862178916e-05
8.493488500248709e-07,2.5439759560930776e-06,5.946344141822602e-07,1.1824104749944162e-05
8.467560800192613e-07,2.5058435177832344e-06,5.940114934840917e-07,1.1829898839810026e-05
8.448657481711441e-07,2.467646565481229e-06,5.933880459582005e-07,1.1839785443357789e-05
8.436612978978083e-07,2.429586802680147e-06,5.927660441360655e-07,1.1853663855480287e-05
8.43128882595523e-07,2.3918364381486093e-06,5.921408739911997e-07,1.1871291971913428e-05
8.432593510902731e-07,2.354540209070333e-06,5.915032430433257e-07,1.1892286321084955e-05
8.440457404177384e-07,2.3178232660510363e-06,5.908417395407481e-07,1.1916139565432478e-05
8.454787809638415e-07,2.281805851313457e-06,5.901443171384485e-07,1.1942244707628054e-05
8.475436497856229e-07,2.246614645956884e-06,5.893989545958585e-07,1.1969943292983004e-05
8.502190560943237e-07,2.21238479442326e-06,5.885940973139732e-07,1.1998600699041613e-05
8.534780419651872e-07,2.179256174246028e-06,5.877185643503143e-07,1.2027670734448751e-05
8.57290003020336e-07,2.1473701270674117e-06,5.867608959042316e-07,1.2056718453476085e-05
8.616224496859549e-07,2.1168714053676516e-06,5.857085879023294e-07,1.208540552844496e-05
8.664404460471605e-07,2.0879171074832e-06,5.845484195786139e-07,1.2113450901215394e-05
8.717064272187351e-07,2.0606873115147227e-06,5.832690031640069e-07,1.2140577400293198e-05
8.773830637941064e-07,2.035383255527126e-06,5.818640657087007e-07,1.2166462645839909e-05
8.834363236979995e-07,2.0122039441427398e-06,5.803336185791293e-07,1.219071055235995e-05
8.898372833455143e-07,1.99131518075245e-06,5.786828680213987e-07,1.2212861862096655e-05
8.965627148736517e-07,1.972835739494877e-06,5.769205704359286e-07,1.2232461305564834e-05
9.035927407089863e-07,1.9568459179738084e-06,5.750578283588064e-07,1.2249147719822156e-05
9.109066424782283e-07,1.9434012923331287e-06,5.731079115481681e-07,1.2262690748332385e-05
9.184797384623145e-07,1.932536339956196e-06,5.710863238985238e-07,1.2272953586163507e-05
9.262814343967443e-07,1.9242621307506355e-06,5.690092257337427e-07,1.2279836127850873e-05
9.342748257458912e-07,1.9185728742695147e-06,5.668911561903839e-07,1.2283243576090193e-05
9.424190002117146e-07,1.91546401793628e-06,5.647451765785515e-07,1.228308115190199e-05
9.506711693672104e-07,1.9149475697865312e-06,5.625852173587751e-07,1.2279254998765226e-05
9.58986426318996e-07,1.917049788832509e-06,5.604284314893771e-07,1.2271664272369764e-05
9.67317330374915e-07,1.9217903802431813e-06,5.582984850457512e-07,1.2260188381219166e-05
9.756143182973205e-07,1.929156765745202e-06,5.562290465107068e-07,1.2244676101184692e-05
9.838266592245258e-07,1.9390886783984354e-06,5.542614166769257e-07,1.2224944082377672e-05
9.91904395708997e-07,1.951477406004237e-06,5.524361236156173e-07,1.2200810160692668e-05
9.998003177406176e-07,1.966173600905782e-06,5.50789128780233e-07,1.217218050845911e-05
1.0074703181379569e-06,1.9829950731146444e-06,5.493591372612427e-07,1.2139153110894755e-05
1.0148717450607131e-06,2.001731144294979e-06,5.481975416739075e-07,1.210205708765845e-05
1.0219606614549514e-06,2.0221461349635584e-06,5.47368123993936e-07,1.2061393228165645e-05
1.0286895154432328e-06,2.043985572274113e-06,5.4693614043027e-07,1.2017711941424746e-05
1.0350069840091841e-06,2.0669878662138437e-06,5.46958372323292e-07,1.1971490508691166e-05
1.0408603622885878e-06,2.0909008553203165e-06,5.47480663433933e-07,1.192306509959627e-05
1.046198152698679e-06,2.115496156174294e-06,5.485378337668496e-07,1.1872628874692128e-05
1.0509733610674177e-06,2.1405715015096925e-06,5.501512945126671e-07,1.1820266652662824e-05
1.0551505837276016e-06,2.165938206134343e-06,5.523274472488911e-07,1.1766025406154867e-05
1.0587127626676151e-06,2.191404221682293e-06,5.550598254460752e-07,1.1710051267290946e-05
1.0616602425997276e-06,2.216767110283826e-06,5.583318805350687e-07,1.165273643949583e-05
1.0640025632637777e-06,2.2418197532777678e-06,5.621173388949113e-07,1.159474840558349e-05
1.0657501209875614e-06,2.266360017811672e-06,5.66380403853459e-07,1.153693067954035e-05
1.066911625877775e-06,2.2901949173067426e-06,5.710786423175015e-07,1.1480170901798425e-05
1.0674955353823777e-06,2.313137842287661e-06,5.761671309963983e-07,1.1425298231848401e-05
1.0675093829454454e-06,2.3350055449644862e-06,5.81600490657706e-07,1.1373055554691187e-05
1.066957386750613e-06,2.3556192213075324e-06,5.873317784948223e-07,1.1324186430588805e-05
1.065841415580229e-06,2.374806318118791e-06,5.933104014998054e-07,1.1279560765481762e-05
1.0641639460836244e-06,2.3923997814212965e-06,5.994815467557258e-07,1.1240197098239604e-05
1.0619281655132854e-06,2.4082365919140925e-06,6.05787672851671e-07,1.1207174377131803e-05
1.0591369614014499e-06,2.4221600732198967e-06,6.121705135113897e-07,1.1181531545744008e-05
1.0557943497564028e-06,2.434029771806319e-06,6.185730630829481e-07,1.1164203456561276e-05
1.0519082707517102e-06,2.4437366029190058e-06,6.249440256059262e-07,1.1155990000398301e-05
1.0474950068093792e-06,2.451212624768161e-06,6.312438274996996e-07,1.1157543721519372e-05
1.0425861762019035e-06,2.456426394024393e-06,6.374460989461131e-07,1.11693615694931e-05
1.0372327379226404e-06,2.4593674637540816e-06,6.435327302140237e-07,1.11917881851247e-05
1.031500697903423e-06,2.460033466993536e-06,6.494875367708386e-07,1.1225042293290867e-05
1.025462248404758e-06,2.458428904522631e-06,6.552934086959947e-07,1.126924413176393e-05
1.0191885350072048e-06,2.454571094336517e-06,6.609339227961374e-07,1.1324417857842461e-05
1.0127448887689959e-06,2.4484934094041983e-06,6.663975422409803e-07,1.139047706337467e-05
1.006187159675804e-06,2.440242102133014e-06,6.71681171359972e-07,1.1467206993659855e-05
9.99560068036714e-07,2.429869537760241e-06,6.767909353649212e-07,1.155423913500908e-05
9.928995318579577e-07,2.4174306077644867e-06,6.817399032805515e-07,1.165101917748581e-05
9.86238842110295e-07,2.40298760918033e-06,6.865437812924615e-07,1.1756796359620302e-05
9.79614815159058e-07,2.386618642482581e-06,6.912184819592072e-07,1.1870654939936345e-05
9.730692046439491e-07,2.3684185795185656e-06,6.957824957823513e-07,1.1991567233643998e-05
