2.2821286296779103e-07,3.250425154808672e-07,2.818812215939263e-07,7.641006775230147e-06
2.2780654505162077e-07,3.2790719735614355e-07,2.794176665933224e-07,7.572010445226527e-06
2.2744564871093718e-07,3.307833015565492e-07,2.7702098743243304e-07,7.501678679708984e-06
2.2712506940935101e-07,3.336600288587183e-07,2.747078868300844e-07,7.4298971128496294e-06
2.2683904241831654e-07,3.365266493812305e-07,2.724930693395775e-07,7.356541942518486e-06
2.265813128928133e-07,3.393721725947721e-07,2.703881318772036e-07,7.281498694201454e-06
2.2634570878142657e-07,3.421856688142469e-07,2.6840190821582514e-07,7.204685704050295e-06
2.261274318708929e-07,3.4495642560749715e-07,2.6654158529683564e-07,7.126065450231813e-06
2.2592348090977612e-07,3.476740794053618e-07,2.648135697392938e-07,7.045642023497102e-06
2.257320146201736e-07,3.5032995950365484e-07,2.6322291071467316e-07,6.963447274382327e-06
2.2555177927984772e-07,3.5291756392737435e-07,2.617725716622663e-07,6.879527242389585e-06
2.2538155300306601e-07,3.554302650709371e-07,2.604638710973915e-07,6.793958813269445e-06
2.252193715596921e-07,3.5785958951968435e-07,2.592970176623756e-07,6.70689714269696e-06
2.2506225021293417e-07,3.6019647808321367e-07,2.582711922352861e-07,6.61860312649719e-06
2.2490716525853725e-07,3.624326137576504e-07,2.573849087552552e-07,6.5294297328517225e-06
2.2475259935158816e-07,3.645593866904097e-07,2.56636570701423e-07,6.439803739671732e-06
2.2459901902408967e-07,3.6656645400292103e-07,2.5602418746732267e-07,6.350218126440687e-06
2.244479762841197e-07,3.6844230389148796e-07,2.555444364999737e-07,6.261217316422085e-06
2.2430091170905323e-07,3.701757017026942e-07,2.551926578972529e-07,6.17336910367517e-06
2.2415863898322195e-07,3.7175620896061773e-07,2.549639609279137e-07,6.087225781122074e-06
2.2402128822885605e-07,3.7317439879241083e-07,2.5485384281964736e-07,6.003283606763922e-06
2.2388821112274264e-07,3.7442206490559226e-07,2.5485737162934785e-07,5.9219685538031956e-06
2.2375830748012605e-07,3.754915691173903e-07,2.549681849860528e-07,5.843664781479907e-06
2.2363075152984208e-07,3.763748655798957e-07,2.5517936884114233e-07,5.7687430282628286e-06
2.235054970795334e-07,3.770630478713336e-07,2.554856759314063e-07,5.697539403006645e-06
2.233834788304297e-07,3.775468540842368e-07,2.558844762927116e-07,5.6303134453518385e-06
2.2326696035538238e-07,3.7781899105945713e-07,2.563745205538605e-07,5.567234612184473e-06
2.2315996789789943e-07,3.778767064501712e-07,2.5695391641261204e-07,5.508408155899165e-06
2.23067388100036e-07,3.7772133930443297e-07,2.576190179836894e-07,5.453956069351754e-06
2.2299273320843025e-07,3.7735584959803646e-07,2.58364346146247e-07,5.4041180395212865e-06
2.229370281162305e-07,3.767837101773749e-07,2.591828625177827e-07,5.359269501264664e-06
2.2289983034613682e-07,3.7600884477239937e-07,2.6006664261450977e-07,5.319867474904345e-06
2.2288056626051825e-07,3.750353942456896e-07,2.610074429139095e-07,5.286412702856804e-06
2.2287864395153788e-07,3.7386886197653216e-07,2.619963926683627e-07,5.259406725153119e-06
2.228930213996297e-07,3.725181773802098e-07,2.630236809801456e-07,5.239274812559487e-06
2.2292203967292305e-07,3.709952320768791e-07,2.6407965469894245e-07,5.2263020610761085e-06
2.2296332880317102e-07,3.6931225803760853e-07,2.651563927371134e-07,5.220608998436324e-06
2.2301385451412482e-07,3.6748057350474796e-07,2.6624709135987447e-07,5.22216077401941e-06
2.2307056262985243e-07,3.655109363660093e-07,2.6734396747758677e-07,5.230794595512448e-06
2.2313144834488987e-07,3.6341391936156117e-07,2.684384559610605e-07,5.2462416819639885e-06
2.2319602250473556e-07,3.612004444120258e-07,2.6952367706462395e-07,5.268136173115985e-06
2.232653079128737e-07,3.588818706483537e-07,2.7059507755317094e-07,5.296024556614175e-06
2.233424322373807e-07,3.564689108511145e-07,2.716482734144516e-07,5.329384401596366e-06
2.2343285518215427e-07,3.5397128631738064e-07,2.7267721742769965e-07,5.367643344363737e-06
2.235431016573956e-07,3.513985617580197e-07,2.736743800721671e-07,5.4101984149577984e-06
2.2367934790084735e-07,3.4875999936631645e-07,2.7463224083480697e-07,5.4564452708131085e-06
2.2384707744422878e-07,3.460634309741623e-07,2.755442675486892e-07,5.505797143113852e-06
2.2405116689564382e-07,3.4331507185740327e-07,2.7640407170817853e-07,5.557672023349745e-06
2.242955702689352e-07,3.405205847106988e-07,2.772042042210363e-07,5.611471088235817e-06
2.2458291543229e-07,3.376860499468484e-07,2.779361474832616e-07,5.666575123429672e-06
2.2491457637093997e-07,3.34818664480828e-07,2.785909848422283e-07,5.722353805154232e-06
2.2529068923208357e-07,3.3192754150483345e-07,2.791599665870953e-07,5.778174558530184e-06
2.2570984367462287e-07,3.290235418025591e-07,2.796350184647439e-07,5.833406573281388e-06
2.261698173052343e-07,3.261182059138054e-07,2.800092991419289e-07,5.887421349739517e-06
2.2666963209991078e-07,3.232232746309068e-07,2.802770534838161e-07,5.93959407792379e-06
2.2721022015331388e-07,3.2035083473648645e-07,2.8043271532346894e-07,5.989311947566943e-06
2.2779269629465546e-07,3.1751316680862105e-07,2.804706208549402e-07,6.035990078069803e-06
2.284171996983609e-07,3.1472183165538393e-07,2.803862203471099e-07,6.0790874623160225e-06
2.2908344274173746e-07,3.119869783005484e-07,2.801776437358644e-07,6.1181164769993786e-06
2.2979095670086303e-07,3.0931838081261537e-07,2.798457372358967e-07,6.15264247727454e-06
2.30538749907697e-07,3.0672668988360037e-07,2.7939355113197825e-07,6.1822793943989446e-06
2.313256005109921e-07,3.042229900620793e-07,2.788270795987379e-07,6.206704369266123e-06
2.3215048445984072e-07,3.018186280223638e-07,2.781556341375088e-07,6.225697104402277e-06
2.330123011882823e-07,2.995262327077394e-07,2.773906016495296e-07,6.239161348906262e-06
2.339096258027923e-07,2.973593664919734e-07,2.7654453149950855e-07,6.247096647806835e-06
2.3484079744428001e-07,2.95330302671032e-07,2.756306116836425e-07,6.2495560037752994e-06
2.3580355026981906e-07,2.934481137131468e-07,2.746609788018586e-07,6.2466250567926415e-06
2.367945269312972e-07,2.917180606508461e-07,2.736454347226957e-07,6.238417432566297e-06
2.3780944331416307e-07,2.9014292402339976e-07,2.72591750091465e-07,6.225091548510505e-06
2.388433095152775e-07,2.8872686185968663e-07,2.715059369421719e-07,6.20687639231088e-06
2.398906143963736e-07,2.8747858959546124e-07,2.703919323249782e-07,6.184056639717765e-06
2.4094583727227835e-07,2.864101379387477e-07,2.6925134347931504e-07,6.156923747741391e-06
2.4200326051418774e-07,2.855331413559961e-07,2.6808355030489376e-07,6.125753214168783e-06
2.430558737670642e-07,2.848564998938756e-07,2.668868818249922e-07,6.090822863751923e-06
2.440947875767913e-07,2.8438616606827433e-07,2.6566146355160625e-07,6.05245613609041e-06
2.4510951767103485e-07,2.8412601699269947e-07,2.6441188036617204e-07,6.0110869700209224e-06
2.460886140722724e-07,2.8407852651736157e-07,2.631466446270777e-07,5.9673078109727485e-06
2.470206427242876e-07,2.8424453428669693e-07,2.618752829510657e-07,5.921848170610088e-06
2.478952518849663e-07,2.846222696623657e-07,2.6060639343204863e-07,5.875496570300498e-06
2.487037450684108e-07,2.8520630862873016e-07,2.593474262315422e-07,5.829012729868192e-06
2.4943877943416967e-07,2.8598757180210855e-07,2.581049708811664e-07,5.78306536271159e-06
2.500933686620451e-07,2.8695483750977665e-07,2.5688467171171717e-07,5.7382158512856555e-06
2.50660833942952e-07,2.8809640924684625e-07,2.556909428673873e-07,5.694933008799134e-06
2.511365940421893e-07,2.8940033781698656e-07,2.545271749087152e-07,5.653621397330692e-06
2.5151993301249907e-07,2.908536737366749e-07,2.533965071039969e-07,5.614684589074199e-06
2.5181393548491997e-07,2.924422358037415e-07,2.523026897761797e-07,5.578621955713608e-06
2.520239848726224e-07,2.9415120650339687e-07,2.512503139336157e-07,5.5460750500678635e-06
2.5215650193375204e-07,2.959655797348341e-07,2.502446371587737e-07,5.517758533522592e-06
2.522188470957117e-07,2.978697053314001e-07,2.492923195952413e-07,5.49433801881555e-06
2.5221920603040816e-07,2.998463946444592e-07,2.4840272385904324e-07,5.47634949105562e-06
2.521653989801256e-07,3.018768453524561e-07,2.475875519970553e-07,5.4642042248860085e-06
2.520638474408691e-07,3.0394165180081604e-07,2.468584945350326e-07,5.458315200154377e-06
2.5191971721985765e-07,3.060216012209955e-07,2.462252707130285e-07,5.459299737242868e-06
2.517370642738435e-07,3.0809794577399586e-07,2.4569532709118836e-07,5.468087830725836e-06
2.5151822447609894e-07,3.101527243860757e-07,2.4527397710678904e-07,5.485847152533167e-06
2.512636816716632e-07,3.1216907855401647e-07,2.449640109299223e-07,5.513817711673444e-06
2.509730075952355e-07,3.1413213094446076e-07,2.447654736500108e-07,5.5531658978503295e-06
2.5064563797769126e-07,3.160300060761909e-07,2.4467592661491197e-07,5.604886010396236e-06
2.502807870887691e-07,3.178529996782889e-07,2.446904561762913e-07,5.669741442279492e-06
2.498780008841222e-07,3.195914797150102e-07,2.448018858807337e-07,5.748239238554024e-06
2.494394757888903e-07,3.212348818378715e-07,2.4500210000379966e-07,5.840629198385932e-06
2.489714005501861e-07,3.227725348141665e-07,2.4528352166562644e-07,5.946912233529356e-06
2.4848170338612664e-07,3.2419630442847854e-07,2.4563950093277175e-07,6.066848901039623e-06
2.4797667427610445e-07,3.2550314283300646e-07,2.4606370968291674e-07,6.199968090478853e-06
2.474599380816634e-07,3.266941170044918e-07,2.4654933301084214e-07,6.345587773192964e-06
2.46933959889228e-07,3.2777114835168825e-07,2.470894755130406e-07,6.5028617913915774e-06
2.464019479570522e-07,3.2873592251474123e-07,2.476788923638343e-07,6.6708443502259815e-06
2.458684304697993e-07,3.295915974780117e-07,2.4831452092464696e-07,6.8485581090420225e-06
2.4533909442349037e-07,3.303443084653687e-07,2.48993635420198e-07,7.035061840303543e-06
2.4482069410381174e-07,3.310028214719541e-07,2.4971187925984823e-07,7.22950297772984e-06
2.443202655235126e-07,3.3157778363000607e-07,2.5046338523270137e-07,7.4311324632595356e-06
2.438439661290165e-07,3.320809251957202e-07,2.5124227379771605e-07,7.63928265000686e-06
2.4339743877827266e-07,3.32522918565374e-07,2.520433578469584e-07,7.85333623610809e-06
2.4298709821977693e-07,3.329113693547637e-07,2.528620970654397e-07,8.072701004724327e-06
2.426199146496517e-07,3.332511012625401e-07,2.5369529495020514e-07,8.296771742869405e-06
2.4230230711139933e-07,3.335460792324381e-07,2.5454198421108945e-07,8.524870622976998e-06
2.4203964434138445e-07,3.338013017830417e-07,2.5540399070060826e-07,8.756197038744106e-06
2.4183571083453466e-07,3.340236521902369e-07,2.562861021350673e-07,8.98982890958276e-06
2.4169233442212574e-07,3.342214319536925e-07,2.5719412802301657e-07,9.22478696028374e-06
2.4160980789992215e-07,3.344028014384475e-07,2.581320215667125e-07,9.460118902985569e-06
2.415871549867814e-07,3.345739116162054e-07,2.591012261760027e-07,9.694941867936832e-06
2.416219346419532e-07,3.347378143521185e-07,2.601013132766356e-07,9.92843144623086e-06
2.417101274890256e-07,3.348943644660543e-07,2.611302617042697e-07,1.0159794976632884e-05
2.418459450957519e-07,3.3504055719303534e-07,2.621849773179138e-07,1.0388264150634376e-05
2.4202191332619164e-07,3.351709620790439e-07,2.6326193435683853e-07,1.0613103473537989e-05
2.422300842463108e-07,3.352784841331624e-07,2.643573806160205e-07,1.083361454144157e-05
2.424635215643856e-07,3.3535540593660987e-07,2.654672546471315e-07,1.104914342474891e-05
2.427166119138716e-07,3.353938862939136e-07,2.66587090376693e-07,1.1259092265732394e-05
2.429847544670155e-07,3.353857669919409e-07,2.6771250837356646e-07,1.146291366009586e-05
2.432643343685539e-07,3.353227144346135e-07,2.688404786317903e-07,1.1660088016197522e-05
2.435524592230563e-07,3.3519774593034e-07,2.699697089340961e-07,1.1850096925007205e-05
2.438462038424023e-07,3.3500757338572845e-07,2.7109971224370647e-07,1.2032403205945553e-05
2.441419876267825e-07,3.347534618184427e-07,2.722306917588196e-07,1.2206446806474651e-05
2.444356339360221e-07,3.344393290602589e-07,2.733639560108308e-07,1.2371647774519694e-05
2.447227762010005e-07,3.340685390606768e-07,2.745015703430314e-07,1.2527401791453184e-05
2.449987005082972e-07,3.336418837889813e-07,2.756459828564542e-07,1.2673075690827787e-05
2.452581467738904e-07,3.3315762954455163e-07,2.7679942746305425e-07,1.2808019087119475e-05
2.454958760673357e-07,3.326124322469489e-07,2.779627531728397e-07,1.2931586693779273e-05
2.457069130170582e-07,3.320018418289861e-07,2.7913448594003447e-07,1.3043153631432754e-05
2.4588617049834836e-07,3.313203420966948e-07,2.803107374043625e-07,1.314212416323494e-05
2.4602884789200694e-07,3.3056139688375484e-07,2.8148607098810665e-07,1.3227964744370575e-05
2.461313210490674e-07,3.297177486284856e-07,2.826545088006624e-07,1.3300266827496482e-05
2.4619105217459987e-07,3.287820462239685e-07,2.838098295588841e-07,1.3358777952967262e-05
2.462057447123974e-07,3.2774769459297506e-07,2.849457560489749e-07,1.3403378810848505e-05
2.461728704912375e-07,3.2660940274457175e-07,2.860569186796634e-07,1.3434054792386635e-05
2.460896041011337e-07,3.253629107995697e-07,2.871401161921155e-07,1.3450879577061717e-05
2.4595255877314236e-07,3.240043080080504e-07,2.881942424213032e-07,1.3454006785297474e-05
2.457578623078451e-07,3.225301932026103e-07,2.892187712622131e-07,1.3443679694196656e-05
2.4550285988259675e-07,3.2093917573907525e-07,2.9021307996342353e-07,1.3420246485808455e-05
2.451881645302909e-07,3.1923347081302253e-07,2.9117709340226466e-07,1.3384148258707427e-05
2.448171938370882e-07,3.17419616437957e-07,2.921121296311077e-07,1.3335870960175953e-05
2.443941890022746e-07,3.155083609949424e-07,2.930219641740644e-07,1.3275886188923295e-05
2.439235820428696e-07,3.135130187014112e-07,2.939129536222561e-07,1.3204615552982475e-05
2.434104305149641e-07,3.1144654729805164e-07,2.947918924090754e-07,1.3122433478733955e-05
2.428607563686506e-07,3.0931961894086986e-07,2.95663404625295e-07,1.3029684864418933e-05
2.422820938353664e-07,3.0714058148531465e-07,2.965293248257769e-07,1.292668856788985e-05
2.416842842000167e-07,3.0491601220971005e-07,2.973894814316495e-07,1.2813731954833584e-05
2.41079148004533e-07,3.0265165044357054e-07,2.982419806267062e-07,1.269107384102132e-05
2.404788357701796e-07,3.003544081988429e-07,2.9908302442808035e-07,1.2558956773960354e-05
2.3989514739472746e-07,2.980334883965019e-07,2.999070843818495e-07,1.24176230270095e-05
2.3934003056533973e-07,2.956989451777266e-07,3.0070777462107227e-07,1.2267327881138748e-05
2.388251569324357e-07,2.9335969773813737e-07,3.014794721758171e-07,1.2108341675812365e-05
2.3836063322079086e-07,2.910226357066049e-07,3.0221832657290485e-07,1.1940946255246188e-05
2.379539626716084e-07,2.886926074852522e-07,3.029214037756459e-07,1.176544438419526e-05
2.3760965857689696e-07,2.863728281645452e-07,3.0358545583858015e-07,1.1582182886368774e-05
2.3732966398226127e-07,2.840654982230885e-07,3.04206997167387e-07,1.1391567362107445e-05
2.3711380465791568e-07,2.8177285962676394e-07,3.047825536934729e-07,1.119405495709622e-05
2.369597457616009e-07,2.794981702841537e-07,3.0530810682131987e-07,1.0990133522618963e-05
2.36863343797448e-07,2.772457302964676e-07,3.057790248793193e-07,1.0780302653962093e-05
2.368198581849081e-07,2.750204680956435e-07,3.061913052914319e-07,1.056506272892814e-05
2.3682505438958173e-07,2.728281225219134e-07,3.06543445026656e-07,1.0344905504585296e-05
2.3687533181602396e-07,2.706753724435031e-07,3.0683673444580675e-07,1.0120307020688534e-05
2.369671067412757e-07,2.6856872873794407e-07,3.070727716878113e-07,9.891734784165185e-06
2.3709601278744893e-07,2.665131412192718e-07,3.072511747901581e-07,9.6596718150233e-06
2.372566162967655e-07,2.645114983771985e-07,3.0736945290516784e-07,9.424647250425184e-06
2.3744316189818486e-07,2.6256464620525134e-07,3.074234258704673e-07,9.187247141665336e-06
2.3765069382874962e-07,2.606715386052665e-07,3.0740752247924143e-07,8.948083724834938e-06
2.3787558747091645e-07,2.588294448179924e-07,3.073155302688089e-07,8.707749993485468e-06
2.3811534448523089e-07,2.5703446858952056e-07,3.0714154774586787e-07,8.466799546789817e-06
2.383676045388453e-07,2.55282378560401e-07,3.068806598231491e-07,8.225759364008113e-06
2.3862878464616924e-07,2.5356930718372106e-07,3.0652969381358036e-07,7.98517309248877e-06
2.388938228150585e-07,2.518928104106761e-07,3.0608758488632414e-07,7.745651614989132e-06
2.3915753062860085e-07,2.502530222544453e-07,3.055540967686647e-07,7.507879207993802e-06
2.394161237580841e-07,2.4865270770030325e-07,3.0492828995304326e-07,7.272560585044203e-06
2.396676655287809e-07,2.470964507428876e-07,3.0420898320852925e-07,7.040358307372247e-06
2.3991231147926734e-07,2.4558953625516373e-07,3.0339652852404e-07,6.811873897338144e-06
2.4015299120834923e-07,2.441371335175543e-07,3.024946924236497e-07,6.587683982602774e-06
2.4039478003554677e-07,2.427445354009241e-07,3.015120837162622e-07,6.36841495701007e-06
2.406430306008417e-07,2.414176114359471e-07,3.0046110660550973e-07,6.154813270501261e-06
2.4090286073717907e-07,2.4016212750042425e-07,2.9935416155327265e-07,5.947748258709692e-06
2.411799343185737e-07,2.38982500995826e-07,2.982004462486936e-07,5.74813324027491e-06
2.414807579298461e-07,2.3788162345226765e-07,2.970055375826867e-07,5.556819125115013e-06
2.41813771470732e-07,2.3686170185369888e-07,2.957734097031744e-07,5.3745232678961335e-06
2.42192419370234e-07,2.3592453407567267e-07,2.9450902955164983e-07,5.201817891626839e-06
2.426369414149776e-07,2.3507073101039858e-07,2.9321853194248524e-07,5.039150749093085e-06
2.431721056667207e-07,2.342992672416913e-07,2.9190696970343645e-07,4.886865967932419e-06
2.4382268071819484e-07,2.336083758456583e-07,2.9057691778929017e-07,4.74524515496986e-06
2.446096328670972e-07,2.3299651876140107e-07,2.8922890528634076e-07,4.6145986846093925e-06
2.455487979313401e-07,2.3246185513880812e-07,2.878622546533222e-07,4.495349279426301e-06
2.466521546129918e-07,2.320011879202161e-07,2.8647615073432104e-07,4.3880069956206204e-06
2.479292916609753e-07,2.316102172774837e-07,2.850709594085449e-07,4.2930544762120285e-06
2.4938671835094284e-07,2.3128484370082011e-07,2.8364855330134576e-07,4.210846722319227e-06
2.5102663167490786e-07,2.3102263559845952e-07,2.8221131883036376e-07,4.141576126166512e-06
2.5284818699616827e-07,2.3082402043140658e-07,2.807611918929557e-07,4.085332754650868e-06
2.54849882092426e-07,2.3069198902801037e-07,2.793002629012242e-07,4.0422629100062e-06
2.570292291148339e-07,2.306300452447341e-07,2.778327243024663e-07,4.01270764658722e-06
2.593803478739707e-07,2.3064010787237392e-07,2.763656157229752e-07,3.997200902181822e-06
2.61893058450927e-07,2.3072173765481893e-07,2.749074416240584e-07,3.996367791511619e-06
2.6455397637004127e-07,2.3087266556442772e-07,2.734665335749742e-07,4.010824755101672e-06
2.6734848374429486e-07,2.310898330389472e-07,2.7205001019859104e-07,4.041118056387818e-06
2.7026354048815013e-07,2.313704823040697e-07,2.7066325149022953e-07,4.087692071079212e-06
2.7328956340769896e-07,2.3171295303839502e-07,2.6931031205571406e-07,4.1508649436840764e-06
2.7641914519054854e-07,2.3211638604147162e-07,2.6799497758890575e-07,4.2308014705508914e-06
2.7964404964776374e-07,2.325805158230516e-07,2.667215694686379e-07,4.327496230382933e-06
2.829536384427733e-07,2.331073292676815e-07,2.654950546281523e-07,4.440768701840048e-06
2.863359532547685e-07,2.337022713218264e-07,2.643204492561206e-07,4.57025170684847e-06
2.897793249199565e-07,2.3437251814234423e-07,2.6320159261928445e-07,4.715370268123892e-06
2.932720048597636e-07,2.3512455305506906e-07,2.621400099908505e-07,4.875339434723365e-06
2.968010507171089e-07,2.3596334085675826e-07,2.6113508157680267e-07,5.049201481721483e-06
3.0035278781565573e-07,2.3689193847293602e-07,2.6018518192239627e-07,5.2358817324356895e-06
3.0391403605205806e-07,2.3791070301603912e-07,2.592888284499866e-07,5.434237262377431e-06
3.074716911744008e-07,2.3901747783520105e-07,2.584457883272409e-07,5.643100677415919e-06
3.110108548475889e-07,2.402090485909294e-07,2.576576202135327e-07,5.861319831139876e-06
3.1451396518733924e-07,2.414820270049004e-07,2.5692780419858644e-07,6.087785269928925e-06
3.1796162058310015e-07,2.42832860083206e-07,2.562624438487931e-07,6.321448637699867e-06
3.213338596290936e-07,2.442582255657147e-07,2.556708157419472e-07,6.56133028680558e-06
3.246108413018499e-07,2.457552572052782e-07,2.551646224532765e-07,6.806509784981328e-06
3.277726933445328e-07,2.473211660715085e-07,2.547558856637195e-07,7.056113196121356e-06
3.307991719572741e-07,2.4895325635771056e-07,2.5445408797891567e-07,7.3093054344089065e-06
3.3366958245905e-07,2.506493984582585e-07,2.5426414258808157e-07,7.5652664757856526e-06
3.3636285180966577e-07,2.524084924661061e-07,2.5418661239460567e-07,7.823142626211437e-06
3.388582467924529e-07,2.5423055940932326e-07,2.542203298201297e-07,8.082003304660532e-06
3.411369399808848e-07,2.561157689527535e-07,2.543655870672975e-07,8.340826894110762e-06
3.43183080581836e-07,2.580629605593908e-07,2.546245995381153e-07,8.598507781689976e-06
3.449834778557016e-07,2.6006989845260763e-07,2.549995357571451e-07,8.85388007321833e-06
3.46526926159836e-07,2.6213500058274497e-07,2.554914262060357e-07,9.105758823772225e-06
3.478040362538477e-07,2.642570707692895e-07,2.5610016035586466e-07,9.352986114036276e-06
3.488070594208425e-07,2.66432886201053e-07,2.568248064290566e-07,9.594457023305204e-06
3.495299836180479e-07,2.686566472798737e-07,2.576641506652002e-07,9.82910643828635e-06
3.4996957952953356e-07,2.709225582073194e-07,2.586164079960019e-07,1.0055878042343376e-05
3.5012580172688713e-07,2.732275549469433e-07,2.5967885314307125e-07,1.0273712671755043e-05
3.500006726080875e-07,2.755713236025702e-07,2.6084799733556925e-07,1.0481558472424808e-05
3.495977327428493e-07,2.779536661975033e-07,2.621190029634795e-07,1.0678396814843696e-05
3.489225077373156e-07,2.803721061761547e-07,2.634851552186025e-07,1.086329499985574e-05
3.479821691621798e-07,2.828225469389291e-07,2.649389934445167e-07,1.1035466840864908e-05
3.4678497014814327e-07,2.853025098093171e-07,2.6647374796248853e-07,1.1194287461275197e-05
3.4534104693077674e-07,2.878140368755775e-07,2.6808287375659656e-07,1.1339253474562575e-05
3.436627460494985e-07,2.903644166633507e-07,2.697584422860724e-07,1.1469933032934446e-05
3.417630615494448e-07,2.929647041633994e-07,2.714909346176217e-07,1.1585938042927914e-05
3.396544506582747e-07,2.956266766279886e-07,2.7327080363379284e-07,1.1686920888138388e-05
3.373492448721713e-07,2.9835975262416977e-07,2.7509071848381073e-07,1.1772585946515805e-05
3.3486061103291603e-07,3.0116967625737306e-07,2.769478626321898e-07,1.1842706388421665e-05
3.322027641897937e-07,3.040594873837898e-07,2.7884483295624443e-07,1.1897149377742458e-05
3.293899277763068e-07,3.070310070714198e-07,2.80788011048528e-07,1.193593875669113e-05
3.264356956933392e-07,3.10084942899412e-07,2.8278509398127305e-07,1.195934477614459e-05
3.233542469568544e-07,3.1322022018939556e-07,2.84843348864614e-07,1.1967901438168526e-05
3.201620669957429e-07,3.164333985650845e-07,2.8696802452747025e-07,1.1962305145335969e-05
3.1687788687595957e-07,3.197186711022965e-07,2.89161369954869e-07,1.1943283556098473e-05
3.135208228765287e-07,3.230687399205939e-07,2.914227969138931e-07,1.1911534282464443e-05
3.101087653105161e-07,3.264750308450662e-07,2.9374915820613014e-07,1.1867776015323634e-05
3.0665763470501735e-07,3.299269142486475e-07,2.9613532854025984e-07,1.181290188602546e-05
3.031811012877167e-07,3.334113830590014e-07,2.985755513606897e-07,1.1748127232290331e-05
2.9969122084693605e-07,3.369128953890708e-07,3.010643919693822e-07,1.1674995707015828e-05
2.9619926369171605e-07,3.4041283240323445e-07,3.035970264800621e-07,1.1595251766222274e-05
2.927154806190072e-07,3.438897669582109e-07,3.0616946680476607e-07,1.151069383723775e-05
2.892485533839445e-07,3.473211758792893e-07,3.087780294975713e-07,1.142306952736019e-05
2.8580556407443947e-07,3.5068502827159464e-07,3.114179979278799e-07,1.133400675309267e-05
2.8239282212205554e-07,3.5396012144108403e-07,3.140828429833812e-07,1.1244958241139257e-05
2.790180531681227e-07,3.571257988624058e-07,3.1676445899133397e-07,1.115715174278093e-05
2.756919935940705e-07,3.601614315136228e-07,3.1945394730407645e-07,1.1071559162089364e-05
2.724274569222819e-07,3.630459604585547e-07,3.2214179400678626e-07,1.0988895205688392e-05
2.692377336718877e-07,3.6575810976609396e-07,3.2481695695006406e-07,1.0909646734243828e-05
2.6613600693737414e-07,3.682775183122046e-07,3.2746663719969817e-07,1.0834128793901418e-05
2.631350554735719e-07,3.705861757719238e-07,3.300775327798412e-07,1.0762552052557362e-05
2.602468104744365e-07,3.7266884123189406e-07,3.326367304637552e-07,1.0695079644845876e-05
2.574827073028389e-07,3.745125107093807e-07,3.351309787942043e-07,1.063186408755698e-05
2.548547294405448e-07,3.761063102641653e-07,3.375457653462844e-07,1.057307585021925e-05
2.523749246461384e-07,3.774420725069135e-07,3.3986588860880816e-07,1.0518931767663876e-05
2.500532729602219e-07,3.785148251905451e-07,3.420765884333649e-07,1.0469702009110755e-05
2.4789649222992844e-07,3.793233706551535e-07,3.4416425674487893e-07,1.0425677261760174e-05
2.4590852348745714e-07,3.798708710874985e-07,3.461176247841486e-07,1.0387122732051187e-05
2.44091660977991e-07,3.801636164335865e-07,3.4792903978739407e-07,1.0354250624898093e-05
2.424477893742118e-07,3.8020835655719755e-07,3.4959413592666523e-07,1.0327200220511875e-05
2.4097908631137873e-07,3.8001097964659317e-07,3.5110985195885656e-07,1.0306010223315547e-05
2.396875577005899e-07,3.795770953295905e-07,3.5247237403700794e-07,1.0290599824478913e-05
2.385742158493773e-07,3.789135420913504e-07,3.5367647645464187e-07,1.0280771271606253e-05
2.376393089161797e-07,3.7802979826507394e-07,3.5471641698330076e-07,1.0276235301184495e-05
2.3688373235376958e-07,3.7693812280307226e-07,3.5558706801627577e-07,1.0276669892957267e-05
2.3631033938349662e-07,3.7565270059883287e-07,3.5628397485622e-07,1.028178758784612e-05
2.35924089938127e-07,3.7418856691389363e-07,3.568024677498311e-07,1.0291356904721904e-05
2.3573066747010198e-07,3.7256019669687393e-07,3.5713678187152745e-07,1.0305176357135262e-05
2.357337033268402e-07,3.7078025567582886e-07,3.572801645751127e-07,1.0323044388848672e-05
2.3593253668429712e-07,3.6885936099673283e-07,3.5722620174862287e-07,1.0344746027953619e-05
2.3632221748686327e-07,3.668068595057265e-07,3.5697006890044174e-07,1.0370045135496273e-05
2.3689476584900442e-07,3.646318144848485e-07,3.565084952288643e-07,1.0398680983600977e-05
2.376399996907652e-07,3.623430270034829e-07,3.5583892588581007e-07,1.0430376877864037e-05
2.385459452197368e-07,3.599482608124564e-07,3.5495900241084034e-07,1.0464841781883444e-05
2.395995280931201e-07,3.5745430862956134e-07,3.5386666552094046e-07,1.0501754415214957e-05
2.407867359683623e-07,3.54867978847221e-07,3.5256056201110466e-07,1.0540748037780604e-05
2.4209198237968565e-07,3.52196296994222e-07,3.5104068763502076e-07,1.058140215612982e-05
2.434980029362552e-07,3.4944685818536054e-07,3.4930882215256663e-07,1.0623232838118775e-05
2.449862900928796e-07,3.466303675129973e-07,3.473680498634449e-07,1.0665680449873453e-05
2.465373594875765e-07,3.4376259660969865e-07,3.452222468875779e-07,1.0708109438017374e-05
2.4813121533120645e-07,3.4086319936063397e-07,3.428764887396893e-07,1.0749838499598854e-05
2.4974791484131434e-07,3.379534527339641e-07,3.403375904158897e-07,1.0790189846820447e-05
2.513675475934748e-07,3.350537602656021e-07,3.3761431437892214e-07,1.082851773692939e-05
2.529700022972852e-07,3.3218094666762707e-07,3.3471753307447767e-07,1.0864200280966199e-05
2.5453577342611773e-07,3.2934727189067174e-07,3.3166024740199997e-07,1.0896621382470864e-05
2.5604796970181165e-07,3.265612605386332e-07,3.2845714340700767e-07,1.0925183683533664e-05
2.57493316582107e-07,3.238287368684084e-07,3.251235851863216e-07,1.0949369582597207e-05
2.588609732040254e-07,3.2115398904077665e-07,3.216748258521509e-07,1.0968797717890897e-05
2.6014092422891925e-07,3.1854123398369607e-07,3.181261089895241e-07,1.0983203187008071e-05
2.613229063518244e-07,3.159954879010709e-07,3.144930507335282e-07,1.0992361253230323e-05
2.6239594870412805e-07,3.1352258008138907e-07,3.107915181542864e-07,1.0996027115143221e-05
2.633491113970723e-07,3.111285855084372e-07,3.070370284997221e-07,1.0993918032277994e-05
2.6417308589245724e-07,3.0881866677367165e-07,3.032443803717764e-07,1.0985722176530327e-05
2.6486164591670515e-07,3.065960162458149e-07,2.994274147456145e-07,1.0971113569537406e-05
2.654120063929276e-07,3.0446178322329776e-07,2.9559855937829035e-07,1.094976424998937e-05
2.65824269403309e-07,3.02416000719208e-07,2.917691553607533e-07,1.0921357943142307e-05
2.661011062476878e-07,3.004595076760473e-07,2.879507297803773e-07,1.0885608116088937e-05
2.662475984545498e-07,2.985961968731293e-07,2.8415678844332187e-07,1.084228056117446e-05
2.662705356669641e-07,2.9683368226466625e-07,2.804048123999585e-07,1.0791218210870572e-05
2.661772410827745e-07,2.9518209856899297e-07,2.7671712164074987e-07,1.0732359320433957e-05
2.659749377699028e-07,2.936527829758844e-07,2.731206941524727e-07,1.066574636546567e-05
2.656717297213356e-07,2.922572472311398e-07,2.696460793719688e-07,1.0591527803098697e-05
2.65277851213141e-07,2.9100593426855373e-07,2.66324215739269e-07,1.0509948738082901e-05
2.648051476914735e-07,2.899075880891625e-07,2.6318333267328354e-07,1.042132890907408e-05
2.642657129173016e-07,2.889694778486711e-07,2.602490215223455e-07,1.0326030402731979e-05
2.636710110433781e-07,2.8819729296869337e-07,2.5754552835003965e-07,1.0224420573775924e-05
2.6303105293440826e-07,2.875942007796086e-07,2.5509554145247677e-07,1.0116842100252193e-05
2.623538195140611e-07,2.8715985918818394e-07,2.529194002479497e-07,1.0003597943215221e-05
2.616454869967976e-07,2.8689048446579936e-07,2.5103429269256055e-07,9.884949768598362e-06
2.60910902438946e-07,2.8677965512640574e-07,2.4945290434227966e-07,9.761127086561867e-06
2.601538200106613e-07,2.868191544194423e-07,2.481826430543579e-07,9.632344795113415e-06
2.593770223311875e-07,2.870007851232089e-07,2.472259150387276e-07,9.498825933650102e-06
2.585826948435247e-07,2.873183792172109e-07,2.46580430921411e-07,9.36082895076987e-06
2.57773235136041e-07,2.8776745930441605e-07,2.4624032370739387e-07,9.218676426541682e-06
2.569518370155316e-07,2.8834313041104346e-07,2.461996910167224e-07,9.072772647671897e-06
2.561225893694861e-07,2.8903833039948644e-07,2.4645601707718874e-07,8.923601022643645e-06
2.552912308031845e-07,2.8984325522043885e-07,2.470091596143605e-07,8.771707356127166e-06
2.544663504391896e-07,2.907458881701537e-07,2.4785766058306146e-07,8.6176760769944e-06
2.5365867951925484e-07,2.9173284601468764e-07,2.4899732939992557e-07,8.46209697109942e-06
2.528788329086071e-07,2.927906418125757e-07,2.504217712931929e-07,8.305527010137738e-06
2.521364015132991e-07,2.939076849407917e-07,2.521221830005523e-07,8.148467095004021e-06
2.514402957929701e-07,2.950750036553009e-07,2.5408733571877304e-07,7.991363211521093e-06
2.5079880709102106e-07,2.962845783727884e-07,2.563044394374e-07,7.834617819922686e-06
2.502194335346704e-07,2.975275913404005e-07,2.5875882392849765e-07,7.678592582764015e-06
2.4970830042234e-07,2.987939922613678e-07,2.6143237336803715e-07,7.52360249960697e-06
2.49269125520624e-07,3.000725095752769e-07,2.643027806666563e-07,7.369927954938547e-06
2.4890295420603e-07,3.01351076760965e-07,2.673440215139463e-07,7.2178600694488324e-06
2.486092670576084e-07,3.026180397656242e-07,2.705272427737256e-07,7.0677404329360945e-06
2.483869559607077e-07,3.0386308802334873e-07,2.738218042266216e-07,6.919952085547058e-06
2.48233852979106e-07,3.0507701062476873e-07,2.771967663509289e-07,6.774882573068779e-06
2.481459518333804e-07,3.0625124166036037e-07,2.806226823359377e-07,6.6329101260708214e-06
2.481180638305665e-07,3.0737804112816337e-07,2.840733893303797e-07,6.49444229816312e-06
2.481457840400136e-07,3.0845045326449836e-07,2.875283058301464e-07,6.359978478271309e-06
2.4822643284201133e-07,3.0946179059537845e-07,2.909739828647385e-07,6.23012110069915e-06
2.483578090200532e-07,3.104054600566252e-07,2.9440191890998805e-07,6.105516181473971e-06
2.4853723525295226e-07,3.112750069212193e-07,2.978039374125281e-07,5.98677321224345e-06
2.4876209691898505e-07,3.1206422973911125e-07,3.011699467826627e-07,5.874409113027273e-06
2.4902988968481457e-07,3.127676424916428e-07,3.044901137828631e-07,5.768835166968749e-06
2.4933777211247285e-07,3.1338066109976103e-07,3.077592173315412e-07,5.670373827607345e-06
2.496832662218117e-07,3.1389905149059854e-07,3.109781439336253e-07,5.579271468999015e-06
2.5006505942950345e-07,3.14318293921823e-07,3.141506844660291e-07,5.495689575967136e-06
2.504823529298216e-07,3.146335085137805e-07,3.172798156144377e-07,5.419693789729448e-06
2.509339193899613e-07,3.148402284321801e-07,3.2036587285450977e-07,5.351291396247114e-06
2.514179246211288e-07,3.149363006237314e-07,3.2340549163873766e-07,5.290525316847744e-06
2.5193215817802965e-07,3.149237008728808e-07,3.263914693467617e-07,5.237532119091899e-06
2.5247462257900893e-07,3.148083281660025e-07,3.293136816808979e-07,5.19249462592785e-06
2.530437312298348e-07,3.145984925350349e-07,3.3216008872366533e-07,5.155559402607047e-06
2.536375910544956e-07,3.143034050240848e-07,3.3491784027942906e-07,5.126831968238205e-06
2.542539645428487e-07,3.139315180862924e-07,3.375749730000081e-07,5.1064801274135034e-06
2.548915359094369e-07,3.1348949379058445e-07,3.401218115911402e-07,5.0948532310853364e-06
2.555507249941486e-07,3.1298244892476413e-07,3.425507319778601e-07,5.092488323626522e-06
2.562326913313623e-07,3.124142116526368e-07,3.448546565979571e-07,5.100006370216402e-06
2.56937341434189e-07,3.117866460453477e-07,3.470255543858058e-07,5.118001082882192e-06
2.5766230984226797e-07,3.1109887706839053e-07,3.4905363501360877e-07,5.146969599117746e-06
2.584034902018001e-07,3.103475039110863e-07,3.5092726964987213e-07,5.187274404966874e-06
2.591558532230201e-07,3.095276469346443e-07,3.5263319909910324e-07,5.239118946729378e-06
2.599133013636341e-07,3.0863421262724945e-07,3.5415715364800857e-07,5.302532362565427e-06
2.606682710729771e-07,3.076637697464991e-07,3.554858165182086e-07,5.377366494951715e-06
2.614126680459205e-07,3.0661694641382685e-07,3.5660966749593157e-07,5.463302618581767e-06
2.621392187469924e-07,3.0549923537558013e-07,3.575239873433668e-07,5.5598678971962734e-06
2.628414879891944e-07,3.0431936434740107e-07,3.5822715354725025e-07,5.666459704839667e-06
2.635132175258418e-07,3.030869921856137e-07,3.587192477198767e-07,5.7823607591061124e-06
2.6414821716510894e-07,3.018113314312651e-07,3.590025448930369e-07,5.906739560548023e-06
2.647407916397121e-07,3.00501456410153e-07,3.59081784453032e-07,6.038662399591013e-06
2.65286045906493e-07,2.991675268103239e-07,3.589629398635843e-07,6.177140138998913e-06
2.657797933812028e-07,2.978212530026897e-07,3.5865176228175544e-07,6.321196974716321e-06
2.662184399751472e-07,2.964751607066998e-07,3.581534691861437e-07,6.469923127185797e-06
2.66598819778128e-07,2.9514083620242356e-07,3.5747318136270796e-07,6.6224876974885325e-06
2.669183475845247e-07,2.9382712318282187e-07,3.566160765070026e-07,6.778127458830477e-06
2.671766727857768e-07,2.925395352613213e-07,3.555872116009118e-07,6.9361375601718234e-06
2.673773172966487e-07,2.912805830038488e-07,3.543913359329072e-07,7.095866758288124e-06
2.675264274658752e-07,2.900505233454948e-07,3.530326565098568e-07,7.256708713540034e-06
2.676300873105875e-07,2.8884865370480657e-07,3.515148444106225e-07,7.418090195880963e-06
2.676930676427963e-07,2.8767491663966e-07,3.4984223344193077e-07,7.579454916663354e-06
2.6771838548839807e-07,2.8653170205778124e-07,3.4802169368514924e-07,7.740230825812581e-06
2.6770690022241305e-07,2.854254258276129e-07,3.460631167243888e-07,7.899796710795212e-06
2.6765831591188013e-07,2.843663805756037e-07,3.439782963356247e-07,8.057491561757085e-06
2.675737226011028e-07,2.8336691906655087e-07,3.417795097018706e-07,8.21265859563515e-06
2.674574083041628e-07,2.824407559629959e-07,3.394783290977237e-07,8.36466688996963e-06
2.673161948606963e-07,2.816037831639874e-07,3.370849710592112e-07,8.512898663874582e-06
2.6715745517439577e-07,2.808730924896161e-07,3.346082503509679e-07,8.656736383391762e-06
2.669879776963685e-07,2.8026388791814323e-07,3.320555322590407e-07,8.795560642056276e-06
2.668140851563274e-07,2.797873198703972e-07,3.294328535885584e-07,8.928750039587633e-06
2.6664236472006245e-07,2.79449724891682e-07,3.2674569480715573e-07,9.055688568933742e-06
2.664798274888351e-07,2.792522861245621e-07,3.239995187197532e-07,9.175777746750933e-06
2.6633272374326586e-07,2.791915963950183e-07,3.211995456917836e-07,9.288440970498557e-06
2.662057042554089e-07,2.79261264756097e-07,3.1835053218176645e-07,9.39313398405673e-06
2.661027485919882e-07,2.794535021184002e-07,3.154569826764189e-07,9.489370649869138e-06
2.660279666641879e-07,2.7975941159569714e-07,3.125243177131762e-07,9.576753845502023e-06
2.659848242056269e-07,2.801679866769857e-07,3.095609135023271e-07,9.655017905136173e-06
2.659755253998164e-07,2.8066567949152605e-07,3.0657894103025443e-07,9.724071546795942e-06
2.660013473003953e-07,2.812374301078633e-07,3.035927962058897e-07,9.78399578825304e-06
2.660624445517725e-07,2.818677281207e-07,3.0061662105949377e-07,9.83498033675461e-06
2.661570181417949e-07,2.825413414295323e-07,2.976630776497144e-07,9.87723742825308e-06
2.66280861444562e-07,2.8324486924199617e-07,2.9474427787971265e-07,9.910949160738392e-06
2.6642763965969673e-07,2.8396809883056997e-07,2.9187366008852513e-07,9.93626336966442e-06
2.665900978262465e-07,2.847040736372256e-07,2.890666489346721e-07,9.953301168193331e-06
2.667615098137496e-07,2.854495667866519e-07,2.863395359690188e-07,9.96215675505419e-06
2.669364172971625e-07,2.8620628900685483e-07,2.83707394144707e-07,9.962932805448327e-06
2.671109885980014e-07,2.8698132261455e-07,2.811820505880097e-07,9.955839685643908e-06
2.6728280120014467e-07,2.877860100349588e-07,2.787711850155567e-07,9.94127659020081e-06
2.674495442730572e-07,2.886327326938875e-07,2.7647903675556307e-07,9.919793148611108e-06
2.676076870481593e-07,2.895309263057863e-07,2.7430840188978015e-07,9.891969032405774e-06
2.677521490192959e-07,2.904853387987752e-07,2.722625844912925e-07,9.858329681398973e-06
2.678769092124685e-07,2.9149746667138616e-07,2.703455164150131e-07,9.81935652906569e-06
2.679757136821353e-07,2.925681038876631e-07,2.685600794375467e-07,9.775594425114114e-06
2.680422325916393e-07,2.9369781909310853e-07,2.669065907494409e-07,9.727808705097051e-06
2.680699172859922e-07,2.9488525884670416e-07,2.65382871024122e-07,9.67707077066041e-06
2.680517784576626e-07,2.961266449947928e-07,2.639855750941012e-07,9.62470259485294e-06
2.679803516119339e-07,2.974180242892724e-07,2.627112154644304e-07,9.572149616421919e-06
2.678479914583909e-07,2.987578983042758e-07,2.615566534579717e-07,9.520860576935514e-06
2.6764722875790146e-07,3.001468753412015e-07,2.6052036342490084e-07,9.47218392071351e-06
2.6737133700854e-07,3.0158442649642626e-07,2.5960323295834625e-07,9.427283379406403e-06
2.670149432105256e-07,3.030661549942961e-07,2.588070637042684e-07,9.387084113338693e-06
2.665742331275668e-07,3.045833282733236e-07,2.581327436432202e-07,9.352249713144966e-06
2.660470462862247e-07,3.061243203995169e-07,2.575801329784457e-07,9.323187217444943e-06
2.654326434147697e-07,3.076776317880684e-07,2.571484235146519e-07,9.300072673612602e-06
2.647307169635925e-07,3.092344014357063e-07,2.568361268865417e-07,9.282882860507317e-06
2.639406820485712e-07,3.107881811561533e-07,2.566416113014089e-07,9.2714295495625e-06
2.6306184097436945e-07,3.123333126198319e-07,2.5656373856989877e-07,9.265400652502369e-06
2.620937041287872e-07,3.138638654804521e-07,2.566011858462883e-07,9.264400685201316e-06
2.610360949429639e-07,3.153733622213915e-07,2.567511019100122e-07,9.26798516223895e-06
2.59889096516604e-07,3.1685505591705854e-07,2.570085447883523e-07,9.275698477505062e-06
2.5865323311320837e-07,3.1830229849987306e-07,2.573663463067988e-07,9.287110465578695e-06
2.573297768659855e-07,3.1970917690567825e-07,2.57814959319539e-07,9.301831479215173e-06
2.559205849968268e-07,3.210713514755064e-07,2.583426936122052e-07,9.319513381600294e-06
2.544282464450233e-07,3.2238601803460513e-07,2.5893657164996053e-07,9.33986493164592e-06
2.528573521166419e-07,3.236514582779499e-07,2.595838406877347e-07,9.36267834131143e-06
2.512156000424101e-07,3.2486704449065643e-07,2.6027291547391554e-07,9.38783048318995e-06
2.495129411770457e-07,3.2603250919330675e-07,2.6099272736148725e-07,9.415234826627768e-06
2.4775929016225896e-07,3.271464252035794e-07,2.617319299177579e-07,9.444763796429253e-06
2.4596292413444015e-07,3.2820589573687037e-07,2.624787847458607e-07,9.476204379837939e-06
2.441301359610457e-07,3.292072378611108e-07,2.6322103312870325e-07,9.509291027724922e-06
2.4226534384831467e-07,3.301460415994606e-07,2.639458960318567e-07,9.543771301158123e-06
2.4037130271148484e-07,3.310171995508609e-07,2.6464014933202106e-07,9.579427955741199e-06
2.384496443986591e-07,3.3181569163698106e-07,2.65289986943563e-07,9.616051836898959e-06
2.3650227108934132e-07,3.325369091353721e-07,2.658812083308868e-07,9.653405959266576e-06
2.3453285310455608e-07,3.331757302622332e-07,2.663998416532693e-07,9.691203387646562e-06
2.3254660498996768e-07,3.337256157909546e-07,2.6683269890025124e-07,9.729108500628481e-06
2.3054912194209625e-07,3.34178788874907e-07,2.6716787095885737e-07,9.76676578514505e-06
2.2854642211609212e-07,3.345268804698039e-07,2.6739541830976813e-07,9.80384518767254e-06
2.2654579089274054e-07,3.347612784055652e-07,2.6750795545916855e-07,9.840072491468676e-06
2.245563717714413e-07,3.348734467386661e-07,2.675011026632299e-07,9.875221910181794e-06
2.2258911478926945e-07,3.348566611180755e-07,2.673748070722588e-07,9.909084978238887e-06
2.2065543121883121e-07,3.347095492691681e-07,2.671353543304749e-07,9.941432549387855e-06
2.1876531045270451e-07,3.344380477830048e-07,2.66795893503445e-07,9.971980417424273e-06
2.169267301704636e-07,3.34053203283892e-07,2.6637499535146164e-07,1.0000375571876744e-05
2.15146444721833e-07,3.335675240983251e-07,2.658947729327764e-07,1.0026207087186219e-05
2.134308319203188e-07,3.329930071253232e-07,2.653784905514536e-07,1.0049039694189533e-05
2.1178648721860711e-07,3.3234068851684217e-07,2.6484735530153884e-07,1.0068465463584967e-05
2.102203603535796e-07,3.31620410234758e-07,2.6431853157870497e-07,1.0084144168464148e-05
2.0873885846755532e-07,3.308402661263177e-07,2.6380572562582323e-07,1.0095799818352864e-05
2.0734746381854426e-07,3.300063984594132e-07,2.6332063892157565e-07,1.0103182113553548e-05
2.060515913251868e-07,3.29123358706531e-07,2.6287353039150865e-07,1.0106035746084604e-05
2.0485635315995804e-07,3.281940462623273e-07,2.6247301644224557e-07,1.0104117156049304e-05
2.0376508574043948e-07,3.272192337315981e-07,2.6212553691998767e-07,1.0097250647816526e-05
2.0277896439804854e-07,3.2619777998840384e-07,2.618348371415968e-07,1.0085352881388113e-05
2.0189809717885853e-07,3.251276367297145e-07,2.6160207895075524e-07,1.0068394338139097e-05
2.0112306288900926e-07,3.2400672917212005e-07,2.61426656687362e-07,1.0046350677894124e-05
2.004556856316182e-07,3.228333405725519e-07,2.6130743257485146e-07,1.0019179412511425e-05
1.998981302048908e-07,3.2160628456402807e-07,2.6124473155386874e-07,9.986817830421409e-06
1.9945129918147718e-07,3.2032519816092875e-07,2.612427291260044e-07,9.94918947424864e-06
1.991144587869236e-07,3.189914019152267e-07,2.61309876366226e-07,9.906206894739737e-06
1.9888671968644443e-07,3.176094831194792e-07,2.6145654415767325e-07,9.85777398709563e-06
1.9876887577702e-07,3.161884606100324e-07,2.616924823184103e-07,9.80379080251118e-06
1.987637613438285e-07,3.1474090832793196e-07,2.6202593039177103e-07,9.744158504373613e-06
1.9887538036332945e-07,3.1328064834960176e-07,2.624636581297276e-07,9.678785980998806e-06
1.991078140102436e-07,3.11821217973672e-07,2.6301125341156147e-07,9.60759779118976e-06
1.9946408525027238e-07,3.103758855305405e-07,2.63673609039585e-07,9.53054500048441e-06
1.9994537758846415e-07,3.089578271080474e-07,2.64454771456973e-07,9.447621469975861e-06
2.005512304551723e-07,3.075790918400089e-07,2.653568288686225e-07,9.358876841610319e-06
2.012803526899205e-07,3.0624949889006186e-07,2.6637925616227106e-07,9.264412829853869e-06
2.0213130707371302e-07,3.0497738763823035e-07,2.6751895956856736e-07,9.164365701623463e-06
2.031025480296111e-07,3.037715535769632e-07,2.6877009501402614e-07,9.058892674203237e-06
2.041916337890325e-07,3.026416672868773e-07,2.701240555635281e-07,8.948170452786988e-06
2.0539469184982181e-07,3.0159637913723913e-07,2.715698182518185e-07,8.832396216888002e-06
2.0670672462399486e-07,3.0064138919682577e-07,2.730940699766388e-07,8.711782612867912e-06
2.08121391443182e-07,2.997792934683715e-07,2.746812966559732e-07,8.586551595065104e-06
2.0963002329741292e-07,2.990111680776523e-07,2.7631459024807164e-07,8.45693120217562e-06
2.112219688097656e-07,2.983388562332337e-07,2.7797692753581555e-07,8.32315184177168e-06
2.1288666387337285e-07,2.9776628709998184e-07,2.796515885569992e-07,8.185445378341079e-06
2.146145748714441e-07,2.97299575373228e-07,2.813216065325548e-07,8.044052884164014e-06
2.1639637013587747e-07,2.969462938433613e-07,2.8296959412345517e-07,7.899240108413917e-06
2.1822328935029264e-07,2.967131094223287e-07,2.845784858506288e-07,7.7513149079845e-06
2.200889431946323e-07,2.9660284512716754e-07,2.8613227539077566e-07,7.60062815972721e-06
2.2198968416569614e-07,2.966136893976232e-07,2.8761593351605694e-07,7.4475487347264386e-06
2.2392265732581693e-07,2.9674075172886896e-07,2.8901493042399304e-07,7.2924349938359165e-06
2.2588352744133592e-07,2.969776731518191e-07,2.9031522706458893e-07,7.135628992886643e-06
2.2786618327576255e-07,2.973165288077333e-07,2.915040353283942e-07,6.9774836148037095e-06
2.2986366073311444e-07,2.977468702717393e-07,2.925705906770861e-07,6.818396979055075e-06
2.318681586411099e-07,2.982560216238219e-07,2.9350622881062865e-07,6.6588059052421754e-06
2.3387053795507822e-07,2.9883074767701193e-07,2.943042962585502e-07,6.499149715283459e-06
2.358603288434625e-07,2.9945829310416145e-07,2.949598917882825e-07,6.339855315092774e-06
2.3782622737930893e-07,3.0012620653476263e-07,2.954689731510538e-07,6.18134913459418e-06
2.3975691494307425e-07,3.0082277641984467e-07,2.9582765807110825e-07,6.024079195354235e-06
2.416415970010239e-07,3.015382803551597e-07,2.9603228668211973e-07,5.868535447700695e-06
2.4347018303153136e-07,3.0226468763874105e-07,2.9607968327527226e-07,5.715245393383676e-06
2.4523384182261033e-07,3.029937216587314e-07,2.9596767479669786e-07,5.564736966785123e-06
2.469255749257124e-07,3.0371593351539174e-07,2.9569654767823045e-07,5.417495080524725e-06
2.485404667189682e-07,3.044211167832985e-07,2.95270784003406e-07,5.2739432686967586e-06
2.5007608984465805e-07,3.050989661864749e-07,2.9469946024840174e-07,5.13446413346946e-06
2.515323102508768e-07,3.057403478301653e-07,2.939949556423957e-07,4.999457738695149e-06
2.5290998152016673e-07,3.0633800018280287e-07,2.931706449602111e-07,4.869407441542307e-06
2.542095783798129e-07,3.068852190103704e-07,2.922386034395021e-07,4.7448936510886674e-06
2.5543051289955805e-07,3.073744404120162e-07,2.912086956330166e-07,4.626533051908793e-06
2.565714743684721e-07,3.07797343752782e-07,2.9008921332112907e-07,4.5148868271422265e-06
2.576311258914019e-07,3.081455412312425e-07,2.888877272608196e-07,4.410396721025918e-06
2.5860774547992303e-07,3.084112460272754e-07,2.8761114243445694e-07,4.313371643348514e-06
2.594983007977004e-07,3.085878238881333e-07,2.8626568435047624e-07,4.2240005735242016e-06
2.6029848972586604e-07,3.086699109151374e-07,2.84858034319125e-07,4.142366153425989e-06
2.6100386909861933e-07,3.0865404550983147e-07,2.833965638918263e-07,4.068484493873574e-06
2.616106704525374e-07,3.0854010870849664e-07,2.8189132012689984e-07,4.002413646770176e-06
2.6211550331052086e-07,3.083313735427578e-07,2.803540646764825e-07,3.944381111104184e-06
2.6251550312664407e-07,3.0803245939395234e-07,2.787987455698611e-07,3.89480698621525e-06
2.6280977814028125e-07,3.0764756488818587e-07,2.7724032510819605e-07,3.854205211527424e-06
2.630001468364583e-07,3.0718042666258203e-07,2.75692694344219e-07,3.823066963897044e-06
2.630906522659526e-07,3.0663527414868626e-07,2.741687098826749e-07,3.8017936468372567e-06
2.6308730902807225e-07,3.060178134561533e-07,2.726816158141818e-07,3.7906961813820436e-06
2.62997228741227e-07,3.053348908031574e-07,2.712452113496357e-07,3.7900773590536147e-06
2.628266936701863e-07,3.045925384225964e-07,2.698730615250585e-07,3.800338656487483e-06
2.625804006945453e-07,3.037949094144223e-07,2.685780119926796e-07,3.821997495964306e-06
2.6226211585194893e-07,3.0294544624479733e-07,2.673718143666142e-07,3.8556085600320785e-06
2.618753308704134e-07,3.020486590036356e-07,2.662646601114964e-07,3.901676401194609e-06
2.614241223166923e-07,3.011108897914532e-07,2.6526521991463604e-07,3.9606058519515305e-06
2.609135170572539e-07,3.00139617486726e-07,2.643819441788627e-07,4.0326804666733425e-06
2.603483473125919e-07,2.991429566520089e-07,2.636246949007874e-07,4.11804952196294e-06
2.5973256042004325e-07,2.9813072624900643e-07,2.6300396931266237e-07,4.2167202357894724e-06
2.590697844979392e-07,2.9711429351210214e-07,2.6252797321150287e-07,4.328565101629504e-06
2.5836352695817534e-07,2.961036035078375e-07,2.622013542200227e-07,4.4533474138694015e-06
2.576172447023434e-07,2.951050276256093e-07,2.620270125954244e-07,4.590747106257579e-06
2.5683500031461306e-07,2.941224585849875e-07,2.620080564072368e-07,4.740359157044668e-06
2.560218336814861e-07,2.931595246697977e-07,2.621472884936137e-07,4.901660268553e-06
2.5518289625755356e-07,2.922205387379133e-07,2.6244527728575704e-07,5.073972275403585e-06
2.543216899418388e-07,2.913104229621509e-07,2.628989618432816e-07,5.25646072603577e-06
2.534391113412968e-07,2.9043433153729e-07,2.6350151320774725e-07,5.448182828957278e-06
2.525344535643377e-07,2.8959674142082824e-07,2.642433517469593e-07,5.648154469343288e-06
2.5160759198182745e-07,2.88800800771276e-07,2.6511304893872465e-07,5.855390869355056e-06
2.5066056258648627e-07,2.880492062505946e-07,2.6609725313215627e-07,6.0689142398935724e-06
2.4969761356374197e-07,2.8734550618930466e-07,2.671804279153495e-07,6.287758148115838e-06
2.4872496818098944e-07,2.8669413706885537e-07,2.68344907560886e-07,6.510973913848197e-06
2.4775145643411505e-07,2.860997859001019e-07,2.6957141413631285e-07,6.737619199387931e-06
2.467882312570982e-07,2.855675242052355e-07,2.7084046667436645e-07,6.966737185544157e-06
2.458462484076245e-07,2.851036986852396e-07,2.7213389447355545e-07,7.19735108684574e-06
2.449339226068182e-07,2.8471647937651616e-07,2.73435509954736e-07,7.428471566314552e-06
2.440575938004036e-07,2.8441588598698265e-07,2.747312914335193e-07,7.65909594711611e-06
2.4322402862544736e-07,2.842127332008062e-07,2.760091505983306e-07,7.888198962015491e-06
2.424412895075551e-07,2.8411577693033685e-07,2.772584371429862e-07,8.114729100185178e-06
2.417167000223618e-07,2.8412927717071326e-07,2.784700662516144e-07,8.337609740783803e-06
2.410558082974196e-07,2.84252849073096e-07,2.7963687377910807e-07,8.555749779092544e-06
2.404642553878802e-07,2.844826592249871e-07,2.807534025599687e-07,8.768079371605793e-06
2.3994876211440264e-07,2.848126318873487e-07,2.8181581955965705e-07,8.973601764791353e-06
2.3951557792253854e-07,2.8523458166502586e-07,2.8282209535396233e-07,9.171420698541202e-06
2.391693410975163e-07,2.857380193724269e-07,2.837713710665681e-07,9.3607183399872e-06
2.389131398210538e-07,2.8631160631688564e-07,2.8466227370311643e-07,9.540719007946406e-06
2.3874869958296453e-07,2.8694486811507173e-07,2.854913140475645e-07,9.710688579170976e-06
2.386772842812061e-07,2.8762796266631646e-07,2.862526013557529e-07,9.869970484801354e-06
2.3870104087936605e-07,2.883510412481895e-07,2.86938909557678e-07,1.0018037250675553e-05
2.388232788221395e-07,2.891042782951848e-07,2.8754336306185804e-07,1.0154546061099471e-05
2.390477465131185e-07,2.898775751902917e-07,2.8806086429207084e-07,1.0279368550099333e-05
2.393781247535316e-07,2.906604253970869e-07,2.884885455012773e-07,1.0392556656401888e-05
2.398178802043253e-07,2.9144290625699e-07,2.8882518989063396e-07,1.0494256953186631e-05
2.403698927133365e-07,2.922170190998329e-07,2.890702244246944e-07,1.0584630863746958e-05
2.410357741050399e-07,2.929767532168084e-07,2.892237483864524e-07,1.0663822388956826e-05
2.4181504557748764e-07,2.937171023944184e-07,2.89287935397788e-07,1.0731965670632973e-05
2.427045207742935e-07,2.944337821700797e-07,2.89267432303597e-07,1.078919864340237e-05
2.436981763834034e-07,2.9512299061420345e-07,2.891681100411486e-07,1.0835668465233134e-05
2.4478754592232835e-07,2.9578005444094354e-07,2.88996563013688e-07,1.0871541356778537e-05
2.4596248626585694e-07,2.9639887166490214e-07,2.8876035966699607e-07,1.089704841931294e-05
2.472116607736056e-07,2.9697307153528296e-07,2.884669073865861e-07,1.0912564978122874e-05
2.4852240464924344e-07,2.974976299964459e-07,2.881218982024085e-07,1.091863846518726e-05
2.498808990668617e-07,2.979702634353534e-07,2.8772981964889826e-07,1.0915912690745866e-05
2.512737736437708e-07,2.983912394365916e-07,2.8729542365228054e-07,1.0905017289715746e-05
2.526903771224553e-07,2.987612120445061e-07,2.868237931918077e-07,1.088652163464384e-05
2.541234876561394e-07,2.990793016884023e-07,2.8631929654069636e-07,1.0861009513842818e-05
2.555676842651925e-07,2.9934267676699066e-07,2.857847975741859e-07,1.0829235676710319e-05
2.570171844785994e-07,2.995474925028168e-07,2.852218556597342e-07,1.0792217743222984e-05
2.584654112893044e-07,2.9969036243796674e-07,2.846315894593965e-07,1.0751182006991207e-05
2.5990586751138893e-07,2.9976849240453767e-07,2.840156289080318e-07,1.0707442021665565e-05
2.6133204865081505e-07,2.997786016144206e-07,2.8337729943893923e-07,1.066229395345846e-05
2.6273629052949345e-07,2.997173742196505e-07,2.8272280793916943e-07,1.0616935668542855e-05
2.641090705758575e-07,2.995838132752686e-07,2.820610642221398e-07,1.0572404949406008e-05
2.654392825483144e-07,2.9938037468271857e-07,2.814014181975456e-07,1.0529541025926803e-05
2.667156991117891e-07,2.9911177753501626e-07,2.807512474730649e-07,1.04889687605456e-05
2.6792942887953856e-07,2.987832523358297e-07,2.8011567005840304e-07,1.0451101590265614e-05
2.690758561679604e-07,2.9839899576077337e-07,2.794989056142549e-07,1.0416157558919375e-05
2.7015501429049503e-07,2.9796162032891804e-07,2.789054590699483e-07,1.0384180817240806e-05
2.7117114116058376e-07,2.9747339127411786e-07,2.7834013940508627e-07,1.0355066126066603e-05
2.721323741358069e-07,2.969370410791304e-07,2.778072055341864e-07,1.0328591201562655e-05
2.730500335547006e-07,2.963544528902556e-07,2.773097123961035e-07,1.0304451978361872e-05
2.7393669214771285e-07,2.95725551658452e-07,2.7684954843115766e-07,1.0282292736940927e-05
2.7480419433750766e-07,2.9504949522987797e-07,2.7642801704741145e-07,1.0261741851326733e-05
2.756626668696249e-07,2.943270153881939e-07,2.760470844011673e-07,1.0242453285161447e-05
2.7651963267219876e-07,2.9356138692456827e-07,2.757111166116112e-07,1.0224129087489464e-05
2.7737952159648237e-07,2.92756802935226e-07,2.7542797106571485e-07,1.0206521352432393e-05
2.782449096277e-07,2.9191599909958765e-07,2.752081030671925e-07,1.0189435474870054e-05
2.791183669125855e-07,2.910398675054199e-07,2.7506186279818896e-07,1.0172737338755321e-05
2.8000281813355123e-07,2.9012963707146266e-07,2.7499711901022204e-07,1.0156350555462545e-05
2.809006574708519e-07,2.891903525259378e-07,2.7501850046312103e-07,1.0140234777772349e-05
2.8181290940777587e-07,2.882331974056512e-07,2.751272894797965e-07,1.0124347809759345e-05
2.827387228094293e-07,2.872743937809701e-07,2.7532152788106645e-07,1.010860431181853e-05
2.836753221200241e-07,2.8633117780019004e-07,2.755969247740904e-07,1.0092858782005264e-05
2.846185937041934e-07,2.854180851509131e-07,2.759481688334924e-07,1.0076938434485102e-05
2.855633574778428e-07,2.8454662358252803e-07,2.763701113736491e-07,1.0060695232644283e-05
2.8650260413024085e-07,2.8372766742356186e-07,2.768584365798781e-07,1.0044017427405067e-05
2.8742696319494037e-07,2.829729272250878e-07,2.7740898577765107e-07,1.0026801312764286e-05
2.883252104830601e-07,2.822941137900845e-07,2.7801682007907037e-07,1.0008924433787848e-05
2.891850917033791e-07,2.8170145757740577e-07,2.7867662006696513e-07,9.990234964884496e-06
2.899940657487223e-07,2.812027805849814e-07,2.793832886550612e-07,9.9705484289267e-06
2.907398388990423e-07,2.8080284518333787e-07,2.801322579116187e-07,9.949642848893879e-06
2.914108830097986e-07,2.805028340673343e-07,2.809200863530723e-07,9.927249786780632e-06
2.9199731552890354e-07,2.803005326439855e-07,2.8174381485068514e-07,9.903049816323924e-06
2.9249171047815926e-07,2.801912500762557e-07,2.8259893164849127e-07,9.876687575273649e-06
2.9288950403138106e-07,2.8016912257539265e-07,2.8347839520629566e-07,9.847809367381337e-06
2.931889135365705e-07,2.802280388609405e-07,2.8437318812937213e-07,9.816117455679308e-06
2.9339002681403265e-07,2.803614380764806e-07,2.8527318911939786e-07,9.78143349227454e-06
2.934933591338908e-07,2.805619342150014e-07,2.861676525261725e-07,9.743738227463193e-06
2.9349855405849326e-07,2.8082168616635735e-07,2.870448654259295e-07,9.703145974892168e-06
2.9340379640156215e-07,2.8113350130781804e-07,2.8789163605380843e-07,9.659824714423774e-06
2.9320654090180423e-07,2.8149195607438777e-07,2.886943801792789e-07,9.613925535112332e-06
2.9290514215983517e-07,2.818934611785559e-07,2.8944170080599214e-07,9.565566089983294e-06
2.9249973804668174e-07,2.8233628201249213e-07,2.901253288559854e-07,9.51485330068048e-06
2.9199143574953323e-07,2.8282083387776234e-07,2.9073837287210877e-07,9.461904025493897e-06
2.913810657846131e-07,2.8334864714098913e-07,2.91274171338612e-07,9.406848813551177e-06
2.90669323833767e-07,2.8392095482358087e-07,2.9172702113391345e-07,9.34986501506248e-06
2.8985757097533033e-07,2.845384439368236e-07,2.920923797888597e-07,9.291271085566734e-06
2.889479407302061e-07,2.8520112967130056e-07,2.923657524063552e-07,9.231586057561965e-06
2.879443038208603e-07,2.859075347617703e-07,2.925417011474785e-07,9.171455430274106e-06
2.8685470233165434e-07,2.8665416705182647e-07,2.926137819117922e-07,9.111508891200007e-06
2.856918920602758e-07,2.874359788153884e-07,2.9257503275322963e-07,9.052264666508887e-06
2.84470568199011e-07,2.8824718289691784e-07,2.924183881820261e-07,8.994129942142537e-06
2.832043869520856e-07,2.890818531919891e-07,2.921368939688336e-07,8.937517771603239e-06
2.819047858679813e-07,2.899337577022154e-07,2.9172382979553735e-07,8.883021964449695e-06
2.8058087989933924e-07,2.907954579122157e-07,2.911725670703497e-07,8.831501972191252e-06
2.7924009406460625e-07,2.9165814858493465e-07,2.904762776202495e-07,8.784017250433484e-06
2.778893329974693e-07,2.925123701759564e-07,2.8962846369592536e-07,8.741694813144075e-06
2.765354270933127e-07,2.9334832383540696e-07,2.8862558651301714e-07,8.705612933626053e-06
2.751845641017426e-07,2.941559409220621e-07,2.8747078904040143e-07,8.676715892796385e-06
2.738423482982388e-07,2.9492540527667184e-07,2.8617490393616577e-07,8.655753434653108e-06
2.7251536123121185e-07,2.956477623541656e-07,2.847538092942296e-07,8.643244725383674e-06
2.712133185602093e-07,2.9631486683850693e-07,2.832258511137809e-07,8.63946659823506e-06
2.699502178114798e-07,2.969187940949028e-07,2.8161102182820265e-07,8.64446433455431e-06
2.687426216314997e-07,2.9745155197636087e-07,2.799296962644659e-07,8.658078716726724e-06
2.676055851487372e-07,2.9790587364177194e-07,2.7820037247898047e-07,8.679974794678993e-06
2.6654989958787365e-07,2.9827673375815786e-07,2.7643834726283585e-07,8.709675966251622e-06
2.655823839608352e-07,2.985615931975205e-07,2.746559520309617e-07,8.746619792163161e-06
2.647070786581736e-07,2.9875911743288734e-07,2.7286336718628696e-07,8.790216740749843e-06
2.639253510097186e-07,2.988686442736114e-07,2.710692630082529e-07,8.839887627424397e-06
2.6323550529008196e-07,2.9889086160730356e-07,2.6928106142001026e-07,8.895093547633663e-06
2.62633168028422e-07,2.988278022823557e-07,2.675050397409443e-07,8.95536291667076e-06
2.621119825720232e-07,2.986814190534935e-07,2.6574697421730084e-07,9.020292889563702e-06
2.6166379535854897e-07,2.984523060976575e-07,2.6401307144752643e-07,9.089525300035013e-06
2.612788628438309e-07,2.9813958600267443e-07,2.623096956873949e-07,9.16272086948653e-06
2.609464498509769e-07,2.9774167948292193e-07,2.6064214636536696e-07,9.239536387935263e-06
2.60655380896794e-07,2.972581709990104e-07,2.590145625921519e-07,9.319596679408822e-06
2.603944649757005e-07,2.966915111826829e-07,2.574308823684176e-07,9.40246698684744e-06
2.6015351063061427e-07,2.9604621657260517e-07,2.5589479805707576e-07,9.487634436516967e-06
2.5992521339352534e-07,2.953268869220399e-07,2.5440877776920197e-07,9.5745101940163e-06
2.597063116524477e-07,2.945379186659665e-07,2.5297391060669864e-07,9.662470911507876e-06
2.594965371079751e-07,2.9368409968845447e-07,2.515903472820659e-07,9.750916917485144e-06
2.5929714231927717e-07,2.927700413274646e-07,2.502573349204609e-07,9.839291022498779e-06
2.591114512574018e-07,2.9179906068313825e-07,2.489734428617257e-07,9.927058719930814e-06
2.589462744351827e-07,2.9077293525497164e-07,2.47737047693713e-07,1.0013698691148912e-05
2.5881183270985665e-07,2.896925808301087e-07,2.46546733379555e-07,1.0098719453398763e-05
2.587201821486368e-07,2.885587628580668e-07,2.454027233141671e-07,1.0181677732513076e-05
2.586828345995128e-07,2.87372210216518e-07,2.4430873716371174e-07,1.0262165850585026e-05
2.587080898902046e-07,2.861340313663623e-07,2.432715425800518e-07,1.0339765632418756e-05
2.587995612947777e-07,2.8484703492336057e-07,2.422986780741241e-07,1.0414014680511932e-05
2.589566496616512e-07,2.835160438653811e-07,2.413970787855381e-07,1.0484422915568029e-05
2.5917594615881945e-07,2.821465495081553e-07,2.40573139850351e-07,1.0550521608665747e-05
2.594526151298295e-07,2.8074384854569806e-07,2.3983343782237346e-07,1.0611918015064268e-05
2.597818079704578e-07,2.793127466411795e-07,2.3918526730692355e-07,1.0668353116389827e-05
2.601604562873792e-07,2.7785675478920114e-07,2.386365975676362e-07,1.0719732499374248e-05
2.605882438772757e-07,2.7637802731131355e-07,2.3819644077438368e-07,1.0766080866568531e-05
2.6106617686327443e-07,2.748781364719204e-07,2.3787554125263208e-07,1.0807443709768876e-05
2.61594362483681e-07,2.733581475776073e-07,2.3768520540400306e-07,1.0843822438018531e-05
2.621715067451428e-07,2.718189630728291e-07,2.3763502499040289e-07,1.0875174147751565e-05
2.627958427261309e-07,2.7026329023319263e-07,2.377329811516956e-07,1.0901434434392597e-05
2.6346564128045423e-07,2.6869741497103985e-07,2.379870031869949e-07,1.0922535301708208e-05
2.6417872040449724e-07,2.671305606751174e-07,2.3840427774954292e-07,1.0938413657845332e-05
2.6493183972650554e-07,2.655724165656948e-07,2.3898940344149195e-07,1.0949025230858282e-05
2.657202754214502e-07,2.640309006194324e-07,2.3974454583973684e-07,1.095441096437234e-05
2.66537640889135e-07,2.625114261634099e-07,2.406703398243493e-07,1.095478081026069e-05
2.673761196765096e-07,2.610174774046377e-07,2.4176567081253445e-07,1.095049912436278e-05
2.682270311562592e-07,2.5955127993222127e-07,2.43027832563462e-07,1.094197458246802e-05
2.690819272151216e-07,2.581140402788551e-07,2.444534470679928e-07,1.0929557183065745e-05
2.699332773190113e-07,2.567061460763392e-07,2.4603860747594784e-07,1.0913508021433843e-05
2.7077402373831205e-07,2.553272180269309e-07,2.477785269218099e-07,1.08940831508101e-05
2.715976419635144e-07,2.539762844304591e-07,2.496672091884341e-07,1.0871697845065896e-05
2.72398947645044e-07,2.526529606270632e-07,2.516963798854801e-07,1.0847023382082643e-05
2.731738636971548e-07,2.5135918907381444e-07,2.5385410773087395e-07,1.0820937095859579e-05
2.73919078584201e-07,2.5009986813366973e-07,2.561244641903677e-07,1.0794407334181352e-05
2.7463299522445026e-07,2.4888128984040624e-07,2.5848840842742164e-07,1.0768394237303384e-05
2.753161793722085e-07,2.4770834737984353e-07,2.609249182011234e-07,1.0743770273369284e-05
2.7597080747381426e-07,2.4658284860791976e-07,2.6341174439955447e-07,1.0721262788933929e-05
2.7659995348295216e-07,2.4550395240390746e-07,2.659262997265657e-07,1.0701425885065132e-05
2.7720652890198017e-07,2.444695073300651e-07,2.6844686338719724e-07,1.0684628065298179e-05
2.77793631635297e-07,2.4347657593326156e-07,2.709539245533298e-07,1.0671047793421058e-05
2.7836646984437197e-07,2.425209509873769e-07,2.734313575664564e-07,1.0660682567893809e-05
2.7893204872260147e-07,2.415968973523712e-07,2.758659984188366e-07,1.065336755535952e-05
2.7949642206549357e-07,2.406975393643848e-07,2.7824585100276194e-07,1.0648795292073776e-05
2.800634426602742e-07,2.3981527085316624e-07,2.805590054225336e-07,1.0646542523103496e-05
2.8063543131967945e-07,2.3894227200117195e-07,2.827935776715981e-07,1.0646115817867256e-05
2.812133772907178e-07,2.3807112907419263e-07,2.8493834665213087e-07,1.0647013460869031e-05
2.8179677304673747e-07,2.3719492763137894e-07,2.869837766570057e-07,1.0648789459397667e-05
2.823837957863579e-07,2.363072490732831e-07,2.889225260180748e-07,1.0651101255146373e-05
2.829712966154274e-07,2.3540246359764534e-07,2.9074972044579505e-07,1.06537195283016e-05
2.835549802978671e-07,2.3447579307609657e-07,2.924631447987926e-07,1.0656499459558807e-05
2.841300010230972e-07,2.335234639316384e-07,2.9406211735452625e-07,1.0659340406102556e-05
2.8469146772712624e-07,2.3254299032119546e-07,2.955454146315056e-07,1.0662148879412973e-05
2.8523593498751357e-07,2.3153268842068978e-07,2.969102623578842e-07,1.0664804870961509e-05
2.857637434138711e-07,2.304910629549486e-07,2.9815255079080033e-07,1.0667144206217247e-05
2.862787905165477e-07,2.294175008043798e-07,2.992671577886116e-07,1.0668961824942932e-05
2.8678590384793763e-07,2.2831340484554423e-07,3.0024849309468065e-07,1.0670021277218048e-05
2.872902811779432e-07,2.2718206920369558e-07,3.010916926200919e-07,1.0670073905148143e-05
2.877985212477693e-07,2.2602806483293447e-07,3.017934620607541e-07,1.0668893301075853e-05
2.883178824395201e-07,2.2485687996103379e-07,3.0235148193182675e-07,1.0666286837584598e-05
2.8885537210860487e-07,2.2367387116050573e-07,3.02763300421907e-07,1.0662061572196088e-05
2.8941824556423913e-07,2.224832753844604e-07,3.030258107142557e-07,1.0655991016115837e-05
2.900137420315067e-07,2.2128871066979948e-07,3.031350832152426e-07,1.0647823624827272e-05
2.906474729414028e-07,2.2009416670620584e-07,3.030867855808649e-07,1.0637311388374514e-05
2.913220711595751e-07,2.189038914476924e-07,3.028774945583474e-07,1.0624231440124976e-05
2.9203708738110266e-07,2.1772199037658578e-07,3.025060649569337e-07,1.0608415566084918e-05
2.9279024266661694e-07,2.165533445867908e-07,3.0197474732219377e-07,1.0589790506357743e-05
2.935789464671493e-07,2.1540454705310358e-07,3.012899768306784e-07,1.0568403982636e-05
2.944003662012789e-07,2.1428331756423853e-07,3.0046137951716926e-07,1.05444318132909e-05
2.952499940926236e-07,2.1319771051231338e-07,2.9949932164799325e-07,1.0518160218725526e-05
2.961205699563057e-07,2.1215608957574057e-07,2.984136505097722e-07,1.0489933232165308e-05
2.97002689722668e-07,2.1116739469259e-07,2.972138041054794e-07,1.0460083189030127e-05
2.9788633567714246e-07,2.1024118205316798e-07,2.959085074806992e-07,1.0428871057640944e-05
2.9876194796979516e-07,2.093872307089645e-07,2.9450488090205257e-07,1.0396464455253439e-05
2.996207175160645e-07,2.086156547460615e-07,2.9300786772896205e-07,1.036297009300987e-05
3.004542429339091e-07,2.079383038606117e-07,2.914207390470887e-07,1.0328491915011315e-05
3.012542804273353e-07,2.0736976840247863e-07,2.8974681370588887e-07,1.0293163460287767e-05
3.020137488597514e-07,2.0692603381626985e-07,2.879908487713213e-07,1.025713567788595e-05
3.027281190644649e-07,2.066217336414655e-07,2.8615853167504765e-07,1.0220539257363973e-05
3.033957455883238e-07,2.064680451186407e-07,2.8425498341851585e-07,1.0183461019590967e-05
3.040179042163937e-07,2.064718434429551e-07,2.8228393405332643e-07,1.0145961128213987e-05
3.0459850506211927e-07,2.0663571103276192e-07,2.802480851262424e-07,1.0108102379381084e-05
3.051424241758301e-07,2.0695811115215163e-07,2.781510228218616e-07,1.0069970363296647e-05
3.0565401707117205e-07,2.0743372298329638e-07,2.7600017004147075e-07,1.0031695824359848e-05
3.0613716243985647e-07,2.0805460760717952e-07,2.73808134985182e-07,9.993453800745739e-06
3.0659558278549327e-07,2.0881151009614809e-07,2.715911583956862e-07,9.955428920076498e-06
3.0703343526221926e-07,2.096943990743558e-07,2.693662751573809e-07,9.917780911166493e-06
3.07456484253402e-07,2.1069331533135886e-07,2.6714882512649524e-07,9.880621149450543e-06
3.0787167423136874e-07,2.1179950854379393e-07,2.6495108052675216e-07,9.843995735774277e-06
3.082847915806805e-07,2.1300489637680238e-07,2.627822016529785e-07,9.80788642095105e-06
3.0869899983492337e-07,2.1430026732512893e-07,2.606495806551488e-07,9.772231942472411e-06
3.091153190136637e-07,2.1567454217278046e-07,2.5856063453703454e-07,9.736950347982097e-06
3.095341378826745e-07,2.1711535262949252e-07,2.565234974479949e-07,9.701949540605157e-06
3.099561868895881e-07,2.1860963249185558e-07,2.545469247323939e-07,9.667128687555523e-06
3.103816162664701e-07,2.2014381121140862e-07,2.526397180831013e-07,9.63236903247929e-06
3.108083616492794e-07,2.2170426947561298e-07,2.508092056844348e-07,9.597512558952265e-06
3.112317788710643e-07,2.2327849206408964e-07,2.490598380172714e-07,9.562342515916362e-06
3.1164557186524547e-07,2.248564497029964e-07,2.473929035937428e-07,9.526583367532176e-06
3.120426532424696e-07,2.2643089971189718e-07,2.458069345480241e-07,9.489923998508837e-06
3.124153101870247e-07,2.2799605155202498e-07,2.4429837573081925e-07,9.45205262983634e-06
3.1275549375604537e-07,2.295464047073988e-07,2.428629646024625e-07,9.412683643097782e-06
3.1305537874916574e-07,2.3107696144912997e-07,2.414980058731907e-07,9.371566704183274e-06
3.1330731135520176e-07,2.3258375212564912e-07,2.4020365198232105e-07,9.328485825725167e-06
3.135032544438665e-07,2.340642267413887e-07,2.389819698452507e-07,9.28325744518792e-06
3.136348304857398e-07,2.355176132199556e-07,2.3783567684334732e-07,9.23572778081332e-06
3.13693721129106e-07,2.369451198297079e-07,2.3676763531260706e-07,9.185771288153004e-06
3.1367120891182214e-07,2.3834963225837287e-07,2.357803933789577e-07,9.133300338970416e-06
3.135575306857993e-07,2.3973401299551437e-07,2.3487608022543678e-07,9.078289069976877e-06
3.133423090796364e-07,2.4109891341235854e-07,2.3405664135326482e-07,9.020792980379404e-06
3.130153418647265e-07,2.4244197954940783e-07,2.333235389265676e-07,8.960939314912587e-06
3.1256737900716015e-07,2.437581987715233e-07,2.3267793222072663e-07,8.898887418657325e-06
3.119919581310184e-07,2.450404811321699e-07,2.3212193305072927e-07,8.834788460155364e-06
3.1128689059622466e-07,2.4628058010397345e-07,2.3165861447947608e-07,8.768783473603893e-06
3.104531881630969e-07,2.4747045700450065e-07,2.3129011402934442e-07,8.701052364341313e-06
3.0949320018076616e-07,2.4860342315720685e-07,2.3101616056217212e-07,8.631862311398943e-06
3.084102000462396e-07,2.496744099175233e-07,2.3083382803161122e-07,8.561543679509023e-06
3.0720848818803573e-07,2.506797503208516e-07,2.3073776614980477e-07,8.490409780604663e-06
3.058925730664448e-07,2.516172602379837e-07,2.3072135609815332e-07,8.418705366717648e-06
3.044659373539152e-07,2.5248693878193414e-07,2.307786063538643e-07,8.346618979939083e-06
3.029307292008596e-07,2.532913075478607e-07,2.3090451254928948e-07,8.274337180896306e-06
3.012883120123009e-07,2.540339417534089e-07,2.31093490756669e-07,8.20210186528178e-06
2.995399592871195e-07,2.547173607885881e-07,2.313382880011344e-07,8.130217027568685e-06
2.9768782922396586e-07,2.553421506084523e-07,2.3163012743198289e-07,8.058991748095268e-06
2.957357657029466e-07,2.5590713107840517e-07,2.319592469217566e-07,7.988682921161892e-06
2.9368928681683456e-07,2.564101020944525e-07,2.32315673820895e-07,7.919497522156282e-06
2.9155550979425656e-07,2.568485505545584e-07,2.3268983641420503e-07,7.851651067698931e-06
2.893430893406704e-07,2.5721997678250014e-07,2.3307244705844426e-07,7.785454378886256e-06
2.870612387758437e-07,2.575223425456154e-07,2.334537978953661e-07,7.721389443253172e-06
2.847183559684688e-07,2.577541282274324e-07,2.338233329210885e-07,7.660115953376923e-06
2.823215532017676e-07,2.579136730866061e-07,2.3417069073711353e-07,7.602392779722686e-06
2.798768989352145e-07,2.579988569047668e-07,2.3448820875988412e-07,7.548965295268265e-06
2.773893924938295e-07,2.5800741004775486e-07,2.3477298274583487e-07,7.500473937127701e-06
2.7486272784341067e-07,2.579373429959208e-07,2.3502655473443924e-07,7.457404519244101e-06
2.7229963551247677e-07,2.5778726057433217e-07,2.352530973072212e-07,7.420071448867793e-06
2.6970297037343445e-07,2.575568524585863e-07,2.354586160625696e-07,7.388620192867409e-06
2.670764551777073e-07,2.5724833068664253e-07,2.3565162168219557e-07,7.363060607520273e-06
2.644242587578116e-07,2.568675337844791e-07,2.3584439173730422e-07,7.343359612548075e-06
2.617504699317613e-07,2.564224757107792e-07,2.3605353502197962e-07,7.329547225028672e-06
2.59059726303434e-07,2.5592097740765004e-07,2.3629861929086808e-07,7.3217220341281085e-06
2.563583205538137e-07,2.5537022762970416e-07,2.366005090441979e-07,7.3199558136521086e-06
2.5365415940494384e-07,2.547783986052365e-07,2.3698072847553805e-07,7.324206568665274e-06
2.509554506458425e-07,2.541568095672833e-07,2.3745982385018267e-07,7.3342997248291915e-06
2.482698500480691e-07,2.535204032239111e-07,2.380546024037845e-07,7.350004184081632e-06
2.456051875407072e-07,2.528857744330606e-07,2.387769126348679e-07,7.371205408317298e-06
2.429703017117041e-07,2.522688952083065e-07,2.3963454216109015e-07,7.398057393037265e-06
2.4037474262179807e-07,2.516847672301596e-07,2.4063230340645336e-07,7.4309801985683515e-06
2.3782923875165343e-07,2.5114799654570204e-07,2.4177225718000076e-07,7.470542338676787e-06
2.3534753731424852e-07,2.506717868920409e-07,2.430540357140285e-07,7.517346043443266e-06
2.3294628288820448e-07,2.5026622079402497e-07,2.4447545742721246e-07,7.571948123725583e-06
2.3064197190054604e-07,2.499383554208108e-07,2.460324706231287e-07,7.634798448588198e-06
2.2844842431952773e-07,2.496934431986016e-07,2.47719172325379e-07,7.706190417889305e-06
2.263764689207633e-07,2.495357056514865e-07,2.495291033367055e-07,7.786225577124925e-06
2.2443460122543797e-07,2.494692327068673e-07,2.514569806518125e-07,7.874800404355873e-06
2.2262953924702215e-07,2.494984095265976e-07,2.5349907929556196e-07,7.971621637035901e-06
2.209663690484361e-07,2.496264157383664e-07,2.556515020465782e-07,8.076229419529849e-06
2.194487330430748e-07,2.4985353792813397e-07,2.5790763541198355e-07,8.188004296104092e-06
2.180792474404517e-07,2.50177262209912e-07,2.6025714985024057e-07,8.306170623705389e-06
2.1685966572982434e-07,2.505931753890775e-07,2.626874617169525e-07,8.429814412116811e-06
2.1579063205969572e-07,2.510956210044445e-07,2.6518600789037327e-07,8.557915367452284e-06
2.1487105478921925e-07,2.5167839538573535e-07,2.677412270352378e-07,8.689398644002575e-06
2.1409784239858467e-07,2.523353167745926e-07,2.7034212061071386e-07,8.823204656032452e-06
2.1346673604257692e-07,2.530598756430746e-07,2.729773085248025e-07,8.958345353469304e-06
2.1297358725004693e-07,2.5384439878377517e-07,2.756341119770535e-07,9.09392457833142e-06
2.126152140485204e-07,2.546796926171752e-07,2.782978949651341e-07,9.229134498329945e-06
2.1238900679222442e-07,2.555551539650358e-07,2.809519207353693e-07,9.36323827202468e-06
2.1229142899819465e-07,2.564594013300149e-07,2.8357816280406064e-07,9.495542041768998e-06
2.1231738643070525e-07,2.5738161616569545e-07,2.8615904243458125e-07,9.625371592883124e-06
2.1246104170387906e-07,2.583135831662025e-07,2.886789304092302e-07,9.752060106469023e-06
2.1271650878011766e-07,2.592521248344841e-07,2.9112408632726105e-07,9.874940562471933e-06
2.1307757175829608e-07,2.6019996831585e-07,2.934813412549979e-07,9.993351969120664e-06
2.135372126291865e-07,2.6116355452248213e-07,2.957374239715541e-07,1.0106665600188768e-05
2.140881191601189e-07,2.621498730373656e-07,2.978801709216317e-07,1.0214302621305323e-05
2.1472364273154915e-07,2.631649313891369e-07,2.999002748771473e-07,1.0315720918250557e-05
2.154379827086819e-07,2.642133422122165e-07,3.0179167939383576e-07,1.0410390758850006e-05
2.1622616992248211e-07,2.652977250597038e-07,3.0355108700961924e-07,1.0497785340355667e-05
2.17084416305317e-07,2.6641861904382966e-07,3.0517770046640594e-07,1.0577393207242056e-05
2.1801001877492828e-07,2.6757539394921014e-07,3.0667301944002014e-07,1.0648736912150034e-05
2.1900072296189608e-07,2.687676527138048e-07,3.080399518189909e-07,1.071137256050653e-05
2.200544624286902e-07,2.699969828530541e-07,3.092812629239119e-07,1.0764878698789792e-05
2.211693450253835e-07,2.7126771819098184e-07,3.103985354261024e-07,1.0808870607866214e-05
2.223430917866924e-07,2.725854260804924e-07,3.113927436536458e-07,1.0843044831793598e-05
2.235721693439437e-07,2.7395484532158213e-07,3.122661251588603e-07,1.086722566126528e-05
2.2485118191338662e-07,2.753790555392883e-07,3.13023591982614e-07,1.08814029270438e-05
2.261732772440609e-07,2.768593350428149e-07,3.1367280678926e-07,1.088576131942446e-05
2.2753176909147266e-07,2.783956853419243e-07,3.142235649841807e-07,1.088067354532738e-05
2.289209274624979e-07,2.7998807688561664e-07,3.146867467380061e-07,1.0866637440855895e-05
2.3033520890403505e-07,2.8163670116223817e-07,3.150728495844779e-07,1.0844186565963324e-05
2.3176889138095078e-07,2.833408869995427e-07,3.153907583011269e-07,1.0813819215856011e-05
2.3321620154873338e-07,2.850981224156536e-07,3.1564768273315054e-07,1.0775965753601933e-05
2.346713153900497e-07,2.8690375982400534e-07,3.1584974380867663e-07,1.0730989394296454e-05
2.3612916492511305e-07,2.887511821009005e-07,3.1600199145506124e-07,1.067920394499298e-05
2.3758681645913147e-07,2.906318654480595e-07,3.161086089406309e-07,1.06209010531227e-05
2.3904407861013607e-07,2.9253532006219394e-07,3.161744052658325e-07,1.0556415092738792e-05
2.4050298614351803e-07,2.944494490810259e-07,3.162062990991918e-07,1.0486229590557263e-05
2.4196687331091316e-07,2.9636113247144125e-07,3.162126792353503e-07,1.0411029910554532e-05
2.434392803521145e-07,2.982565833479332e-07,3.162015146482356e-07,1.0331630106489827e-05
2.4492238543229816e-07,3.001214503583057e-07,3.1617946039856327e-07,1.0248843296638436e-05
2.464158132210945e-07,3.019409253605398e-07,3.161515980404255e-07,1.016339947351359e-05
2.479166439969184e-07,3.036997714512365e-07,3.1612132644359395e-07,1.0075964738611393e-05
2.49419764713725e-07,3.05382279154095e-07,3.1609100941831297e-07,9.987270107501096e-06
2.509178167419733e-07,3.06972870402223e-07,3.1606269728568217e-07,9.898256860711817e-06
2.5240141509285086e-07,3.0845665320300106e-07,3.160382109776827e-07,9.810101326402907e-06
2.538600205202434e-07,3.098186834980418e-07,3.160189644545722e-07,9.724115802710229e-06
2.552827907454524e-07,3.1104323187733807e-07,3.160057558813796e-07,9.641627833004354e-06
2.566593272261277e-07,3.121145609974514e-07,3.159981499130952e-07,9.563891268388382e-06
2.579808102489207e-07,3.1301828102515867e-07,3.159939496457506e-07,9.49202773562459e-06
2.592409955768444e-07,3.1374196658869106e-07,3.159900700330167e-07,9.426991858810934e-06
2.604360209814886e-07,3.142752792709556e-07,3.159837729589076e-07,9.369547703838676e-06
2.6156311763805213e-07,3.1460990528109933e-07,3.1597287819389055e-07,9.320252049849181e-06
2.626194029739264e-07,3.1473908410901646e-07,3.159562461508334e-07,9.279457910082733e-06
2.636013518491995e-07,3.1465710530047014e-07,3.1593447527322877e-07,9.247336184456168e-06
2.645045121633829e-07,3.143589012780611e-07,3.159095254646789e-07,9.223890544241633e-06
2.6532326438809586e-07,3.1383981337961986e-07,3.1588406278980445e-07,9.208956091431366e-06
2.660509574341713e-07,3.130963654266082e-07,3.158608949441425e-07,9.202202791570384e-06
2.666807847870306e-07,3.121278032531712e-07,3.158421552321221e-07,9.20316473458371e-06
2.672070447352521e-07,3.109366872494797e-07,3.1582878592172905e-07,9.211288381405893e-06
2.676258895741998e-07,3.0952831659227034e-07,3.158205127801959e-07,9.225977701900577e-06
2.679357241054091e-07,3.079104737607148e-07,3.1581600982316997e-07,9.246624107032733e-06
2.6813748244356616e-07,3.060933614055565e-07,3.15813235480966e-07,9.272626706554513e-06
2.682339227547286e-07,3.040890248559092e-07,3.1581026259106014e-07,9.303417504612424e-06
2.6822806320480307e-07,3.019106959216281e-07,3.1580628989290773e-07,9.338491846004618e-06
2.681222897399188e-07,2.995721600525271e-07,3.1580179689808877e-07,9.377422334163444e-06
2.6791859922017735e-07,2.970877393002921e-07,3.157974428276682e-07,9.419844562877562e-06
2.676187797951694e-07,2.9447281585580965e-07,3.157927815811068e-07,9.465427913223003e-06
2.672240674273528e-07,2.9174344077153513e-07,3.157862824595252e-07,9.513838174070796e-06
2.667353266549612e-07,2.8891595390652235e-07,3.157757342782476e-07,9.564698543508307e-06
2.661540916608417e-07,2.8600775440529606e-07,3.1575775981594555e-07,9.617585074681365e-06
2.6548364014414356e-07,2.830374562585708e-07,3.157279328818927e-07,9.67206316677562e-06
2.647292341991141e-07,2.800242381862079e-07,3.156819688407404e-07,9.727711645532864e-06
2.6389737795888173e-07,2.769878588721457e-07,3.156167062654923e-07,9.784115589169356e-06
2.629956060543889e-07,2.73948125195255e-07,3.1553040163212644e-07,9.840863681043166e-06
2.620335746621705e-07,2.7092314887615016e-07,3.1542222871448736e-07,9.897563432218736e-06
2.6102401501668353e-07,2.6792840399400737e-07,3.152919848552705e-07,9.953847833868857e-06
2.599827434666779e-07,2.649767976517324e-07,3.1514044084140966e-07,1.0009347455424175e-05
2.589274565544627e-07,2.620784065955434e-07,3.14969227549412e-07,1.0063646853549028e-05
2.578752251182827e-07,2.592401247237376e-07,3.1478064647362824e-07,1.0116267120652808e-05
2.5684056368529163e-07,2.564658946443498e-07,3.1457758572891286e-07,1.0166677661812931e-05
2.55836046807192e-07,2.5375746703196685e-07,3.143629450588029e-07,1.0214322129858182e-05
2.5487400536377966e-07,2.5111574817112694e-07,3.1413938504751894e-07,1.0258669384557118e-05
2.539667949083384e-07,2.485420758831086e-07,3.139092859905964e-07,1.0299288107308448e-05
2.531267331632332e-07,2.4603800939236824e-07,3.1367382524751873e-07,1.0335891554477126e-05
2.5236675182802034e-07,2.436038891867423e-07,3.134318754748415e-07,1.036830475366406e-05
2.5169987033588987e-07,2.4123800356501716e-07,3.131807244845487e-07,1.0396383342632492e-05
2.51137852086421e-07,2.389376663173832e-07,3.129194207769785e-07,1.0419952036723632e-05
2.506907447570511e-07,2.367014259927961e-07,3.1265232747922933e-07,1.0438785833214656e-05
2.50366492323736e-07,2.3452976133355718e-07,3.1238993247611926e-07,1.0452613368899916e-05
2.5017100829956286e-07,2.3242344979632892e-07,3.121470141779473e-07,1.0461126983743237e-05
2.501098083880528e-07,2.303817694464654e-07,3.119391507718533e-07,1.0464009868000689e-05
2.5018943800681784e-07,2.2840197220034252e-07,3.117790156513227e-07,1.0461024462739267e-05
2.5041774432344907e-07,2.2647989123192805e-07,3.116750038817363e-07,1.0452158890782793e-05
2.508038606655766e-07,2.2461125452465482e-07,3.1163200575756537e-07,1.0437705315687316e-05
2.5135770653984145e-07,2.2279262911947511e-07,3.116520242505619e-07,1.04181883511517e-05
2.520884627822792e-07,2.2102124410751266e-07,3.117343294507669e-07,1.0394229202263613e-05
2.530024045116799e-07,2.192943184547835e-07,3.1187653993833627e-07,1.0366437112641527e-05
2.541014941003407e-07,2.176087097420981e-07,3.120768716685106e-07,1.0335361882344383e-05
2.5538320217488056e-07,2.1596091265013308e-07,3.1233516289322984e-07,1.0301563431198378e-05
2.5684082025341397e-07,2.1434700628545588e-07,3.126513900931771e-07,1.0265768614653343e-05
2.584647510484324e-07,2.1276261118558487e-07,3.1302391984386357e-07,1.0228949743557983e-05
2.6024420688402374e-07,2.112030983144926e-07,3.1344887905319065e-07,1.019225287205757e-05
2.621673180333432e-07,2.0966369430692802e-07,3.139201921003137e-07,1.0156874439279857e-05
2.642207047184166e-07,2.0813985537988852e-07,3.144300204829133e-07,1.0123975105395883e-05
2.663901758339584e-07,2.0662880222616774e-07,3.149688630213009e-07,1.0094630618716614e-05
2.686609196039632e-07,2.0513068062951353e-07,3.1552535593921904e-07,1.0069792145188784e-05
2.710164171491304e-07,2.03647724222033e-07,3.1608700337686084e-07,1.0050252010001275e-05
2.734381027710546e-07,2.0218292115857998e-07,3.166418517598897e-07,1.0036625616995026e-05
2.759064668853925e-07,2.007391682610179e-07,3.1717991188890817e-07,1.0029348127937202e-05
2.7840241051655697e-07,1.993188126206962e-07,3.1769316426074657e-07,1.002867520792134e-05
2.809077681895915e-07,1.9792489162412733e-07,3.181743920120803e-07,1.003467859993027e-05
2.8340459998226124e-07,1.965635616170565e-07,3.186166160456385e-07,1.0047240815511082e-05
2.858742797604679e-07,1.9524487988935877e-07,3.19013415131301e-07,1.006606699772243e-05
2.882975482347056e-07,1.939816525929903e-07,3.193588219894465e-07,1.009072200602044e-05
2.906555832561905e-07,1.92787754455372e-07,3.196466370818435e-07,1.012068879770566e-05
2.9293233885235854e-07,1.916762949839523e-07,3.198701075009366e-07,1.0155438577149604e-05
2.9511716243873976e-07,1.906581713702668e-07,3.200223483635591e-07,1.0194485599872681e-05
2.9720468270345486e-07,1.8974149448317443e-07,3.200967330553337e-07,1.0237403861150972e-05
2.991915605823071e-07,1.8893225667825998e-07,3.2008682305272697e-07,1.0283820622295953e-05
3.0107367923247427e-07,1.882361864849529e-07,3.199869378746748e-07,1.0333409317979145e-05
3.028464122664898e-07,1.8766019405653068e-07,3.197938754543481e-07,1.0385878903285623e-05
3.045064798769206e-07,1.872126991830717e-07,3.195079775802529e-07,1.044095338339626e-05
3.060526074923301e-07,1.8690325906554532e-07,3.1913265430284987e-07,1.0498345168067897e-05
3.0748435635309375e-07,1.8674128328731825e-07,3.1867367188339555e-07,1.0557722677829387e-05
3.088004268514821e-07,1.8673471900252304e-07,3.1813813170643237e-07,1.0618684281098328e-05
3.0999805233536673e-07,1.8689001228810226e-07,3.1753244312666306e-07,1.0680771541971963e-05
3.110734416158051e-07,1.872124729748064e-07,3.1686052697030525e-07,1.0743513788931512e-05
3.1202232049151375e-07,1.8770558237659762e-07,3.161237718518396e-07,1.0806448170574492e-05
3.128406578803617e-07,1.88370102760148e-07,3.1532309408902845e-07,1.0869108371541972e-05
3.135250688942987e-07,1.892044983883816e-07,3.144619230959986e-07,1.0931022828434548e-05
3.140720823293538e-07,1.9020566707165037e-07,3.135475510839232e-07,1.0991732352912345e-05
3.144772324489637e-07,1.9136913627970371e-07,3.125895117103721e-07,1.1050800007983397e-05
3.1473526839552734e-07,1.926897869777145e-07,3.115965871727471e-07,1.1107788047875472e-05
3.1484163909377014e-07,1.9416248979105954e-07,3.105754106273224e-07,1.1162221006313017e-05
3.147941012180388e-07,1.9578146897525407e-07,3.0953206083420945e-07,1.1213589029006508e-05
3.14592841482388e-07,1.975393127638004e-07,3.0847421288618576e-07,1.1261420845794404e-05
3.1424015816822056e-07,1.994265485449988e-07,3.074106079026888e-07,1.1305383952473755e-05
3.1374168479798606e-07,2.014320604783038e-07,3.063488046476833e-07,1.1345319913330638e-05
3.131069255689572e-07,2.0354397694447808e-07,3.0529408031511826e-07,1.1381186808910805e-05
3.1234721061397057e-07,2.0575002170705077e-07,3.04249450353656e-07,1.1412974216902793e-05
3.1147393770301147e-07,2.080378167428074e-07,3.032154160049931e-07,1.1440644832632505e-05
3.1049880483757554e-07,2.1039577422901198e-07,3.0218992190559285e-07,1.1464113013747314e-05
3.0943455125137855e-07,2.128141894851918e-07,3.011693259973521e-07,1.1483265227940171e-05
3.082949871977825e-07,2.15287169556882e-07,3.0014973444180544e-07,1.14980045447795e-05
3.0709410331337163e-07,2.178142014389896e-07,2.991284558056435e-07,1.1508272807946393e-05
3.058445013209321e-07,2.2039810798110837e-07,2.981059176206277e-07,1.1514034596731235e-05
3.045558641376819e-07,2.2304112567200012e-07,2.970864530415564e-07,1.151524881692646e-05
3.032345891750285e-07,2.2574390211837807e-07,2.960763593964997e-07,1.1511869039939915e-05
3.0188534904014e-07,2.2850701735021573e-07,2.950812106577044e-07,1.1503906774546153e-05
3.0051346588460045e-07,2.313311563078132e-07,2.941049762182927e-07,1.1491508975712965e-05
2.99125298546549e-07,2.3421535138058385e-07,2.9315071628048464e-07,1.1474944937166839e-05
2.977263364534482e-07,2.3715581664084396e-07,2.922213541154395e-07,1.1454527907032085e-05
2.9631981397606725e-07,2.4014612460971736e-07,2.913199019192021e-07,1.1430615053462027e-05
2.949072751801089e-07,2.431774922381558e-07,2.9044981983790605e-07,1.140368677005243e-05
2.934900782390638e-07,2.4623909284950925e-07,2.8961532361779147e-07,1.1374359137043809e-05
2.920702364909393e-07,2.4931851617114875e-07,2.888208027773159e-07,1.134329775124034e-05
2.906502540137599e-07,2.524019573411817e-07,2.8807022496862514e-07,1.1311118906646493e-05
2.8923286447901e-07,2.554748149151588e-07,2.873667896777062e-07,1.1278325001959613e-05
2.878209573981348e-07,2.585227218892397e-07,2.867123389234126e-07,1.124527753479811e-05
2.86417529659622e-07,2.6153200367131946e-07,2.8610773406644894e-07,1.12121995379374e-05
2.85025663781879e-07,2.644898830188895e-07,2.8555442215793936e-07,1.1179190800503422e-05
2.836484144352403e-07,2.673851001241198e-07,2.8505559742599765e-07,1.1146240168504062e-05
2.822885104319821e-07,2.702086162865825e-07,2.8461582026347123e-07,1.111323174797021e-05
2.809477815848028e-07,2.729531169116112e-07,2.8423890773754765e-07,1.1079953668927825e-05
2.796267152154357e-07,2.7561119554616606e-07,2.839257729910828e-07,1.1046111831696642e-05
2.7832496374036304e-07,2.781745063396675e-07,2.836742498290206e-07,1.1011346075857216e-05
