3.7625164937282684e-07,3.0249006845768545e-07,2.970336684621019e-07,1.2066521799941584e-05
3.766699886981197e-07,3.044552319633934e-07,2.9853335500460766e-07,1.2010788081685465e-05
3.7690378433710705e-07,3.064772564853364e-07,2.999561283466336e-07,1.1960310505064723e-05
3.7694809058343116e-07,3.085517747178545e-07,3.0128679461136253e-07,1.1914745754877898e-05
3.768005670330651e-07,3.106715625286729e-07,3.025122208642684e-07,1.1873654468925595e-05
3.7646253831855725e-07,3.128263033171593e-07,3.0362136363824227e-07,1.1836509588511999e-05
3.759388594459044e-07,3.150038186580603e-07,3.046055761384037e-07,1.1802727889613827e-05
3.752362860879454e-07,3.17192068197389e-07,3.0545796012792426e-07,1.1771720373703371e-05
3.743618085034529e-07,3.193806797357035e-07,3.061720436864501e-07,1.1742935702336565e-05
3.733214361869942e-07,3.2156052205797074e-07,3.06741580425037e-07,1.171588002349259e-05
3.721198390377978e-07,3.237224783910816e-07,3.0716200320055323e-07,1.1690120081670715e-05
3.7076112277534057e-07,3.2585758857410175e-07,3.074315121774873e-07,1.1665290262551587e-05
3.6924968136972703e-07,3.279579053930595e-07,3.0755075751862876e-07,1.164110663444613e-05
3.675900569798681e-07,3.300160309757099e-07,3.07522238173673e-07,1.1617371018841667e-05
3.6578599527223954e-07,3.3202362148218217e-07,3.073493350720665e-07,1.1593954780808624e-05
3.638400451836805e-07,3.339709661203787e-07,3.0703487439198087e-07,1.1570766821613698e-05
3.617540443002428e-07,3.358474437144881e-07,3.06580524905362e-07,1.1547713812399302e-05
3.595297147021601e-07,3.3764150487869054e-07,3.05987087126202e-07,1.152466356861021e-05
3.571693711057529e-07,3.3934064289475777e-07,3.0525490791232603e-07,1.150143179702686e-05
3.546764721578497e-07,3.4093166031066194e-07,3.043843738158073e-07,1.1477807225765954e-05
3.520552582922959e-07,3.424011994609329e-07,3.03376060088556e-07,1.1453585647173496e-05
3.493097442763557e-07,3.4373684462842197e-07,3.022303063427164e-07,1.142856636179848e-05
3.464433930324615e-07,3.4492801389838977e-07,3.0094677853153304e-07,1.1402530111124326e-05
3.434606301283978e-07,3.4596626115753734e-07,2.995244938721861e-07,1.1375235943109606e-05
3.403687497569882e-07,3.468456671401471e-07,2.979627040074717e-07,1.1346429957434555e-05
3.371778377799685e-07,3.475628749515654e-07,2.962621284143939e-07,1.1315868722752347e-05
3.338995551092912e-07,3.481160528372581e-07,2.94425684041914e-07,1.128334924257192e-05
3.305461691666923e-07,3.4850326059446005e-07,2.9245885820336017e-07,1.1248701754057125e-05
3.2712980817586546e-07,3.487212100416293e-07,2.903694746913159e-07,1.1211751215601269e-05
3.236622744929941e-07,3.487654177152639e-07,2.881663902408105e-07,1.1172302079506004e-05
3.201547174042954e-07,3.486318227604033e-07,2.858580045960581e-07,1.1130168839743476e-05
3.166167041688794e-07,3.4831850312932267e-07,2.8345178809613177e-07,1.1085233153437905e-05
3.1305653064754725e-07,3.4782588315076525e-07,2.809549380220729e-07,1.1037493390121488e-05
3.094830783613582e-07,3.471556038924037e-07,2.7837544633364965e-07,1.0987069937857063e-05
3.059065877213263e-07,3.463099316249544e-07,2.7572330119843e-07,1.0934152548563676e-05
3.023371915975764e-07,3.452918278026473e-07,2.730113854156698e-07,1.0878923076377667e-05
2.987829868209842e-07,3.441044618142593e-07,2.702544340947561e-07,1.0821505470377984e-05
2.952493616218652e-07,3.4275103177824715e-07,2.6746635695344767e-07,1.0761956526816627e-05
2.9173986616440124e-07,3.4123575211953557e-07,2.646587457128576e-07,1.0700281071319505e-05
2.882579280263369e-07,3.395648130914209e-07,2.6184132252599767e-07,1.0636464310545557e-05
2.848081643226695e-07,3.377464912679182e-07,2.590227262778201e-07,1.0570519297611116e-05
2.8139643055247823e-07,3.3579076070047943e-07,2.562106137057281e-07,1.05025646940276e-05
2.780289220443573e-07,3.337090652049536e-07,2.534116608148303e-07,1.0432923598835144e-05
2.747115177635103e-07,3.3151456652861317e-07,2.5063290159239695e-07,1.0362144949295036e-05
2.714497575226793e-07,3.292219603550708e-07,2.478835747688881e-07,1.0290890091826087e-05
2.6824883696825035e-07,3.2684622567561413e-07,2.451747721285758e-07,1.0219779440678753e-05
2.6511373119222577e-07,3.2440146942683e-07,2.4251744604579624e-07,1.0149316530396216e-05
2.620498304287035e-07,3.2190103390822947e-07,2.399213131202645e-07,1.007993255554934e-05
2.590632119516141e-07,3.193584121143765e-07,2.37394615022868e-07,1.001213476274735e-05
2.5615952592106125e-07,3.167877872331528e-07,2.34943858704996e-07,9.946656329742114e-06
2.53342512387295e-07,3.1420436057548015e-07,2.325740924010406e-07,9.88448377869343e-06
2.506140549095369e-07,3.116252542057169e-07,2.3028999280524355e-07,9.826763686980845e-06
2.479756635712782e-07,3.090696005945385e-07,2.28096867464863e-07,9.774682463433734e-06
2.4542969558826856e-07,3.065563889130296e-07,2.2600198970920205e-07,9.729373122879723e-06
2.4297945841848924e-07,3.041018068611441e-07,2.2401684763583498e-07,9.69184821968926e-06
2.406286394493998e-07,3.0171807899344e-07,2.2215726723943786e-07,9.662948561510314e-06
2.383809225582477e-07,2.994135975391305e-07,2.204397520617104e-07,9.643308600521023e-06
2.3624043595035672e-07,2.9719353713074567e-07,2.1887813947066088e-07,9.633344089912387e-06
2.3421237337320103e-07,2.95060655820705e-07,2.174831461256649e-07,9.633262206331723e-06
2.323027083777895e-07,2.930163427063331e-07,2.1626253158914644e-07,9.643081797336183e-06
2.3051790714475736e-07,2.910612104042387e-07,2.1522073737584963e-07,9.66264146129314e-06
2.2886590676439052e-07,2.891946245109559e-07,2.143587413958105e-07,9.691597404378127e-06
2.273572973632105e-07,2.874142385757137e-07,2.1367392061448483e-07,9.729436723192475e-06
2.260051406395175e-07,2.8571679860770694e-07,2.1316000701485146e-07,9.77551247598324e-06
2.248240819535297e-07,2.841001791776885e-07,2.1280803666415497e-07,9.829090205548973e-06
2.2382970365640717e-07,2.825645540634902e-07,2.126083403003425e-07,9.889400121450912e-06
2.230372852330268e-07,2.8111124550839005e-07,2.125519955836712e-07,9.955687831537877e-06
2.2246003461376602e-07,2.797412161271521e-07,2.1263031592265446e-07,1.0027252027726328e-05
2.2210799531542049e-07,2.784547989148692e-07,2.1283366834177835e-07,1.010346155322724e-05
2.2198759078420453e-07,2.7725182752164586e-07,2.1315215536476707e-07,1.018375368325504e-05
2.2210151612671293e-07,2.761313949360383e-07,2.1357799208643397e-07,1.0267613445393517e-05
2.2244948848390747e-07,2.750915616470782e-07,2.1410658309567785e-07,1.0354526067919193e-05
2.230300201184927e-07,2.741303381003934e-07,2.1473493249330163e-07,1.0443916830305819e-05
2.2384163248042914e-07,2.732482407786336e-07,2.1545955148526932e-07,1.0535119044469562e-05
2.248819441912336e-07,2.724496286736644e-07,2.1627591630318929e-07,1.0627389720546267e-05
2.2614634365158377e-07,2.717412145639976e-07,2.1717886946276093e-07,1.0719952352001556e-05
2.2762829327742442e-07,2.711296380854414e-07,2.1816293566852702e-07,1.0812027745998872e-05
2.2931987180335808e-07,2.706196485990679e-07,2.192228213487143e-07,1.090282994485685e-05
2.3121133235911498e-07,2.702133175757841e-07,2.2035386506673103e-07,1.0991548459443621e-05
2.3329064341034408e-07,2.699101503948782e-07,2.215516983550012e-07,1.1077356804540745e-05
2.3554331477324103e-07,2.6970744361273033e-07,2.228115423161932e-07,1.1159452022126953e-05
2.379525035328666e-07,2.696005631481888e-07,2.2412771572696053e-07,1.1237083772264835e-05
2.405001979987672e-07,2.695831622410085e-07,2.2549324069976853e-07,1.1309543551481055e-05
2.431687411133943e-07,2.6964749133887193e-07,2.269000985475543e-07,1.137614215339214e-05
2.4594096920284106e-07,2.697851470548544e-07,2.2834070081772176e-07,1.1436212050650322e-05
2.488000337868503e-07,2.699883656617013e-07,2.2980890204755172e-07,1.1489131361505713e-05
2.517303504503152e-07,2.7025116358158924e-07,2.312992872549584e-07,1.1534348630540794e-05
2.547178966197343e-07,2.7056972242015033e-07,2.3280681506488052e-07,1.157140595199463e-05
2.5774867267743566e-07,2.709428778280601e-07,2.343279110549498e-07,1.1599970180103633e-05
2.608073383118363e-07,2.7137332065673625e-07,2.358606025693655e-07,1.161984804972946e-05
2.638776001325016e-07,2.7186721714773184e-07,2.374028776561512e-07,1.16309523647866e-05
2.6694310396334557e-07,2.724313979749276e-07,2.3895168585024805e-07,1.1633258064245255e-05
2.699877834289591e-07,2.730721907090869e-07,2.405030975391932e-07,1.1626805079211867e-05
2.729961902683559e-07,2.7379744347228944e-07,2.4205182606699854e-07,1.1611719962701986e-05
2.759534556071966e-07,2.746180933382225e-07,2.435904967193151e-07,1.158820429938654e-05
2.78844497338407e-07,2.7554730792307853e-07,2.4511026614438356e-07,1.1556498127599255e-05
2.816535492474424e-07,2.765981463034011e-07,2.466021077695499e-07,1.1516858899847625e-05
2.843648130089566e-07,2.777811237734027e-07,2.480571948712349e-07,1.1469614434335115e-05
2.869635443386627e-07,2.791029189602359e-07,2.494665424342927e-07,1.141529769182745e-05
2.8943663446896656e-07,2.8056626671778047e-07,2.508210503931627e-07,1.1354731228188541e-05
2.917730338395505e-07,2.8217048469322447e-07,2.521122868202677e-07,1.1288952653882525e-05
2.939640191964645e-07,2.8391228684772893e-07,2.5333289925373003e-07,1.1219055630869894e-05
2.9600251274565127e-07,2.857858978965128e-07,2.544763705468505e-07,1.114606200982292e-05
2.978823912052369e-07,2.8778214998894947e-07,2.5553772735771624e-07,1.1070871059518803e-05
2.995984739810857e-07,2.898880111248935e-07,2.5651446557072075e-07,1.0994315075056786e-05
3.011463421338642e-07,2.920875985761141e-07,2.5740557759997395e-07,1.0917293296421976e-05
3.025222933569938e-07,2.943639563374383e-07,2.582104908702761e-07,1.0840856600726096e-05
3.03723359932986e-07,2.96699863126715e-07,2.5893060820549505e-07,1.0766163843809495e-05
3.0474651295817534e-07,2.990768944682365e-07,2.5957151408718e-07,1.0694370303115977e-05
3.0558813071882246e-07,3.0147423623987515e-07,2.6014244495617645e-07,1.06265373513085e-05
3.062447340019989e-07,3.03868897852577e-07,2.606540337343813e-07,1.0563592818074122e-05
3.0671381600105254e-07,3.062373579933804e-07,2.6111733328171237e-07,1.0506320971626931e-05
3.069939046544743e-07,3.0855754105506157e-07,2.615435539377334e-07,1.0455355067589475e-05
3.0708448830061194e-07,3.1080983513284356e-07,2.6194272589829587e-07,1.0411179313093297e-05
3.069860338773055e-07,3.129774266436347e-07,2.6232265178938067e-07,1.0374156283990663e-05
3.066996444657793e-07,3.150465860306098e-07,2.626896252879705e-07,1.0344561261984064e-05
3.062265668651469e-07,3.170062850847004e-07,2.6304935958980214e-07,1.0322588020915426e-05
3.05567869468052e-07,3.188473439922953e-07,2.634064087123891e-07,1.0308320101712227e-05
3.047242298385325e-07,3.205616704299226e-07,2.6376292906743643e-07,1.0301698950884627e-05
3.036961728759047e-07,3.2214141384023645e-07,2.641183816318017e-07,1.0302523501481143e-05
3.024850875725553e-07,3.2357858173143765e-07,2.64469802311243e-07,1.0310488701528224e-05
3.010947238654486e-07,3.2486547568998697e-07,2.648117901596568e-07,1.03252474281342e-05
2.9953194391919623e-07,3.259952875994464e-07,2.6513671033887065e-07,1.0346468784135304e-05
2.978058515869145e-07,3.269628648446925e-07,2.6543567646693566e-07,1.0373863890374096e-05
2.9592676233617037e-07,3.277660835508065e-07,2.6570073528729073e-07,1.0407180687032238e-05
2.9390637980414535e-07,3.2840715881551784e-07,2.6592791698366535e-07,1.0446199468679107e-05
2.9175840150797147e-07,3.28892165113567e-07,2.6611850538018733e-07,1.049073528981848e-05
2.894988322858233e-07,3.29228289571865e-07,2.6627703816487033e-07,1.0540621554757864e-05
2.8714628340322706e-07,3.29421305711277e-07,2.664086041147434e-07,1.0595669082925262e-05
2.847219619613229e-07,3.294754132293797e-07,2.665174535669884e-07,1.0655617246249259e-05
2.8224804121058395e-07,3.2939475697337205e-07,2.6660625088545296e-07,1.0720096493254704e-05
2.7974474576507213e-07,3.291847810323484e-07,2.6667575099584143e-07,1.0788632066942413e-05
2.772284458778002e-07,3.2885194175737857e-07,2.6672494077431466e-07,1.0860688254413704e-05
2.747114601614068e-07,3.2840227213725553e-07,2.66751341116536e-07,1.0935705330784677e-05
2.7220253171145324e-07,3.2784078169311163e-07,2.6675222096454557e-07,1.101311432546924e-05
2.697073892341679e-07,3.271727591059842e-07,2.667268908418625e-07,1.1092354699849961e-05
2.6722935257185886e-07,3.2640599626682375e-07,2.666777195056871e-07,1.117290033799899e-05
2.647698858068664e-07,3.25551924426149e-07,2.666085784983578e-07,1.1254282971475605e-05
2.62328783261285e-07,3.246256676739177e-07,2.6652334353218337e-07,1.1336090931181206e-05
2.599042512267864e-07,3.236455880336521e-07,2.664266363656815e-07,1.1417922506529566e-05
2.574940399997324e-07,3.226311831244051e-07,2.6632547640254217e-07,1.149932034804216e-05
2.5509739705503457e-07,3.215998763015856e-07,2.662293092634324e-07,1.1579738006440164e-05
2.5271587857444804e-07,3.205647488086126e-07,2.6614781425015365e-07,1.1658554664991094e-05
2.503528670811225e-07,3.195337852712069e-07,2.6608870215518784e-07,1.17351281242795e-05
2.480129703416245e-07,3.185104385904905e-07,2.660573438745055e-07,1.1808871604444695e-05
2.457012590021612e-07,3.174954954048349e-07,2.660580751038469e-07,1.1879315503879816e-05
2.4342231711839554e-07,3.164894839811112e-07,2.6609579590078404e-07,1.194611076171662e-05
2.4117964079902456e-07,3.154934418999355e-07,2.6617581243119914e-07,1.200897591091773e-05
2.389757377348337e-07,3.145074390792067e-07,2.6630242195028784e-07,1.206762538965566e-05
2.3681265066284343e-07,3.1353000574664694e-07,2.6647846953938e-07,1.2121716629386795e-05
2.3469274610901452e-07,3.125606129373134e-07,2.667054331627364e-07,1.217083261257056e-05
2.326201060038929e-07,3.1160238985178215e-07,2.669831629659787e-07,1.2214490622567226e-05
2.3060139348410967e-07,3.106620781716462e-07,2.6730986341396105e-07,1.2252167861787567e-05
2.2864464054877077e-07,3.0974880812458626e-07,2.676821318997732e-07,1.2283371993510374e-05
2.2675717281930862e-07,3.088735451938556e-07,2.6809490214923117e-07,1.230778724189436e-05
2.249450142613843e-07,3.080483194552888e-07,2.6854205089757426e-07,1.232541029276616e-05
2.23213465937146e-07,3.0728520000255195e-07,2.6901782253210895e-07,1.233653635427463e-05
2.2156747567255244e-07,3.065965065303235e-07,2.695183902091773e-07,1.2341619716905528e-05
2.2001198640339084e-07,3.0599652476519453e-07,2.700426448239557e-07,1.2341136541207925e-05
2.1855236813163037e-07,3.0550233012268236e-07,2.7059128600550963e-07,1.2335510671944295e-05
2.1719432788913101e-07,3.051319147726077e-07,2.711644056266417e-07,1.2325143037524734e-05
2.159431444209221e-07,3.0490165621093265e-07,2.7175964145834013e-07,1.2310542602703675e-05
2.1480296488028092e-07,3.0482506429030874e-07,2.723724111025011e-07,1.2292426733002205e-05
2.1377676909467412e-07,3.049121481898745e-07,2.729968356126326e-07,1.227168920442461e-05
2.1286638843581322e-07,3.051688846169319e-07,2.7362619569201746e-07,1.2249303553073144e-05
2.1207246096150558e-07,3.055972220480494e-07,2.7425437719803885e-07,1.2226253267517211e-05
2.1139477592534824e-07,3.061959642890093e-07,2.748779250259171e-07,1.2203486321398462e-05
2.1083270631167245e-07,3.0696194647910037e-07,2.754962801943657e-07,1.2181866260138968e-05
2.103854249250116e-07,3.078903187384932e-07,2.761107801832034e-07,1.216212539250607e-05
2.100516933558291e-07,3.0897396388250777e-07,2.767242677831038e-07,1.2144841946169675e-05
2.0982934744933494e-07,3.102034932136268e-07,2.7734111727845895e-07,1.2130451752873485e-05
2.0971482443773166e-07,3.115687326075644e-07,2.7796636836961924e-07,1.211927418687916e-05
2.097028155000064e-07,3.130606507505845e-07,2.786036708097734e-07,1.2111513152067313e-05
2.097864065394616e-07,3.1467125081505897e-07,2.792542308108075e-07,1.2107226898394544e-05
2.0995763640796326e-07,3.163914789146802e-07,2.799185103649623e-07,1.2106300773639075e-05
2.1020824115161765e-07,3.182105178164457e-07,2.805988256690787e-07,1.210844595397853e-05
2.1053058285719683e-07,3.20116867018182e-07,2.8129976478106136e-07,1.2113229373361736e-05
2.1091789450453702e-07,3.2209848918945854e-07,2.820259874779484e-07,1.2120137525439568e-05
2.11364029883038e-07,3.241417406430933e-07,2.8277974144585136e-07,1.212864703511308e-05
2.1186396916054262e-07,3.262309853589808e-07,2.835598096378293e-07,1.213825825523358e-05
2.1241430022298686e-07,3.283497183736637e-07,2.8436168619283125e-07,1.214849427653454e-05
2.130131345298174e-07,3.304819185526915e-07,2.8517869534294357e-07,1.2158906278123905e-05
2.136602311563368e-07,3.326122913517971e-07,2.8600358141716236e-07,1.2169096060087505e-05
2.1435703988097808e-07,3.347256601261183e-07,2.868298084019537e-07,1.2178727365045454e-05
2.1510698237957601e-07,3.368063873752997e-07,2.8765315580658985e-07,1.2187509529251775e-05
2.1591583392063817e-07,3.388383406788736e-07,2.8847314908541944e-07,1.2195162867727215e-05
2.1679077777261e-07,3.4080529145338017e-07,2.8929215260165877e-07,1.2201384225333967e-05
2.177392260423945e-07,3.426912378284965e-07,2.901129951214141e-07,1.2205838449063206e-05
2.18768173902948e-07,3.444801819789219e-07,2.909371396254313e-07,1.2208184486590015e-05
2.1988276563016867e-07,3.461558498015705e-07,2.9176364272273694e-07,1.2208101199544198e-05
2.210848852790213e-07,3.477025071679125e-07,2.925899628468236e-07,1.2205283609449965e-05
2.2237288810371304e-07,3.491061142962713e-07,2.93414249175053e-07,1.2199429206930513e-05
2.2374212973633e-07,3.5035416959314736e-07,2.942366759772945e-07,1.2190237424534302e-05
2.2518625930639535e-07,3.514351571584113e-07,2.950592932328829e-07,1.2177419235084806e-05
2.266986320857649e-07,3.5233874798959224e-07,2.9588466123889754e-07,1.2160700053333467e-05
2.2827375605381842e-07,3.5305581350290714e-07,2.9671394047625265e-07,1.2139801335473766e-05
2.2990927928662142e-07,3.5357816711493394e-07,2.975463474384561e-07,1.211442129472367e-05
2.316068445299354e-07,3.5389865482165314e-07,2.9837992852002503e-07,1.2084266735968845e-05
2.3337105643096928e-07,3.5401122222612706e-07,2.992120316083067e-07,1.204915205422511e-05
2.3520813153831172e-07,3.539110030013376e-07,3.0003929423931805e-07,1.200909669494821e-05
2.3712446865315537e-07,3.535945545132378e-07,3.0085780636461766e-07,1.196433685437388e-05
2.391248332077393e-07,3.530599412901722e-07,3.016638681564134e-07,1.1915257163247274e-05
2.412112141304225e-07,3.52306758921774e-07,3.024548146543594e-07,1.1862306389625067e-05
2.4338308721670896e-07,3.5133605793099536e-07,3.032288354192133e-07,1.1805925619534736e-05
2.4563856700591717e-07,3.5014983236250376e-07,3.0398392490288317e-07,1.1746489803979313e-05
2.4797545748295787e-07,3.487503456556194e-07,3.047170003751337e-07,1.1684279269021835e-05
2.5039106379131496e-07,3.4713991679502066e-07,3.054240173956029e-07,1.1619486237873258e-05
2.5288094143131103e-07,3.453211171696816e-07,3.061008748690796e-07,1.155223216579184e-05
2.554380888789696e-07,3.432971426991181e-07,3.0674418299596446e-07,1.1482581887788506e-05
2.580526957047703e-07,3.410724086519759e-07,3.073514209844396e-07,1.141058585336276e-05
2.6071216127621105e-07,3.386540425655085e-07,3.0792047714689225e-07,1.1336394688572106e-05
2.6340267855747576e-07,3.3605433195230605e-07,3.084494219745102e-07,1.1260385264468115e-05
2.661124767099227e-07,3.332911445545494e-07,3.0893717782560967e-07,1.1183160460510037e-05
2.688338273257916e-07,3.3038494014514666e-07,3.0938414220578324e-07,1.1105423558932974e-05
2.7156150519269664e-07,3.2735610852580746e-07,3.097917112835509e-07,1.1027882531738017e-05
2.7428973674485605e-07,3.242249056133465e-07,3.101609534207688e-07,1.0951286847008547e-05
2.770109868261113e-07,3.210118850449085e-07,3.104915965971328e-07,1.0876522242625713e-05
2.7971646068039657e-07,3.177369656143123e-07,3.1078222970582643e-07,1.0804618063883646e-05
2.823969921799936e-07,3.1441787299809883e-07,3.1103158168011205e-07,1.0736653436042864e-05
2.850442384903918e-07,3.1106938673987924e-07,3.112394874879116e-07,1.0673656361497243e-05
2.876518911441488e-07,3.077033941986728e-07,3.1140644307861013e-07,1.0616543285795293e-05
2.902158858933713e-07,3.043291792161396e-07,3.115326966582266e-07,1.0566091379983274e-05
2.9273292311534637e-07,3.009541136211519e-07,3.116176455498184e-07,1.052292980520461e-05
2.951983469799666e-07,2.975851865572036e-07,3.1165926734796464e-07,1.0487538253837288e-05
2.976048719142267e-07,2.942307118688067e-07,3.116543962188674e-07,1.0460242301977127e-05
2.999423630279161e-07,2.909003354811793e-07,3.115997864294239e-07,1.044120796153123e-05
3.0219836852548124e-07,2.8760323399682817e-07,3.114921043422665e-07,1.0430455334898863e-05
3.0435925490782826e-07,2.843468517338889e-07,3.113268913309199e-07,1.0427895622989374e-05
3.0641197089668104e-07,2.8113750087888644e-07,3.1109807099306086e-07,1.0433356191100455e-05
3.083458215463545e-07,2.7798167055060914e-07,3.1079833678463203e-07,1.0446565320069153e-05
3.101528436435732e-07,2.748862367277216e-07,3.1041989068461525e-07,1.0467124956700293e-05
3.118265270844347e-07,2.718577000136373e-07,3.099548857132204e-07,1.0494518239786306e-05
3.1336045175084e-07,2.68902084495842e-07,3.093953194432866e-07,1.0528151411158867e-05
3.1474790391708495e-07,2.6602564881725333e-07,3.087327868198949e-07,1.0567385614811882e-05
3.159818327434732e-07,2.632351263628477e-07,3.079588526535886e-07,1.0611533800428166e-05
3.170547358449649e-07,2.605369638189379e-07,3.070662758790525e-07,1.065984833347698e-05
3.1795889617035885e-07,2.5793622464776766e-07,3.060496460244037e-07,1.071152688015252e-05
3.186872261366692e-07,2.554357248127687e-07,3.049044620424633e-07,1.0765733355077514e-05
3.19234694854885e-07,2.5303571196589623e-07,3.036262697007904e-07,1.082162165973727e-05
3.195995750987671e-07,2.5073462639138467e-07,3.022110081137175e-07,1.0878352610976357e-05
3.1978347641398373e-07,2.485303600679479e-07,3.0065553418811113e-07,1.0935097457485918e-05
3.1979014177258237e-07,2.46420981403727e-07,2.989577241743775e-07,1.0991028293402078e-05
3.196236933931009e-07,2.444050868388861e-07,2.9711673589157144e-07,1.1045306997963341e-05
3.1928738886995895e-07,2.424819796706572e-07,2.9513372830336516e-07,1.1097096091812337e-05
3.187837765694201e-07,2.406517438219465e-07,2.930126994172995e-07,1.1145595128880064e-05
3.181158039998052e-07,2.38915852988515e-07,2.907607861348928e-07,1.1190064594423333e-05
3.172875364726826e-07,2.3727819079547486e-07,2.883873046801127e-07,1.1229812297945608e-05
3.1630398058816235e-07,2.357447473755259e-07,2.8590199057381766e-07,1.1264178668915606e-05
3.151710498891789e-07,2.343217560035057e-07,2.8331398714641793e-07,1.1292554811371088e-05
3.138960932934225e-07,2.3301477147276788e-07,2.806317161002228e-07,1.1314405925221366e-05
3.1248812315089827e-07,2.318287948235412e-07,2.7786283167036943e-07,1.132927550922714e-05
3.109579446952236e-07,2.3076729961507588e-07,2.7501431584890553e-07,1.1336794762332485e-05
3.093187715367977e-07,2.2983115812516466e-07,2.7209257064050445e-07,1.1336722139482304e-05
3.075865239662113e-07,2.2901955561262489e-07,2.691032804465023e-07,1.1328991570931513e-05
3.057786931309053e-07,2.283322783987093e-07,2.6605177976518174e-07,1.1313722595059289e-05
3.0391236398133587e-07,2.2777186440082308e-07,2.6294410076633585e-07,1.1291183379319153e-05
3.020028596395313e-07,2.2734478807572173e-07,2.597874024558048e-07,1.1261734916021645e-05
3.0006335646887133e-07,2.270609312932115e-07,2.565892424936921e-07,1.1225780965239572e-05
2.981055254124875e-07,2.2693169619979429e-07,2.5335737030691014e-07,1.1183730691448832e-05
2.961403970687615e-07,2.2696840922736982e-07,2.5010104990938785e-07,1.1135972062331364e-05
2.941787810370779e-07,2.2718136073801646e-07,2.4683158633886234e-07,1.1082875645300257e-05
2.9223333196458585e-07,2.275785979522252e-07,2.4356099149231327e-07,1.1024834975445036e-05
2.9032157853492235e-07,2.281646874838525e-07,2.4030142281410716e-07,1.0962291737732545e-05
2.8846490853955326e-07,2.2894047886706985e-07,2.370657516999367e-07,1.0895712852835632e-05
2.866838577386196e-07,2.2990378340526262e-07,2.338676487346647e-07,1.082554779697653e-05
2.849950042138103e-07,2.3104974035455518e-07,2.307214963683722e-07,1.0752215041725324e-05
2.834104737195045e-07,2.3237035885262126e-07,2.2764184141269822e-07,1.0676163195060651e-05
2.819380080292361e-07,2.3385413490237451e-07,2.2464212441823602e-07,1.0597963034078758e-05
2.805812902512761e-07,2.3548732861487646e-07,2.2173458027597385e-07,1.0518322924618926e-05
2.793411193673353e-07,2.3725719807414013e-07,2.1893135099809594e-07,1.043804908048862e-05
2.782174774513268e-07,2.391540650949978e-07,2.162443571335157e-07,1.0358018937506699e-05
2.77210687979203e-07,2.411695013844629e-07,2.1368390214889602e-07,1.0279125480770759e-05
2.7632033210559077e-07,2.432935919574089e-07,2.1125792951443816e-07,1.0202179288989933e-05
2.755440730635659e-07,2.4551487975872214e-07,2.0897224814038308e-07,1.012783261373089e-05
2.748776831968937e-07,2.4782108864587933e-07,2.068311288577635e-07,1.005655147656761e-05
2.743153396891828e-07,2.501983294045475e-07,2.0483769996518601e-07,9.988618280485423e-06
2.738504339522479e-07,2.5263047410813607e-07,2.029943350396836e-07,9.924146630407508e-06
2.7347748132858966e-07,2.5510003421424324e-07,2.0130405156677326e-07,9.863100460409446e-06
2.7319477178834163e-07,2.5758949101488705e-07,1.9977141963419327e-07,9.80532021354478e-06
2.730058824163793e-07,2.600824450355211e-07,1.9840099191282734e-07,9.750558113883298e-06
2.72918099482192e-07,2.6256518871370103e-07,1.9719527677828747e-07,9.698514434661686e-06
2.729397620348552e-07,2.6502823743515174e-07,1.9615472893456614e-07,9.648861007129207e-06
2.730792194701009e-07,2.6746601438781985e-07,1.952794674116761e-07,9.601248448687276e-06
2.733441037704456e-07,2.6987456693853396e-07,1.9457093543337105e-07,9.555309596124408e-06
2.73739995318328e-07,2.722494167567154e-07,1.9403225690426352e-07,9.510664416760097e-06
2.7426985500253854e-07,2.745848349922368e-07,1.9366805627105692e-07,9.466921435980357e-06
2.749347332075418e-07,2.768739092638912e-07,1.9348421678731932e-07,9.423683489615567e-06
2.757351357182697e-07,2.7910901162838545e-07,1.9348656301109835e-07,9.380559899015694e-06
2.7667193456113373e-07,2.8128255169972966e-07,1.9367871073621425e-07,9.337168118156483e-06
2.777458880473793e-07,2.8338740300262734e-07,1.9406094689876347e-07,9.2931226752723e-06
2.7895588132673247e-07,2.854167509883333e-07,1.946306271120605e-07,9.248026879652237e-06
2.8029715523631805e-07,2.873633902850208e-07,1.9538275201194179e-07,9.201474155240396e-06
2.8176102013266876e-07,2.8921939483871177e-07,1.9631089721522362e-07,9.153060818158027e-06
2.833359077676611e-07,2.9097722877327626e-07,1.974094404380031e-07,9.102413029699713e-06
2.850085339461482e-07,2.926310298895263e-07,1.9867512010374924e-07,9.049218624861373e-06
2.8676519156288827e-07,2.941766809724425e-07,2.001055250900264e-07,8.993245222322032e-06
2.8859317184894616e-07,2.956117298293775e-07,2.0169624430266932e-07,8.934334886053024e-06
2.904809824549397e-07,2.9693554919880574e-07,2.0344012323869293e-07,8.872381477788632e-06
2.924171118940352e-07,2.981487284721487e-07,2.0532833949778854e-07,8.807316285899061e-06
2.943884276976294e-07,2.99252520484238e-07,2.0735084025705691e-07,8.739131329890794e-06
2.963792697525404e-07,3.0024944306672226e-07,2.094961988097414e-07,8.667916052580628e-06
2.983727397501967e-07,3.011431866925828e-07,2.117521936601012e-07,8.593846176676593e-06
3.003543312021688e-07,3.0193668308561904e-07,2.14106645357183e-07,8.517134033069459e-06
3.023141298849192e-07,3.026310774426031e-07,2.1654724054494692e-07,8.437994057241358e-06
3.042449569720599e-07,3.032275837744514e-07,2.1906046309485002e-07,8.356628683912563e-06
3.0614002237711626e-07,3.037306473378264e-07,2.216309223784062e-07,8.273239207398723e-06
3.07993281067632e-07,3.041495881420992e-07,2.242417864766777e-07,8.18807744812793e-06
3.098001925529175e-07,3.0449723291461376e-07,2.2687576788666845e-07,8.101493623625373e-06
3.115568115672802e-07,3.0478673310285e-07,2.2951624625959172e-07,8.01392426714882e-06
3.132586228665048e-07,3.0502898349331214e-07,2.3214870467740087e-07,7.925831931926378e-06
3.149003725085143e-07,3.052320458565606e-07,2.3476114920652858e-07,7.837643944136974e-06
3.164765533602737e-07,3.054023528916343e-07,2.373427144361452e-07,7.749728818836921e-06
3.179817651341392e-07,3.055463196665303e-07,2.398826887204203e-07,7.66243086028217e-06
3.194108122369939e-07,3.056713452880442e-07,2.423706731374757e-07,7.576137512714532e-06
3.207591433492125e-07,3.0578607439173377e-07,2.447961617178928e-07,7.4913102943745495e-06
3.22023396405457e-07,3.058999348334633e-07,2.4714758013539355e-07,7.408441758074939e-06
3.2320158886532576e-07,3.0602276202837264e-07,2.494121319970313e-07,7.327975632191315e-06
3.24292899003114e-07,3.061651095243735e-07,2.5157691962594774e-07,7.250252015947255e-06
3.25296738237904e-07,3.063383953205577e-07,2.5363037336121424e-07,7.175501735317018e-06
3.262114454361583e-07,3.0655420447828605e-07,2.5556250237726023e-07,7.103869481395909e-06
3.2703337849672236e-07,3.068233688974216e-07,2.573644444722681e-07,7.035443474167729e-06
3.277568293777759e-07,3.07156207078462e-07,2.590293376444345e-07,6.970301087569125e-06
3.283746123940724e-07,3.075630340403736e-07,2.605545087789555e-07,6.9085928333645096e-06
3.2887880276466245e-07,3.0805288878990693e-07,2.619424160684226e-07,6.8506371127344725e-06
3.292616773176805e-07,3.086314046761194e-07,2.631989075757248e-07,6.796939602428842e-06
3.2951663087843924e-07,3.092996935842513e-07,2.643311626235071e-07,6.748107262331788e-06
3.296383264465913e-07,3.1005521574496327e-07,2.653476571928932e-07,6.704728682808647e-06
3.2962272681846925e-07,3.108941977463977e-07,2.662581769613459e-07,6.667285472650273e-06
3.294676858849822e-07,3.1181344504866584e-07,2.670721537211853e-07,6.636128132516737e-06
3.2917317645388717e-07,3.128109493686115e-07,2.6779738854104717e-07,6.611559564570158e-06
3.2874053115895075e-07,3.138859634805907e-07,2.684400061529822e-07,6.5939818048336544e-06
3.281714590963533e-07,3.150381458312469e-07,2.690043951941545e-07,6.5839632354018304e-06
3.274677870532577e-07,3.162660773339516e-07,2.694935405962476e-07,6.582179618872273e-06
3.2663180794230827e-07,3.175661186586127e-07,2.6991002244734694e-07,6.58930706896702e-06
3.2566695338779285e-07,3.189316733385657e-07,2.7025651206901184e-07,6.605927423341208e-06
3.2457839362298173e-07,3.2035277966348467e-07,2.705354994095432e-07,6.63246133030055e-06
3.233726096276928e-07,3.218160978506673e-07,2.707489416751328e-07,6.6691360585984325e-06
3.2205676156001484e-07,3.2330543307627066e-07,2.708983991753261e-07,6.715988938011005e-06
3.206392348987773e-07,3.2480290385900744e-07,2.7098587891093173e-07,6.772891387431258e-06
3.19130173266774e-07,3.262903565830692e-07,2.7101471508300186e-07,6.839572145151333e-06
3.175409297481132e-07,3.277503434249829e-07,2.709892903013547e-07,6.915629729498833e-06
3.158835994721613e-07,3.291660828751052e-07,2.709138796343711e-07,7.000530539741716e-06
3.141711373561117e-07,3.305213998276617e-07,2.707920880570266e-07,7.093601804895552e-06
3.1241715925819174e-07,3.31802725992151e-07,2.706270902875833e-07,7.1940418117803895e-06
3.1063535614916226e-07,3.330018078522889e-07,2.7042202172720625e-07,7.300950198501036e-06
3.088390476962056e-07,3.3411531924824317e-07,2.7018010161273765e-07,7.413365541935194e-06
3.070408456888113e-07,3.351414455103315e-07,2.699040003174341e-07,7.5303107291906036e-06
3.05252361788003e-07,3.360771454461908e-07,2.695953250333467e-07,7.650842842319153e-06
3.034842780907562e-07,3.369180206395175e-07,2.692555209700118e-07,7.77408812434175e-06
3.017473347015974e-07,3.376596616496557e-07,2.688868988258197e-07,7.899252886168839e-06
3.000534270406708e-07,3.382993406544609e-07,2.6849260788156253e-07,8.025614240424564e-06
2.9841490713500376e-07,3.388372135302289e-07,2.6807651583404604e-07,8.15249258208407e-06
2.9684272248434787e-07,3.392753463619832e-07,2.6764304738487644e-07,8.279213712472396e-06
2.953459005673439e-07,3.396152543241087e-07,2.671964677969938e-07,8.405076927442178e-06
2.9393280954890124e-07,3.3985680563912075e-07,2.667400773024576e-07,8.529343106552939e-06
2.926118220985683e-07,3.39998468298441e-07,2.66275963852518e-07,8.651256557859549e-06
2.91390086985581e-07,3.400375555990986e-07,2.6580604123800345e-07,8.770096147653105e-06
2.902722836553167e-07,3.3997079873767705e-07,2.653332591721178e-07,8.885209621590048e-06
2.892601500357345e-07,3.3979507927962517e-07,2.648607319077912e-07,8.995999673812123e-06
2.883525248454698e-07,3.3950787088398963e-07,2.6439016711569186e-07,9.101893366646137e-06
2.875472548081049e-07,3.3910784963840625e-07,2.639223970453748e-07,9.202333558103368e-06
2.868441403843721e-07,3.3859558503403225e-07,2.63458969148337e-07,9.296796761849713e-06
2.8624562847352253e-07,3.379739752718692e-07,2.6300227730078284e-07,9.384814325820676e-06
2.857551400767002e-07,3.372482010511189e-07,2.625541379954228e-07,9.465970511991183e-06
2.8537597798351896e-07,3.364253389809053e-07,2.6211461849063397e-07,9.539908201902963e-06
2.8511133403815625e-07,3.3551495246811645e-07,2.616825720136269e-07,9.60638598585616e-06
2.84963663300492e-07,3.345299192010681e-07,2.6125668225948164e-07,9.665333694778223e-06
2.849334656318042e-07,3.334860413657806e-07,2.6083518672466787e-07,9.716827452622024e-06
2.850186483260183e-07,3.324023929504329e-07,2.604153953781868e-07,9.76100295430755e-06
2.8521494122407264e-07,3.3130206825460703e-07,2.5999418635515327e-07,9.797982811289986e-06
2.8551668671845734e-07,3.30210043631113e-07,2.595682661848929e-07,9.827854024836226e-06
2.8591768318346085e-07,3.291491689669205e-07,2.5913357290830245e-07,9.850680274791013e-06
2.8641330891545e-07,3.281381740245741e-07,2.586848399652924e-07,9.866530277895284e-06
2.8700249358311485e-07,3.271925971129539e-07,2.58216019864026e-07,9.875514376381239e-06
2.876861704345633e-07,3.26325681342142e-07,2.577210992026987e-07,9.87781211256818e-06
2.8846347607647065e-07,3.255472422294995e-07,2.57194604731618e-07,9.87367195263508e-06
2.8932956396317425e-07,3.248625987458703e-07,2.5663184645556906e-07,9.86338127341589e-06
2.902757969876212e-07,3.2427326864813016e-07,2.560289143816261e-07,9.847231902610104e-06
2.9129082001142157e-07,3.237780472517564e-07,2.5538215625530186e-07,9.825546601716546e-06
2.923619162539244e-07,3.2337395637191805e-07,2.5468749388259697e-07,9.798789861868653e-06
2.934764614920165e-07,3.2305757619386184e-07,2.539403938708013e-07,9.76764001032762e-06
2.9462233921804204e-07,3.228254359228382e-07,2.531372507630269e-07,9.732925753182764e-06
2.95788072685622e-07,3.226733332172605e-07,2.5227767408984554e-07,9.695534873723017e-06
2.969644251692203e-07,3.225964541465334e-07,2.513655982509113e-07,9.656384681889032e-06
2.981449824158229e-07,3.2259030401516885e-07,2.504086111605989e-07,9.616396050843328e-06
2.9932397721306e-07,3.226512632252109e-07,2.494167666727201e-07,9.576451671137023e-06
3.004947890251761e-07,3.227764753771545e-07,2.484010321511018e-07,9.537362381897422e-06
3.0165023059463957e-07,3.2296316500572427e-07,2.473713761744116e-07,9.499823125394766e-06
3.027828045828066e-07,3.2320750365391414e-07,2.463357834951253e-07,9.464363636255953e-06
3.038854875706892e-07,3.2350376596713317e-07,2.4530082540274906e-07,9.431333662412968e-06
3.0495294309070947e-07,3.238444979746781e-07,2.442730599758884e-07,9.400929758684253e-06
3.059811706139939e-07,3.2422143378084445e-07,2.432598925367989e-07,9.373227131281007e-06
3.0696579342550805e-07,3.24626536709981e-07,2.422689464463183e-07,9.348189702630863e-06
3.0790117852715724e-07,3.250520848667414e-07,2.413065586932347e-07,9.325670079343088e-06
3.087819395073626e-07,3.2548977198616573e-07,2.4037657723536225e-07,9.305416203570924e-06
3.0960625438915345e-07,3.259307449183575e-07,2.3948009166991855e-07,9.287090703402657e-06
3.103791152226543e-07,3.263665358637848e-07,2.386162344105265e-07,9.270299316278097e-06
3.1111415299437773e-07,3.267889239773986e-07,2.3778340754849616e-07,9.25461171016878e-06
3.11831842233213e-07,3.2718899517054443e-07,2.3698043766350536e-07,9.239581310644766e-06
3.12553512719674e-07,3.2755756572780354e-07,2.3620768001769277e-07,9.2247871735572e-06
3.132958826991377e-07,3.278873867763564e-07,2.3546723404321827e-07,9.209878388070192e-06
3.1406958833053284e-07,3.281743042345532e-07,2.3476215081445731e-07,9.19459043942436e-06
3.148798564014912e-07,3.284155908308053e-07,2.3409610992301197e-07,9.178741416495458e-06
3.1572765177487425e-07,3.286080400604713e-07,2.3347344279567104e-07,9.162217645417073e-06
3.16611558387498e-07,3.287480872717791e-07,2.328987181527136e-07,9.144946761588467e-06
3.1752920736375623e-07,3.2883265969519967e-07,2.3237679519751057e-07,9.126874072014664e-06
3.1847712951000065e-07,3.2885934943452675e-07,2.319133075569694e-07,9.1079553688374e-06
3.1945097824221237e-07,3.2882684873470533e-07,2.3151432022855486e-07,9.088151094638628e-06
3.204470541552587e-07,3.287364709051872e-07,2.3118527148291807e-07,9.067408339091735e-06
3.2146287744806013e-07,3.285926546935484e-07,2.309302557229733e-07,9.045641444409987e-06
3.2249626997861496e-07,3.2840086356930324e-07,2.3075224278901506e-07,9.022730808764407e-06
3.235447972395605e-07,3.281652300289739e-07,2.3065386693665002e-07,8.998554508183224e-06
3.2460563646058104e-07,3.278878148486191e-07,2.306377404149945e-07,8.973052954372384e-06
3.25675082678079e-07,3.27568455266473e-07,2.3070596472859826e-07,8.946286177068322e-06
3.26748445245343e-07,3.272046394780426e-07,2.308591743404889e-07,8.91841670958978e-06
3.2782002539935784e-07,3.267919613743373e-07,2.3109551504619446e-07,8.88961775038164e-06
3.288824044062047e-07,3.263253216649551e-07,2.314107974386868e-07,8.859994529669546e-06
3.299265359266036e-07,3.258001870334839e-07,2.3180014473692533e-07,8.82958097768833e-06
3.309432350734361e-07,3.252129495962621e-07,2.3225905284687182e-07,8.798387526994926e-06
3.319243949370754e-07,3.2456066103222537e-07,2.3278282932768922e-07,8.766443076221173e-06
3.328630418580801e-07,3.2384107969461764e-07,2.3336586423574447e-07,8.733794876875385e-06
3.337527028433537e-07,3.230526961352705e-07,2.3400149405602612e-07,8.700472237024909e-06
3.345868993597913e-07,3.221940571400333e-07,2.346819269627977e-07,8.666451016536748e-06
3.3535915803937896e-07,3.212634377207395e-07,2.3539843700506968e-07,8.631651983497402e-06
3.3606314773100986e-07,3.202601802763515e-07,2.361427425780704e-07,8.595990246217663e-06
3.3669255024375037e-07,3.191866354909414e-07,2.3690901050792908e-07,8.559467976766222e-06
3.372408365617878e-07,3.1804866411079767e-07,2.376942270954349e-07,8.522252827412562e-06
3.3770114440820353e-07,3.168540753057107e-07,2.3849701137139566e-07,8.484670246099226e-06
3.3806619588133717e-07,3.1561036526377644e-07,2.3931708716134265e-07,8.447111673883044e-06
3.3832831829033576e-07,3.143239136877697e-07,2.4015494147805186e-07,8.409937625758389e-06
3.3847950280916405e-07,3.1300028248706134e-07,2.4101055964452984e-07,8.373432021529691e-06
3.3851173961794467e-07,3.116436212553829e-07,2.418824764526772e-07,8.337789989564426e-06
3.3841814653176345e-07,3.102556094836512e-07,2.4276776201093396e-07,8.303107645039109e-06
3.3819424277861446e-07,3.088355964671532e-07,2.436622888438216e-07,8.269383207146355e-06
3.378383377971386e-07,3.073815091407777e-07,2.4456135614528765e-07,8.236564706539075e-06
3.373509748098233e-07,3.0589029708310845e-07,2.454609730567154e-07,8.204650157518227e-06
3.367341355549366e-07,3.0435844709240625e-07,2.4635891246703937e-07,8.173765220945489e-06
3.35990988743806e-07,3.027830173103876e-07,2.4725416483147296e-07,8.144139475154667e-06
3.35126107362189e-07,3.01161848599824e-07,2.481453709137644e-07,8.116017263596533e-06
3.341456664403064e-07,2.994926055488625e-07,2.490303009412188e-07,8.089593514840888e-06
3.3305724279050604e-07,2.977722413453576e-07,2.4990658134448055e-07,8.065027071654158e-06
3.3186868875035263e-07,2.959973525204204e-07,2.5077245057262483e-07,8.042556901671901e-06
3.305866792133595e-07,2.941645911214943e-07,2.516270915550713e-07,8.022676691467774e-06
3.292162551976114e-07,2.922710816520922e-07,2.5247024346471014e-07,8.006221596088346e-06
3.277610849236325e-07,2.903148990203343e-07,2.5330109653120896e-07,7.994276612217027e-06
3.2622338804834967e-07,2.882959631395259e-07,2.5411730524133077e-07,7.9879890391809e-06
3.246037545466604e-07,2.862179506829911e-07,2.54914587899376e-07,7.988405892275345e-06
3.2290188784385967e-07,2.8408928663117597e-07,2.5568695697449e-07,7.996370533765355e-06
3.2111806050046906e-07,2.819210045057826e-07,2.564278898256657e-07,8.012469621069689e-06
3.19253756852841e-07,2.797238871855519e-07,2.5713196379310824e-07,8.037025993219656e-06
3.173108878107735e-07,2.775087823390822e-07,2.577954506232131e-07,8.070124582525012e-06
3.15290613963414e-07,2.752891092684948e-07,2.584153590339704e-07,8.111645329671737e-06
3.1319299865713656e-07,2.730813982093397e-07,2.5898825103824806e-07,8.161292997604549e-06
3.1101766156520447e-07,2.709028266364686e-07,2.5951028867160026e-07,8.218633311984904e-06
3.0876476229050666e-07,2.6876860917684457e-07,2.599781066413577e-07,8.283132108774566e-06
3.064354013752915e-07,2.666911995516309e-07,2.6038886510254676e-07,8.354187132728906e-06
3.0403107612868573e-07,2.64680187403508e-07,2.607391649612977e-07,8.431158532903294e-06
3.015530845366179e-07,2.6274248756274344e-07,2.610240875279963e-07,8.513409134184773e-06
2.990026995931457e-07,2.6088403295132515e-07,2.61237714740524e-07,8.600351351730137e-06
2.96381649691738e-07,2.591121953704499e-07,2.6137508512754557e-07,8.691476916999597e-06
2.936920481538769e-07,2.574374185106497e-07,2.614332674186729e-07,8.786349554359662e-06
2.909359854520686e-07,2.5587354421084907e-07,2.614102128437299e-07,8.884577091632375e-06
2.8811595543593965e-07,2.5443639834392037e-07,2.613033116664847e-07,8.985789284506708e-06
2.852359715435908e-07,2.53141855662042e-07,2.611093486644947e-07,9.089614246092284e-06
2.823020722230405e-07,2.5200465330970396e-07,2.608253922103625e-07,9.195637309122645e-06
2.793219587917016e-07,2.5103727708319285e-07,2.604498166723839e-07,9.303363026016583e-06
2.763044223164906e-07,2.502494890177986e-07,2.5998353763326666e-07,9.412213064748147e-06
2.732595304539101e-07,2.496489958758685e-07,2.594313525965003e-07,9.521562889429508e-06
2.7019949628832805e-07,2.492411347492987e-07,2.588019637307145e-07,9.630807093153999e-06
2.671385062787061e-07,2.49027160772528e-07,2.5810593240931924e-07,9.739431458219591e-06
2.640915639694309e-07,2.490033646913061e-07,2.5735339361202226e-07,9.847047747773526e-06
2.610742117743096e-07,2.491618946093208e-07,2.565533562818034e-07,9.953373580537386e-06
2.5810343817475877e-07,2.4949296368116737e-07,2.5571360366299106e-07,1.0058184924943937e-05
2.551987297247284e-07,2.4998787276336016e-07,2.548401087929633e-07,1.01612771560969e-05
2.5238131848840444e-07,2.506409651714414e-07,2.539368890603149e-07,1.026244999682429e-05
2.4967117139536533e-07,2.5144872110273685e-07,2.53006328737228e-07,1.0361494268127733e-05
2.4708519267799566e-07,2.5240705912157744e-07,2.520492417611957e-07,1.0458162282243606e-05
2.446384918208786e-07,2.5350986989756217e-07,2.5106553237079055e-07,1.0552149535949063e-05
2.423458664128096e-07,2.547496943394383e-07,2.5005560981329717e-07,1.0643111512011676e-05
2.4022134576004804e-07,2.5611867181100137e-07,2.490207212443566e-07,1.0730702806162487e-05
2.382768277336163e-07,2.5760902190678417e-07,2.479621895620471e-07,1.081462346352998e-05
2.3652184506954265e-07,2.5921408629557427e-07,2.4688162086077515e-07,1.089466754762162e-05
2.349654315276755e-07,2.6092905658932186e-07,2.4578233242505173e-07,1.0970752410475743e-05
2.3361835536816545e-07,2.627501721583818e-07,2.446712667735925e-07,1.1042896407499456e-05
2.324932522087845e-07,2.6467413118033337e-07,2.4356074161050803e-07,1.1111148322869902e-05
2.3160343155246987e-07,2.666985817239128e-07,2.424683113806242e-07,1.117550763606344e-05
2.309625307707129e-07,2.688220375825704e-07,2.414140753025974e-07,1.1235874131607953e-05
2.3058481130843977e-07,2.7104308034604125e-07,2.404172549522193e-07,1.1292042680077098e-05
2.3048528237757288e-07,2.733601749951529e-07,2.394942636240538e-07,1.1343728112313128e-05
2.306796600708691e-07,2.7577215088015146e-07,2.386581796258863e-07,1.1390604378170932e-05
2.311831494251021e-07,2.782786460704704e-07,2.3791873091129326e-07,1.14323804040408e-05
2.320077125855477e-07,2.808803162704373e-07,2.3728365516707692e-07,1.146893270827813e-05
2.331603165585244e-07,2.835783961652927e-07,2.367606598155459e-07,1.1500419704417054e-05
2.346437801310897e-07,2.8637349343867943e-07,2.3635769395416607e-07,1.1527259132292592e-05
2.3645808073021012e-07,2.8926423268152857e-07,2.3608186258548213e-07,1.1549977360261332e-05
2.385996758359558e-07,2.922457342125741e-07,2.3593814792894859e-07,1.1569051558251716e-05
2.410598770245869e-07,2.953084164546672e-07,2.359285777844689e-07,1.1584846553874292e-05
2.438251736453497e-07,2.984386441377904e-07,2.360524881796721e-07,1.159770242937674e-05
2.468801077145723e-07,3.016210860506907e-07,2.3630714209550944e-07,1.1608136982072744e-05
2.502098167230696e-07,3.0484058532229485e-07,2.366878100717268e-07,1.1616999020949855e-05
2.5379960813159024e-07,3.080825573404629e-07,2.3718819626679692e-07,1.1625446588734942e-05
2.5763338428567304e-07,3.113330279635928e-07,2.378016835020155e-07,1.1634805715262586e-05
2.616939951492738e-07,3.145782038771973e-07,2.385217061132203e-07,1.1646424167809105e-05
2.6596451554439173e-07,3.17802977739212e-07,2.3934092130989127e-07,1.1661559015222552e-05
2.704282370981136e-07,3.209901780379272e-07,2.4025119604357693e-07,1.1681295435076607e-05
2.7506780636777506e-07,3.241216836567943e-07,2.4124416723336465e-07,1.1706498167266002e-05
2.798641966533861e-07,3.271793994974596e-07,2.423107871013668e-07,1.1737794786651719e-05
2.8479562914330266e-07,3.301449039666198e-07,2.4344034282308705e-07,1.177558381692374e-05
2.8983730936816037e-07,3.329992417148646e-07,2.446198027510573e-07,1.182005258315583e-05
2.949620304795639e-07,3.3572317921274607e-07,2.4583369715506356e-07,1.1871182267634296e-05
3.0014087022363053e-07,3.382971412145135e-07,2.470645735451148e-07,1.1928738145744225e-05
3.0534365620308354e-07,3.407017331507207e-07,2.4829386198472825e-07,1.199226999174581e-05
3.105391354527549e-07,3.429188550028236e-07,2.4950313366311514e-07,1.2061138923567854e-05
3.156955516570225e-07,3.449317663261289e-07,2.506753973866538e-07,1.2134575099986673e-05
3.2078189052824576e-07,3.467246537471697e-07,2.517957869777909e-07,1.2211766650979387e-05
3.257684497360221e-07,3.4828321034327677e-07,2.528520165203545e-07,1.2291953548683615e-05
3.306267597905745e-07,3.495952292154933e-07,2.538352914600566e-07,1.2374483358729578e-05
3.35330386037511e-07,3.5065025754201396e-07,2.5474040250601176e-07,1.2458818019998523e-05
3.398557677468223e-07,3.5143932185101533e-07,2.555638304819233e-07,1.2544521532094087e-05
3.4418167865136585e-07,3.5195544088372494e-07,2.563020169147938e-07,1.263124789485226e-05
3.482887420342037e-07,3.521948304398517e-07,2.569518260918487e-07,1.2718712792490104e-05
3.5215993812255866e-07,3.5215792122757613e-07,2.575117978627716e-07,1.2806641686464431e-05
3.557808293001292e-07,3.5184901684855215e-07,2.579821552457323e-07,1.2894717900207194e-05
3.5913917330821844e-07,3.512749517511793e-07,2.5836362787620764e-07,1.2982549567782045e-05
3.622244548252792e-07,3.50443823327555e-07,2.58656408178909e-07,1.3069668919215578e-05
3.6502774595342077e-07,3.4936411112628497e-07,2.588597121849248e-07,1.3155577030996195e-05
3.675424715998322e-07,3.480441575229747e-07,2.589715921269095e-07,1.3239799280011785e-05
3.697649190530498e-07,3.464919290145322e-07,2.58989004658883e-07,1.332188933361256e-05
3.7169284073565896e-07,3.447152023794013e-07,2.589084087328111e-07,1.3401379538633033e-05
3.7332381809814035e-07,3.4272212264249345e-07,2.587268412609601e-07,1.3477730443143682e-05
3.7465624114875605e-07,3.405213078762941e-07,2.5844298519058364e-07,1.3550315801290518e-05
3.7569218840729494e-07,3.381216061917076e-07,2.5805781362919564e-07,1.3618442544529145e-05
3.764385451508066e-07,3.355326147522348e-07,2.575744694593171e-07,1.3681392356617336e-05
3.769054636603832e-07,3.3276532035817826e-07,2.5699735292559336e-07,1.3738464982634039e-05
3.7710523671647097e-07,3.298314195618514e-07,2.563310980879229e-07,1.3789003668857654e-05
3.770524645847289e-07,3.2674220820029946e-07,2.555802281713744e-07,1.3832403427919723e-05
3.7676332256200845e-07,3.235086731156044e-07,2.547496030104482e-07,1.3868119590071756e-05
3.7625372794521134e-07,3.201426115540212e-07,2.5384443718845483e-07,1.3895701009442933e-05
3.755382172176589e-07,3.1665766228874826e-07,2.528693738573621e-07,1.3914834933544858e-05
3.7463087948667e-07,3.1306919525370736e-07,2.518286422958e-07,1.3925339346041204e-05
3.735474367509786e-07,3.0939323065237695e-07,2.507281417633503e-07,1.392709701242154e-05
3.723054893098724e-07,3.056459453217028e-07,2.495770955183388e-07,1.392001131527752e-05
3.709230004749121e-07,3.018442244782583e-07,2.483879668805095e-07,1.3904023284184421e-05
3.6941747312741866e-07,2.980064527599748e-07,2.471755322958505e-07,1.3879142603880524e-05
3.6780545765739243e-07,2.9415307360823737e-07,2.4595548487334586e-07,1.3845443089069574e-05
3.661017172144185e-07,2.9030671641799044e-07,2.4474336284881217e-07,1.3803029215971998e-05
3.64319198112009e-07,2.864913298024718e-07,2.435547473727245e-07,1.3752019963341339e-05
3.6247007455286533e-07,2.8273014249464324e-07,2.424053288048243e-07,1.369259942699145e-05
3.6056658275919594e-07,2.790439463190372e-07,2.413096550570057e-07,1.3625109254944727e-05
3.586206193817504e-07,2.7545078000806033e-07,2.4028020699836945e-07,1.3550070560587818e-05
3.5664253804641274e-07,2.7196594943039516e-07,2.393280361906634e-07,1.3468098516250422e-05
3.546406583815417e-07,2.6860192488717924e-07,2.384632946900896e-07,1.3379797038970434e-05
3.5262223586149603e-07,2.653688487760184e-07,2.3769426206880674e-07,1.3285704308122725e-05
3.5059433351204636e-07,2.622748465430789e-07,2.3702610959256802e-07,1.3186324840492654e-05
3.485632827033464e-07,2.5932531226307824e-07,2.3646096452549854e-07,1.3082262920745005e-05
3.465339403380118e-07,2.56522439374048e-07,2.3599917889861106e-07,1.2974357332731286e-05
3.4450955514708445e-07,2.5386590394410557e-07,2.3564040311685377e-07,1.2863685682331052e-05
3.424915659534234e-07,2.513543768462673e-07,2.3538370015121326e-07,1.2751457533209946e-05
3.4047975262045776e-07,2.4898694176265357e-07,2.3522781032325487e-07,1.2638888716948953e-05
3.384735788302159e-07,2.467636660162709e-07,2.351716331695509e-07,1.2527092895802725e-05
3.364735577818961e-07,2.446857113085205e-07,2.3521384677711268e-07,1.2417006038543272e-05
3.344810722888693e-07,2.427551531489173e-07,2.3535267144413768e-07,1.2309358343444585e-05
3.3249720183804164e-07,2.4097477709529987e-07,2.3558587821245461e-07,1.2204682292390165e-05
3.3052212130654285e-07,2.3934829978948326e-07,2.359097539320522e-07,1.2103337338425705e-05
3.285555199040961e-07,2.378804008656393e-07,2.3631829464194112e-07,1.2005541972747913e-05
3.265971794487557e-07,2.3657634666436891e-07,2.3680391153120102e-07,1.1911396498795593e-05
3.246473313937993e-07,2.3544164091021122e-07,2.373587103293641e-07,1.182088221245963e-05
3.22707256618774e-07,2.344814252249845e-07,2.379749761391532e-07,1.173385688163802e-05
3.207793877451051e-07,2.336996444214531e-07,2.386444084036336e-07,1.1650071033776275e-05
3.188662267922267e-07,2.330998174344493e-07,2.3935735594163253e-07,1.1569203658031862e-05
3.169696040012329e-07,2.3268727867676593e-07,2.401031593892191e-07,1.1490916579276699e-05
3.1509123774828625e-07,2.3246954357812823e-07,2.4087141587182445e-07,1.14149200558638e-05
3.1323349327689854e-07,2.3245475091610909e-07,2.416547703011904e-07,1.1341013449960174e-05
3.113997320721967e-07,2.3265016901346074e-07,2.4245343916778e-07,1.1269086658084061e-05
3.095939786341904e-07,2.330604708784842e-07,2.432781887901625e-07,1.1199106173096105e-05
3.078196640728396e-07,2.3368624278123092e-07,2.4414803568305604e-07,1.11310911552241e-05
3.060788063538373e-07,2.345235410556753e-07,2.450840092000921e-07,1.106506955857148e-05
3.0437228690883824e-07,2.3556427131668802e-07,2.461038550851883e-07,1.1001026070716497e-05
3.027003364288026e-07,2.367977042402556e-07,2.472201200159192e-07,1.0938864143930066e-05
3.0106304428129504e-07,2.382123347542209e-07,2.484404227759523e-07,1.08784031177179e-05
2.994608122825604e-07,2.397967819993876e-07,2.497679228438507e-07,1.0819426296375979e-05
2.978943735597437e-07,2.415405695397049e-07,2.5120128735804986e-07,1.076176032797662e-05
2.9636488822019816e-07,2.4343491432877424e-07,2.5273522544994757e-07,1.0705324033908202e-05
2.948753340784889e-07,2.454719065061723e-07,2.543623432752372e-07,1.0650110567249876e-05
2.9343226498312394e-07,2.4764298821257673e-07,2.560746688525711e-07,1.059613829662494e-05
2.920450116002249e-07,2.499387976194302e-07,2.5786380534729965e-07,1.0543418264078424e-05
2.907233347894936e-07,2.523494762912372e-07,2.597217450997448e-07,1.0491946271119073e-05
2.8947698824155193e-07,2.548644560206989e-07,2.616423369006072e-07,1.0441696881364357e-05
2.883160912017077e-07,2.574727516002704e-07,2.6362044254748656e-07,1.039259496333396e-05
2.8725023084906807e-07,2.6016433187754605e-07,2.656498913681568e-07,1.034448110609426e-05
2.8628743176014685e-07,2.6293165365043893e-07,2.677237185449417e-07,1.0297113581420056e-05
2.8543380144509766e-07,2.65769314126991e-07,2.698355814203753e-07,1.0250219960010602e-05
2.846935722200133e-07,2.686716775820384e-07,2.719794913849249e-07,1.0203585287526776e-05
2.8406924745047986e-07,2.716314293541177e-07,2.741482977908747e-07,1.0157154409521193e-05
2.8356129082173557e-07,2.746404960334764e-07,2.763328678881157e-07,1.0111099039793668e-05
2.8316745628907127e-07,2.7769184778144604e-07,2.7852232866027146e-07,1.0065797708175056e-05
2.828828330256359e-07,2.8078047752268237e-07,2.807046064686943e-07,1.0021735771414664e-05
2.827006840673417e-07,2.839035883072943e-07,2.828673544242279e-07,9.979381424779516e-06
2.826127616313971e-07,2.870612197822956e-07,2.849989379751873e-07,9.939087633114982e-06
2.8260923680607106e-07,2.902562828790397e-07,2.87088273374782e-07,9.901046591662629e-06
2.826792897284797e-07,2.934920036059092e-07,2.8912430367259067e-07,9.86529834059699e-06
2.828119106105798e-07,2.9676841778076925e-07,2.910960097072298e-07,9.83177044855488e-06
2.8299634423013393e-07,3.000808979917074e-07,2.929924887160168e-07,9.80032624151706e-06
2.8322211305338203e-07,3.03421225522648e-07,2.9480377656060056e-07,9.770838525213667e-06
2.8347864948670075e-07,3.0677964230833484e-07,2.965220578913804e-07,9.743298167138316e-06
2.837554504680033e-07,3.101455505728025e-07,2.981416004296807e-07,9.71787898765836e-06
2.840436290244561e-07,3.135065087148888e-07,2.996581638412179e-07,9.694886281474525e-06
2.843379088430699e-07,3.1684763494825865e-07,3.0106901676459733e-07,9.674632918361868e-06
2.846372902769733e-07,3.201521217715482e-07,3.0237284792925055e-07,9.65734332465708e-06
2.849447299181705e-07,3.234016545217082e-07,3.035689921806341e-07,9.643176850639357e-06
2.8526691690066855e-07,3.265763087098455e-07,3.0465675525654125e-07,9.632387384028642e-06
2.856136025991136e-07,3.29655023256513e-07,3.056359846261713e-07,9.62548215628092e-06
2.859966795980793e-07,3.32618009155012e-07,3.06508327931988e-07,9.623223469757733e-06
2.8642907432786716e-07,3.3545001913095587e-07,3.0727754525303026e-07,9.626503882812256e-06
2.869223138680466e-07,3.3814181888792205e-07,3.079485850691593e-07,9.636230455840248e-06
2.8748444248030664e-07,3.4068960204167535e-07,3.085262779088121e-07,9.653264676072877e-06
2.881207532104105e-07,3.430933477070696e-07,3.0901476532469246e-07,9.678379786270503e-06
2.888357884020792e-07,3.453541475568664e-07,3.094184662616794e-07,9.712207569817232e-06
2.896336233203804e-07,3.474714417622095e-07,3.097433063330654e-07,9.75518122109695e-06
2.905161853958205e-07,3.4944172206392577e-07,3.0999616148102953e-07,9.807500142257182e-06
2.914817111845821e-07,3.512586212462379e-07,3.1018316557009355e-07,9.869141501889495e-06
2.9252486562337797e-07,3.529136506586694e-07,3.1030858410935124e-07,9.939903955710162e-06
2.9363846159736517e-07,3.543973444367526e-07,3.103746133355715e-07,1.0019431109874282e-05
2.948155665819032e-07,3.5570042684911326e-07,3.103825951349932e-07,1.0107200400162786e-05
2.9605035969455673e-07,3.5681448931868244e-07,3.103356203688059e-07,1.0202524556606937e-05
2.9733760825608976e-07,3.5773194514617203e-07,3.102402808583196e-07,1.0304594224883192e-05
2.9867217069852605e-07,3.5844566923135037e-07,3.1010550161584446e-07,1.0412537955203727e-05
3.000492890699068e-07,3.589490608325505e-07,3.0993936515925734e-07,1.0525474703089097e-05
3.014648145126417e-07,3.592366003197592e-07,3.09746724851237e-07,1.0642553868872333e-05
3.029144357593869e-07,3.5930419596310893e-07,3.095293656533725e-07,1.0762983481528304e-05
3.04392643786546e-07,3.59148685337728e-07,3.09287866119121e-07,1.0886052992784039e-05
3.0589278606860706e-07,3.5876687099415993e-07,3.090226760250383e-07,1.1011153893436763e-05
3.07408019674068e-07,3.581550947730697e-07,3.087335463907666e-07,1.113778128739268e-05
3.0893155663592786e-07,3.573096695218908e-07,3.0841896971104744e-07,1.1265506207006223e-05
3.104560407169165e-07,3.5622748538390534e-07,3.080769209810187e-07,1.1393939824570295e-05
3.119732232005004e-07,3.5490609708402077e-07,3.0770622424548217e-07,1.1522696893920708e-05
3.134740663375042e-07,3.533437156135754e-07,3.0730690695335736e-07,1.1651345887537247e-05
3.1494953072761304e-07,3.515396415391053e-07,3.0687898159801544e-07,1.1779373004925875e-05
3.163921851554792e-07,3.494946856325294e-07,3.0642096534067175e-07,1.190619327459692e-05
3.1779703144198537e-07,3.472118145225441e-07,3.059300527568929e-07,1.203118296993974e-05
3.191606906295152e-07,3.4469762644183666e-07,3.054043466538625e-07,1.2153694292626385e-05
3.20480290779397e-07,3.41962976303735e-07,3.0484475375571745e-07,1.2273057870225192e-05
3.2175265216011894e-07,3.3902127808895503e-07,3.042550450429936e-07,1.2388598563725803e-05
3.229733433051605e-07,3.35886816077423e-07,3.0364213761529517e-07,1.2499654530200508e-05
3.2413633444682214e-07,3.325754818297865e-07,3.030169955175201e-07,1.2605569158094072e-05
3.25234880843064e-07,3.291062686897684e-07,3.0239347402708896e-07,1.2705676548136173e-05
3.262627276771852e-07,3.2550089606625525e-07,3.017851920865785e-07,1.2799330483973765e-05
3.2721416182856804e-07,3.217819630208157e-07,3.0120343791890173e-07,1.2885964673133529e-05
3.280831633089225e-07,3.1797145629132245e-07,3.0065719214678395e-07,1.2965123258570275e-05
3.288638174168451e-07,3.1408998982228306e-07,3.001542799833688e-07,1.3036441661244702e-05
3.295524789991545e-07,3.1015621555576055e-07,2.997019632704945e-07,1.3099602709790333e-05
3.3014967029544313e-07,3.0618646318719714e-07,2.9930572673264946e-07,1.3154290232696935e-05
3.306600696216894e-07,3.021949002204559e-07,2.98968124829253e-07,1.3200164886086636e-05
3.310914267319026e-07,2.981942336872675e-07,2.9869007096562637e-07,1.3236887355865832e-05
3.3145425936983704e-07,2.941969332508485e-07,2.984730882756272e-07,1.3264173996170704e-05
3.317614275828847e-07,2.9021584631053465e-07,2.983193665434597e-07,1.3281831990137406e-05
3.320256580967268e-07,2.862632010265396e-07,2.9823010566768585e-07,1.328974601270453e-05
3.322565436104573e-07,2.82349334043418e-07,2.982054015725413e-07,1.3287843171010092e-05
3.3245943581818773e-07,2.784824381003633e-07,2.982454502699769e-07,1.3276077415330588e-05
3.326358818075123e-07,2.7466953651670844e-07,2.9835074034622414e-07,1.3254479020713185e-05
3.327847200817605e-07,2.709182272053227e-07,2.985214656754609e-07,1.322328014571495e-05
3.329035803171264e-07,2.672375227842493e-07,2.987569408228277e-07,1.3182994487937821e-05
3.3298960715889245e-07,2.636374289415228e-07,2.990547239713346e-07,1.3134342316884606e-05
3.330391129699145e-07,2.601282035159822e-07,2.9940951253365514e-07,1.3078133132278536e-05
3.33047373143082e-07,2.5671965414716605e-07,2.998125020464304e-07,1.3015229182254032e-05
3.3300871759267673e-07,2.534210393401549e-07,3.002517631222672e-07,1.2946537050360029e-05
3.3291666508711074e-07,2.5024146778575485e-07,3.007137603660118e-07,1.2872977615609359e-05
3.327647362015972e-07,2.471903738258598e-07,3.011851349543404e-07,1.2795450368856861e-05
3.325481272453272e-07,2.44277887286245e-07,3.016530799060587e-07,1.2714790062892012e-05
3.3226461256415336e-07,2.4151410867620675e-07,3.02104265338304e-07,1.26317164415269e-05
3.319131874890896e-07,2.3890772608224263e-07,3.025242960094781e-07,1.2546797413954715e-05
3.314918742630745e-07,2.3646574178239645e-07,3.028989164963653e-07,1.2460441571713247e-05
3.309968767162228e-07,2.3419417783471398e-07,3.0321593511381196e-07,1.2372918174173664e-05
3.304236949648606e-07,2.3209891472694477e-07,3.0346614136144445e-07,1.2284384933370435e-05
3.2976914023521753e-07,2.3018647759324192e-07,3.0364270245518825e-07,1.2194903266653635e-05
3.290317088391598e-07,2.2846373874780174e-07,3.037396643352128e-07,1.210444106368362e-05
3.282097646094378e-07,2.2693635344902355e-07,3.037507816301201e-07,1.2012880173369755e-05
3.27300633632693e-07,2.256077457492161e-07,3.036695826183031e-07,1.1920038608244603e-05
3.2630243698855373e-07,2.2447928818034493e-07,3.0348995990981565e-07,1.1825709060845435e-05
3.2521586716046254e-07,2.2355041694833021e-07,3.032061518201449e-07,1.1729710930083702e-05
3.240436715585643e-07,2.228181452281733e-07,3.0281239226706773e-07,1.1631933572614987e-05
3.2279002654895637e-07,2.222775462658965e-07,3.023029230138461e-07,1.1532348459398284e-05
3.2146091198160053e-07,2.2192421357347183e-07,3.016724009308892e-07,1.1430996931691436e-05
3.2006406334772787e-07,2.2175663895228037e-07,3.0091681337686217e-07,1.1327964852959385e-05
3.186081470874344e-07,2.2177619921179037e-07,3.000343984079826e-07,1.1223344455774817e-05
3.171016965660018e-07,2.2198545256420326e-07,2.990254945302381e-07,1.1117195910882488e-05
3.15553503348537e-07,2.223870610718551e-07,2.9789220184108584e-07,1.1009527726008664e-05
3.1397462099355824e-07,2.229835555785541e-07,2.966390888395953e-07,1.0900295908293934e-05
3.123784974354526e-07,2.2377649308651718e-07,2.952739438412409e-07,1.0789409718869315e-05
3.107782844352593e-07,2.247651121219845e-07,2.938074295640045e-07,1.0676741878850454e-05
3.0918458995584676e-07,2.2594562311255102e-07,2.922514942432037e-07,1.0562153321275914e-05
3.07605383642522e-07,2.273116953202111e-07,2.9061723978325945e-07,1.0445539811877214e-05
3.060468054192613e-07,2.2885564414957924e-07,2.889138463421831e-07,1.0326902596232377e-05
3.04513304451117e-07,2.305688967999185e-07,2.871492060332955e-07,1.020643927013022e-05
3.030071194911752e-07,2.3244149735791172e-07,2.853317791392565e-07,1.0084608287112365e-05
3.0152856065940466e-07,2.3446155041045338e-07,2.8347336347670787e-07,9.962092630304127e-06
3.0007706093330717e-07,2.3661465317552772e-07,2.815911287856211e-07,9.839668345435676e-06
2.986514942371393e-07,2.388836363368885e-07,2.797063809810743e-07,9.718080092785556e-06
2.9724996390012626e-07,2.412492252187773e-07,2.778408136308172e-07,9.59799839261996e-06
2.958697103538871e-07,2.436909431458572e-07,2.760136695617136e-07,9.480036843985008e-06
2.945067015057374e-07,2.461877058148859e-07,2.742413296564822e-07,9.364761218345087e-06
2.931550499728918e-07,2.487187434695739e-07,2.725379027799252e-07,9.252657704333231e-06
2.918072328400111e-07,2.512655185969451e-07,2.7091520900609364e-07,9.144104968041401e-06
2.9045598979216557e-07,2.5381347015437933e-07,2.693823729051884e-07,9.039407969382224e-06
2.890967050114078e-07,2.563515164978315e-07,2.67945881542374e-07,8.938873925637855e-06
2.877276206277308e-07,2.588704817080853e-07,2.6661017140646037e-07,8.842879754246347e-06
2.8634842698134905e-07,2.613630530396645e-07,2.653783454000369e-07,8.751924119948253e-06
2.849600382382581e-07,2.638248442662332e-07,2.642526469089816e-07,8.66665242582074e-06
2.835657078160521e-07,2.662546472896111e-07,2.6323450954693845e-07,8.58781834323679e-06
2.8217126913159005e-07,2.686528060412645e-07,2.623246164053553e-07,8.516185324873931e-06
2.807834733594787e-07,2.7101883575582016e-07,2.6152339772393277e-07,8.452412255830535e-06
2.794077872838813e-07,2.7335055887791557e-07,2.608319630822673e-07,8.396972662512538e-06
2.7804734296920493e-07,2.756444549803246e-07,2.602534389102773e-07,8.350146670364144e-06
2.767037728399631e-07,2.7789589479209905e-07,2.597932796100946e-07,8.312079916506688e-06
2.753793579573856e-07,2.8009930986443964e-07,2.594569973167041e-07,8.282859354709361e-06
2.740783328868429e-07,2.822481776982693e-07,2.592471912213441e-07,8.262583073637688e-06
2.728065198913629e-07,2.8433468472208765e-07,2.591626935223361e-07,8.251432897037938e-06
2.7157117627957e-07,2.8634945619988787e-07,2.5919973299971103e-07,8.249700574948285e-06
2.703817239855648e-07,2.8828150898534925e-07,2.593533817326648e-07,8.257707567034876e-06
2.692497812731077e-07,2.901192467165361e-07,2.596182215174097e-07,8.275671111789091e-06
2.681879996010087e-07,2.918536385697193e-07,2.599884406568316e-07,8.303611635025064e-06
2.672084718043554e-07,2.934812339363329e-07,2.60458421455998e-07,8.341346894621356e-06
2.663217751168161e-07,2.9500338120321286e-07,2.610240255746786e-07,8.388598107744831e-06
2.655378158791668e-07,2.964229927929752e-07,2.6168255713041947e-07,8.445164598154594e-06
2.6486746527686e-07,2.977424672854721e-07,2.624305574506184e-07,8.511024339590456e-06
2.643227239656757e-07,2.9896364868245267e-07,2.632620497646111e-07,8.586285839636268e-06
2.6391529527193286e-07,3.0008874728268967e-07,2.641684865305172e-07,8.67107591650627e-06
2.6365522342789177e-07,3.01121035825397e-07,2.651394134020181e-07,8.765463066604132e-06
2.6355158163780926e-07,3.020651101581784e-07,2.66163767838009e-07,8.869427950676821e-06
2.636148499688e-07,3.0292747803896816e-07,2.6723088784924744e-07,8.982856853255639e-06
2.638573895737357e-07,3.037168862543464e-07,2.6833031534661467e-07,9.105547660431638e-06
2.6429113183320124e-07,3.044427962673946e-07,2.6945158464947204e-07,9.237220718286628e-06
2.649250042160168e-07,3.051131542129384e-07,2.7058396833896064e-07,9.377525192113376e-06
2.657629551288276e-07,3.057333881148032e-07,2.7171541891329925e-07,9.526038295836817e-06
2.6680357136316465e-07,3.063061395588218e-07,2.7283183286679737e-07,9.682250872208854e-06
2.6804254694659525e-07,3.068316849853698e-07,2.739178199114396e-07,9.845534402769424e-06
2.6947557182933057e-07,3.073099299457424e-07,2.7495895782022885e-07,1.0015108130635381e-05
2.7109897325354207e-07,3.0774275671808443e-07,2.7594354302938427e-07,1.019003004044944e-05
2.729090606618999e-07,3.081343017552016e-07,2.7686162791791894e-07,1.0369215541362919e-05
2.749016278774571e-07,3.084889182880943e-07,2.777029031944441e-07,1.0551479195357548e-05
2.770715036432675e-07,3.088091281742261e-07,2.7845618288227787e-07,1.0735587826950062e-05
2.7941153011075806e-07,3.090952899603649e-07,2.791103718021565e-07,1.09203011991497e-05
2.819114009142529e-07,3.0934637155735887e-07,2.79655367904024e-07,1.110439421721102e-05
2.845575606696926e-07,3.095605097505409e-07,2.800822283136621e-07,1.1286680418368096e-05
2.8733411689211e-07,3.097352098360552e-07,2.8038349394629414e-07,1.1466038662756355e-05
2.9022449370441844e-07,3.098675712643191e-07,2.8055429257977945e-07,1.164141568992005e-05
2.932133607863192e-07,3.0995430328051374e-07,2.8059268261060216e-07,1.1811793199383553e-05
2.9628681799658763e-07,3.0999182266650945e-07,2.804983365458775e-07,1.1976149571761408e-05
2.994305508231698e-07,3.09976764007438e-07,2.8027119654308227e-07,1.2133455627234852e-05
3.0262839399574144e-07,3.0990594721786737e-07,2.7991132252279657e-07,1.2282710318094408e-05
3.058620750879795e-07,3.097758818079711e-07,2.794190281642888e-07,1.2422981423247796e-05
3.0911170717293e-07,3.095828664841352e-07,2.78794546673337e-07,1.2553416228744145e-05
3.1235762859062337e-07,3.093234736608689e-07,2.7803822026977864e-07,1.2673229255269593e-05
3.155818746925011e-07,3.089952997349484e-07,2.771514522535287e-07,1.278169214154156e-05
3.187674150834373e-07,3.085976863648271e-07,2.7613675154108184e-07,1.2878134494575038e-05
3.218972291416461e-07,3.081310517385712e-07,2.749965127004491e-07,1.2961949964592231e-05
3.249544819835515e-07,3.0759504911132587e-07,2.737324677597132e-07,1.3032599869316328e-05
3.279231220947237e-07,3.0698741955803106e-07,2.723470763842666e-07,1.308962525011248e-05
3.307885790587368e-07,3.0630451324421574e-07,2.708452942131942e-07,1.3132675563405498e-05
3.3353756334426014e-07,3.055429323239194e-07,2.6923437655793015e-07,1.3161540478401075e-05
3.361573349612005e-07,3.0470106727512623e-07,2.675225398548501e-07,1.3176183520790314e-05
3.3863621482058566e-07,3.037797952229771e-07,2.657189198477353e-07,1.317678147054516e-05
3.409647197568685e-07,3.027826768222588e-07,2.638342285151744e-07,1.3163754203387923e-05
3.43136056086165e-07,3.017161192597852e-07,2.6188016620758097e-07,1.3137761576430525e-05
3.451466441096801e-07,3.005889457317707e-07,2.5986802391297704e-07,1.3099654609875665e-05
3.46996428905232e-07,2.9941063766625985e-07,2.5780823006686593e-07,1.3050392490836615e-05
3.486874600212961e-07,2.9818931832705013e-07,2.557118258079497e-07,1.2990947829759192e-05
3.502213313478926e-07,2.9693153241543345e-07,2.5359213122701694e-07,1.2922226995302813e-05
3.5159753596092e-07,2.956431922733891e-07,2.514640039961943e-07,1.2845033503937227e-05
3.528132824471505e-07,2.943294646764735e-07,2.493420628085144e-07,1.276007052344409e-05
3.5386395745607846e-07,2.929941030868527e-07,2.472401253212591e-07,1.2667956873112759e-05
3.5474383321048853e-07,2.916394783314324e-07,2.451709182673571e-07,1.2569272148245149e-05
3.554469906816365e-07,2.90267053696439e-07,2.4314529146029165e-07,1.246466460942124e-05
3.559683480271722e-07,2.888785524176972e-07,2.4117227307277434e-07,1.2354952548547478e-05
3.563051709673484e-07,2.874774904782097e-07,2.3926070538097853e-07,1.2241095329464917e-05
3.5645830702740967e-07,2.860692407032726e-07,2.374206625307961e-07,1.2124056096915127e-05
3.564309760684737e-07,2.846598216803978e-07,2.3566281050346078e-07,1.200469200151386e-05
3.5622599783662343e-07,2.8325583280823114e-07,2.3399698513387827e-07,1.1883750859838828e-05
3.558447455950633e-07,2.818657642050441e-07,2.324321283322236e-07,1.1761983644723795e-05
3.5528771543382256e-07,2.805008415924465e-07,2.3097698536566186e-07,1.1640317567578998e-05
3.5455487902558884e-07,2.791748855512367e-07,2.2963959219420466e-07,1.1519959573472924e-05
3.5364642420805347e-07,2.7790324711743433e-07,2.2842581723376898e-07,1.1402358792552067e-05
3.525641781501097e-07,2.7670046367034433e-07,2.273392321229709e-07,1.1289094483289305e-05
3.5131310101280853e-07,2.7557782614283976e-07,2.263825008125325e-07,1.118176687696573e-05
3.499029852141579e-07,2.745428249279192e-07,2.2555828602503363e-07,1.1081903185142952e-05
3.483485471692901e-07,2.736001436166619e-07,2.248695334154785e-07,1.0990881702319487e-05
3.466663200513227e-07,2.727528680331134e-07,2.2431962420454286e-07,1.090988337419591e-05
3.448713832541335e-07,2.720038312885495e-07,2.239116931225635e-07,1.0839861979842532e-05
3.429771239265292e-07,2.713562857311963e-07,2.2364784448842321e-07,1.0781524959894643e-05
3.4099685897412805e-07,2.7081287918042844e-07,2.2352878077763857e-07,1.0735335943048077e-05
3.389444712926988e-07,2.703747250512476e-07,2.2355299240812931e-07,1.0701528391581716e-05
3.368334578086098e-07,2.700422260840128e-07,2.237166665456048e-07,1.068010262708863e-05
3.3467604018461217e-07,2.698164849234336e-07,2.2401509523527707e-07,1.067082787703931e-05
3.324828366689764e-07,2.697003019178997e-07,2.244433505154988e-07,1.067328854386233e-05
3.302624839446053e-07,2.696985912336742e-07,2.2499512568573362e-07,1.0686961952924513e-05
3.280220981238632e-07,2.6981762767204577e-07,2.2566164437531718e-07,1.071129452569112e-05
3.2576915885586485e-07,2.7006330507328137e-07,2.2643217692820102e-07,1.0745759322600947e-05
3.2351337807915765e-07,2.704403353548773e-07,2.2729521786631927e-07,1.078988210605399e-05
3.212666820497561e-07,2.7095354959636497e-07,2.2823922924642467e-07,1.0843234400497397e-05
3.190410075923325e-07,2.7160884945710677e-07,2.2925319419130412e-07,1.0905407473089153e-05
3.1684614225023234e-07,2.724117980187219e-07,2.303265833122931e-07,1.0975974962836497e-05
3.1468935588836626e-07,2.733658007084369e-07,2.3144894167454143e-07,1.1054450659627733e-05
3.1257555830604856e-07,2.7447154577462104e-07,2.326109626690486e-07,1.1140262230032216e-05
3.10507222915262e-07,2.757273060945297e-07,2.3380631149450478e-07,1.1232746812885518e-05
3.084850900218202e-07,2.7713013136149767e-07,2.350316789121512e-07,1.1331150887112316e-05
3.06509376257298e-07,2.786776918909938e-07,2.3628525588595252e-07,1.1434642236883023e-05
3.045805405343548e-07,2.8036946130017965e-07,2.3756512683016826e-07,1.1542350721718056e-05
3.026994187944678e-07,2.822061236204955e-07,2.388683929094333e-07,1.1653405996114905e-05
3.008668844065363e-07,2.841873544454889e-07,2.401909665027125e-07,1.176694122205888e-05
2.990835604970574e-07,2.8631090803005674e-07,2.415273010118937e-07,1.1882085275701325e-05
2.973498232523157e-07,2.885747397122794e-07,2.428700094521052e-07,1.1997973824188962e-05
2.956658530229361e-07,2.909779877799679e-07,2.442098415075694e-07,1.2113777686367275e-05
2.940313336799861e-07,2.935183074226833e-07,2.455359051085059e-07,1.2228712594407773e-05
2.924449440894676e-07,2.961898111397441e-07,2.4683623605582186e-07,1.2342002360919631e-05
2.909046717725511e-07,2.989843480733653e-07,2.480994168292941e-07,1.2452831120643304e-05
2.894085706162984e-07,3.018934249038751e-07,2.493164316864141e-07,1.2560341533523568e-05
2.8795451661300765e-07,3.0490810918228357e-07,2.504811652119029e-07,1.2663695950507793e-05
2.865397078764715e-07,3.0801774513614673e-07,2.5159001165200417e-07,1.2762174118702162e-05
2.851613729745247e-07,3.112095037093138e-07,2.5264142222421443e-07,1.28552331571983e-05
2.8381775435309226e-07,3.1446888212832e-07,2.536353110716545e-07,1.2942472846836536e-05
2.825079248928134e-07,3.1778086253534963e-07,2.5457253928863413e-07,1.3023552897932935e-05
2.8123084903157e-07,3.211318041291648e-07,2.5545419280517977e-07,1.3098135337749687e-05
2.799843705173171e-07,3.245104167860241e-07,2.5628047848252264e-07,1.3165855027450965e-05
2.787647568831636e-07,3.2790695068832367e-07,2.570502013098143e-07,1.322630650368766e-05
2.775680632270977e-07,3.313118800675301e-07,2.577610101764289e-07,1.3279054685553951e-05
2.763923404173386e-07,3.3471507766179145e-07,2.584096141720175e-07,1.3323657708971471e-05
2.752379559649911e-07,3.381061063029075e-07,2.589919948073451e-07,1.3359683327633811e-05
2.7410659712991066e-07,3.414749696363029e-07,2.595041356740705e-07,1.338673872558132e-05
2.7300151363531717e-07,3.4481199727734624e-07,2.5994278799243286e-07,1.3404563986519462e-05
2.719282233673345e-07,3.481072169493864e-07,2.603055867811724e-07,1.3413152107267105e-05
2.70893513068268e-07,3.513502307321157e-07,2.6059090763405264e-07,1.3412764847413478e-05
2.699035688916557e-07,3.545303298322239e-07,2.6079766672507297e-07,1.3403822645346502e-05
2.689629394386321e-07,3.576360668453868e-07,2.609251081523809e-07,1.3386780517709725e-05
2.680746798729362e-07,3.6065522841094105e-07,2.609733392118351e-07,1.3362093243047611e-05
2.672413089593414e-07,3.635755966356833e-07,2.609440131828605e-07,1.3330292102203791e-05
2.664653063574379e-07,3.663850883039643e-07,2.6083964401353e-07,1.3292071200564605e-05
2.657487809032808e-07,3.690713908529786e-07,2.6066270871761715e-07,1.3248275552978715e-05
2.6509321601962964e-07,3.716216638592563e-07,2.6041625544091354e-07,1.31998287322599e-05
2.6449910924119487e-07,3.740219897822293e-07,2.60104534063238e-07,1.3147672646228606e-05
2.6396544063594125e-07,3.7625711042783365e-07,2.597330447060512e-07,1.3092717806488498e-05
2.634899756570881e-07,3.783109208226988e-07,2.593094957045136e-07,1.3035791657304635e-05
2.6307059127454017e-07,3.8016720928322186e-07,2.5884391861861694e-07,1.2977592909711956e-05
2.627064303285702e-07,3.8181035090766134e-07,2.583462701343066e-07,1.2918658397623656e-05
2.623979244937359e-07,3.83226486796724e-07,2.578243353223508e-07,1.285934911453519e-05
2.6214589454340857e-07,3.8440536220538405e-07,2.5728382563834255e-07,1.2799861650992805e-05
2.6195026934280674e-07,3.853414699613773e-07,2.5672927084877317e-07,1.2740254481979013e-05
2.618098321186737e-07,3.8603310763370655e-07,2.561644367341868e-07,1.2680469938834375e-05
2.617240813879645e-07,3.8648038944480727e-07,2.5559215949273603e-07,1.2620352273225465e-05
2.616948760029668e-07,3.8668461783870967e-07,2.55014235237601e-07,1.2559674604552444e-05
2.6172505540062537e-07,3.866492980758728e-07,2.544320889459929e-07,1.2498174800788295e-05
2.618156411436956e-07,3.863811595912843e-07,2.538473869424304e-07,1.2435589752438122e-05
2.619647328703326e-07,3.858898699800201e-07,2.5326158237011534e-07,1.237167754325856e-05
2.621678220487093e-07,3.8518661690337147e-07,2.526754570178278e-07,1.2306223482827134e-05
2.624179446455557e-07,3.842830645240328e-07,2.520897818039424e-07,1.2239036781600585e-05
2.6270574049867985e-07,3.831907723265894e-07,2.515062687913249e-07,1.2169942198194448e-05
2.630198631170255e-07,3.81920831656823e-07,2.509272950077923e-07,1.2098763633313955e-05
2.6334785017946894e-07,3.804854448589482e-07,2.503546356100606e-07,1.202530447324295e-05
2.636777438298338e-07,3.789002718988797e-07,2.497888608996284e-07,1.1949334246396401e-05
2.639998800797198e-07,3.771837016602293e-07,2.4922957827755424e-07,1.1870587244096444e-05
2.643074366118464e-07,3.75354644738425e-07,2.4867581655934164e-07,1.1788777587896678e-05
2.645958126764341e-07,3.734330079375671e-07,2.4812689139686425e-07,1.1703637048258547e-05
2.648617211164046e-07,3.714408016821682e-07,2.475833887070501e-07,1.1614985584031272e-05
2.651022858563967e-07,3.694002721391507e-07,2.470468145430161e-07,1.1522818874529104e-05
2.653148319728244e-07,3.673313055688795e-07,2.4651847511088893e-07,1.1427354218399264e-05
2.6549749445414694e-07,3.652514977995142e-07,2.459999118764721e-07,1.1329002077202232e-05
2.656499599997592e-07,3.6317718402914037e-07,2.454944946100295e-07,1.1228292876012464e-05
2.6577393003930613e-07,3.611223417359372e-07,2.450071647261245e-07,1.1125790769410713e-05
2.658724833121006e-07,3.590964714797281e-07,2.445421810741657e-07,1.1022013231110273e-05
2.659484761748211e-07,3.5710395319479305e-07,2.441015441717284e-07,1.0917385361208436e-05
2.6600379089528504e-07,3.551452924027946e-07,2.4368477964412604e-07,1.0812234378592447e-05
2.6603973958792353e-07,3.5321950910251005e-07,2.4328906970137913e-07,1.07068000697244e-05
2.660575462651861e-07,3.5132581085149713e-07,2.429097173036995e-07,1.0601258224957297e-05
2.6605867407851984e-07,3.494634184493493e-07,2.4254140830009453e-07,1.0495768202841868e-05
2.6604498652119885e-07,3.476309700639537e-07,2.4218011038433426e-07,1.0390534593829767e-05
2.6601843688693824e-07,3.4582623888181305e-07,2.4182427799454287e-07,1.0285871979155106e-05
2.659803336353279e-07,3.4404586984833405e-07,2.41474111642638e-07,1.0182254724635028e-05
2.659308278472037e-07,3.422858912677966e-07,2.411301174313149e-07,1.0080308485390176e-05
2.6586972924673557e-07,3.4054249371170545e-07,2.407923898130216e-07,9.980728656977117e-06
2.6579891215620885e-07,3.38811607695032e-07,2.404598836914696e-07,9.884165034452696e-06
2.6572373511844985e-07,3.3708783857719345e-07,2.4012957326156256e-07,9.791126254152015e-06
2.656516129043396e-07,3.353640727841197e-07,2.39796500841988e-07,9.701938623676956e-06
2.6559007376857444e-07,3.3363187675980055e-07,2.394551535181018e-07,9.61675521204586e-06
2.655461597495728e-07,3.318822026287344e-07,2.391018120324373e-07,9.535586696491476e-06
2.655268307582396e-07,3.301064685322773e-07,2.387360850217326e-07,9.458353635267167e-06
2.655400945718385e-07,3.2829819211556346e-07,2.383605409996441e-07,9.384992046665973e-06
2.655956450973713e-07,3.264539534580279e-07,2.3798000705257125e-07,9.315577421923596e-06
2.6570380647746294e-07,3.245724561607748e-07,2.376015109337563e-07,9.25035567783434e-06
2.658738469566192e-07,3.22653359464618e-07,2.372339188849618e-07,9.189654790866076e-06
2.6611317673005857e-07,3.206979109253232e-07,2.3688656839326577e-07,9.133767042535879e-06
2.6642715404332344e-07,3.1870967573738714e-07,2.3656759961587663e-07,9.082881956769317e-06
2.668189393378159e-07,3.166934071294743e-07,2.362832431145296e-07,9.037112976066528e-06
2.672898480177261e-07,3.14653186903903e-07,2.360379440703816e-07,8.996630811846463e-06
2.678400594314718e-07,3.125912879935164e-07,2.358344648497704e-07,8.961811722847403e-06
2.6846943002025215e-07,3.105080526238225e-07,2.3567370322837176e-07,8.933256463117357e-06
2.6917925503440386e-07,3.0840250049278423e-07,2.3555442084397374e-07,8.911676412803952e-06
2.699739765423957e-07,3.062735026753635e-07,2.354735627459385e-07,8.897765281041169e-06
2.708597352209654e-07,3.041211693567868e-07,2.3542723129567718e-07,8.892119941483141e-06
2.7184030914429713e-07,3.019468159749208e-07,2.3541169005520305e-07,8.895194869363707e-06
2.729146079810825e-07,2.997515038844451e-07,2.3542416941893e-07,8.907264074741865e-06
2.740772427474513e-07,2.975358063081268e-07,2.3546315745246987e-07,8.928388580326314e-06
2.753210431769375e-07,2.9530066663626864e-07,2.355283953403936e-07,8.958407869722811e-06
2.766397070938697e-07,2.930469705462562e-07,2.3562124798571896e-07,8.996959658831473e-06
2.7802786390178647e-07,2.907746815426869e-07,2.3574495074735893e-07,9.043508207856482e-06
2.794787738370975e-07,2.884835940807864e-07,2.3590391698277745e-07,9.097373692654621e-06
2.8098354050461733e-07,2.861747832745974e-07,2.3610230880440923e-07,9.157778932342833e-06
2.825331912504047e-07,2.8385126733084856e-07,2.3634315638717762e-07,9.223912177647965e-06
2.841202872447529e-07,2.815193466953704e-07,2.3662857215098797e-07,9.294977145660963e-06
2.857380168758787e-07,2.791908181376379e-07,2.369596712175961e-07,9.37022253429716e-06
2.873792160471516e-07,2.768822020043055e-07,2.373360546463921e-07,9.448972952249922e-06
2.8903680028632285e-07,2.746105683050231e-07,2.377562587033045e-07,9.530663837680872e-06
2.9070400660969305e-07,2.723905465837019e-07,2.3821853475705338e-07,9.614858042720264e-06
2.923739195631101e-07,2.702342186206636e-07,2.387205995441369e-07,9.701236063180396e-06
2.9403929722838057e-07,2.681516545430966e-07,2.392587223522171e-07,9.789569887610983e-06
2.956927776571949e-07,2.6615108817252337e-07,2.398269583763164e-07,9.879687694648456e-06
2.973273589733325e-07,2.6423993678331926e-07,2.404170611078589e-07,9.971432177614373e-06
2.989371416735557e-07,2.624261666061493e-07,2.4101937583955177e-07,1.0064612956659873e-05
3.005177676093151e-07,2.607180463035255e-07,2.416243538901345e-07,1.015896490497838e-05
3.020671856251548e-07,2.591231550336332e-07,2.422237099744531e-07,1.0254153833894644e-05
3.0358605190851367e-07,2.5764846234794357e-07,2.428102106169297e-07,1.0349839227676766e-05
3.0507574712129195e-07,2.563009407837357e-07,2.4337669646580097e-07,1.0445726063256378e-05
3.0653647277013194e-07,2.5508741485017764e-07,2.4391658680004764e-07,1.0541562062665698e-05
3.0796809622955525e-07,2.5401325983384745e-07,2.4442597515536017e-07,1.0637117473121511e-05
3.0937148561062543e-07,2.5308112115163386e-07,2.4490437308112067e-07,1.0732183334361344e-05
3.107484323323675e-07,2.522911012752128e-07,2.4535294474706267e-07,1.0826574522002161e-05
3.121009089138386e-07,2.5164162443679627e-07,2.4577239537245856e-07,1.0920107387206914e-05
3.134301915912609e-07,2.5112940998473e-07,2.4616208893421565e-07,1.101255916983852e-05
3.147362412283389e-07,2.5074899260556264e-07,2.465199537714043e-07,1.1103637245930024e-05
3.1601802369512126e-07,2.5049302725753066e-07,2.468427352614644e-07,1.1192956509597607e-05
3.1727400034554787e-07,2.503533008714264e-07,2.471266398702267e-07,1.1280024291918692e-05
3.185018840467647e-07,2.5032198809389074e-07,2.473678507730848e-07,1.1364247021702084e-05
3.196983339651617e-07,2.503941418926693e-07,2.475624561973226e-07,1.1444953831238679e-05
3.208592267538025e-07,2.505717344007064e-07,2.477066369723203e-07,1.152142943526348e-05
3.2198051291512786e-07,2.508650221905549e-07,2.4779774998335525e-07,1.1592955212929386e-05
3.2305866441704965e-07,2.512878840442821e-07,2.4783483138108914e-07,1.1658847457824775e-05
3.240902953615349e-07,2.5185189446320585e-07,2.4781766855612733e-07,1.171848546447234e-05
3.250723269425813e-07,2.5256437279165987e-07,2.477465122691852e-07,1.1771331422846945e-05
3.260022657955145e-07,2.534285595892162e-07,2.476232796967004e-07,1.181693763813771e-05
3.2687761507784053e-07,2.544436195198349e-07,2.474519415797767e-07,1.1854932909145504e-05
3.2769521073053605e-07,2.5560572911115716e-07,2.47237463227308e-07,1.1884992393393465e-05
3.284505911451673e-07,2.569097468449308e-07,2.469854686568518e-07,1.1906826438958845e-05
3.2913790212083826e-07,2.5834923428680393e-07,2.4670314337132513e-07,1.1920224322387715e-05
3.29751716072906e-07,2.599161208061458e-07,2.464001088115334e-07,1.192510511993159e-05
3.302894971459243e-07,2.616024858598783e-07,2.460884458119248e-07,1.1921491881316827e-05
3.307520647513687e-07,2.6340294574396066e-07,2.457812865755354e-07,1.190943106291511e-05
3.3114221912829726e-07,2.653144716394102e-07,2.454909583301037e-07,1.1888940499200533e-05
3.3146273921811534e-07,2.673339668465744e-07,2.4522846703546927e-07,1.186000687420213e-05
3.3171443942632773e-07,2.694571486783243e-07,2.4500419183593644e-07,1.1822606695038913e-05
3.318959430804177e-07,2.716805023628232e-07,2.4482838978330693e-07,1.1776725378278067e-05
3.3200513699958486e-07,2.7400339527790873e-07,2.447103346432997e-07,1.1722363198942225e-05
3.320398530252703e-07,2.7642652103377144e-07,2.446567015221125e-07,1.1659535633799596e-05
3.3199711279449193e-07,2.789479657857967e-07,2.446711734259029e-07,1.1588274084251961e-05
3.3187248782153714e-07,2.815615011105834e-07,2.4475607301634204e-07,1.1508626247019686e-05
3.316604323503464e-07,2.842582115723276e-07,2.449144291696755e-07,1.142065770652631e-05
3.3135531283846607e-07,2.8702879645288763e-07,2.4514993980452014e-07,1.1324452637379731e-05
3.3095247809215933e-07,2.8986475205234045e-07,2.4546530980570676e-07,1.1220118214685561e-05
3.3044836371387036e-07,2.927589157196202e-07,2.458613577913756e-07,1.1107806091537206e-05
3.2983968471067235e-07,2.957053983697851e-07,2.463368589358566e-07,1.0987744179908656e-05
3.291231232545129e-07,2.986983074243572e-07,2.4688893372151045e-07,1.0860251173415176e-05
3.282957094906648e-07,3.0173047082793357e-07,2.4751522160508885e-07,1.07257185452092e-05
3.273553073366373e-07,3.047933842871984e-07,2.4821622651850355e-07,1.0584571527793232e-05
3.2630192507664505e-07,3.0787774721880286e-07,2.4899438788832087e-07,1.0437237284437794e-05
3.251394009089084e-07,3.10973467637613e-07,2.4985092990889776e-07,1.0284147072764798e-05
3.238749665354664e-07,3.1406863851020467e-07,2.507841946345076e-07,1.0125764090087318e-05
3.2251663140237174e-07,3.1714860131957765e-07,2.517895601037736e-07,9.962597068991057e-06
3.210710535070713e-07,3.201966979414841e-07,2.528593833742357e-07,9.7951927802485e-06
3.195431566373705e-07,3.231958312349913e-07,2.5398339439748766e-07,9.624134904947161e-06
3.179364416993791e-07,3.2612923230107605e-07,2.551501636908363e-07,9.450054379077438e-06
3.1625293364763545e-07,3.289812072298435e-07,2.563487044509549e-07,9.273640973976648e-06
3.144931786342268e-07,3.31738035136062e-07,2.5756854105808237e-07,9.095648755923198e-06
3.1265660170684926e-07,3.3438773074452665e-07,2.587984218159429e-07,8.916877716138367e-06
3.10741659476196e-07,3.369192191291741e-07,2.6002575376820523e-07,8.738123034180595e-06
3.0874577973192747e-07,3.393222202285626e-07,2.6123717183353927e-07,8.560114279247096e-06
3.0666577489258426e-07,3.4158808399226687e-07,2.624192886573337e-07,8.383478703770692e-06
3.044995290363973e-07,3.437109165026264e-07,2.635593724067091e-07,8.208750904695767e-06
3.0224849045621144e-07,3.4568777115607e-07,2.646456538719582e-07,8.036414163600561e-06
2.9991849846064283e-07,3.4751779813946645e-07,2.656672654461573e-07,7.866921081953145e-06
2.9751886928642684e-07,3.492016630771509e-07,2.666143597534955e-07,7.700673482611838e-06
2.950626268226857e-07,3.507413497055197e-07,2.6747837832819557e-07,7.538005820404558e-06
2.925666565556164e-07,3.521395329998929e-07,2.682523674719183e-07,7.379207721599141e-06
2.900491363409916e-07,3.5339919733904206e-07,2.689316069081045e-07,7.224581958667148e-06
2.8752680513318374e-07,3.545241200104463e-07,2.695138966782342e-07,7.07451588403768e-06
2.8501472371443054e-07,3.555195229547816e-07,2.699990379447696e-07,6.929516070639926e-06
2.825278129566393e-07,3.563920472642664e-07,2.703886149796701e-07,6.790167447709572e-06
2.800825776218972e-07,3.571489606017115e-07,2.7068674652900013e-07,6.6570469035952375e-06
2.776975181298133e-07,3.577976854645997e-07,2.70901134478298e-07,6.530652697262141e-06
2.753918781594705e-07,3.5834623803811594e-07,2.7104256873920197e-07,6.4113864045943905e-06
2.731833869572695e-07,3.5880320448121227e-07,2.711221308031394e-07,6.2996000606334566e-06
2.710860748599517e-07,3.591764049165537e-07,2.711486269375788e-07,6.195691851589952e-06
2.691092104749969e-07,3.594717971250129e-07,2.7112843570476324e-07,6.100176726353873e-06
2.6725735740080765e-07,3.5969347857208577e-07,2.7106716698875807e-07,6.0136554906338346e-06
2.6553124288974064e-07,3.598434170249475e-07,2.709716270804515e-07,5.936700382874597e-06
2.639293867638334e-07,3.599208608873596e-07,2.708507664668672e-07,5.869742591131113e-06
2.624497253180312e-07,3.599233969957419e-07,2.70714912966802e-07,5.813018958547085e-06
2.610899490430816e-07,3.5984916087430636e-07,2.7057395444822365e-07,5.7665815438804175e-06
2.598464426647341e-07,3.596972573444597e-07,2.7043639840755826e-07,5.7303394122357575e-06
2.587132072095292e-07,3.594662881329293e-07,2.7031087230607517e-07,5.704101500621743e-06
2.576819363159248e-07,3.591534513032556e-07,2.7020845629970423e-07,5.68763634579588e-06
2.5674326035491647e-07,3.5875478779854e-07,2.7014260567437225e-07,5.680762918172337e-06
2.5588815660396555e-07,3.5826560993946097e-07,2.7012674709722774e-07,5.683390230301443e-06
2.55108156594014e-07,3.5768090716460425e-07,2.701719126659013e-07,5.6954425115125e-06
2.543943167050457e-07,3.5699559454495504e-07,2.702857316944626e-07,5.716766857381495e-06
2.53736310139284e-07,3.5620438317305496e-07,2.7047288259957316e-07,5.747123975583063e-06
