1.273880319161647e-06,2.6959574134871067e-06,8.903754799606373e-07,1.8777816903412774e-05
1.2732487807091776e-06,2.6836483344313738e-06,8.996872643392799e-07,1.8561851791980107e-05
1.2724517412371979e-06,2.670871426090226e-06,9.08233205225169e-07,1.834294877164356e-05
1.2715245530778343e-06,2.6576009004561315e-06,9.159758557261593e-07,1.812167518078353e-05
1.270495665046183e-06,2.6438051034008257e-06,9.228804940264992e-07,1.7898737076524575e-05
1.2693864345676715e-06,2.6294494112640443e-06,9.28915498651817e-07,1.767491192762728e-05
1.2682137545296e-06,2.614502183131139e-06,9.340542401097416e-07,1.7450947850124873e-05
1.2669953240067188e-06,2.5989384257636525e-06,9.382770174114583e-07,1.7227483526994776e-05
1.2657499277197416e-06,2.582738258000409e-06,9.415715290672488e-07,1.7005013475875486e-05
1.2644929480936147e-06,2.565888198567615e-06,9.439327772987448e-07,1.678389941511596e-05
1.2632382281847165e-06,2.5483968160909323e-06,9.453624891591373e-07,1.6564433137757753e-05
1.2620087979190591e-06,2.530319642083519e-06,9.458672646940702e-07,1.6346905322793927e-05
1.2608438668765838e-06,2.5117718692571484e-06,9.454566923040228e-07,1.6131622449739062e-05
1.2597916062579228e-06,2.4929142504666712e-06,9.441427024215431e-07,1.5918895416597303e-05
1.2588941560405571e-06,2.473920078551896e-06,9.419403004590841e-07,1.5709047241227906e-05
1.2581789210420765e-06,2.454946477023874e-06,9.388697589072357e-07,1.5502436632071165e-05
1.2576593239375714e-06,2.436127844648561e-06,9.349583400633169e-07,1.5299466210940774e-05
1.257337725752462e-06,2.4175874779023825e-06,9.302396181006024e-07,1.5100545800642725e-05
1.2572059246023998e-06,2.3994481393645453e-06,9.247516163836371e-07,1.4906013614507465e-05
1.2572446010399322e-06,2.3818306499600614e-06,9.185356957841264e-07,1.4716064478317751e-05
1.2574242565650238e-06,2.3648443464929502e-06,9.116378209153387e-07,1.4530730905715817e-05
1.2577083407234892e-06,2.3485758864829844e-06,9.041107089221628e-07,1.4349927450491636e-05
1.258055798562448e-06,2.3330832238515425e-06,8.960113287856724e-07,1.4173552915293548e-05
1.2584202815472126e-06,2.3183990414695357e-06,8.873942196861e-07,1.4001612734285709e-05
1.258749384823826e-06,2.304537571099069e-06,8.783081486569193e-07,1.3834279928640387e-05
1.258988365027123e-06,2.291501645988599e-06,8.687997055022621e-07,1.3671855582779695e-05
1.2590849612613115e-06,2.279296431038909e-06,8.589206820116293e-07,1.351468278034998e-05
1.2589894300103407e-06,2.2679459134560293e-06,8.487333930855566e-07,1.3363077016819936e-05
1.2586511907356524e-06,2.257495230494491e-06,8.383103105970915e-07,1.321728677130261e-05
1.2580175072172482e-06,2.2479936278490842e-06,8.277285985801491e-07,1.3077469190661309e-05
1.257035254791186e-06,2.2394780852538866e-06,8.170634176278139e-07,1.2943662434113029e-05
1.2556526131627352e-06,2.231975579834448e-06,8.063864995872102e-07,1.2815775979085218e-05
1.253818805172864e-06,2.225513857938704e-06,7.957732367600031e-07,1.2693672166426516e-05
1.2514831945873594e-06,2.2201272537715058e-06,7.853129708370379e-07,1.2577349822709305e-05
1.248595428287951e-06,2.2158591780291233e-06,7.751131046973331e-07,1.2467078449488065e-05
1.2451065292021374e-06,2.212760488226184e-06,7.65291341275796e-07,1.2363344032359807e-05
1.240970229884168e-06,2.210879118932036e-06,7.559600318748117e-07,1.226667748580435e-05
1.2361442329234604e-06,2.210244877071539e-06,7.472138296448685e-07,1.2177506467469404e-05
1.2305910691199295e-06,2.2108607728076386e-06,7.391260066676445e-07,1.2096107140390707e-05
1.2242802872574991e-06,2.21270977318444e-06,7.317496738248523e-07,1.2022706700822356e-05
1.2171946655037256e-06,2.215771324329015e-06,7.251209697098099e-07,1.1957677013357792e-05
1.2093364423545266e-06,2.2200295052896875e-06,7.192630042405344e-07,1.1901631866243873e-05
1.200726145565045e-06,2.2254643286377306e-06,7.141877614064174e-07,1.1855345057460699e-05
1.1913951236993823e-06,2.232038384744944e-06,7.098960325016677e-07,1.1819594346402475e-05
1.1813797362963914e-06,2.239693857537814e-06,7.063772120100822e-07,1.1795037730088552e-05
1.170721460278593e-06,2.2483606123140474e-06,7.03609026175256e-07,1.1782135311819119e-05
1.1594705379702521e-06,2.257966271873944e-06,7.015588050669704e-07,1.1781102403613795e-05
1.147688541205339e-06,2.268439083309456e-06,7.001874091862124e-07,1.179189557815943e-05
1.1354456110225634e-06,2.2797019197615417e-06,6.994526011190436e-07,1.1814248540345884e-05
1.1228117001878841e-06,2.2916687104935888e-06,6.993101917892297e-07,1.1847764126868526e-05
1.1098484101916078e-06,2.3042539843315817e-06,6.997151163683902e-07,1.1892021582979914e-05
1.0966076200111447e-06,2.317386843518545e-06,7.006221772316443e-07,1.1946629490800356e-05
1.0831344375820856e-06,2.331012776970648e-06,7.019851071136393e-07,1.20111986754128e-05
1.0694690929877122e-06,2.3450823522199488e-06,7.037560315341753e-07,1.2085273707633102e-05
1.0556469208374658e-06,2.3595382398660352e-06,7.058866547052319e-07,1.2168268750887333e-05
1.0416982513561236e-06,2.374307396652797e-06,7.08329213147101e-07,1.225943427139313e-05
1.0276481403213735e-06,2.389297677579667e-06,7.11035566285833e-07,1.2357877383280741e-05
1.0135156352674913e-06,2.404396377271584e-06,7.139553650739356e-07,1.2462632117775909e-05
9.993147972011283e-07,2.419471226620691e-06,7.170354215724502e-07,1.2572736739889518e-05
9.850578546116523e-07,2.434378261570775e-06,7.202214369122536e-07,1.2687286504245273e-05
9.707572352400016e-07,2.448976314774815e-06,7.234619830107343e-07,1.2805463377581625e-05
9.564261721864086e-07,2.463139033783753e-06,7.267133224242068e-07,1.2926542826592135e-05
9.420800826033655e-07,2.476756323771928e-06,7.299436218095042e-07,1.3049870094359118e-05
9.277373627826384e-07,2.489726189016857e-06,7.331356248318856e-07,1.3174818305586035e-05
9.134181848580022e-07,2.501946796461192e-06,7.36284533719018e-07,1.3300752131707408e-05
8.991429413039393e-07,2.513317431944235e-06,7.393896634388455e-07,1.3427000229934858e-05
8.849315120923544e-07,2.5237425182602762e-06,7.424461064093833e-07,1.355283519514724e-05
8.708040983880732e-07,2.533128666492704e-06,7.454419118441606e-07,1.3677467520707198e-05
8.567833355992973e-07,2.541378644151379e-06,7.483586439856681e-07,1.3800043853086774e-05
8.428942651690439e-07,2.5483895053770105e-06,7.511728017343934e-07,1.3919647853526232e-05
8.291618461571524e-07,2.5540532772201096e-06,7.538584280012978e-07,1.4035323120750314e-05
8.156115847936757e-07,2.5582578886150512e-06,7.563893351367545e-07,1.4146117110239298e-05
8.022739408655847e-07,2.560890623512372e-06,7.587388781673159e-07,1.4251120396725644e-05
7.891855987349126e-07,2.561847175762931e-06,7.608787625484706e-07,1.434947419009039e-05
7.763853036377301e-07,2.5610437950984717e-06,7.627789544406135e-07,1.4440345822495444e-05
7.639096447949549e-07,2.558425539882909e-06,7.644082449163629e-07,1.4522903693979584e-05
7.517925413065483e-07,2.55397052615096e-06,7.657348740388545e-07,1.4596314583120931e-05
7.400658634582168e-07,2.54769371024542e-06,7.667278279017942e-07,1.4659766410094022e-05
7.28757526031788e-07,2.539644490234115e-06,7.673583646890373e-07,1.4712521469379572e-05
7.17889156366043e-07,2.5298921600945658e-06,7.676009450099771e-07,1.4754004962022327e-05
7.074783638473116e-07,2.5185079262106497e-06,7.674346045570971e-07,1.4783887738604914e-05
6.975443303377708e-07,2.5055602011602605e-06,7.668448096699636e-07,1.4802090256433764e-05
6.881093715120274e-07,2.4911307329244347e-06,7.658243090648903e-07,1.4808701936339789e-05
6.791943317030226e-07,2.4753430119035327e-06,7.643742334095926e-07,1.4803875219460447e-05
6.708145250326836e-07,2.4583854994545243e-06,7.625065739282056e-07,1.4787751844706939e-05
6.629812500137928e-07,2.440514626629063e-06,7.6024367011588e-07,1.4760450074110035e-05
6.557065149109587e-07,2.4220327773762834e-06,7.576115883263753e-07,1.472208168673754e-05
6.490065159655359e-07,2.4032512897394853e-06,7.546330041419095e-07,1.4672759316076212e-05
6.429006795153696e-07,2.384461601953229e-06,7.513259289570995e-07,1.4612643677077014e-05
6.374064203761202e-07,2.365930237667015e-06,7.477061696182203e-07,1.4542087276525626e-05
6.325342765249992e-07,2.3479071620484e-06,7.437886444330195e-07,1.4461771613779649e-05
6.282867989367843e-07,2.330630943218564e-06,7.395884540514668e-07,1.437268178100314e-05
6.246611883777436e-07,2.314329636773119e-06,7.351244177871304e-07,1.427594559909834e-05
6.216544073252509e-07,2.299218876786804e-06,7.304225750583249e-07,1.4172670146343179e-05
6.192674331688593e-07,2.285492470519586e-06,7.255170385494143e-07,1.4063856581675195e-05
6.175068214800986e-07,2.273306880818473e-06,7.204513954824057e-07,1.3950463871900598e-05
6.163838212571871e-07,2.2627728635649258e-06,7.152822136036944e-07,1.3833618463279392e-05
6.15909767585572e-07,2.2539643788323214e-06,7.100796930527646e-07,1.371479167296343e-05
6.160897798108847e-07,2.246934115043408e-06,7.04921364404084e-07,1.3595791823226676e-05
6.169208793874514e-07,2.2417162876106675e-06,6.998810508036382e-07,1.3478631012572195e-05
6.183965828139114e-07,2.238317679355708e-06,6.9502009625205e-07,1.3365388498074809e-05
6.205129102291506e-07,2.236713305298053e-06,6.903867282359605e-07,1.3258099607339286e-05
6.232681026482618e-07,2.2368508516127684e-06,6.860213909060024e-07,1.3158655062500801e-05
6.266562856042788e-07,2.238654993492642e-06,6.819600447756972e-07,1.3068710870166965e-05
6.30665381535706e-07,2.242026390950088e-06,6.782323173493695e-07,1.2989622981040175e-05
6.352840750491297e-07,2.2468390536986683e-06,6.748584305265872e-07,1.2922425812693625e-05
6.405104342596267e-07,2.2529410922574527e-06,6.718479790548234e-07,1.2867858187542176e-05
6.463545024646069e-07,2.260159197919865e-06,6.692003085416446e-07,1.2826407308920065e-05
6.528347547756631e-07,2.268308003986186e-06,6.6690635619752e-07,1.2798335321885813e-05
6.599719856836237e-07,2.2772065192270887e-06,6.649526699478429e-07,1.278367587742712e-05
6.677823121775368e-07,2.2866946876070824e-06,6.633269709242158e-07,1.2782211630922375e-05
6.76269862525091e-07,2.2966367279930027e-06,6.620232626342863e-07,1.2793476576581805e-05
6.854218902636136e-07,2.3069085800885447e-06,6.610451767847367e-07,1.281683111239928e-05
6.952087398206261e-07,2.31738224079055e-06,6.604069543079761e-07,1.2851591191363926e-05
7.055868953431456e-07,2.327919477618919e-06,6.601306369811222e-07,1.2897139543746506e-05
7.165019149664185e-07,2.3383754071752187e-06,6.60238747636289e-07,1.2952980940958535e-05
7.278908467376187e-07,2.348607030835273e-06,6.607471442724862e-07,1.301875403736393e-05
7.396845477204844e-07,2.3584840658738382e-06,6.616660941575591e-07,1.3094213092202995e-05
7.518095011379158e-07,2.367897551083704e-06,6.630105768938693e-07,1.3179183645488416e-05
7.641913010053509e-07,2.376758157949548e-06,6.64809736421657e-07,1.3273503412324894e-05
7.767619215676374e-07,2.3849843116475533e-06,6.671047197352787e-07,1.3376964336504358e-05
7.894664578959456e-07,2.3924936440786925e-06,6.699365971034688e-07,1.3489263091575222e-05
8.022634303788402e-07,2.3992067199820493e-06,6.733362626189468e-07,1.360995151861721e-05
8.151195560137118e-07,2.4050544730385057e-06,6.77322130922475e-07,1.3738388433782616e-05
8.280042814837725e-07,2.409978595518261e-06,6.819006460236759e-07,1.3873715333214679e-05
8.408858123859342e-07,2.4139261805797347e-06,6.870667324325573e-07,1.4014866416736057e-05
8.537268790226255e-07,2.416844665518349e-06,6.928055612188869e-07,1.416061020028886e-05
8.664813277220291e-07,2.418680406371506e-06,6.990939475951687e-07,1.4309623302841559e-05
8.790951557390741e-07,2.419383989062618e-06,7.059017346911355e-07,1.4460580153684393e-05
8.915127504361908e-07,2.4189214335742625e-06,7.131962886790844e-07,1.461220858268808e-05
9.03683420530608e-07,2.417282978475422e-06,7.209475354087037e-07,1.4763273990465045e-05
9.155616606791477e-07,2.4144832571532732e-06,7.291281738836964e-07,1.4912526615269321e-05
9.271021670820886e-07,2.4105528437822307e-06,7.377087217342217e-07,1.5058675178421695e-05
9.382567766733222e-07,2.4055246074798667e-06,7.466524543066619e-07,1.5200409010374091e-05
9.489752970637173e-07,2.3994224857917738e-06,7.559138031455509e-07,1.5336462165164978e-05
9.59206402414457e-07,2.392257772453448e-06,7.654384410426662e-07,1.5465706208844237e-05
9.68897237507999e-07,2.384030889005953e-06,7.751640153927874e-07,1.5587219100947907e-05
9.779935513882649e-07,2.3747351150430317e-06,7.850224146846523e-07,1.5700256590864528e-05
9.864408066958179e-07,2.36435964024508e-06,7.949422892299731e-07,1.5804159389345235e-05
9.94184992829313e-07,2.352892278301608e-06,8.048503726277314e-07,1.589832312793384e-05
1.0011726549142405e-06,2.34032544296696e-06,8.146725986139341e-07,1.5982251511874333e-05
1.0073515295292437e-06,2.326663343112993e-06,8.243360085180765e-07,1.6055595933773724e-05
1.0126726999283735e-06,2.3119219672315547e-06,8.337700410035332e-07,1.6118135377295925e-05
1.017092113393535e-06,2.296121463541497e-06,8.429066159253882e-07,1.6169721233179503e-05
1.0205699248699937e-06,2.2792820541864348e-06,8.516806583800551e-07,1.6210243321413337e-05
1.0230700365106731e-06,2.261429480384829e-06,8.600318327888764e-07,1.6239694696293626e-05
1.0245618884553062e-06,2.242603018664284e-06,8.679069538281694e-07,1.6258296580773936e-05
1.0250229096655086e-06,2.2228585999949158e-06,8.752625689738678e-07,1.6266524011438282e-05
1.0244387167877723e-06,2.2022659687237806e-06,8.820674151488302e-07,1.626500077524748e-05
1.0228014188066731e-06,2.1809002947989737e-06,8.883027545096082e-07,1.625437548155193e-05
1.0201092732039643e-06,2.158833336593948e-06,8.939589051615934e-07,1.6235246177812865e-05
1.0163684567518051e-06,2.136134475100245e-06,8.990329142786451e-07,1.620816748360456e-05
1.0115949140079843e-06,2.1128799343518316e-06,9.035322108579027e-07,1.6173769529570527e-05
1.0058144120391771e-06,2.0891555957157346e-06,9.07477708722942e-07,1.6132889098561427e-05
9.99060351361052e-07,2.065052280270137e-06,9.10898819276333e-07,1.6086563465599352e-05
9.91370831513553e-07,2.0406670988752515e-06,9.138244405414429e-07,1.603592152930199e-05
9.82787720173339e-07,2.0161100755339275e-06,9.162770514723673e-07,1.5982092220646068e-05
9.733579669554594e-07,1.991501126905183e-06,9.182717697168365e-07,1.592614215277823e-05
9.63132868196725e-07,1.966956979814437e-06,9.198187319974272e-07,1.5869013105232208e-05
9.5216408317431e-07,1.942582927193709e-06,9.20925309376628e-07,1.5811467182970598e-05
9.405016108718121e-07,1.918473798883298e-06,9.215969570966728e-07,1.5754058958222658e-05
9.281962053515287e-07,1.8947145983680234e-06,9.218380639901741e-07,1.5697137596069754e-05
9.153046079810929e-07,1.8713784643581319e-06,9.216518195821465e-07,1.5640865832621965e-05
9.018981639622295e-07,1.8485285404241367e-06,9.210384932558657e-07,1.5585242101743198e-05
8.880729717363249e-07,1.8262224192154988e-06,9.19994295617312e-07,1.553012625619918e-05
8.739509639982596e-07,1.8045117959883843e-06,9.185121440899879e-07,1.547527503331178e-05
8.596669604580853e-07,1.7834385538438684e-06,9.165839375855246e-07,1.542037496599848e-05
8.453570364350122e-07,1.7630357145591392e-06,9.142027472753565e-07,1.536505537201005e-05
8.311622118335825e-07,1.7433349590818394e-06,9.113641138237885e-07,1.530888784848903e-05
8.172379141067426e-07,1.7243712434713246e-06,9.080683030556251e-07,1.5251392275111859e-05
8.0375436427538e-07,1.7061769442180475e-06,9.043226398037891e-07,1.5192050201997947e-05
7.908870216252665e-07,1.688771822383431e-06,9.001397033674412e-07,1.5130317842360505e-05
7.788035535964595e-07,1.6721582934633076e-06,8.955325731778927e-07,1.5065653625322854e-05
7.676519144195682e-07,1.656321510590646e-06,8.905128337264851e-07,1.4997565760413775e-05
7.57552495266837e-07,1.641232022575368e-06,8.850941898196134e-07,1.4925655817675973e-05
7.485971841886581e-07,1.6268526577194073e-06,8.792990525312514e-07,1.484964106043339e-05
7.408548711912804e-07,1.6131458238829236e-06,8.731614761756494e-07,1.4769344253807087e-05
7.343782880804776e-07,1.600075067377881e-06,8.667233707533466e-07,1.4684648265146167e-05
7.2920680638871e-07,1.587605738671875e-06,8.60027767242651e-07,1.4595463908178894e-05
7.253650992409522e-07,1.5757126170961212e-06,8.531142662734534e-07,1.4501763628218873e-05
7.228636214108411e-07,1.5643908334991263e-06,8.460188950815185e-07,1.4403638076007901e-05
7.21704128042281e-07,1.5536611449659398e-06,8.387776938718818e-07,1.4301297399140478e-05
7.218848239530919e-07,1.5435635788151931e-06,8.314302480610658e-07,1.419501861876605e-05
7.233989729724331e-07,1.5341411231762013e-06,8.240184344089932e-07,1.4085087187238186e-05
7.262288409485046e-07,1.525428148438251e-06,8.165832131635881e-07,1.3971762450633973e-05
7.303435850804416e-07,1.517454498678517e-06,8.091643942913208e-07,1.3855266640770997e-05
7.357052329995394e-07,1.5102538429446336e-06,8.01799812529582e-07,1.3735793299121148e-05
7.422760325589222e-07,1.5038609355656418e-06,7.945225996790008e-07,1.361355404898911e-05
7.500201754084652e-07,1.4983026300754617e-06,7.873603860395517e-07,1.3488867198503876e-05
7.589009408319836e-07,1.4935972863436678e-06,7.803359720481662e-07,1.336224638493889e-05
7.688767951433951e-07,1.489762224358254e-06,7.734689447290465e-07,1.3234446087518989e-05
7.798985189605331e-07,1.4868167152834944e-06,7.667794491220906e-07,1.3106468578730756e-05
7.919082777485565e-07,1.4847768287239408e-06,7.602908715402995e-07,1.2979545349099586e-05
8.048393145556444e-07,1.4836468520628598e-06,7.540270309539287e-07,1.2855065105872169e-05
8.186155127670793e-07,1.4834116792309522e-06,7.48006411673099e-07,1.2734439032400446e-05
8.331531428457841e-07,1.4840370087760803e-06,7.422395665767714e-07,1.2618949580667163e-05
8.483666494586917e-07,1.4854826131686813e-06,7.367302365165694e-07,1.2509633863774726e-05
8.641768641406937e-07,1.4877212124366483e-06,7.314770972036191e-07,1.2407227334869196e-05
8.805155024171828e-07,1.49074687198284e-06,7.264750890114151e-07,1.2312164628641413e-05
8.973209214447063e-07,1.4945661178439924e-06,7.217161632223731e-07,1.2224613534885154e-05
9.145311772049772e-07,1.4991803346172028e-06,7.171894304898516e-07,1.2144540484169184e-05
9.320836086724816e-07,1.5045731778634418e-06,7.128811759288544e-07,1.2071841133188866e-05
9.499187223778505e-07,1.5107097925450462e-06,7.087748964745663e-07,1.2006499316826101e-05
9.67981516684367e-07,1.5175427856855418e-06,7.048520636205625e-07,1.1948629694139211e-05
9.862194618127086e-07,1.5250155470000186e-06,7.010938965365175e-07,1.1898363607593221e-05
1.004579929060366e-06,1.5330600643808713e-06,6.974831474356121e-07,1.1855736910903715e-05
1.0230097472047942e-06,1.5415934712558888e-06,6.940046974002695e-07,1.1820705830670387e-05
1.0414570806552508e-06,1.5505177845069475e-06,6.906441908753515e-07,1.179328370749061e-05
1.0598717486441379e-06,1.5597250140412202e-06,6.873869030658878e-07,1.1773756718912074e-05
1.0782011573038144e-06,1.5691084601840113e-06,6.842193011862736e-07,1.1762855093143804e-05
1.096385135910865e-06,1.578576277859544e-06,6.811304493340404e-07,1.1761718171930972e-05
1.1143536955083042e-06,1.5880584866231628e-06,6.781106078320935e-07,1.1771681824280286e-05
1.132027236437438e-06,1.5975015319099185e-06,6.751498802358524e-07,1.179405858355307e-05
1.1493179773009727e-06,1.6068555583889412e-06,6.722389907922768e-07,1.1829995683173544e-05
1.1661328508344436e-06,1.6160691421562045e-06,6.693710867973883e-07,1.1880395942105315e-05
1.1823770282994075e-06,1.6250963758548703e-06,6.665439146263268e-07,1.1945876608330338e-05
1.1979561239482955e-06,1.6339017702142604e-06,6.63760390487375e-07,1.2026758465613493e-05
1.2127768322231969e-06,1.6424541106720962e-06,6.610265804541295e-07,1.212308004742993e-05
1.226747385898565e-06,1.6507196047652774e-06,6.583512969812037e-07,1.2234619973728114e-05
1.239779230093807e-06,1.6586613693432258e-06,6.55748341705437e-07,1.2360903755274804e-05
1.251790356979025e-06,1.666239619730331e-06,6.532364202333164e-07,1.2501192326117866e-05
1.2627087858489184e-06,1.6734117070740048e-06,6.508361679679448e-07,1.265448558454459e-05
1.2724735780599093e-06,1.6801389123685958e-06,6.485676558377068e-07,1.2819567158732085e-05
1.28103251081895e-06,1.6863969225443903e-06,6.464479126858204e-07,1.2995080317259806e-05
1.288339724090782e-06,1.6921777829758414e-06,6.444875912430554e-07,1.317962026754008e-05
1.294356181039533e-06,1.6974874767182432e-06,6.42689510766621e-07,1.3371829935594346e-05
1.299050542417732e-06,1.7023600183032715e-06,6.410500511940497e-07,1.3570467808044313e-05
1.3023998096240406e-06,1.706888474518964e-06,6.395604168837635e-07,1.3774417985657929e-05
1.3043917958906136e-06,1.711242379994456e-06,6.382070288057188e-07,1.3982654634298791e-05
1.3050262843616831e-06,1.715647385878428e-06,6.369734015993171e-07,1.4194206563479187e-05
1.3043122385799904e-06,1.7203408398715976e-06,6.358425704608819e-07,1.4408149197127505e-05
1.3022656693783811e-06,1.7255445192379032e-06,6.347971314821314e-07,1.462361484590806e-05
1.2989107547653256e-06,1.7314725894186435e-06,6.338183656399661e-07,1.4839791622471115e-05
1.2942802184876492e-06,1.73834523449855e-06,6.328875587570942e-07,1.5055879281171213e-05
1.2884133900014864e-06,1.7463795775560245e-06,6.319878736314378e-07,1.527101481839237e-05
1.2813559006695656e-06,1.7557654330540367e-06,6.311032747102267e-07,1.5484233121635564e-05
1.2731626496358135e-06,1.7666434463851124e-06,6.302164769133763e-07,1.5694487023140714e-05
1.263899340709725e-06,1.7790934396143315e-06,6.293114233914535e-07,1.5900679173045088e-05
1.2536396921785996e-06,1.7931354186121871e-06,6.283802259217569e-07,1.610167816438329e-05
1.2424651515772822e-06,1.8087407921771363e-06,6.274275854769959e-07,1.6296336835990447e-05
1.230473795542842e-06,1.825844836920412e-06,6.264675056086418e-07,1.6483516046445902e-05
1.2177910910428787e-06,1.8443531097620128e-06,6.255149516498457e-07,1.666210210438025e-05
1.2045697127337958e-06,1.864146520083121e-06,6.245790095201122e-07,1.6831032697760015e-05
1.1909771254323765e-06,1.8850929374807503e-06,6.236613080881326e-07,1.6989328535372314e-05
1.1771802645806973e-06,1.9070592782259109e-06,6.227590705791539e-07,1.7136090268364127e-05
1.1633345642638598e-06,1.9299123323398883e-06,6.218694898632566e-07,1.7270467339388697e-05
1.1495784598509656e-06,1.9535120839768656e-06,6.209927970338315e-07,1.739163422049952e-05
1.136034185585036e-06,1.977712277123175e-06,6.201344926651635e-07,1.749877795524127e-05
1.1228134289434444e-06,2.002369688326627e-06,6.193071634831932e-07,1.759110161470063e-05
1.110019737384651e-06,2.027347861454192e-06,6.185294868221769e-07,1.7667848872923738e-05
1.0977431353502957e-06,2.0525098086929173e-06,6.178215079407103e-07,1.7728338067651646e-05
1.0860531689385572e-06,2.0777128694330024e-06,6.172003034263488e-07,1.7772009584382667e-05
1.0749969122610546e-06,2.1028151233195177e-06,6.166795141235373e-07,1.7798494236820362e-05
1.0646012946195978e-06,2.1276825559400163e-06,6.16270181756463e-07,1.7807663340493473e-05
1.054876389723465e-06,2.1521871147591947e-06,6.159797523242491e-07,1.779961513717388e-05
1.0458176789740294e-06,2.1762046357006856e-06,6.158110227005098e-07,1.7774609066470798e-05
1.0374082473301715e-06,2.19961946729698e-06,6.157627319124419e-07,1.7732993158429153e-05
1.0296235225766186e-06,2.2223259761446166e-06,6.1582960570197e-07,1.7675162535762406e-05
1.0224385388333955e-06,2.2442222854226884e-06,6.160010410805673e-07,1.7601551150153988e-05
1.0158355194608895e-06,2.265209251397661e-06,6.162606946905901e-07,1.7512626884176088e-05
1.0098091479756448e-06,2.2852028268569746e-06,6.165882942042803e-07,1.7408866652021906e-05
1.0043658250256442e-06,2.304147887722015e-06,6.169628874180951e-07,1.7290720017163227e-05
9.995165889807658e-07,2.322019097196206e-06,6.173647320841256e-07,1.715859632740629e-05
9.952691782759627e-07,2.338808015014263e-06,6.177746454589618e-07,1.7012887525101215e-05
9.916237129557422e-07,2.3545064272962703e-06,6.181742551280638e-07,1.6853996719791252e-05
9.885719699979594e-07,2.36910031411964e-06,6.185497827429293e-07,1.6682353669896928e-05
9.860985678625146e-07,2.3825796290451494e-06,6.188969858650617e-07,1.6498429454817506e-05
9.841828033542464e-07,2.394949851461095e-06,6.192222118292659e-07,1.630275253681468e-05
9.828010735676723e-07,2.406229652636058e-06,6.195378402565289e-07,1.6095903621689882e-05
9.819298282717013e-07,2.4164374612240602e-06,6.198560308451212e-07,1.5878480687812524e-05
9.81547117401778e-07,2.425582924294825e-06,6.201845212715179e-07,1.565106805710885e-05
9.816303006506213e-07,2.4336725578078496e-06,6.205259732728492e-07,1.5414247772842393e-05
9.821510492626891e-07,2.4407223770775738e-06,6.208811177610141e-07,1.5168639659839166e-05
9.830729859790686e-07,2.446765121902264e-06,6.212524287977899e-07,1.4914921797482193e-05
9.843542425508896e-07,2.4518460694641314e-06,6.216446288380536e-07,1.465381062007e-05
9.85949934217675e-07,2.456010104961071e-06,6.220634232665516e-07,1.4386021592898984e-05
9.878110877328008e-07,2.459291823767379e-06,6.225155170257911e-07,1.4112239137984374e-05
9.898840965935464e-07,2.461717504904898e-06,6.230087495708295e-07,1.3833108079202775e-05
9.921141523692158e-07,2.4633116336537467e-06,6.235510997493804e-07,1.3549236780654342e-05
9.944499045357737e-07,2.464095356019204e-06,6.241507408462029e-07,1.3261196133615412e-05
9.968464610534395e-07,2.4640768089717962e-06,6.248170018085024e-07,1.2969522378897662e-05
9.992658350335295e-07,2.463243926937954e-06,6.255601548922973e-07,1.267473916145061e-05
1.0016738214804666e-06,2.4615657810128547e-06,6.263900631157653e-07,1.2377383507322047e-05
1.0040359167564473e-06,2.458998515751921e-06,6.273136500880697e-07,1.2078004681848178e-05
1.0063166587834033e-06,2.455490552794751e-06,6.283320277031043e-07,1.1777140221115566e-05
1.0084808146454156e-06,2.450987374146567e-06,6.294398748225006e-07,1.1475308459461933e-05
1.010492684656501e-06,2.445439382991076e-06,6.306278223176848e-07,1.1173022989277184e-05
1.0123149767170305e-06,2.438813187980216e-06,6.318855625022757e-07,1.0870797966898707e-05
1.013909670230121e-06,2.43110352961212e-06,6.33202401167836e-07,1.0569153490609598e-05
1.0152404970916164e-06,2.422343888948632e-06,6.345665634471977e-07,1.0268654858724504e-05
1.0162763152416236e-06,2.4126136656203075e-06,6.359684834868842e-07,9.969971010729333e-06
1.016994395684098e-06,2.4020379500746916e-06,6.374075099715285e-07,9.673900397932283e-06
1.0173817908091162e-06,2.3907738831832144e-06,6.388957164361365e-07,9.381328886524894e-06
1.0174325626090245e-06,2.378985216142388e-06,6.404550396515792e-07,9.093142599394692e-06
1.0171416726778774e-06,2.366826862025586e-06,6.421090089417907e-07,8.810162876235387e-06
1.0165012308356786e-06,2.354455402804294e-06,6.438742491859173e-07,8.533138217858504e-06
1.0155025038835286e-06,2.3420463391320413e-06,6.457574431545944e-07,8.262786179264113e-06
1.0141395858467802e-06,2.329795002309029e-06,6.477586220065359e-07,7.999865517936148e-06
1.0124089108420244e-06,2.3179052232594943e-06,6.498755024136981e-07,7.74521944016559e-06
1.0103052801714992e-06,2.306576883597649e-06,6.521033800883861e-07,7.499735058225732e-06
1.0078200886772206e-06,2.295994162999012e-06,6.544323970611775e-07,7.264252973543173e-06
1.0049458517400043e-06,2.2863151418385933e-06,6.568479317929635e-07,7.0394945507582885e-06
1.0016884184385642e-06,2.277663485414395e-06,6.593345658220532e-07,6.826044274456479e-06
9.980819427747532e-07,2.2701221489287034e-06,6.618799993569925e-07,6.624411833721794e-06
9.941940253677844e-07,2.2637340202711066e-06,6.64477322729925e-07,6.4351482803779175e-06
9.90114441173658e-07,2.258511833225576e-06,6.671243859754192e-07,6.258924307532121e-06
9.859356870962995e-07,2.2544475178326176e-06,6.698191891080126e-07,6.096506405178938e-06
9.817378295396722e-07,2.2515139487804127e-06,6.725551385337632e-07,5.9486560038055335e-06
9.775824081587976e-07,2.2496685172330762e-06,6.75320171983038e-07,5.816026613230456e-06
9.73512523280137e-07,2.248863814448104e-06,6.780986382983091e-07,5.6991078743552284e-06
9.695548207674038e-07,2.2490531037719918e-06,6.808731040175416e-07,5.598205931524797e-06
9.65722398414357e-07,2.2501838747910075e-06,6.83624740031316e-07,5.513440266829471e-06
9.620207272176404e-07,2.252189036940506e-06,6.863336044849768e-07,5.4447739924474516e-06
9.584560826822045e-07,2.25498791431662e-06,6.889796497439901e-07,5.392108901684218e-06
9.550415941032991e-07,2.2584991057347804e-06,6.91543541075486e-07,5.355425459401303e-06
9.517968484723156e-07,2.26265240411682e-06,6.940084208865452e-07,5.334857063914346e-06
9.487419955280339e-07,2.2673863950737808e-06,6.963635884169228e-07,5.330622977354446e-06
9.458923567710642e-07,2.2726365000474943e-06,6.986067245801099e-07,5.342898171457435e-06
9.432586541805319e-07,2.2783279301652923e-06,7.007407342195295e-07,5.3717162217519374e-06
9.408520977002426e-07,2.284375068149036e-06,7.027686735857592e-07,5.4169357565765705e-06
9.386897804318978e-07,2.290680443039371e-06,7.046951513732445e-07,5.478324500370291e-06
9.367953741745876e-07,2.297135380082275e-06,7.065337123479988e-07,5.555746147869614e-06
9.351938606866524e-07,2.303625194626823e-06,7.083094165435684e-07,5.649276924219845e-06
9.339049338627529e-07,2.3100329185226952e-06,7.100522230411156e-07,5.759147657554067e-06
9.329413089795877e-07,2.3162368308846627e-06,7.117904789588238e-07,5.885603829986921e-06
9.323137999996151e-07,2.3221061466575007e-06,7.135515784431379e-07,6.02878944729787e-06
9.320390984527369e-07,2.327502962907713e-06,7.153638217716505e-07,6.1886655230364895e-06
9.321434953395931e-07,2.332293825275265e-06,7.172535639495405e-07,6.364948794107378e-06
9.32659101736648e-07,2.3363646978575886e-06,7.192409143238763e-07,6.557078710319693e-06
9.336170303738774e-07,2.3396263252438567e-06,7.213378440424966e-07,6.764218135195743e-06
9.350437656378342e-07,2.3420058883640962e-06,7.235479316396988e-07,6.985275546230713e-06
9.369602667182188e-07,2.3434389345195042e-06,7.25866062652086e-07,7.218938763688328e-06
9.393799954039849e-07,2.3438723951146332e-06,7.282783088029394e-07,7.463718237320486e-06
9.423053729938434e-07,2.343269547477988e-06,7.307631757147857e-07,7.717990498673596e-06
9.457265607176876e-07,2.3416070719951105e-06,7.332940444673662e-07,7.980030563588047e-06
9.496265553416494e-07,2.3388675593880024e-06,7.358417879457149e-07,8.248042603628566e-06
9.539910849520832e-07,2.3350331630235037e-06,7.383770506406505e-07,8.5202052903039e-06
9.588162679858691e-07,2.3300840051983173e-06,7.408712600050639e-07,8.794730715567289e-06
9.641077294779699e-07,2.3240066095969205e-06,7.432961651108954e-07,9.06992194715865e-06
9.698715580254722e-07,2.3168131032017186e-06,7.456232607698171e-07,9.344212805439266e-06
9.761036712250058e-07,2.3085577863996367e-06,7.478238823638591e-07,9.616185948598778e-06
9.827837523014544e-07,2.2993326417849445e-06,7.498700899412244e-07,9.88456810001811e-06
9.898745362141441e-07,2.2892433627376e-06,7.517352949605987e-07,1.0148193140509247e-05
9.973243065576588e-07,2.278391025433107e-06,7.533932633113203e-07,1.0405944203651327e-05
1.005071436262041e-06,2.266878991989296e-06,7.548168558666096e-07,1.065671172868219e-05
1.0130500806085812e-06,2.2548382705171247e-06,7.559778241632673e-07,1.0899398156340184e-05
1.021194875233232e-06,2.242447907910682e-06,7.568469592138104e-07,1.1132972639960685e-05
1.0294420665726902e-06,2.229932842678706e-06,7.573945738049233e-07,1.1356548020130231e-05
1.0377274099211583e-06,2.217541680807085e-06,7.575920961803281e-07,1.1569434586995053e-05
1.0459845735630908e-06,2.2055184458479856e-06,7.574146125340048e-07,1.1771143714556099e-05
1.0541455328384364e-06,2.1940787084399148e-06,7.568422617002466e-07,1.1961356593216452e-05
1.0621408716009742e-06,2.1833966917801187e-06,7.558587565235384e-07,1.2139888337897932e-05
1.0698994985875332e-06,2.1736071921360247e-06,7.544489264099307e-07,1.2306667276713224e-05
1.077350207117825e-06,2.1648190292256084e-06,7.52599003725991e-07,1.2461724162216278e-05
1.084427156080482e-06,2.15713123981137e-06,7.503010594655046e-07,1.260515503731378e-05
1.0910777011404649e-06,2.1506419329463173e-06,7.475576006721685e-07,1.2737055345965285e-05
1.097266425217297e-06,2.145443340489529e-06,7.443801501174897e-07,1.2857472286806774e-05
1.1029703862662246e-06,2.141606308129015e-06,7.407830918604861e-07,1.2966387706889267e-05
1.1081705310753808e-06,2.139166509426319e-06,7.367798395879123e-07,1.3063718823637715e-05
1.1128498178109016e-06,2.1381255592284537e-06,7.323823467933824e-07,1.3149361036345125e-05
1.1169976819493505e-06,2.1384650797747383e-06,7.276012383278109e-07,1.3223285726573136e-05
1.1206100681465151e-06,2.14015765121856e-06,7.224478866688489e-07,1.3285632655579802e-05
1.1236838037618737e-06,2.143176123804196e-06,7.169377800783058e-07,1.333672104704445e-05
1.1262131790274008e-06,2.147512357109832e-06,7.110909296102058e-07,1.3376976505160651e-05
1.1281902513209998e-06,2.153189687958265e-06,7.049298902041674e-07,1.3406832881054037e-05
1.1296072276991982e-06,2.1602494930636642e-06,6.984783208605365e-07,1.3426672059981262e-05
1.130459408297015e-06,2.168724193089402e-06,6.917598749073944e-07,1.3436823252391267e-05
1.1307453978739568e-06,2.178628871707074e-06,6.847972407851297e-07,1.3437592562517673e-05
1.1304656357272021e-06,2.189982581143981e-06,6.776120172120797e-07,1.3429305209763346e-05
1.1296218709590612e-06,2.202831536542309e-06,6.702255551011099e-07,1.3412396483773364e-05
1.128216525818783e-06,2.2172472524288795e-06,6.626601698075199e-07,1.338756511260182e-05
1.1262518143304632e-06,2.2333068863605418e-06,6.54939030868885e-07,1.3355888390980685e-05
1.123730108838658e-06,2.251076862871584e-06,6.470841534251078e-07,1.3318780675843185e-05
1.1206562154059772e-06,2.270604837089228e-06,6.391143762405569e-07,1.3277819998608501e-05
1.1170398415634652e-06,2.291911590959286e-06,6.31045310956609e-07,1.3234550108915754e-05
1.1128955025158284e-06,2.314985406792131e-06,6.228911890943525e-07,1.3190346889498779e-05
1.1082422002448546e-06,2.339791539695837e-06,6.146668032478036e-07,1.3146435592036508e-05
1.1031050095822228e-06,2.3662932710933332e-06,6.06388145550335e-07,1.3104049092620426e-05
1.097514915161742e-06,2.3944646598637813e-06,5.98071938162235e-07,1.3064549680277404e-05
1.0915064639991528e-06,2.4242833964942506e-06,5.897347777226224e-07,1.3029384918520282e-05
1.085116302121787e-06,2.455709715077277e-06,5.813926450005397e-07,1.299995334537396e-05
1.0783868539828631e-06,2.488665026753556e-06,5.730613631358532e-07,1.2977504570701818e-05
1.0713781098482617e-06,2.523021263999476e-06,5.647568737696516e-07,1.2963098604450794e-05
1.0641764521650565e-06,2.558605561958929e-06,5.56493994941242e-07,1.295758522583996e-05
1.0568870128612179e-06,2.5952175650171416e-06,5.482852680612695e-07,1.2961585584031943e-05
1.049615861041259e-06,2.63264804215277e-06,5.40142736861485e-07,1.2975493765281614e-05
1.0424563618989927e-06,2.6706854415717148e-06,5.320831192364836e-07,1.2999498883472192e-05
1.0354842585896537e-06,2.7091117348840458e-06,5.241338600168896e-07,1.3033599148264765e-05
1.0287588702466423e-06,2.7477021883621573e-06,5.163359060586244e-07,1.3077592441315973e-05
1.0223264321735671e-06,2.786233070957129e-06,5.087403428623204e-07,1.3131061922531113e-05
1.01622354151119e-06,2.824488287926524e-06,5.014007677937639e-07,1.319338434886331e-05
1.0104803271348485e-06,2.8622601128870466e-06,4.943660916746793e-07,1.3263759797166213e-05
1.0051213037522527e-06,2.8993451027102484e-06,4.876772528955106e-07,1.3341242061631395e-05
1.0001651156077e-06,2.935537430786752e-06,4.813689306460969e-07,1.3424774817348362e-05
9.956278632668181e-07,2.970625285247185e-06,4.754730256470929e-07,1.3513250164166013e-05
9.915283283077135e-07,3.004396405733185e-06,4.7001937222113904e-07,1.3605564363170206e-05
9.8789045961326e-07,3.03665013051809e-06,4.6503410054115847e-07,1.3700634513180935e-05
9.84744871179598e-07,3.067204754446097e-06,4.60538257560844e-07,1.3797392878884455e-05
9.821313841431463e-07,3.0958927778581797e-06,4.5654668688039206e-07,1.389479204698463e-05
9.800970237946792e-07,3.1225506226279244e-06,4.5306662539731796e-07,1.3991811438915665e-05
9.786865794631927e-07,3.1470172237883996e-06,4.500974473973632e-07,1.4087445304098065e-05
9.779353845537078e-07,3.169146725437094e-06,4.476323350370964e-07,1.4180682216189575e-05
9.77871375576762e-07,3.1888251449928717e-06,4.456607288668477e-07,1.4270507191082035e-05
9.78518796508338e-07,3.205976216816953e-06,4.4417142215090406e-07,1.4355961435677755e-05
9.798953450192705e-07,3.2205522113907847e-06,4.431554701623887e-07,1.4436244205374335e-05
9.820063441028988e-07,3.232519960692502e-06,4.4260662292881185e-07,1.451076973883826e-05
9.848439957420814e-07,3.2418518535358656e-06,4.425201561738079e-07,1.4579123968613633e-05
9.88391458491284e-07,3.248521637309033e-06,4.428917071567847e-07,1.4640963142577325e-05
9.926245497569038e-07,3.2525045340272007e-06,4.4371566761124726e-07,1.4695934415310314e-05
9.97510393867352e-07,3.253782805830128e-06,4.449856327668727e-07,1.4743660520800547e-05
1.0030108804053341e-06,3.2523545777120445e-06,4.466991546600033e-07,1.4783759194374642e-05
1.0090925757960008e-06,3.2482462047625837e-06,4.4886149474789497e-07,1.4815845678461313e-05
1.0157321966134702e-06,3.2415270841374093e-06,4.5148314689822883e-07,1.4839519418531217e-05
1.022909942263192e-06,3.232313731369665e-06,4.5457435650107176e-07,1.4854366725128863e-05
1.0305979769435058e-06,3.2207529398640704e-06,4.5814119940908786e-07,1.4859988828436483e-05
1.038756269051738e-06,3.2069946244999438e-06,4.6218301901618327e-07,1.4856056131205149e-05
1.047338796945984e-06,3.1911741126392326e-06,4.666902590369989e-07,1.4842391956281318e-05
1.056301540184128e-06,3.1734124747555306e-06,4.7164348470575144e-07,1.4819046700536347e-05
1.0656022161539766e-06,3.153825930164406e-06,4.770149007144475e-07,1.4786294202429236e-05
1.0751933431042179e-06,3.1325307237589367e-06,4.827717729070521e-07,1.4744544469959012e-05
1.0850193520873734e-06,3.109640153981012e-06,4.888785649327274e-07,1.4694236975004952e-05
1.095021483784889e-06,3.085257574636985e-06,4.952969456692565e-07,1.4635780899981614e-05
1.105143727411157e-06,3.0594721309612587e-06,5.019854648168089e-07,1.4569555410552887e-05
1.115333761051047e-06,3.0323620416504364e-06,5.088986983378418e-07,1.4495920602457651e-05
1.1255395060139951e-06,3.0039988381535334e-06,5.159861514771637e-07,1.4415207458905744e-05
1.135707000773674e-06,2.9744454450084282e-06,5.231927866723395e-07,1.432775025039346e-05
1.1457840130206863e-06,2.9437549089561736e-06,5.304610432487356e-07,1.4234039030345765e-05
1.1557266929022543e-06,2.911982962131261e-06,5.377331932461415e-07,1.4134898218865304e-05
1.1655022400375362e-06,2.879216744703418e-06,5.449531555938521e-07,1.4031493910582626e-05
1.1750835505823451e-06,2.8456010389851663e-06,5.52067294225671e-07,1.3925162738799988e-05
1.1844404197376505e-06,2.8113374443010067e-06,5.590259918841657e-07,1.3817223155970582e-05
1.1935348254673815e-06,2.776654146369347e-06,5.657875767479283e-07,1.3708867789457602e-05
1.2023210526947172e-06,2.7417696311704825e-06,5.723212882617045e-07,1.360117577865601e-05
1.210747501846851e-06,2.706877440637354e-06,5.786050113768468e-07,1.3495250782301113e-05
1.2187578718063894e-06,2.6721594978028233e-06,5.846202040661615e-07,1.3392359457036568e-05
1.2262909204908195e-06,2.6378102165287126e-06,5.903499948535548e-07,1.3293919588181295e-05
1.2332804079951471e-06,2.6040473740813216e-06,5.957805156344568e-07,1.3201365084735815e-05
1.2396569392889654e-06,2.571100646360448e-06,6.009005193201498e-07,1.3116000657672231e-05
1.2453509315463362e-06,2.5391871437045207e-06,6.056981840610528e-07,1.303888791106001e-05
1.2502943344601586e-06,2.508494045724954e-06,6.101591131590042e-07,1.2970773184780076e-05
1.2544207562920118e-06,2.479178374633997e-06,6.142684426260523e-07,1.2912069980559644e-05
1.2576664769307458e-06,2.451370693102246e-06,6.180159292424298e-07,1.2862883781521715e-05
1.259973272720455e-06,2.4251702539834485e-06,6.214002547699155e-07,1.2823053247442907e-05
1.2612909900451346e-06,2.40063944713142e-06,6.244291598932547e-07,1.2792193950360675e-05
1.2615795692611134e-06,2.3778068970625422e-06,6.271152730204956e-07,1.2769737432031965e-05
1.2608139022252795e-06,2.35667573103501e-06,6.294712466151098e-07,1.2754963617623124e-05
1.2589907731012065e-06,2.3372314186210984e-06,6.315088821330665e-07,1.2747038704615605e-05
1.256130527438923e-06,2.319445681754198e-06,6.332416777637445e-07,1.2745061520756367e-05
1.252271021285177e-06,2.303275763539597e-06,6.346847749593593e-07,1.2748110302478133e-05
1.2474590989496143e-06,2.288666042020143e-06,6.358511437668975e-07,1.2755294672348282e-05
1.2417440070370687e-06,2.275552343951803e-06,6.367489796807843e-07,1.2765805063502756e-05
1.2351745141449751e-06,2.263859079712401e-06,6.373823285372533e-07,1.2778924828787711e-05
1.2277999273146577e-06,2.2534915469924204e-06,6.377539622037176e-07,1.279399967163168e-05
1.2196736242130061e-06,2.2443352313023254e-06,6.378690965851418e-07,1.2810402753020253e-05
1.2108580254315417e-06,2.2362629375352988e-06,6.377365428610271e-07,1.2827510654622716e-05
1.2014296054633249e-06,2.2291413936749697e-06,6.373661581550489e-07,1.2844674735561033e-05
1.1914802380896574e-06,2.2228331651311767e-06,6.367663803099343e-07,1.2861198806001144e-05
1.1811108586197912e-06,2.217196302781289e-06,6.359443439512465e-07,1.2876355289289688e-05
1.1704199727646853e-06,2.212083585552862e-06,6.34907314584064e-07,1.2889451930900258e-05
1.159497667121059e-06,2.207343238068905e-06,6.336634562310254e-07,1.2899938941447025e-05
1.148429264546225e-06,2.2028262920539628e-06,6.32220561430468e-07,1.2907518315833165e-05
1.137298588692462e-06,2.198402142873065e-06,6.305839022231889e-07,1.2912184595929821e-05
1.1261854358137457e-06,2.19397694295416e-06,6.287568906284524e-07,1.2914170760214273e-05
1.1151649023762642e-06,2.1895051449111864e-06,6.267459022868113e-07,1.2913861055642128e-05
1.104310634679294e-06,2.1849829126954874e-06,6.245655744655689e-07,1.291172828759814e-05
1.093694364523878e-06,2.1804244343157267e-06,6.222393910944265e-07,1.290829100425494e-05
1.0833799321315528e-06,2.175840614045614e-06,6.197947721524307e-07,1.2904057824917128e-05
1.073417615874483e-06,2.1712320442491004e-06,6.17256915999195e-07,1.289944538594272e-05
1.0638424907629898e-06,2.1665871502316427e-06,6.146461934586704e-07,1.2894718251635955e-05
1.054675561025687e-06,2.1618788126838607e-06,6.119808296512105e-07,1.2890008973937718e-05
1.0459267420808036e-06,2.1570636053599687e-06,6.092810215495971e-07,1.2885399343798579e-05
1.0376030830651712e-06,2.1520846900956582e-06,6.065686570481465e-07,1.288101226096884e-05
1.0297225985901218e-06,2.1468746836272308e-06,6.038633353634264e-07,1.2877098039763306e-05
1.022323963966133e-06,2.1413577002777584e-06,6.011803524346717e-07,1.2874091360284801e-05
1.015463264207044e-06,2.135455558471933e-06,5.985330845200907e-07,1.2872591651145595e-05
1.009202815900135e-06,2.1291032872887347e-06,5.959380555465599e-07,1.2873258488906212e-05
1.0036011774818435e-06,2.1222675744352897e-06,5.934191889944275e-07,1.2876670133781373e-05
9.987053021092103e-07,2.1149506780110247e-06,5.910070585508811e-07,1.288321515464826e-05
9.94545111489473e-07,2.107174282930332e-06,5.887332854565653e-07,1.2893052473393256e-05
9.91132831649232e-07,2.098961472533704e-06,5.86625342834741e-07,1.2906114719521815e-05
9.884641193132064e-07,2.090330386567701e-06,5.847037418636289e-07,1.292212831300771e-05
9.86518377270112e-07,2.081292750773296e-06,5.829802060137877e-07,1.2940672662307934e-05
9.85260898217771e-07,2.0718536517870547e-06,5.814575872134016e-07,1.2961321419393442e-05
9.846470765427687e-07,2.0620161292474288e-06,5.801319073587179e-07,1.2983814607642794e-05
9.846265614985805e-07,2.0517885227938012e-06,5.789947101551259e-07,1.300811069574936e-05
9.851477856806023e-07,2.041192533747653e-06,5.780340344620597e-07,1.3034280693695225e-05
9.861618400282041e-07,2.0302711523184986e-06,5.772343393082744e-07,1.3062359275324746e-05
9.876231543813524e-07,2.0190906633345157e-06,5.765769869897143e-07,1.3092255517459028e-05
9.894882755529862e-07,2.007731587085516e-06,5.760412106897831e-07,1.3123793602488976e-05
9.917140495393836e-07,1.9962751684588885e-06,5.756040839109016e-07,1.3156902817165754e-05
9.942541097978494e-07,1.9848011611122144e-06,5.752396763233869e-07,1.3191816379261182e-05
9.97055456635688e-07,1.973401838098738e-06,5.749194363443107e-07,1.3229099256600473e-05
1.0000591478151855e-06,1.962200216853611e-06,5.74613792490976e-07,1.3269514084933709e-05
1.00320573928362e-06,1.9513586837009738e-06,5.742927500773619e-07,1.3313852965215938e-05
1.006440308060343e-06,1.9410710898867096e-06,5.739261022349564e-07,1.3362805361576445e-05
1.0097120510448549e-06,1.931539238111513e-06,5.734859819444736e-07,1.3416875627101696e-05
1.0129708121099217e-06,1.922945208404234e-06,5.729506364835035e-07,1.3476342287328716e-05
1.0161646703826923e-06,1.9154395403131288e-06,5.723048404850697e-07,1.3541243623345775e-05
1.019239941696562e-06,1.909154392409116e-06,5.715360936296999e-07,1.3611388285905369e-05
1.022144583300284e-06,1.9042245368706658e-06,5.70631198832933e-07,1.3686386705384578e-05
1.0248324219809841e-06,1.9007926019791847e-06,5.695758204757758e-07,1.3765680877424264e-05
1.0272643907354805e-06,1.89899363880686e-06,5.683553121634927e-07,1.3848556499865772e-05
1.029408133651397e-06,1.898934774811673e-06,5.669562357264921e-07,1.3934152013268595e-05
1.0312371447345294e-06,1.900689255968484e-06,5.653683371052089e-07,1.402149107159707e-05
1.0327274448833022e-06,1.9043052468299027e-06,5.635849025356293e-07,1.410953581284549e-05
1.0338529397198514e-06,1.909813140486009e-06,5.61601377644137e-07,1.4197240026000455e-05
1.034583278736875e-06,1.9172208637121942e-06,5.594138746230896e-07,1.4283597264429288e-05
1.0348847460483276e-06,1.9265034988725328e-06,5.570184699440252e-07,1.436767744845032e-05
1.0347227032619705e-06,1.9376012717630064e-06,5.544122182531717e-07,1.4448644450992835e-05
1.0340663256773004e-06,1.9504296512483366e-06,5.515958392157432e-07,1.4525772001970843e-05
1.03289430396353e-06,1.964894268748681e-06,5.48575462250136e-07,1.4598467449931625e-05
1.0311961035195274e-06,1.98090588228422e-06,5.453614295175754e-07,1.4666281506634197e-05
1.0289678597316558e-06,1.998390247147263e-06,5.419670420814783e-07,1.4728887458168854e-05
1.0262082468176736e-06,2.017283857709246e-06,5.384107953332495e-07,1.4786041443705813e-05
1.0229179594119517e-06,2.037522708847724e-06,5.347196783259643e-07,1.4837537153813598e-05
1.0191017569494938e-06,2.0590483510881993e-06,5.3092864313283e-07,1.4883164407318988e-05
1.0147708157843162e-06,2.081832682665156e-06,5.270757260736956e-07,1.4922702968838785e-05
1.0099438304099648e-06,2.105889092862968e-06,5.2319661769518e-07,1.4955949887686496e-05
1.0046458430324952e-06,2.1312491809261608e-06,5.193224326059326e-07,1.4982726463480529e-05
9.98905630305286e-07,2.157922932818047e-06,5.154806682664913e-07,1.500286206000163e-05
9.927536203431105e-07,2.1858718925955186e-06,5.116961626794408e-07,1.5016194595703436e-05
9.862208285001481e-07,2.2150045757593355e-06,5.079908190038319e-07,1.502258468101018e-05
9.793392003199415e-07,2.245183925336134e-06,5.043840436392772e-07,1.5021911746296967e-05
9.72144076684742e-07,2.2762365083758173e-06,5.00894198589313e-07,1.5014057981716476e-05
9.646764877647886e-07,2.3079617204677555e-06,4.975392360370528e-07,1.4998949538790973e-05
9.56981739792316e-07,2.340142872399992e-06,4.943362458892796e-07,1.4976677097282233e-05
9.491040689793115e-07,2.3725610789723472e-06,4.913007080462969e-07,1.4947588405310308e-05
9.410811321971552e-07,2.4050090122780254e-06,4.884454379259433e-07,1.4912262404513427e-05
9.329422642842443e-07,2.4372977739897565e-06,4.857794126893013e-07,1.4871397873307824e-05
9.247097710474659e-07,2.469253900097581e-06,4.8330749910243e-07,1.4825686770617649e-05
9.164009604453888e-07,2.500710315485861e-06,4.810311053773017e-07,1.4775716667136106e-05
9.080322085335556e-07,2.5314966100265143e-06,4.789483409895593e-07,1.472192564435586e-05
8.996256106949627e-07,2.5614334249389384e-06,4.770533027944472e-07,1.4664614824159641e-05
8.91212671220516e-07,2.5903331247876253e-06,4.753362404825792e-07,1.460400734499918e-05
8.828296638984951e-07,2.618005062412943e-06,4.737862730439928e-07,1.4540316848514194e-05
8.745086890682102e-07,2.6442623825239656e-06,4.723959277668165e-07,1.4473780512198406e-05
8.662732301313051e-07,2.668926360496904e-06,4.711651383322909e-07,1.4404648997770896e-05
8.581403035895211e-07,2.6918272663327635e-06,4.701020684603439e-07,1.4333165728589236e-05
8.501238592709567e-07,2.7128070153151884e-06,4.692202267716093e-07,1.4259592871368066e-05
8.422355087881449e-07,2.731726470487691e-06,4.685351703617399e-07,1.418429908410144e-05
8.344838924355924e-07,2.7484698072553964e-06,4.680629209834837e-07,1.4107816263240604e-05
8.268752027917637e-07,2.762938783575489e-06,4.6781828701249077e-07,1.4030824247456742e-05
8.194163742163408e-07,2.775045296189976e-06,4.6781232576015635e-07,1.3954150990156134e-05
8.121190208238315e-07,2.784715953003724e-06,4.6805120073554496e-07,1.387878963889142e-05
8.049989915929475e-07,2.7919080346435867e-06,4.685384954917701e-07,1.3805857569801434e-05
7.980723770421327e-07,2.796622660652588e-06,4.692802167007754e-07,1.373651141075354e-05
7.913540861977321e-07,2.7989013036546423e-06,4.702889846760461e-07,1.3671858448738937e-05
7.848592852713436e-07,2.7988072259850087e-06,4.7158402147171743e-07,1.3612877393326712e-05
7.786047681731866e-07,2.7964117835435183e-06,4.7318638531243925e-07,1.3560364696170634e-05
7.726102275090318e-07,2.7917975754823864e-06,4.751120988381858e-07,1.3514909534027856e-05
7.668974652536182e-07,2.7850641768243006e-06,4.773676501458826e-07,1.3476884907886035e-05
7.614855986036321e-07,2.7763216730490108e-06,4.799511965412686e-07,1.3446445723356673e-05
7.563862516820667e-07,2.765678253091993e-06,4.828585539928812e-07,1.3423530451397705e-05
7.516025657890069e-07,2.753232391639149e-06,4.860881933977624e-07,1.3407867856796085e-05
7.471303144683143e-07,2.7390689570500547e-06,4.89639919711248e-07,1.3399002690437105e-05
7.429582705227846e-07,2.7232564135494012e-06,4.935095580586989e-07,1.3396343867414232e-05
7.39068180419589e-07,2.7058469524605166e-06,4.976856706896927e-07,1.3399199674222435e-05
7.354355290783154e-07,2.6868810933022997e-06,5.021498112683355e-07,1.3406780556264447e-05
7.320307281393397e-07,2.6663963992575558e-06,5.068790960590348e-07,1.3418208274175232e-05
7.288205229014678e-07,2.644438953710503e-06,5.118488931898972e-07,1.3432557915353185e-05
7.257691777032597e-07,2.6210743452766153e-06,5.170332019832528e-07,1.3448909480733245e-05
7.228393187769823e-07,2.5963919297433185e-06,5.224055606856331e-07,1.3466387088785782e-05
7.199941274440483e-07,2.570498399509934e-06,5.279441861801289e-07,1.3484181376459433e-05
7.172004859216033e-07,2.543509339162205e-06,5.336375344460388e-07,1.3501552456337376e-05
7.144298944438859e-07,2.5155528362322117e-06,5.394842320980639e-07,1.3517822714215049e-05
7.116565024479738e-07,2.486781953745599e-06,5.454869499572892e-07,1.3532380316598628e-05
7.088554196842077e-07,2.457377009678732e-06,5.516445635773383e-07,1.354469923416462e-05
7.060039756810951e-07,2.4275302128286053e-06,5.579474371548967e-07,1.3554355638476075e-05
7.030840118671397e-07,2.397427841501352e-06,5.643781067583458e-07,1.3561021964337465e-05
7.00081470523457e-07,2.3672475738728802e-06,5.709161438902268e-07,1.356444327505781e-05
6.969840905179528e-07,2.3371655685400045e-06,5.775432221968735e-07,1.356440331041449e-05
6.937813847955801e-07,2.3073544316072003e-06,5.842440377941015e-07,1.356068709710849e-05
6.904664137015145e-07,2.277972185053036e-06,5.910026033189543e-07,1.3553070277753767e-05
6.870348005162409e-07,2.24915384261642e-06,5.977979680075267e-07,1.3541339407429179e-05
6.834815268678073e-07,2.2210061197400767e-06,6.046027910322661e-07,1.3525293966971547e-05
6.79799954444159e-07,2.19360607624511e-06,6.113843115559359e-07,1.3504721860520345e-05
6.7598376964831e-07,2.167007296377455e-06,6.18106332920354e-07,1.3479387831375968e-05
6.720284845648081e-07,2.141246775400213e-06,6.247324047263341e-07,1.3449054321216072e-05
6.679308873744053e-07,2.116345319959711e-06,6.312293058451238e-07,1.341353945348809e-05
6.636896713282424e-07,2.0923074600421647e-06,6.375685851901386e-07,1.3372774504523185e-05
6.59308433633649e-07,2.0691297596390168e-06,6.437256801246989e-07,1.3326797911530001e-05
6.547977460214172e-07,2.0468157244532205e-06,6.496778103381715e-07,1.3275695368308486e-05
6.501754442452497e-07,2.0253870577855118e-06,6.554017987085357e-07,1.3219542374211246e-05
6.45465714562435e-07,2.004881311599693e-06,6.608728404088543e-07,1.3158380122466168e-05
6.406959901248548e-07,1.985337521320963e-06,6.660649022947746e-07,1.3092248254353912e-05
6.358927458787432e-07,1.9667874950398017e-06,6.709516599448859e-07,1.3021265494940316e-05
6.310800949726278e-07,1.9492650788742e-06,6.755068473845213e-07,1.2945677851968025e-05
6.26283606936637e-07,1.9328204786527226e-06,6.797046572611757e-07,1.2865816957277091e-05
6.215358924705853e-07,1.917518586884654e-06,6.835205292707928e-07,1.2782016282673869e-05
6.168772658627516e-07,1.9034209639735096e-06,6.869316748965286e-07,1.2694572641078445e-05
6.123501523983314e-07,1.8905723271251083e-06,6.89916615897582e-07,1.260375982136875e-05
6.079929447933341e-07,1.8790052675868599e-06,6.9245413668796e-07,1.2509826688143215e-05
6.038390911980763e-07,1.868754160089336e-06,6.945228156074991e-07,1.2412972350131294e-05
5.999216832103754e-07,1.8598626847525502e-06,6.961019908656717e-07,1.231335943779204e-05
5.962803561354553e-07,1.852378142221041e-06,6.97175171923336e-07,1.2211202605838372e-05
5.92968597808619e-07,1.8463369143942086e-06,6.977344933572968e-07,1.2106901514311846e-05
5.900583667546651e-07,1.841755132622847e-06,6.977827819292905e-07,1.200109867390383e-05
5.876370714148349e-07,1.8386348572460533e-06,6.973328763153349e-07,1.1894583272671581e-05
5.857970691257501e-07,1.8369788755421558e-06,6.964050124706944e-07,1.1788138781897278e-05
5.846234766746255e-07,1.8368004275562507e-06,6.950223248178803e-07,1.168245521691862e-05
5.8418759662054e-07,1.838123106186413e-06,6.932069766924543e-07,1.157812557395467e-05
5.845486086877493e-07,1.8409733918545757e-06,6.90979642729747e-07,1.147574165661095e-05
5.857566011820518e-07,1.8453695560086743e-06,6.883611933427554e-07,1.1376051645226704e-05
5.878509392247075e-07,1.851312304467056e-06,6.853740677686269e-07,1.1280025849018042e-05
5.9085766872815e-07,1.858781795714877e-06,6.820428490925157e-07,1.1188773715952356e-05
5.947896598674911e-07,1.8677377430948117e-06,6.783949678693126e-07,1.1103420842653757e-05
5.99647477529407e-07,1.8781162490610112e-06,6.74463363325924e-07,1.1025021085132557e-05
6.054194884588083e-07,1.8898254464970284e-06,6.702911388219483e-07,1.095448960595004e-05
6.120814010299033e-07,1.9027445529771682e-06,6.6593251581904e-07,1.0892540954379824e-05
6.195955234448954e-07,1.916726664772848e-06,6.614459419951534e-07,1.0839641193190727e-05
6.279113786547057e-07,1.931606665938789e-06,6.568851118829145e-07,1.079598982432431e-05
6.369695357127972e-07,1.947213538472095e-06,6.522946597173554e-07,1.0761536492866068e-05
6.467092151423261e-07,1.9633795868802633e-06,6.47710006680094e-07,1.0736016737499568e-05
6.570770629023973e-07,1.9799424660718885e-06,6.431591052162917e-07,1.0718984320140847e-05
6.680318728852485e-07,1.996745744245321e-06,6.386650571013659e-07,1.0709836307644817e-05
6.795420768617643e-07,2.0136432522726475e-06,6.342485539396772e-07,1.07078406372986e-05
6.915789144641755e-07,2.030503429346336e-06,6.299290673811257e-07,1.0712165611138378e-05
7.041146778884948e-07,2.047206680655449e-06,6.257238452856298e-07,1.072190831575747e-05
7.171295752908324e-07,2.063637992012654e-06,6.216462885381686e-07,1.0736130114111534e-05
7.306174409677849e-07,2.079687728733384e-06,6.177064738529556e-07,1.0753893303522523e-05
7.445825832992807e-07,2.0952648604626215e-06,6.139131300882986e-07,1.0774279203598904e-05
7.590309213028051e-07,2.1103068699216385e-06,6.102756046438633e-07,1.0796401796350619e-05
7.73961371122042e-07,2.12477182022592e-06,6.068066825132515e-07,1.0819443260908888e-05
7.893598003357894e-07,2.1386196437933103e-06,6.035256035131052e-07,1.0842680631082498e-05
8.051949898808204e-07,2.151799189738346e-06,6.004583720141286e-07,1.0865458292184116e-05
8.214181601324582e-07,2.164247071036092e-06,5.976338946103192e-07,1.0887131571020337e-05
8.37969004088987e-07,2.1758934177753413e-06,5.950782300967264e-07,1.0907032473854403e-05
8.547862013075244e-07,2.1866674908296347e-06,5.928103324402127e-07,1.0924471668497056e-05
8.71815337258396e-07,2.1965037305524783e-06,5.908399884145583e-07,1.0938778918078751e-05
8.890086691482719e-07,2.205356190715793e-06,5.891689681144909e-07,1.0949357435915499e-05
9.063179467137888e-07,2.2132169669298145e-06,5.8779550604122e-07,1.0955696922300173e-05
9.236873926388069e-07,2.2201190065340956e-06,5.867169272973345e-07,1.0957340881151804e-05
9.410516863066748e-07,2.2261158335605684e-06,5.859272119200707e-07,1.095385359848302e-05
9.583369145004341e-07,2.231255130122216e-06,5.854136275236736e-07,1.0944811163047883e-05
9.754621212365275e-07,2.235566543503609e-06,5.85156291988001e-07,1.0929813140046642e-05
9.923417214648113e-07,2.239063922259093e-06,5.851296234056072e-07,1.0908495979254098e-05
1.0088883329941698e-06,2.241748557445761e-06,5.853041789189062e-07,1.0880534219603007e-05
1.0250160286744714e-06,2.2436094343369774e-06,5.856484080173323e-07,1.0845649613331122e-05
1.0406443102650938e-06,2.244625378342469e-06,5.86129213080795e-07,1.0803648023248656e-05
1.055701318828427e-06,2.244771720998848e-06,5.867117069670351e-07,1.075446678409698e-05
1.0701247973722456e-06,2.244031634096808e-06,5.873598435727481e-07,1.0698215862307678e-05
1.0838603305199116e-06,2.2424063188631987e-06,5.880371082470171e-07,1.0635209720151073e-05
1.0968582612689725e-06,2.2399152586569092e-06,5.887063311191977e-07,1.0565956799498097e-05
1.1090723131796931e-06,2.236586881446309e-06,5.893316037635601e-07,1.0491076369447695e-05
1.120459679711951e-06,2.2324482966208204e-06,5.898839481009125e-07,1.041118514922616e-05
1.1309799144110024e-06,2.2275219761315857e-06,5.903461579918743e-07,1.0326825652182604e-05
1.140593646450521e-06,2.221830341990211e-06,5.907127950988874e-07,1.023845337826525e-05
1.1492645300265302e-06,2.2154001960575896e-06,5.90987326486423e-07,1.0146453058774485e-05
1.156964573296529e-06,2.208261359822545e-06,5.911789227457612e-07,1.0051159384596891e-05
1.1636783954557849e-06,2.2004499086040793e-06,5.91299149950723e-07,9.95288959551642e-06
1.1694017648317063e-06,2.192025818556848e-06,5.913595679390164e-07,9.852039706020347e-06
1.174134980672012e-06,2.1830951002512087e-06,5.913708938406638e-07,9.74925770361266e-06
1.1778777877511835e-06,2.1738210979015307e-06,5.91341982852769e-07,9.645562914561034e-06
1.1806322027398012e-06,2.1644190661996134e-06,5.91277673683591e-07,9.542278655646088e-06
1.182410075745383e-06,2.155135744681188e-06,5.911777653182372e-07,9.440830337573199e-06
1.183235241587434e-06,2.1462192227419284e-06,5.910385316021394e-07,9.342545941309783e-06
1.183137136018041e-06,2.137888629679437e-06,5.908551982656639e-07,9.24855677643537e-06
1.1821436369733543e-06,2.1303187072791282e-06,5.90624564256485e-07,9.159873355108007e-06
1.180279572612554e-06,2.12364797345684e-06,5.903480192018037e-07,9.07760030538964e-06
1.1775692068911422e-06,2.118003554703105e-06,5.900337167342847e-07,9.003096278086906e-06
1.174038801095215e-06,2.1135303860776798e-06,5.896961800606197e-07,8.93795282031745e-06
1.1697168045826322e-06,2.1104150392455703e-06,5.89352865051111e-07,8.883864569531484e-06
1.1646318116258923e-06,2.1088942242588927e-06,5.890192278444973e-07,8.842500498307738e-06
1.1588112723511172e-06,2.109239638079614e-06,5.887053969176994e-07,8.815413580281919e-06
1.1522814301422195e-06,2.111719851279601e-06,5.884154026402833e-07,8.803988780909227e-06
1.1450663428119098e-06,2.1165554300616785e-06,5.881476866673615e-07,8.809422530282335e-06
1.137186606905613e-06,2.1238918021401384e-06,5.878963191882771e-07,8.832722992994769e-06
1.1286592503128521e-06,2.133797880279261e-06,5.876526321581002e-07,8.874711744736157e-06
1.1194989237622992e-06,2.1462765990974202e-06,5.874074057540796e-07,8.936007199949731e-06
1.1097222003295807e-06,2.161276259453301e-06,5.87152861413832e-07,9.016986694323847e-06
1.099356540535398e-06,2.178701111930393e-06,5.868826325874463e-07,9.117740995569445e-06
1.088449008195718e-06,2.1984201706940043e-06,5.865912081958947e-07,9.238036829502507e-06
1.0770665847207113e-06,2.220280548992638e-06,5.862751478313472e-07,9.377302775619079e-06
1.0652868085771212e-06,2.244130586720388e-06,5.859349789546653e-07,9.53466338114769e-06
1.0531853223151596e-06,2.2698404547891648e-06,5.855765940322357e-07,9.709030305325548e-06
1.0408280717459765e-06,2.29731000429604e-06,5.85210940602482e-07,9.899209459150882e-06
1.0282713535825316e-06,2.326470775570276e-06,5.848501767287269e-07,1.0103966061301154e-05
1.0155665737280354e-06,2.3572858701713514e-06,5.845027577368404e-07,1.0322034619298522e-05
1.0027642182923036e-06,2.3897401582808947e-06,5.841720109345094e-07,1.0552101028309963e-05
9.899142692346277e-07,2.4238187462019043e-06,5.838579376608312e-07,1.0792776910092872e-05
9.7706373785068e-07,2.4594827755230786e-06,5.835602770307329e-07,1.104258049965488e-05
9.642543787083859e-07,2.496654893391716e-06,5.832828039706161e-07,1.1299947390264164e-05
9.515257236557327e-07,2.535222182807759e-06,5.830367358395729e-07,1.1563268110542235e-05
9.389245278958059e-07,2.575051665062846e-06,5.828398799995021e-07,1.1830915308037765e-05
9.265132298365679e-07,2.6160051427729e-06,5.827112694181949e-07,1.2101248960768105e-05
9.143718592816141e-07,2.657945989556869e-06,5.826647407457796e-07,1.2372622032526407e-05
9.025952734249157e-07,2.700737821143491e-06,5.827060390868922e-07,1.2643382293546944e-05
8.912872903025146e-07,2.7442384927785717e-06,5.828334542845534e-07,1.2911857931236135e-05
8.805516860903998e-07,2.788295514063637e-06,5.830388383043443e-07,1.3176360284306125e-05
8.70482030096718e-07,2.8327447317191896e-06,5.833088501892287e-07,1.343522104880229e-05
8.611540360235816e-07,2.877407657433678e-06,5.836276627672651e-07,1.3686826976537673e-05
8.526238209662088e-07,2.922085382888396e-06,5.839800306247586e-07,1.3929648770087362e-05
8.449310665032162e-07,2.9665540230318208e-06,5.843519524871365e-07,1.4162299624717496e-05
8.38102464743502e-07,3.0105666909180644e-06,5.847287752511448e-07,1.4383608901417847e-05
8.321538134315738e-07,3.053860502729764e-06,5.850948832143039e-07,1.4592688700615366e-05
8.270908668192445e-07,3.096167429103635e-06,5.854369273082918e-07,1.4789014777646948e-05
8.229084796807326e-07,3.1372315465662264e-06,5.857460232012761e-07,1.4972486668002938e-05
8.195902636117097e-07,3.1768256743462713e-06,5.860154238073385e-07,1.5143381639023108e-05
8.171109918871469e-07,3.2147524171599293e-06,5.862372637952019e-07,1.530221418712295e-05
8.154421293976693e-07,3.250829850822708e-06,5.864030139890441e-07,1.544958337384264e-05
8.145592377239471e-07,3.2848811439046778e-06,5.865067179007517e-07,1.5586044660037058e-05
8.144462405621206e-07,3.31673883285153e-06,5.8654622069548e-07,1.571203015967502e-05
8.15093203411138e-07,3.34625066811727e-06,5.865210537640008e-07,1.5827844754968372e-05
8.16490665410322e-07,3.373274814395293e-06,5.864306017805548e-07,1.593370839625512e-05
8.186252277211875e-07,3.3976712188205505e-06,5.862738343950938e-07,1.602979602880546e-05
8.214770101786755e-07,3.4192987741324887e-06,5.860484331566805e-07,1.6116257409064746e-05
8.250170086037944e-07,3.4380202200250718e-06,5.857493070139307e-07,1.6193222535330128e-05
8.292050989106809e-07,3.4537121150588523e-06,5.853684667503457e-07,1.6260830960443148e-05
8.339908672414582e-07,3.4662718310944147e-06,5.848963131928139e-07,1.6319280445593947e-05
8.393174741075634e-07,3.4756158081522766e-06,5.843224816341338e-07,1.6368807774733458e-05
8.451264898933634e-07,3.481675675340108e-06,5.836354793216231e-07,1.6409621151396047e-05
8.513610360056707e-07,3.484403243110788e-06,5.82822462455701e-07,1.6441954906066153e-05
8.579665131765894e-07,3.4837829684856134e-06,5.818705430479854e-07,1.6466287943099646e-05
8.648891055210026e-07,3.4798385991935136e-06,5.80768978493094e-07,1.6483530973743148e-05
8.720721377295199e-07,3.472627312518755e-06,5.795099655081903e-07,1.649502070729703e-05
8.794525783866078e-07,3.462227083165342e-06,5.780876058125716e-07,1.6502375780874807e-05
8.869606030643339e-07,3.4487241368267783e-06,5.76497496707391e-07,1.6507332501267306e-05
8.945213943197006e-07,3.4322032711025787e-06,5.747374124689278e-07,1.65116086790284e-05
9.020568375091455e-07,3.412742297386142e-06,5.72807100481497e-07,1.651681064009097e-05
9.094875438864092e-07,3.39041245909109e-06,5.707067948073397e-07,1.652437298925884e-05
9.167358177561058e-07,3.3652861931625723e-06,5.684357263514954e-07,1.6535506766296258e-05
9.237281173107452e-07,3.3374480607165694e-06,5.659922503498398e-07,1.6551164681682873e-05
9.303972412521585e-07,3.307000000081712e-06,5.633753412007155e-07,1.6572041048501946e-05
9.366858974784443e-07,3.2740569668887863e-06,5.605853265629339e-07,1.6598588345673334e-05
9.425487259624149e-07,3.238737213938677e-06,5.576233069760279e-07,1.663101798161743e-05
9.47948801398021e-07,3.2011535664463286e-06,5.544904919665572e-07,1.6669280866181274e-05
9.528520456163252e-07,3.161409497829805e-06,5.511878210477824e-07,1.6713061728451195e-05
9.5722446595231e-07,3.1196009891743e-06,5.477153153936424e-07,1.6761831092852068e-05
9.61032179488093e-07,3.07582557746809e-06,5.440719509752566e-07,1.6814961490881953e-05
9.64243962157329e-07,3.0301998145820207e-06,5.402569923823669e-07,1.6871859402776673e-05
9.668366892149365e-07,2.982878609287605e-06,5.362717518162463e-07,1.6932044032422087e-05
9.688010307279391e-07,2.934064160155847e-06,5.32120845201131e-07,1.6995147338021414e-05
9.701425827897616e-07,2.8839971060260024e-06,5.27812428991757e-07,1.7060871451203187e-05
9.70876770438856e-07,2.832933590402505e-06,5.233576009366544e-07,1.712895063686193e-05
9.710221981054134e-07,2.7811254259813183e-06,5.187709187463219e-07,1.7199140678230084e-05
9.705990532160115e-07,2.7288192015339184e-06,5.140709837809696e-07,1.727122736198084e-05
9.696330878046195e-07,2.6762682147673096e-06,5.092795780669933e-07,1.734502350773798e-05
9.681583202618904e-07,2.623741507636131e-06,5.044233726303341e-07,1.742034649761955e-05
9.662132078277618e-07,2.571523649803716e-06,4.9953818610727e-07,1.7496994109690356e-05
9.638335717116511e-07,2.5199039004745565e-06,4.946678906058082e-07,1.7574713025930865e-05
9.610490351114942e-07,2.4691583536588087e-06,4.898565124686376e-07,1.7653153546302333e-05
9.578849754367524e-07,2.4195352235354284e-06,4.851417949274869e-07,1.7731850490410676e-05
9.543666243562222e-07,2.371248216339848e-06,4.805547325825191e-07,1.781024231575921e-05
9.505223852569156e-07,2.324474992435019e-06,4.761219579380062e-07,1.7887674798838284e-05
9.463873760858512e-07,2.279358151386221e-06,4.718692911943982e-07,1.79633817899927e-05
9.420072742709452e-07,2.236008879160784e-06,4.6782791437618933e-07,1.8036490769992802e-05
9.374388952995638e-07,2.1945121243707784e-06,4.6403863921669533e-07,1.8106059706860284e-05
9.3274682422076e-07,2.154928744515443e-06,4.605472239849372e-07,1.817111937919336e-05
9.279987118781955e-07,2.117293060721401e-06,4.573953860285926e-07,1.823069751946863e-05
9.232602003856272e-07,2.0816129747897426e-06,4.5461769084759963e-07,1.828381330432208e-05
9.185910016469845e-07,2.0478785782908363e-06,4.5224589985854083e-07,1.832947065240969e-05
9.140444974702305e-07,2.0160744551668657e-06,4.503147963506592e-07,1.836668767728494e-05
9.096704919207908e-07,1.986190364354249e-06,4.4886277261080897e-07,1.8394563845738715e-05
9.055181851445975e-07,1.9582316214101304e-06,4.479271974664259e-07,1.841236438097936e-05
9.0163678068064e-07,1.9322270507516795e-06,4.475407351221483e-07,1.841957960587334e-05
8.98073634664806e-07,1.90822624655906e-06,4.4773061601267226e-07,1.841590484080718e-05
8.948709991787468e-07,1.886282660354775e-06,4.4851950919848535e-07,1.840115263845383e-05
8.920633450479713e-07,1.8664321586198704e-06,4.4992775994673955e-07,1.837518704042225e-05
8.896774693550213e-07,1.8486834518757545e-06,4.5197376078748073e-07,1.833792383710029e-05
8.877347876901838e-07,1.8330244620102428e-06,4.5467057542207996e-07,1.828934567027124e-05
8.862536373050018e-07,1.8194339166033118e-06,4.5802204871852104e-07,1.8229486820140838e-05
8.852492379529335e-07,1.8078886681869824e-06,4.620202107441949e-07,1.815840455909813e-05
8.847305222973025e-07,1.7983623611410667e-06,4.6664426804609535e-07,1.807619774076435e-05
8.846976918097967e-07,1.790815846946194e-06,4.718617079062809e-07,1.7983120726668788e-05
8.851435342788246e-07,1.7851875974749348e-06,4.776303906364753e-07,1.787971323983188e-05
8.860561156634552e-07,1.7813924962880688e-06,4.839005993269898e-07,1.7766799083886218e-05
8.874215904477394e-07,1.7793288977835385e-06,4.906177747249868e-07,1.7645354774404093e-05
8.892271284594885e-07,1.778887407089717e-06,4.97727090172696e-07,1.7516361260356925e-05
8.914609311498691e-07,1.7799554871332706e-06,5.051781506085395e-07,1.738070762992727e-05
8.941092574579167e-07,1.7824169798650173e-06,5.129250663858067e-07,1.7239214675504833e-05
8.971544552233797e-07,1.7861480333980797e-06,5.209214911521408e-07,1.7092817401693852e-05
9.005750216519591e-07,1.7910117763964932e-06,5.291160852246092e-07,1.6942762992621993e-05
9.043458177581985e-07,1.7968566904472096e-06,5.374514967403703e-07,1.6790630128701608e-05
9.084375493115612e-07,1.8035223072397079e-06,5.458657958606322e-07,1.6638182123654268e-05
9.128153758073963e-07,1.8108516259182469e-06,5.542953792582861e-07,1.6487203581958386e-05
9.174378457079909e-07,1.8187061451102341e-06,5.626783625803062e-07,1.633939708262661e-05
9.222588944848921e-07,1.826975776067297e-06,5.709567163203024e-07,1.6196319700594315e-05
9.272325417979605e-07,1.8355782496271816e-06,5.790776925654992e-07,1.6059333974698083e-05
9.323167082153205e-07,1.8444497025926566e-06,5.869966297810165e-07,1.592957446688104e-05
9.374733769722616e-07,1.853531223381942e-06,5.946785013117374e-07,1.5807926343384056e-05
9.426646609327866e-07,1.8627566522435318e-06,6.020947644151468e-07,1.5695008345305778e-05
9.478480804412893e-07,1.872047449739491e-06,6.092188585352885e-07,1.559116201649661e-05
9.529748518166792e-07,1.8813152197569103e-06,6.160235690376185e-07,1.5496452455779818e-05
9.579913728368402e-07,1.890465238072097e-06,6.22479652214309e-07,1.541069124808785e-05
9.628435338763521e-07,1.8993985031454709e-06,6.285563994204528e-07,1.5333487980309762e-05
9.67483464141069e-07,1.908014419119341e-06,6.342237156309377e-07,1.5264316129754835e-05
9.718750816747736e-07,1.916212206725384e-06,6.394533394186322e-07,1.5202574963717322e-05
9.759940544561858e-07,1.9238936504487457e-06,6.442190085033187e-07,1.514764762650397e-05
9.798234546146246e-07,1.930975639910685e-06,6.484968923051032e-07,1.5098954430675304e-05
9.833518318092668e-07,1.9374106350003032e-06,6.522674713066987e-07,1.5055989500926531e-05
9.86575902077499e-07,1.943199758163721e-06,6.555180493041088e-07,1.5018345033651904e-05
9.895012756496663e-07,1.948384235451026e-06,6.582425039928095e-07,1.4985727662926626e-05
9.921364493059843e-07,1.95302269488012e-06,6.60437900675013e-07,1.4957945040550653e-05
9.944850802896277e-07,1.9571862356957434e-06,6.621017923129696e-07,1.4934846580519735e-05
9.96543119871649e-07,1.960988735287e-06,6.632318639344904e-07,1.4916237638033343e-05
9.9830057889144e-07,1.9646250998643123e-06,6.638263424093137e-07,1.490181685641369e-05
9.997446038419552e-07,1.968376091361159e-06,6.63884743542555e-07,1.4891189615115015e-05
1.0008620058166661e-06,1.9725684032435336e-06,6.634094528415741e-07,1.4883952353196302e-05
1.0016399568253321e-06,1.977516961448761e-06,6.624073111781888e-07,1.4879769175660924e-05
1.0020643130937008e-06,1.983492695612524e-06,6.60890675265615e-07,1.4878378608918551e-05
1.0021179295888461e-06,1.990733123956217e-06,6.588773695563246e-07,1.4879550344361747e-05
1.0017812848923394e-06,1.999470418616233e-06,6.563883794442756e-07,1.4883044044398474e-05
1.0010344404152823e-06,2.009944463681618e-06,6.534447177227682e-07,1.4888586976485968e-05
9.998581574188835e-07,2.0223920632184714e-06,6.500660967174538e-07,1.489585163262891e-05
9.982335560958757e-07,2.0370215802844896e-06,6.462707848815267e-07,1.4904424400310813e-05
9.961416862958012e-07,2.053989991528673e-06,6.420752779352294e-07,1.491378859430041e-05
9.935638505940806e-07,2.073401047304036e-06,6.374954682756133e-07,1.492334440295946e-05
9.904818416278123e-07,2.0953207171046435e-06,6.325492376833654e-07,1.4932456374126056e-05
9.86877792699604e-07,2.1197834886051905e-06,6.272572585924358e-07,1.494050532427354e-05
9.827352685756501e-07,2.1467917624855687e-06,6.216425758397215e-07,1.4946946514803103e-05
9.780427437969586e-07,2.1763359880221176e-06,6.157312410089496e-07,1.4951375350676547e-05
9.72797399174005e-07,2.208431164540026e-06,6.095522942105778e-07,1.4953544771938044e-05
9.670061047433929e-07,2.2431394001361245e-06,6.031359043002678e-07,1.4953292120184408e-05
9.60684294182572e-07,2.280559683241258e-06,5.965117758204462e-07,1.4950439665324228e-05
9.538569247862436e-07,2.3207869183368528e-06,5.897092401479659e-07,1.4944752594499735e-05
9.465614793785851e-07,2.363866149684134e-06,5.827582996217823e-07,1.493594972105659e-05
9.3884703874335e-07,2.4097733817087367e-06,5.75690486078781e-07,1.492372044588786e-05
9.307676039565279e-07,2.458427689889222e-06,5.685392573535343e-07,1.4907731936357221e-05
9.223773425925572e-07,2.509717897065899e-06,5.613403718044931e-07,1.4887641776290204e-05
9.137343363902249e-07,2.5635287366565943e-06,5.541319066561391e-07,1.4863152520315576e-05
9.0490765895978e-07,2.619756539789452e-06,5.46952407911169e-07,1.483411894062534e-05
8.959779512645832e-07,2.6783098824361948e-06,5.398374555392807e-07,1.4800626777235752e-05
8.870304731742682e-07,2.739095498357397e-06,5.328171147619896e-07,1.4762955670113488e-05
8.781490569499182e-07,2.8019933664746983e-06,5.259158151287367e-07,1.4721463997908307e-05
8.694148807381052e-07,2.8668356879139703e-06,5.191551179140385e-07,1.4676486491734551e-05
8.609040076087765e-07,2.9334014688273966e-06,5.125573849214807e-07,1.4628301592485348e-05
8.526821849169469e-07,3.0014184207042538e-06,5.061464343282198e-07,1.457722006306177e-05
8.448019655186529e-07,3.0705645445285782e-06,4.99945575473061e-07,1.4523746610606958e-05
8.373020483004289e-07,3.1404733598044868e-06,4.939764519639632e-07,1.446865106180711e-05
8.302075367526956e-07,3.210743461346302e-06,4.882590837073486e-07,1.4412905736820706e-05
8.235328172375738e-07,3.280949598998848e-06,4.828115929365278e-07,1.4357575601385479e-05
8.172864852432473e-07,3.3506558161607493e-06,4.776496534424163e-07,1.4303702421888416e-05
8.114765616631709e-07,3.4194329919051082e-06,4.727860642042902e-07,1.4252196957072628e-05
8.061139913036734e-07,3.4868783336871306e-06,4.682295286933311e-07,1.4203766257011893e-05
8.012105673389212e-07,3.5526253052322275e-06,4.6398371433603494e-07,1.415888043408345e-05
7.967722575603741e-07,3.616336774367086e-06,4.6004905234956133e-07,1.4117767180038932e-05
7.927967253809308e-07,3.6776944106616515e-06,4.56424971582156e-07,1.4080426509761703e-05
7.89280432633699e-07,3.7364024857768236e-06,4.531088741566829e-07,1.4046654646529254e-05
7.862295142151726e-07,3.7922041759674555e-06,4.5009424565665284e-07,1.4016066426290232e-05
7.83663594703499e-07,3.844891960846062e-06,4.4737221548838644e-07,1.398812259273438e-05
7.816081314017433e-07,3.894297824366948e-06,4.4493581294633455e-07,1.3962173087177133e-05
7.800818834302301e-07,3.940268872686149e-06,4.427828465961025e-07,1.3937516261853446e-05
7.790892124729788e-07,3.98264826028916e-06,4.409150300044482e-07,1.3913467610231854e-05
7.786200679985838e-07,4.021270446828511e-06,4.393345975617591e-07,1.3889423139576633e-05
7.78653058725333e-07,4.05596426897284e-06,4.380416369906333e-07,1.3864896169252838e-05
7.791568283919565e-07,4.086557742453492e-06,4.370346562576175e-07,1.383952571156104e-05
7.800906471812825e-07,4.112882956523681e-06,4.3631367045489475e-07,1.3813069794527835e-05
7.814075320449824e-07,4.134780109289725e-06,4.3588148074431705e-07,1.3785384055834257e-05
7.830589065271047e-07,4.15209995334301e-06,4.3574129878510246e-07,1.3756384126021896e-05
7.849970550071363e-07,4.164705473328324e-06,4.358952152110856e-07,1.3725997864536348e-05
7.871763178027425e-07,4.172473939860418e-06,4.3634601309822665e-07,1.3694112846997974e-05
7.895576272978798e-07,4.175300201463733e-06,4.370973164122881e-07,1.366053479782167e-05
7.921146947440488e-07,4.173104907955415e-06,4.3814931995925646e-07,1.3624985864104525e-05
7.948334686187803e-07,4.165847427459732e-06,4.3949497933037957e-07,1.3587162630654427e-05
7.977031686329819e-07,4.153533336653567e-06,4.4111994652360754e-07,1.3546822385352964e-05
8.007084438213927e-07,4.1362086760031705e-06,4.430040782186199e-07,1.3503828106331364e-05
8.038308995010466e-07,4.113946413858256e-06,4.451224660579436e-07,1.345813849967072e-05
8.070573275250313e-07,4.086839725858108e-06,4.474458371549629e-07,1.3409791042807212e-05
8.103849386750316e-07,4.0550090716888425e-06,4.4994062401556815e-07,1.335889523630537e-05
8.138187312446797e-07,4.01861151203809e-06,4.525692101810993e-07,1.3305607246109115e-05
8.173657217198093e-07,3.977838261708832e-06,4.5529137226231525e-07,1.3250095482106358e-05
8.21030796066569e-07,3.9329032086815454e-06,4.5806782984131096e-07,1.319256318581722e-05
8.248138932295005e-07,3.8840345676666904e-06,4.608636781311949e-07,1.313332901373945e-05
8.287079884034955e-07,3.831471530436564e-06,4.6364821485681346e-07,1.3072877877535422e-05
8.326983522165399e-07,3.7754597192842217e-06,4.6639310090397405e-07,1.3011835466378332e-05
8.36762989164051e-07,3.716249255339327e-06,4.6907333930534394e-07,1.2950890988159488e-05
8.408738562481653e-07,3.654100725496389e-06,4.716707193248294e-07,1.2890707177777185e-05
8.449991113692424e-07,3.589288826804748e-06,4.7417616341669503e-07,1.2831842949340542e-05
8.491064284588918e-07,3.522095878540008e-06,4.765889098286515e-07,1.2774702203266795e-05
8.531657097803579e-07,3.4528055126736083e-06,4.789131708513028e-07,1.2719542549570093e-05
8.571492271605112e-07,3.381704060316595e-06,4.811543935771915e-07,1.2666560140888432e-05
8.610289378969055e-07,3.30908194051394e-06,4.83316298837014e-07,1.2615982895007665e-05
8.647739122102493e-07,3.235228575588695e-06,4.85398718606354e-07,1.2568092262121519e-05
8.683519585435164e-07,3.160425268763645e-06,4.873969382608372e-07,1.2523177172510522e-05
8.717346378595091e-07,3.0849412886614312e-06,4.893028155653351e-07,1.2481474063552185e-05
8.749015071233314e-07,3.009031646470576e-06,4.911056334095554e-07,1.2443147123309713e-05
8.778421562646713e-07,2.93293733746288e-06,4.927917406237833e-07,1.240832425779689e-05
8.805553361369749e-07,2.8568906526773783e-06,4.9434535143282e-07,1.2377135847257256e-05
8.830441621757319e-07,2.781117694230507e-06,4.957510244177278e-07,1.2349744123608568e-05
8.853106321816303e-07,2.7058320808093564e-06,4.969945489956921e-07,1.2326384699848002e-05
8.873538410692135e-07,2.6312303634667148e-06,4.980612304754001e-07,1.2307354848350447e-05
8.891711440932587e-07,2.55749771218762e-06,4.989344285362131e-07,1.229292910160274e-05
8.907587548883127e-07,2.4848139339003778e-06,4.995960046206125e-07,1.2283277969615642e-05
8.921102338856941e-07,2.4133480167297934e-06,5.000285778516405e-07,1.2278419579851918e-05
8.932145872007239e-07,2.3432468262157297e-06,5.002189141880846e-07,1.2278203713702327e-05
8.940570537127411e-07,2.2746306957563588e-06,5.001595579433886e-07,1.2282336374585953e-05
8.946225888154823e-07,2.207596662905948e-06,4.998469457031085e-07,1.2290430144681165e-05
8.948983955314968e-07,2.1422237420504916e-06,4.992790141145215e-07,1.2302051785725085e-05
8.948748470086607e-07,2.07858152447633e-06,4.984551730351728e-07,1.2316749370410905e-05
8.945476618531016e-07,2.0167425577120945e-06,4.973771822185432e-07,1.2334057505628571e-05
8.939190866454418e-07,1.956791556489528e-06,4.960493451718814e-07,1.2353489653057996e-05
8.929942635363384e-07,1.898828762534127e-06,4.944799730135531e-07,1.237452282629916e-05
8.917760710819319e-07,1.8429705058182216e-06,4.926839675055088e-07,1.2396574728545472e-05
8.902625101091184e-07,1.7893459094456661e-06,4.906817275992021e-07,1.2418987386718645e-05
8.884464454209303e-07,1.7380889111345677e-06,4.884943421509185e-07,1.2441037440455909e-05
8.863178775693013e-07,1.6893291103345943e-06,4.861410053674784e-07,1.246196970922723e-05
8.838685485964194e-07,1.6431833099772743e-06,4.836398875609699e-07,1.248102777797252e-05
8.810946328825355e-07,1.599751794163522e-06,4.810086943508456e-07,1.2497459306024692e-05
8.779941545037334e-07,1.5591250982068825e-06,4.782648508358633e-07,1.251050445471816e-05
8.745626743042774e-07,1.5213935118071091e-06,4.754276458656292e-07,1.2519393758584347e-05
8.707921795591966e-07,1.4866436287841219e-06,4.7251982358364963e-07,1.2523360942884215e-05
8.666733695136131e-07,1.454942915961028e-06,4.695657972569503e-07,1.2521660464015134e-05
8.622008745091795e-07,1.426327377048671e-06,4.665905854206806e-07,1.2513591859222065e-05
8.573802826328685e-07,1.4007993058382299e-06,4.636224184424223e-07,1.2498534538184108e-05
8.522311700789855e-07,1.378335356406988e-06,4.606942854839146e-07,1.2475974318201075e-05
8.467827676900614e-07,1.3589067606228407e-06,4.578410105171123e-07,1.2445497113586705e-05
8.41066531302824e-07,1.342504513343225e-06,4.5509504005986564e-07,1.2406755786656713e-05
8.351108113192513e-07,1.3291513095224584e-06,4.52485373451626e-07,1.2359448408031216e-05
8.289392121638238e-07,1.3188881121959442e-06,4.5003960003886034e-07,1.23033454674539e-05
8.22571133815456e-07,1.3117433044305388e-06,4.4778467934314605e-07,1.2238362479073347e-05
8.160224541994895e-07,1.307706803549692e-06,4.457444282549014e-07,1.2164606703263618e-05
8.093066087048087e-07,1.3067224980642913e-06,4.439368227319417e-07,1.2082328391976747e-05
8.024367422239987e-07,1.3086925005221738e-06,4.4237383155744e-07,1.1991819948385104e-05
7.954277751233132e-07,1.3134827990115071e-06,4.410624294595771e-07,1.189335199966143e-05
7.882969142001811e-07,1.320929241838585e-06,4.4000538848313037e-07,1.1787163599266581e-05
7.810628800496395e-07,1.3308468825582056e-06,4.3920304215107175e-07,1.167349151746193e-05
7.737448636407084e-07,1.3430428724496908e-06,4.3865504657587146e-07,1.1552613368350086e-05
7.66361476457447e-07,1.3573290028484628e-06,4.3835951990875827e-07,1.142485967471778e-05
7.589301862697555e-07,1.3735270998213975e-06,4.3831086360783203e-07,1.1290589511041526e-05
7.514671927021956e-07,1.391464070337376e-06,4.384989607678073e-07,1.1150161456075612e-05
7.439874129189915e-07,1.4109619824369649e-06,4.3891040932782526e-07,1.100392979496429e-05
7.36505214787406e-07,1.4318322781549973e-06,4.395304848634507e-07,1.085230033138593e-05
7.290355549803334e-07,1.4538778718566657e-06,4.4034335077270487e-07,1.0695839201806328e-05
7.215940978613116e-07,1.476897424262376e-06,4.4133042280939434e-07,1.0535344363293325e-05
7.141957213904356e-07,1.5006853433632134e-06,4.4246938443769856e-07,1.0371802238836611e-05
7.068527091703996e-07,1.525030974818747e-06,4.43734961598231e-07,1.0206265081252506e-05
6.995744745278761e-07,1.5497233193700674e-06,4.451000671130891e-07,1.0039734976875562e-05
6.923685676990978e-07,1.5745579668659012e-06,4.4653604677238645e-07,9.873097605770703e-06
6.852418614800597e-07,1.5993383177339363e-06,4.480124840538801e-07,9.707105574521173e-06
6.782025473822164e-07,1.6238717726837668e-06,4.4949783004814393e-07,9.54238467457416e-06
6.712628206495324e-07,1.6479675769628715e-06,4.5096142392471247e-07,9.379446126432023e-06
6.644393962995023e-07,1.67143816166012e-06,4.5237488398406345e-07,9.218744229444555e-06
6.577515267280125e-07,1.694103397383323e-06,4.537114611818637e-07,9.06079671480224e-06
6.512194763994214e-07,1.715799564537993e-06,4.549457299175297e-07,8.906263496929087e-06
6.448634223526586e-07,1.7363905288938942e-06,4.5605507266292937e-07,8.755883382894742e-06
6.387013277083892e-07,1.755771553092606e-06,4.5702267646418503e-07,8.610342946098297e-06
6.327467953019264e-07,1.7738614597733514e-06,4.5784169540674526e-07,8.470225343764038e-06
6.270077549714043e-07,1.7905935196742492e-06,4.585173261488293e-07,8.336087228818511e-06
6.214868627663608e-07,1.8059163347577401e-06,4.5906353798209865e-07,8.208636848336114e-06
6.161846718741146e-07,1.8198003364287186e-06,4.594967979297769e-07,8.088931316855997e-06
6.111026456574657e-07,1.8322390750293437e-06,4.598315388886074e-07,7.978438745492633e-06
6.062429606542332e-07,1.8432423113800152e-06,4.6007881744128227e-07,7.878907160099187e-06
6.016084087659753e-07,1.852824645064779e-06,4.6024667619300214e-07,7.792164384097293e-06
5.97205354563004e-07,1.8609961188231624e-06,4.603404083517122e-07,7.719967583833424e-06
5.9304646378987e-07,1.8677603911485776e-06,4.603622021706152e-07,7.663908107214137e-06
5.891502989767048e-07,1.8731204016970856e-06,4.603113001893728e-07,7.6253405499392775e-06
5.855384357796183e-07,1.8770862145846816e-06,4.601859288418712e-07,7.605328455389928e-06
5.822312742528677e-07,1.879679123586205e-06,4.5998644119988367e-07,7.604616872434032e-06
5.792444227419091e-07,1.880930445569736e-06,4.597180166856157e-07,7.623634990510132e-06
5.76588237259284e-07,1.8808842034533245e-06,4.593932532494254e-07,7.662509823381134e-06
5.742702258218089e-07,1.8796174149684062e-06,4.5903424756304636e-07,7.721070279943956e-06
5.72296895254583e-07,1.8772709036357967e-06,4.5867040691466636e-07,7.798860311118681e-06
5.70673584106455e-07,1.8740606228312848e-06,4.583322580284194e-07,7.89519355038349e-06
5.694033055923451e-07,1.8702537331149457e-06,4.58046921355239e-07,8.009242076445392e-06
5.684848762476439e-07,1.8661333369229504e-06,4.578373996500454e-07,8.140135367884453e-06
5.679113890801141e-07,1.8619907658433318e-06,4.5772313614984007e-07,8.287052773784873e-06
5.676712009688137e-07,1.8581466353834702e-06,4.5771995726353895e-07,8.4492855420545e-06
5.677508274867543e-07,1.854959773543528e-06,4.578387620089535e-07,8.626256864141761e-06
5.681369196739462e-07,1.852799313529438e-06,4.5808393635028e-07,8.817522238009789e-06
5.688175077449435e-07,1.8519995629888889e-06,4.5845452581879063e-07,9.022776761795633e-06
5.697856377358445e-07,1.8528294840545261e-06,4.589486921486601e-07,9.241855369661713e-06
5.710441804640282e-07,1.855488234062941e-06,4.5956763023370154e-07,9.474684864809987e-06
5.726056155657176e-07,1.8601169680199643e-06,4.603151113707677e-07,9.721192196394773e-06
5.744865199267747e-07,1.8668121194702732e-06,4.611934635794976e-07,9.981218055838947e-06
5.76705992659781e-07,1.875630447669336e-06,4.622003786115922e-07,1.0254447910532578e-05
5.792913805967819e-07,1.8865865368658002e-06,4.6332847356239406e-07,1.0540338911330632e-05
5.822810054164818e-07,1.8996559333007182e-06,4.645660283184704e-07,1.0838055379449968e-05
5.85717115073423e-07,1.914792724757689e-06,4.6589754125178005e-07,1.1146451933496271e-05
5.896352993684093e-07,1.931951326156331e-06,4.673046234290044e-07,1.1464109297803673e-05
5.940591876781748e-07,1.9510983233536284e-06,4.687683689543668e-07,1.1789392806722501e-05
5.990032348865565e-07,1.9722101929505485e-06,4.702718945648386e-07,1.2120525848618935e-05
6.044785092264797e-07,1.9952578843960356e-06,4.71800856859572e-07,1.2455682675820779e-05
6.104938395591886e-07,2.0201858295463387e-06,4.7334416210647536e-07,1.27930590578977e-05
6.170524242599151e-07,2.0468992128279742e-06,4.7489769437516307e-07,1.3130878441991207e-05
6.241510871729485e-07,2.0752641588195116e-06,4.764676463910869e-07,1.3467363925359547e-05
6.317836163337562e-07,2.105114646228504e-06,4.780691039830703e-07,1.3800734789546952e-05
6.399418642043161e-07,2.1362622738716897e-06,4.797210619381157e-07,1.4129224956534315e-05
6.486131645449821e-07,2.1685059299459807e-06,4.814422132768439e-07,1.4451081298055344e-05
6.577793040845561e-07,2.2016363526208006e-06,4.832508050669215e-07,1.4764553037367013e-05
6.674179955634987e-07,2.235436079969105e-06,4.851670822905189e-07,1.5067906998212516e-05
6.775026465058952e-07,2.269680979188528e-06,4.872134373296968e-07,1.535946189238034e-05
6.879994479591701e-07,2.304146917634073e-06,4.894106672026114e-07,1.5637638156775314e-05
6.988646307508523e-07,2.3386178272011194e-06,4.917744572043918e-07,1.5901030964130866e-05
7.100435755562821e-07,2.3728896820320837e-06,4.943163139592833e-07,1.6148474252399954e-05
7.214719248976686e-07,2.4067706910045952e-06,4.970460819130476e-07,1.637905609934756e-05
7.330794656767152e-07,2.4400799448181405e-06,4.99971124558944e-07,1.6592088835303625e-05
7.447972671327447e-07,2.4726449447362417e-06,5.030939755425871e-07,1.6787048469721608e-05
7.565640344410518e-07,2.504302535237969e-06,5.064111897040781e-07,1.6963516209426018e-05
7.683252654787004e-07,2.5349092839222766e-06,5.099126346635554e-07,1.7121204380903285e-05
7.800266407496744e-07,2.5643569606672656e-06,5.135813482029628e-07,1.726005196488351e-05
7.916094889511795e-07,2.592580018238813e-06,5.173948397975648e-07,1.7380242512996253e-05
8.030107980687375e-07,2.619546281337624e-06,5.213282599906386e-07,1.748214726665131e-05
8.141651511542709e-07,2.6452351226788484e-06,5.253573712921639e-07,1.7566340899468397e-05
8.250072377277576e-07,2.6696194579731134e-06,5.294579257626242e-07,1.7633667978894662e-05
8.354745819220687e-07,2.6926644949525976e-06,5.336042476504536e-07,1.7685240730621365e-05
8.455108006184174e-07,2.7143391302749578e-06,5.377719353433036e-07,1.772237806783652e-05
8.550684478338802e-07,2.734628213231913e-06,5.41943119234479e-07,1.7746543409440095e-05
8.641080655614706e-07,2.7535400085476892e-06,5.461107238941507e-07,1.7759291676979983e-05
8.725951156720549e-07,2.771106827110269e-06,5.502806704911254e-07,1.7762216476438782e-05
8.805002181552809e-07,2.787377450893527e-06,5.544721254646132e-07,1.7756881799879898e-05
8.878010512042248e-07,2.8024055999401686e-06,5.587159278814017e-07,1.7744735222466064e-05
8.944806481447071e-07,2.8162395696955908e-06,5.630498031040254e-07,1.772702615932116e-05
