8.670919576095392e-07,2.0469027588244984e-06,5.617021465916271e-07,1.0636887276333976e-05
8.68633041849992e-07,2.0690019304583647e-06,5.58218806854025e-07,1.0953089925270323e-05
8.700420814036912e-07,2.095093882445164e-06,5.550632597292513e-07,1.129227805032786e-05
8.713506532618666e-07,2.125033541122221e-06,5.522608106007667e-07,1.1652885204116545e-05
8.725904743239668e-07,2.1586391786385684e-06,5.498388800729866e-07,1.2032989154753709e-05
8.73788274718709e-07,2.1956846398287657e-06,5.478218422404486e-07,1.2430380662115246e-05
8.749605780754055e-07,2.235906963593953e-06,5.46225509463245e-07,1.2842656214075536e-05
8.761123266247696e-07,2.279023307496034e-06,5.450542587327082e-07,1.3267318123685648e-05
8.772390556406523e-07,2.3247429418680963e-06,5.443013474388091e-07,1.3701870663987355e-05
8.783292590574163e-07,2.372766517497348e-06,5.43952328791877e-07,1.4143893382235267e-05
8.793658304784838e-07,2.4227788105596147e-06,5.439907701430264e-07,1.4591062027108408e-05
8.803278747740391e-07,2.4744508774098646e-06,5.444024311605563e-07,1.5041103048831768e-05
8.811932723040111e-07,2.527454238695274e-06,5.451744202284946e-07,1.5491713415968023e-05
8.819410031417715e-07,2.5814695267718698e-06,5.462930096254594e-07,1.5940514545136635e-05
8.825518998009527e-07,2.636179972832362e-06,5.477452660344135e-07,1.638507770710665e-05
8.830069910151518e-07,2.6912614969575628e-06,5.495220719173118e-07,1.6822987949767858e-05
8.832858196534708e-07,2.7463838868138605e-06,5.516175151156749e-07,1.725190149276437e-05
8.833685743076401e-07,2.801227102361672e-06,5.540242572998947e-07,1.7669593833976973e-05
8.832405229117166e-07,2.855507310048217e-06,5.567286725788024e-07,1.8073999200231986e-05
8.82893441127066e-07,2.9090009042762347e-06,5.5970925068768e-07,1.8463215019155546e-05
8.823236103782343e-07,2.9615563834427505e-06,5.629384346490843e-07,1.883546646607275e-05
8.815299992416384e-07,3.0130898406286577e-06,5.663856379743985e-07,1.9189059718501332e-05
8.805137727491955e-07,3.0635609239084687e-06,5.700186568234671e-07,1.952235273617117e-05
8.792791554300491e-07,3.112937969838576e-06,5.738032281415461e-07,1.9833773268215266e-05
8.778363629606623e-07,3.161182961055102e-06,5.777036417521239e-07,2.012190516725328e-05
8.762045202897877e-07,3.2082711743492305e-06,5.816866311086649e-07,2.0385622222874586e-05
8.744103146110434e-07,3.254216834674948e-06,5.857268913735646e-07,2.0624223529107348e-05
8.724824247856161e-07,3.299073595041548e-06,5.898095097039347e-07,2.0837530240151066e-05
8.704481772939734e-07,3.3429096720613186e-06,5.939269165193686e-07,2.102589760445109e-05
8.68336916521032e-07,3.3857747863474322e-06,5.98073129674406e-07,2.119013111789469e-05
8.661842229978928e-07,3.4276760826546824e-06,6.022393474672992e-07,2.133136460805852e-05
8.640296152534071e-07,3.4685713340890762e-06,6.064122665829653e-07,2.1450938674719932e-05
8.619106456120106e-07,3.508374710633925e-06,6.105741043952699e-07,2.1550263627330746e-05
8.598587550278368e-07,3.5469653936236147e-06,6.147036339273111e-07,2.163067202792396e-05
8.578977310238195e-07,3.584197784432505e-06,6.187779407515996e-07,2.1693312118055648e-05
8.560456652280956e-07,3.6199168121839174e-06,6.227736913438196e-07,2.173912211456985e-05
8.543200489835084e-07,3.6539708540383414e-06,6.266678291242603e-07,2.1768869732470426e-05
8.52742894496711e-07,3.686210322292883e-06,6.304398677925683e-07,2.178321212434168e-05
8.513434998743945e-07,3.716476914771192e-06,6.3407650165348e-07,2.1782728598116785e-05
8.501560612290728e-07,3.7445991426884317e-06,6.3757419586445e-07,2.176792431037039e-05
8.492114818579826e-07,3.770401143299421e-06,6.409362359030647e-07,2.1739291571172374e-05
8.485299197253757e-07,3.7937213995744074e-06,6.44169764422408e-07,2.1697419875379252e-05
8.481190895783974e-07,3.814427308147329e-06,6.47288862235554e-07,2.1643015263299304e-05
8.479765749835227e-07,3.832412988095048e-06,6.503189106103995e-07,2.157687991598501e-05
8.480957282177002e-07,3.84759334089479e-06,6.532950562775656e-07,2.149996788789841e-05
8.484744232077787e-07,3.859913901279338e-06,6.562552135651453e-07,2.1413395104053444e-05
8.491201751556699e-07,3.8693659241861645e-06,6.592323707755521e-07,2.1318327691555082e-05
8.500469714528788e-07,3.87598354707445e-06,6.622501734781036e-07,2.121585603838032e-05
8.512674841110168e-07,3.879822825818202e-06,6.653218624238846e-07,2.1106907645539898e-05
8.527868700296018e-07,3.8809441893350215e-06,6.684500497440442e-07,2.0992192034521035e-05
8.546004199893929e-07,3.879413470088106e-06,6.716269870391211e-07,2.087218596649127e-05
8.566942208300355e-07,3.875309150552773e-06,6.74836188690886e-07,2.0747151887124663e-05
8.590471718416374e-07,3.868716157708919e-06,6.780547819222524e-07,2.061716894407017e-05
8.61633412239377e-07,3.859712059143998e-06,6.812557710075017e-07,2.048216231922289e-05
8.644249071618385e-07,3.848365065394477e-06,6.844099851020506e-07,2.03419323343922e-05
8.673934389346287e-07,3.834745993542836e-06,6.874875972528141e-07,2.0196202653494603e-05
8.705132881566965e-07,3.818939684874583e-06,6.904592300783581e-07,2.004469647492753e-05
8.737667781154017e-07,3.801046037884794e-06,6.932959746502733e-07,1.9887218341643866e-05
8.771490297961026e-07,3.7811772011565004e-06,6.959682202833302e-07,1.9723703040383275e-05
8.806651954675469e-07,3.7594593451473604e-06,6.984462256094278e-07,1.955420488794641e-05
8.84320644947588e-07,3.736030213525724e-06,7.007043664148569e-07,1.937884357001091e-05
8.881125672853191e-07,3.711025125809485e-06,7.02725231802256e-07,1.919775795828728e-05
8.92030144884128e-07,3.6845686271103096e-06,7.044990264126317e-07,1.9011103958201332e-05
8.960616712586029e-07,3.656785033251522e-06,7.060197828266537e-07,1.881908660679716e-05
9.002005985870779e-07,3.6278099162619058e-06,7.072833071045329e-07,1.8621991500283928e-05
9.044458480042608e-07,3.59778336658996e-06,7.082878233897939e-07,1.8420192002969838e-05
9.087987238652893e-07,3.5668342777481012e-06,7.0903375586091e-07,1.821412296668156e-05
9.132605130871799e-07,3.5350743418782845e-06,7.095214046268562e-07,1.8004221803142607e-05
9.178324241371088e-07,3.5026032540567926e-06,7.097498039878956e-07,1.7790862484376755e-05
9.225170636747692e-07,3.4695125837277e-06,7.097195585020481e-07,1.7574322075448873e-05
9.273209031283085e-07,3.4358819862432917e-06,7.094370896230748e-07,1.735478906099592e-05
9.322581000798472e-07,3.4017781381204988e-06,7.089148031519829e-07,1.7132381524587762e-05
9.373518658449762e-07,3.367265629829289e-06,7.081681801072904e-07,1.6907159530330483e-05
9.426279489058092e-07,3.3324203853749093e-06,7.07215505395902e-07,1.6679164735411656e-05
9.4810487278818e-07,3.2973346698422943e-06,7.060799442402466e-07,1.6448490869837154e-05
9.537918881817592e-07,3.262116904023876e-06,7.047902288435089e-07,1.6215322724022886e-05
9.59696071241647e-07,3.226893765243946e-06,7.033791590128419e-07,1.5979933908109518e-05
9.658297670229394e-07,3.191814431103008e-06,7.018801603236804e-07,1.574269538504489e-05
9.72210893288567e-07,3.157047293221232e-06,7.003224720523403e-07,1.5504071704876817e-05
9.788561462179837e-07,3.122762859194986e-06,6.987273659975342e-07,1.526456275136595e-05
9.857727643238743e-07,3.089115977982794e-06,6.971079906006089e-07,1.5024656410946042e-05
9.929538282933856e-07,3.056245601990873e-06,6.954724492689121e-07,1.478486485957635e-05
1.0003778743014459e-06,3.024286076648921e-06,6.938268697397436e-07,1.454579888525892e-05
1.00801195060469e-06,2.9933709347363065e-06,6.921765897329035e-07,1.4308199551650538e-05
1.0158164325483386e-06,2.9636277949127323e-06,6.905263181478451e-07,1.4072918266280548e-05
1.0237476963118193e-06,2.935172181738264e-06,6.888796159583542e-07,1.3840871481657415e-05
1.0317566118820805e-06,2.908098361541394e-06,6.872373017845364e-07,1.3612991526232851e-05
1.0397865570025483e-06,2.8824663114327693e-06,6.855959114627064e-07,1.3390185486196276e-05
1.0477751364746099e-06,2.858293004788305e-06,6.839475444964293e-07,1.3173289664365386e-05
1.0556587070637699e-06,2.8355548313304332e-06,6.822809080373073e-07,1.296301459762508e-05
1.063376289561351e-06,2.814200409885313e-06,6.805836470235834e-07,1.2759903681175674e-05
1.0708708976318745e-06,2.7941646365852997e-06,6.788474111885525e-07,1.2564326212014795e-05
1.0780884126435064e-06,2.775372430445916e-06,6.770756093836043e-07,1.2376508770808755e-05
1.0849754611178238e-06,2.7577335465332697e-06,6.752892741916054e-07,1.2196585026472004e-05
1.0914780129507245e-06,2.7411425862657646e-06,6.735252809757232e-07,1.202463482328098e-05
1.0975413465344515e-06,2.7254909936578234e-06,6.71827574696765e-07,1.1860721271156902e-05
1.1031107796605111e-06,2.710684190521777e-06,6.702386348816345e-07,1.1704934979721605e-05
1.1081328706942266e-06,2.6966558393098272e-06,6.687970519616312e-07,1.1557403474492841e-05
1.112557042769373e-06,2.683375350354626e-06,6.675407151893775e-07,1.14182629489991e-05
1.1163364466609623e-06,2.6708453638982626e-06,6.665106754090596e-07,1.1287636356221685e-05
1.1194274010564238e-06,2.6590870579521006e-06,6.657510451699564e-07,1.1165617103936323e-05
1.1217891200572371e-06,2.648117906178014e-06,6.653054352075284e-07,1.1052273586939653e-05
1.1233856504681366e-06,2.6379338086499453e-06,6.652156560246454e-07,1.0947717608922275e-05
1.1241902905433216e-06,2.6285066260988534e-06,6.655246772332696e-07,1.085218263999838e-05
1.1241905647219442e-06,2.619797026896616e-06,6.662781577963113e-07,1.0766000473975914e-05
1.1233894782205249e-06,2.6117694430262605e-06,6.675202247300982e-07,1.068947606022332e-05
1.1218005371042972e-06,2.604397592072901e-06,6.692863955119363e-07,1.0622767260303515e-05
1.1194401379660938e-06,2.5976614831772487e-06,6.715997046488867e-07,1.0565855637541472e-05
1.1163238703569356e-06,2.591540008553735e-06,6.744720336040916e-07,1.0518602294951257e-05
1.1124693146065885e-06,2.586001102471737e-06,6.779073099078347e-07,1.0480789881405412e-05
1.1079012672391607e-06,2.5809940012093862e-06,6.819046663371101e-07,1.0452095055787564e-05
1.1026522717616474e-06,2.5764484405835608e-06,6.864614486578906e-07,1.043206110029915e-05
1.0967567184547592e-06,2.5722839779311197e-06,6.915738692773236e-07,1.0420111544070777e-05
1.0902453375457408e-06,2.568430568615445e-06,6.972344329478861e-07,1.0415569705767783e-05
1.083145541523668e-06,2.564854118164597e-06,7.034278185254552e-07,1.0417682996214132e-05
1.0754840441598756e-06,2.561576585926466e-06,7.101271566514935e-07,1.0425653519404229e-05
1.0672869372812756e-06,2.5586805903650465e-06,7.172927086495491e-07,1.0438648603698767e-05
1.0585782170366638e-06,2.5562885669611683e-06,7.24873891663802e-07,1.0455823318235886e-05
1.0493793864312357e-06,2.554523176153593e-06,7.328132096506421e-07,1.0476431957956979e-05
1.0397115859647688e-06,2.5534779930891188e-06,7.410493357073208e-07,1.0500008682893247e-05
1.0295990040750872e-06,2.5532153368665402e-06,7.495188301791217e-07,1.052646300993123e-05
1.0190691207922622e-06,2.5537805524893925e-06,7.58158146632463e-07,1.0555993701208009e-05
1.0081505944993088e-06,2.555219181690614e-06,7.669053201430028e-07,1.0588908528924301e-05
9.968741638396624e-07,2.557589342169858e-06,7.756997322428785e-07,1.0625468696051794e-05
9.852745743575449e-07,2.5609617066001253e-06,7.844816308873977e-07,1.066581912097361e-05
9.733882430957383e-07,2.5654041914432025e-06,7.931933753227956e-07,1.0710074300279194e-05
9.6124908815677e-07,2.5709597386181315e-06,8.017821136530639e-07,1.0758533182389862e-05
9.488882715815114e-07,2.5776344865783038e-06,8.102034916780554e-07,1.0811825571477682e-05
9.363381554651907e-07,2.5854017718347053e-06,8.184243898322483e-07,1.0870870668347756e-05
9.236369455238472e-07,2.5942091734225638e-06,8.264222709977405e-07,1.0936729375259217e-05
9.108309665743923e-07,2.6039882694008567e-06,8.341814571905273e-07,1.1010434964932876e-05
8.979722266867519e-07,2.614680973600394e-06,8.416873327417222e-07,1.1092823598999823e-05
8.851132718580713e-07,2.6262732247015784e-06,8.489206302898871e-07,1.1184412286097484e-05
8.723055661379212e-07,2.638805354845148e-06,8.558552252993361e-07,1.1285361516366735e-05
8.596024748508348e-07,2.6523463631478265e-06,8.624598352921482e-07,1.1395497597561007e-05
8.470621237276326e-07,2.6669540841807555e-06,8.687005310991726e-07,1.1514364693461835e-05
8.3474635674831e-07,2.6826541924047213e-06,8.745415083589718e-07,1.1641289115650619e-05
8.227150288810308e-07,2.6994464007790163e-06,8.799450636429924e-07,1.1775425389745356e-05
8.110198388852953e-07,2.7173195965967133e-06,8.848727895282896e-07,1.1915780729074706e-05
7.997030512854952e-07,2.736256289372856e-06,8.892869486136666e-07,1.2061252171658584e-05
7.887994669131291e-07,2.756220655665117e-06,8.931508948448816e-07,1.2210698444552634e-05
7.783365256240264e-07,2.777141091083e-06,8.964304116405205e-07,1.2363048120223225e-05
7.683320160756016e-07,2.798903279967755e-06,8.990957115907541e-07,1.2517410349329444e-05
7.587923900960012e-07,2.8213553645854307e-06,9.011212340013399e-07,1.2673114234186074e-05
7.497139168131559e-07,2.8443165548940362e-06,9.024841668791904e-07,1.282965214948264e-05
7.410882537542055e-07,2.8675876266116786e-06,9.031639968425305e-07,1.2986574156266451e-05
7.329111899856815e-07,2.8909630710322088e-06,9.031430832665873e-07,1.3143379284524131e-05
7.251872104442447e-07,2.914237017914104e-06,9.02410664589946e-07,1.3299446433347725e-05
7.179259606802635e-07,2.9372004719058633e-06,9.009723050615415e-07,1.3454029899185538e-05
7.111384039834958e-07,2.9596394073582004e-06,8.988588323675946e-07,1.3606283549901747e-05
7.048392160924105e-07,2.9813426721084163e-06,8.961264063295552e-07,1.375527849978823e-05
6.990506861746333e-07,3.0021176243319924e-06,8.928466190348524e-07,1.3900034748407348e-05
6.938009922409359e-07,3.021802851661207e-06,8.890939355947564e-07,1.4039588751917872e-05
6.891159995657927e-07,3.0402701508056468e-06,8.849396208587576e-07,1.4173073097084656e-05
6.850108598697972e-07,3.0574185429247887e-06,8.804537626377867e-07,1.429977291191033e-05
6.814881703242774e-07,3.0731694911043587e-06,8.757091268765293e-07,1.4419151387695886e-05
6.785420399454862e-07,3.0874670590047647e-06,8.707814868278206e-07,1.4530847924026377e-05
6.761633767932511e-07,3.1002751372410517e-06,8.657470197469312e-07,1.46346417323871e-05
6.743439504911667e-07,3.1115644047511336e-06,8.606802093352602e-07,1.4730378021346667e-05
6.730773644306763e-07,3.1212969944638814e-06,8.556518810796743e-07,1.4817884235671204e-05
6.723555484682694e-07,3.1294216926186483e-06,8.507251033729197e-07,1.4896925131531867e-05
6.721643309241977e-07,3.1358787972785086e-06,8.459523590037775e-07,1.4967212729660363e-05
6.724830890025059e-07,3.1406058517649963e-06,8.413776316266073e-07,1.5028428895504043e-05
6.732871502665247e-07,3.1435412475721613e-06,8.370392817050431e-07,1.5080228743505631e-05
6.745502127909203e-07,3.144625734427216e-06,8.32969516313352e-07,1.5122267783212976e-05
6.762491349062583e-07,3.1438019110473162e-06,8.291944404758285e-07,1.5154290013338202e-05
6.783695821980811e-07,3.141015612334923e-06,8.25738917908593e-07,1.5176206401154054e-05
6.809053006450003e-07,3.136221329789656e-06,8.226311345596202e-07,1.5188070843779181e-05
6.838510544068306e-07,3.1293865253668527e-06,8.199001208683146e-07,1.5189984853443353e-05
6.871963202024175e-07,3.1204922278495007e-06,8.175693741279458e-07,1.5182040935205146e-05
6.909243977649681e-07,3.109537168421176e-06,8.156544428530741e-07,1.5164329314421106e-05
6.95017277863566e-07,3.0965509508943434e-06,8.141649461759225e-07,1.5136942175153815e-05
6.994615893000052e-07,3.0816083782954467e-06,8.131061203943661e-07,1.5099964100027557e-05
7.042486810709303e-07,3.064832953755843e-06,8.12479133930823e-07,1.5053523978968734e-05
7.093685947296285e-07,3.0463867985855597e-06,8.122812911053536e-07,1.4997965019405984e-05
7.14804503084982e-07,3.0264510734840146e-06,8.125045981008931e-07,1.493407099620917e-05
7.205308786473015e-07,3.0052030713366662e-06,8.131328846116789e-07,1.4863172826190204e-05
7.265133805022437e-07,2.982800534636193e-06,8.141403402090895e-07,1.478703810807374e-05
7.327092050125208e-07,2.9593829679539918e-06,8.1549300272189e-07,1.4707657135176288e-05
7.390678854773427e-07,2.9350874922254294e-06,8.171524530385211e-07,1.462706845963692e-05
7.455324425355788e-07,2.9100682411878492e-06,8.19078826777913e-07,1.4547243109190185e-05
7.520419996082249e-07,2.8845111633528363e-06,8.212305969803481e-07,1.4470034714347547e-05
7.585378576634688e-07,2.8586367364173013e-06,8.235631850293252e-07,1.4397230621117704e-05
7.64972273422723e-07,2.8326827808677084e-06,8.260299155296692e-07,1.4330629142811926e-05
7.713138271491343e-07,2.8068762960828802e-06,8.285843285227884e-07,1.427202183303038e-05
7.775446308359896e-07,2.78142434148918e-06,8.311808575636173e-07,1.4223098239545568e-05
7.836527825615555e-07,2.756534915878441e-06,8.337737722515618e-07,1.41853513599865e-05
7.896253462247608e-07,2.732434338648463e-06,8.363163965052054e-07,1.4160009637738088e-05
7.954435089830081e-07,2.709352322796712e-06,8.387625130710065e-07,1.4148006014368168e-05
8.010820239678251e-07,2.6874959320731724e-06,8.410704548302262e-07,1.4149982166198868e-05
8.065172485420196e-07,2.667051577269417e-06,8.432069385642182e-07,1.4166321145390564e-05
8.117432938750361e-07,2.648216807801469e-06,8.451463593345277e-07,1.4197215243462527e-05
8.167841641898112e-07,2.6312258622890164e-06,8.468657708510123e-07,1.4242732383363638e-05
8.216893092968001e-07,2.6163421782934924e-06,8.483408696666306e-07,1.4302825273962525e-05
8.265167799563908e-07,2.603824927532828e-06,8.495475362450323e-07,1.4377313489282813e-05
8.313183442505817e-07,2.5938931923916296e-06,8.504679834764511e-07,1.4465894841731089e-05
8.361345199462892e-07,2.5867041920849202e-06,8.510972667352476e-07,1.4568167005106235e-05
8.4099687267502e-07,2.5823497151221085e-06,8.514456042506967e-07,1.468361824582212e-05
8.459296863797646e-07,2.580867662364392e-06,8.515331793491833e-07,1.4811579082263016e-05
8.509479673123302e-07,2.582259421129969e-06,8.513804639867041e-07,1.4951164725203748e-05
8.560558027783609e-07,2.586504712912601e-06,8.51001801462385e-07,1.5101256374482245e-05
8.612484580056935e-07,2.593572671656901e-06,8.50406120189135e-07,1.5260530483561903e-05
8.665174179715691e-07,2.6034276817143527e-06,8.496036791956018e-07,1.5427521777576112e-05
8.718551634496056e-07,2.6160245158854985e-06,8.486148633786319e-07,1.5600710964845695e-05
8.772577819277266e-07,2.63129193163714e-06,8.474738904840362e-07,1.577860000191819e-05
8.827264645420211e-07,2.649114684857199e-06,8.462235284619409e-07,1.5959733825075352e-05
8.882688560659781e-07,2.669326415764056e-06,8.449093780393565e-07,1.6142673864898102e-05
8.93900968455649e-07,2.6917170590186717e-06,8.435833869704119e-07,1.6325983346808868e-05
8.996498186387359e-07,2.716051047231185e-06,8.423099062977502e-07,1.6508289903359882e-05
9.055526341713881e-07,2.742089023690098e-06,8.411625171186513e-07,1.66883830506811e-05
9.116495146085504e-07,2.769601823062929e-06,8.402128049877112e-07,1.6865224733706408e-05
9.179777405645806e-07,2.798369975808882e-06,8.395205313974862e-07,1.7037856605635938e-05
9.245791566443607e-07,2.828173721914497e-06,8.391301148416702e-07,1.7205304250710518e-05
9.315148299844552e-07,2.8587841685203038e-06,8.390716258843548e-07,1.7366540011194713e-05
9.388684842844955e-07,2.8899658113339305e-06,8.393629846152301e-07,1.752049000258002e-05
9.467339628937893e-07,2.921491382024029e-06,8.400120069249325e-07,1.766608577483098e-05
9.55199471428495e-07,2.9531580542424276e-06,8.410190653035486e-07,1.7802381284967646e-05
9.643386747054898e-07,2.9847976712913238e-06,8.423800361722762e-07,1.7928699428285307e-05
9.74206970335985e-07,3.0162824787562763e-06,8.440873093627573e-07,1.8044756548729942e-05
9.848382398304656e-07,3.047527285873974e-06,8.461282488003448e-07,1.815073128544067e-05
9.962426007391356e-07,3.0784833546504504e-06,8.484828351267764e-07,1.8247219411636595e-05
1.0084077454660464e-06,3.109118767874548e-06,8.51122644472196e-07,1.833507393573692e-05
1.0213017681391213e-06,3.139392151297201e-06,8.540128820499161e-07,1.841522056405056e-05
1.0348744428460744e-06,3.1692382544269983e-06,8.571178774350945e-07,1.8488503979570346e-05
1.0490595930178469e-06,3.1985766302718106e-06,8.604072826567184e-07,1.8555576807705397e-05
1.0637820834284113e-06,3.2273331922491278e-06,8.6385864136695e-07,1.8616866457298816e-05
1.0789676828647855e-06,3.255453124008458e-06,8.67455102045759e-07,1.8672622358885557e-05
1.094550250730083e-06,3.282897023584432e-06,8.711809001826332e-07,1.8722974419154192e-05
1.110473649847617e-06,3.309631001666657e-06,8.750173432547985e-07,1.876794701926902e-05
1.1266921176658126e-06,3.3356215964764e-06,8.789400107397263e-07,1.8807439863000595e-05
1.1431707380849043e-06,3.36083442123179e-06,8.829182336436451e-07,1.8841242758770952e-05
1.1598810434621999e-06,3.3852303499136e-06,8.869184786918429e-07,1.8869146367311576e-05
1.1767910867697924e-06,3.408757466453501e-06,8.909095025054217e-07,1.889106737088232e-05
1.1938592776575435e-06,3.4313422112837217e-06,8.948637064020319e-07,1.890703385738625e-05
1.2110373998876725e-06,3.4528854538102896e-06,8.987538264749321e-07,1.891710547136033e-05
1.2282759849237228e-06,3.4732703945863867e-06,9.0255132066688e-07,1.8921453429837945e-05
1.2455254767525429e-06,3.4923821042541947e-06,9.062299841635832e-07,1.8920558269194377e-05
1.2627337990712362e-06,3.510122328502852e-06,9.097714872639278e-07,1.891527232127554e-05
1.279842372574077e-06,3.5264050588627265e-06,9.131688757205095e-07,1.8906698230103955e-05
1.2967830288574526e-06,3.541144832232531e-06,9.16424747833464e-07,1.889602537836452e-05
1.3134786475479195e-06,3.554257843609214e-06,9.195440006203544e-07,1.888439907451637e-05
1.329848216790274e-06,3.5656698821359118e-06,9.225282667458931e-07,1.8872828931592294e-05
1.345815780562474e-06,3.5753129534579536e-06,9.253772068055176e-07,1.886214639302777e-05
1.3613189923837174e-06,3.583115860124465e-06,9.280921651842694e-07,1.885300227546971e-05
1.3763092507456716e-06,3.5890073533954947e-06,9.306778634085329e-07,1.8845877312630515e-05
1.3907439107056059e-06,3.5929322423681817e-06,9.331430909818172e-07,1.884109483895293e-05
1.4045805775465595e-06,3.594866115338632e-06,9.354992192331528e-07,1.883883351309061e-05
1.4177786328242685e-06,3.5948180593676863e-06,9.377546604483637e-07,1.883913024914719e-05
1.4303058678848533e-06,3.592817919674884e-06,9.399089158356752e-07,1.8841871639652946e-05
1.4421451071327097e-06,3.588895817521156e-06,9.419503121469759e-07,1.884678001849332e-05
1.4532929124776275e-06,3.5830710953942e-06,9.438567310129318e-07,1.88534033154667e-05
1.4637493681661885e-06,3.5753575346486e-06,9.455976208437507e-07,1.8861141240537452e-05
1.4735105277254949e-06,3.5657741818015723e-06,9.471366752628923e-07,1.8869326076807488e-05
1.482571413185869e-06,3.554348790950268e-06,9.484346190105901e-07,1.887730738482721e-05
1.4909339987725843e-06,3.541113681038656e-06,9.494531108365386e-07,1.888449060537605e-05
1.4986120876035161e-06,3.52610721931328e-06,9.501595971748785e-07,1.8890347888612005e-05
1.5056301856564742e-06,3.5093849609703485e-06,9.505285446746279e-07,1.889443663693902e-05
1.5120182725868775e-06,3.491022848115548e-06,9.50537741697769e-07,1.8896441743157e-05
1.5178060976796297e-06,3.4711025143271005e-06,9.501648554612705e-07,1.8896236668090792e-05
1.5230175978296288e-06,3.4496950600218086e-06,9.493883473737329e-07,1.889392940729491e-05
1.5276670446763263e-06,3.4268581293936914e-06,9.48192629728796e-07,1.888986108075734e-05
1.5317632989678626e-06,3.4026388581142224e-06,9.465737760296442e-07,1.8884549401943235e-05
1.5353211001698602e-06,3.3770730233990037e-06,9.445409286721552e-07,1.8878582697895284e-05
1.5383676221233738e-06,3.350186195195122e-06,9.421124118112446e-07,1.88724885689203e-05
1.5409387930489597e-06,3.322003721804504e-06,9.393111746900459e-07,1.886662264738584e-05
1.5430717949196638e-06,3.2925620627711225e-06,9.361643755352348e-07,1.886112310025861e-05
1.5448020915748106e-06,3.261913117446961e-06,9.327039953428165e-07,1.885592722754973e-05
1.5461664160107703e-06,3.230127135106095e-06,9.289627948423309e-07,1.885079633069313e-05
1.5472057635525954e-06,3.197299553177798e-06,9.249683288417059e-07,1.8845326518538227e-05
1.5479637081124217e-06,3.1635556864047852e-06,9.207408987873337e-07,1.883897164945265e-05
1.5484805272333773e-06,3.1290453820718438e-06,9.162970530337595e-07,1.883109805679269e-05
1.548786235965516e-06,3.093931878077422e-06,9.116560424584513e-07,1.882105582151412e-05
1.5488962130110343e-06,3.0583952676142587e-06,9.068424939703115e-07,1.880822164158575e-05
1.548810703337663e-06,3.0226563805137425e-06,9.018815707798923e-07,1.87919895402422e-05
1.5485181119453682e-06,2.9869923749021803e-06,8.967921587241631e-07,1.877173786978056e-05
1.5480002946645692e-06,2.951719361880664e-06,8.915844532732256e-07,1.8746806672601407e-05
1.5472355562133092e-06,2.917151881585264e-06,8.862617032950669e-07,1.8716506073418108e-05
1.5462017016794331e-06,2.8835690541230413e-06,8.808228726755516e-07,1.8680163113294007e-05
1.544886398166829e-06,2.8512086243238493e-06,8.752642053478296e-07,1.863716653754026e-05
1.5433026603837146e-06,2.820284633473477e-06,8.695799105963185e-07,1.8586963627737712e-05
1.5414985531792429e-06,2.791008464225221e-06,8.637626079475359e-07,1.8529040597705355e-05
1.5395547885678688e-06,2.763597393372931e-06,8.578028039385585e-07,1.846295330550388e-05
1.5375752923749991e-06,2.738268584586464e-06,8.516879006061746e-07,1.83883980087144e-05
1.5356771488265018e-06,2.7152221822502966e-06,8.454029250758726e-07,1.830524393735579e-05
1.5339775402393456e-06,2.6946183554982123e-06,8.389324897285499e-07,1.8213488588361623e-05
1.5325777968198685e-06,2.676563248414706e-06,8.322615084453979e-07,1.8113172223049177e-05
1.531555132878421e-06,2.6611166877703234e-06,8.253753524938021e-07,1.8004341903017866e-05
1.5309673467668737e-06,2.648313143362004e-06,8.182617841694023e-07,1.7887133003106267e-05
1.5308616925938052e-06,2.638175897694684e-06,8.109135631585495e-07,1.7761884313684527e-05
1.5312784431675788e-06,2.630712744173376e-06,8.033290166549516e-07,1.7629130347173817e-05
1.532247608105087e-06,2.6259042660565536e-06,7.955109342784021e-07,1.7489476178254967e-05
1.5337818813371996e-06,2.623708132748e-06,7.874656776062611e-07,1.734348404188792e-05
1.535871597612668e-06,2.624077549465333e-06,7.792024472979313e-07,1.7191658231682337e-05
1.5384869465092545e-06,2.6269677323081767e-06,7.70732323122204e-07,1.703456886124589e-05
1.54158636834915e-06,2.6323224739123204e-06,7.620693510976149e-07,1.6873043937242932e-05
1.5451250630170652e-06,2.640059384684488e-06,7.532355985060281e-07,1.6708237022884528e-05
1.5490586649904482e-06,2.650072476935069e-06,7.442663102513718e-07,1.6541501936564408e-05
1.553341198264033e-06,2.6622509903857792e-06,7.352086924924538e-07,1.6374197092445174e-05
1.5579218980872497e-06,2.676495816359273e-06,7.261139518126821e-07,1.6207537799043535e-05
1.5627460581980497e-06,2.692718809618021e-06,7.170290270326653e-07,1.6042523966786073e-05
1.5677568352128901e-06,2.710827414133646e-06,7.079928651211669e-07,1.5879917456339827e-05
1.572892355675772e-06,2.7307109021890026e-06,6.990360618853176e-07,1.5720240058112405e-05
1.5780810126069704e-06,2.75224632528692e-06,6.901814352411875e-07,1.5563785685221788e-05
1.583240925792677e-06,2.7753234206533213e-06,6.814454470438137e-07,1.5410651110051566e-05
1.5882828246534237e-06,2.799866142013336e-06,6.728401905325578e-07,1.5260781632784253e-05
1.5931136140731202e-06,2.8258293229358397e-06,6.643748464445223e-07,1.5114009282354541e-05
1.5976407752015944e-06,2.853173241855561e-06,6.560580136548265e-07,1.497006844656384e-05
1.6017756406647447e-06,2.881850047086189e-06,6.479019719319185e-07,1.4828606357682934e-05
1.6054330182637932e-06,2.911827367119278e-06,6.39924765532991e-07,1.4689201001599814e-05
1.6085289365907403e-06,2.9431245141241475e-06,6.321467017070847e-07,1.4551383461385434e-05
1.6109795220658868e-06,2.975822653990544e-06,6.245859394136774e-07,1.4414675891618454e-05
1.6127018125019278e-06,3.0100429589883784e-06,6.172617323927011e-07,1.4278643812200134e-05
1.6136153948104543e-06,3.0459085944851262e-06,6.102051850742034e-07,1.4142935051790607e-05
1.6136448708567715e-06,3.083505962032872e-06,6.034658814064911e-07,1.4007295937865061e-05
1.6127250010209797e-06,3.1228556970745985e-06,5.971065202266726e-07,1.3871576989700076e-05
1.610808709689596e-06,3.163900539703209e-06,5.911907777124277e-07,1.3735727814018378e-05
1.6078729959830436e-06,3.2065110948097698e-06,5.85773390933537e-07,1.3599769434972093e-05
1.6039160512571938e-06,3.250501741224529e-06,5.808961685399097e-07,1.3463745719428802e-05
1.598949983735661e-06,3.295647677039214e-06,5.765897518543603e-07,1.332768161942943e-05
1.593001185196295e-06,3.341699377553865e-06,5.728797277841225e-07,1.3191589299441255e-05
1.586116463568921e-06,3.388393413257154e-06,5.6979293964513e-07,1.3055531211443488e-05
1.5783615728816196e-06,3.4354597983199053e-06,5.673587408793707e-07,1.2919687875449416e-05
1.5698091615429181e-06,3.4826282875146887e-06,5.656045254587682e-07,1.2784366947397894e-05
1.5605257195531044e-06,3.5296350059663764e-06,5.645502779164263e-07,1.2649949115900585e-05
1.5505649437910358e-06,3.576226952707589e-06,5.642078922518612e-07,1.2516810608610716e-05
1.5399673335963894e-06,3.6221624405844565e-06,5.645856504459147e-07,1.2385255319820085e-05
1.528763437434359e-06,3.6672113920542788e-06,5.656913695582036e-07,1.2255478588066513e-05
1.5169773385215309e-06,3.7111610960959587e-06,5.675298401452825e-07,1.2127563663670847e-05
1.5046273566270226e-06,3.7538261525231834e-06,5.700976655808533e-07,1.2001487151473885e-05
1.491725229233205e-06,3.7950552443046614e-06,5.73380635266636e-07,1.1877126603396185e-05
1.4782763488220212e-06,3.834728067290608e-06,5.773556064475846e-07,1.175427901601178e-05
1.4642811161652375e-06,3.87273991680651e-06,5.819936174453588e-07,1.1632689557871547e-05
1.4497368295194581e-06,3.9089806229288915e-06,5.872600623224104e-07,1.1512106488100892e-05
1.4346407825622625e-06,3.943325607298076e-06,5.931140870641588e-07,1.13923859739562e-05
1.4189964656631619e-06,3.975650407279809e-06,5.995100445752428e-07,1.1273603801965333e-05
1.402822011073374e-06,4.005857770856174e-06,6.063985159208917e-07,1.1156081495365812e-05
1.386154383148846e-06,4.033896274216469e-06,6.137254654792962e-07,1.1040307447336349e-05
1.3690451640039636e-06,4.059756373524988e-06,6.214315569967228e-07,1.0926823030234095e-05
1.3515554744305781e-06,4.0834455066961495e-06,6.294530251417303e-07,1.0816139124134464e-05
1.3337607357332794e-06,4.104963360885333e-06,6.377234761467279e-07,1.0708702929901027e-05
1.315760440342798e-06,4.1242984518267965e-06,6.461750812785158e-07,1.060489573107892e-05
1.2976780124630957e-06,4.141442690859917e-06,6.547389814134551e-07,1.0505029536737106e-05
1.2796490751846757e-06,4.1564050540679655e-06,6.633467619906873e-07,1.040936558041371e-05
1.2618072990998705e-06,4.169210092848782e-06,6.719339411086199e-07,1.0318230682168414e-05
1.2442723681966957e-06,4.179882376791457e-06,6.804444190576026e-07,1.0232191106143764e-05
1.227142917317403e-06,4.188436773869969e-06,6.888338332011664e-07,1.0152090690158161e-05
1.21049712632348e-06,4.194889314077146e-06,6.970683296203036e-07,1.0078886787143292e-05
1.194396763304713e-06,4.1992767228321334e-06,7.051184613983565e-07,1.0013441431833756e-05
1.1788893383594714e-06,4.2016648081790214e-06,7.129537201181552e-07,9.956411219565089e-06
1.1640090830020164e-06,4.202138226677268e-06,7.205405775275846e-07,9.908276989796272e-06
1.1497777621010777e-06,4.200779316031997e-06,7.278420934067363e-07,9.86950731143896e-06
1.1362042205743649e-06,4.197654240942369e-06,7.348184539170602e-07,9.840741567147657e-06
1.1232842499238235e-06,4.192814390839988e-06,7.414284384276977e-07,9.822827610582884e-06
1.1110039579422889e-06,4.186299307209395e-06,7.476306033674839e-07,9.816708106198557e-06
1.0993470376075209e-06,4.178131954173798e-06,7.533838673775046e-07,9.82328382859242e-06
1.0883028109629304e-06,4.168317990763772e-06,7.586485247344677e-07,9.843331522139619e-06
1.0778709865194759e-06,4.156853902405782e-06,7.633879151564635e-07,9.87746502671934e-06
1.06806102416454e-06,4.14373139598161e-06,7.675691542759426e-07,9.926108930350977e-06
1.058887116485128e-06,4.128936323810488e-06,7.711623269863858e-07,9.989483531841015e-06
1.0503623536324112e-06,4.11245117339923e-06,7.741398035579142e-07,1.0067610513786183e-05
1.0424941940946706e-06,4.094256981918029e-06,7.764766885298486e-07,1.0160329429454069e-05
1.0352803165726885e-06,4.0743287879480726e-06,7.781514591085797e-07,1.0267305420405057e-05
1.0287057221788129e-06,4.052632711491853e-06,7.791460161331238e-07,1.0388015605044293e-05
1.0227441033643078e-06,4.0291290638002346e-06,7.794457934928302e-07,1.0521731771565643e-05
1.0173628175461972e-06,4.003777480788221e-06,7.790402051320841e-07,1.0667535042722676e-05
1.0125264769913605e-06,3.976549226640708e-06,7.779235733378404e-07,1.082435542097985e-05
1.0081968050079288e-06,3.947449109319451e-06,7.760982272478581e-07,1.0991000502426062e-05
1.004331976556238e-06,3.91652738448745e-06,7.735785414310789e-07,1.116617512042851e-05
1.0008881839861575e-06,3.8838655962356746e-06,7.70390253775506e-07,1.1348507904461655e-05
9.978223980373742e-07,3.849552476586983e-06,7.665651489896646e-07,1.15365773616869e-05
9.950948129358975e-07,3.8136763360188415e-06,7.621392002931139e-07,1.172893322421716e-05
9.92669595712073e-07,3.7763358846912817e-06,7.571565636301617e-07,1.1924119300069162e-05
9.905115998400355e-07,3.7376526249208704e-06,7.516716657091573e-07,1.2120693094769764e-05
9.885808275044108e-07,3.697776058502437e-06,7.457444779678583e-07,1.2317225523258113e-05
9.868307015277463e-07,3.6568846177017097e-06,7.39433315015617e-07,1.2512280754627545e-05
9.852115245233213e-07,3.6151826796532006e-06,7.327902934622283e-07,1.27044143100294e-05
9.836753180816362e-07,3.572890026401587e-06,7.258599994385494e-07,1.2892234872774127e-05
9.821781471460636e-07,3.5302330357197503e-06,7.186801605708353e-07,1.3074513032563616e-05
9.806782005074906e-07,3.4874591432251517e-06,7.112833204464202e-07,1.3250238610276945e-05
9.791324266904424e-07,3.4448697577066763e-06,7.036983749312838e-07,1.3418568417353433e-05
9.774955519486731e-07,3.4028325416146343e-06,6.959510753934898e-07,1.3578739221711066e-05
9.757210432807516e-07,3.3617518084839817e-06,6.880642856815368e-07,1.3730031443187359e-05
9.73762591446629e-07,3.3220243186457627e-06,6.800594904388203e-07,1.3871766593731702e-05
9.715766527809177e-07,3.284022546528093e-06,6.719585584393172e-07,1.4003306145945794e-05
9.691252568376939e-07,3.248108250244655e-06,6.637845876831733e-07,1.412408909847981e-05
9.663765833987577e-07,3.214640907550222e-06,6.555624751282003e-07,1.4233711099031911e-05
9.63302919878993e-07,3.1839586309648984e-06,6.473178154283623e-07,1.4331961813537628e-05
9.598779692389128e-07,3.156344260534839e-06,6.390734365360961e-07,1.441879510341484e-05
9.560756428231415e-07,3.1320051964612688e-06,6.308468094049086e-07,1.4494277808437369e-05
9.518727849138504e-07,3.1110805943451086e-06,6.226503221276518e-07,1.4558530026877008e-05
9.472565297944305e-07,3.093661989950516e-06,6.144929703715892e-07,1.4611661857884274e-05
9.4223123197761e-07,3.079805224953532e-06,6.063812517573203e-07,1.4653730619037475e-05
9.36817771515453e-07,3.0695251253640065e-06,5.983196894290276e-07,1.4684733793512351e-05
9.310449490274628e-07,3.062785453655349e-06,5.903142653562046e-07,1.470463862681289e-05
9.249401668018013e-07,3.0595030816691515e-06,5.823776645297909e-07,1.4713423123168838e-05
9.185250767679971e-07,3.05956388539422e-06,5.74529406681024e-07,1.4711088733303525e-05
9.118173202700912e-07,3.0628301137387876e-06,5.667897447850511e-07,1.4697641587701495e-05
9.048389746805231e-07,3.0691334038037065e-06,5.591749035412185e-07,1.4673074952838266e-05
8.976292718511503e-07,3.0782691862210308e-06,5.516987988968008e-07,1.463739272448908e-05
8.902542410251587e-07,3.090002701800563e-06,5.443785049148518e-07,1.4590704059377972e-05
8.828082572756311e-07,3.104078708887e-06,5.372369509659578e-07,1.4533324742618665e-05
8.754060611413198e-07,3.1202278599100155e-06,5.302998360058531e-07,1.4465757922822247e-05
8.681664650794924e-07,3.138170741831818e-06,5.235902276941441e-07,1.4388571807186612e-05
8.611974230634791e-07,3.157618789485704e-06,5.171255728908202e-07,1.4302305474237473e-05
8.545920468708161e-07,3.178273817423873e-06,5.109188007709695e-07,1.4207441048906567e-05
8.484319075202086e-07,3.1998315568093395e-06,5.049824391050495e-07,1.4104397388491583e-05
8.42789678766018e-07,3.221986461473085e-06,4.993328775248413e-07,1.3993524188524836e-05
8.377290068818423e-07,3.2444334721093576e-06,4.939919636370846e-07,1.3875107927249344e-05
8.333026820322141e-07,3.2668758219411183e-06,4.889855872516621e-07,1.3749389853502355e-05
8.295508006174577e-07,3.2890473735340767e-06,4.84342779170065e-07,1.361657838847661e-05
8.264991494943569e-07,3.3107333043855203e-06,4.800992036155135e-07,1.3476857956174707e-05
8.241570269104096e-07,3.331766881040415e-06,4.763012353523944e-07,1.3330415953195184e-05
8.225166675940337e-07,3.352015830647996e-06,4.7300202291709357e-07,1.317748909533016e-05
8.215577228077975e-07,3.3713900319603774e-06,4.702506313028653e-07,1.3018400446073133e-05
8.212560916217562e-07,3.389864749575665e-06,4.680850190047735e-07,1.2853572244759845e-05
8.215926263187709e-07,3.4074836668520137e-06,4.665335741479041e-07,1.2683535888246906e-05
8.225581843348489e-07,3.42432736460563e-06,4.656194775765722e-07,1.2508943047599104e-05
8.241524287990634e-07,3.4404684685833528e-06,4.6536146929372674e-07,1.2330539511295638e-05
8.263764363769638e-07,3.4559461186728783e-06,4.657705277112648e-07,1.2149085912927761e-05
8.292275096495361e-07,3.4707730239775865e-06,4.668466285012453e-07,1.1965271693217376e-05
8.327021325045431e-07,3.4849603769761398e-06,4.685790003353755e-07,1.1779676781216135e-05
8.368005668370763e-07,3.498539205020121e-06,4.70948511228875e-07,1.1592783051870614e-05
8.41528766285368e-07,3.5115657863023558e-06,4.7392922358864687e-07,1.1405001127713076e-05
8.469021374094686e-07,3.5241070059309127e-06,4.774899324468514e-07,1.1216693023340396e-05
8.529512510662017e-07,3.536218180375721e-06,4.815988666140765e-07,1.1028194951712793e-05
8.597223950746746e-07,3.547942167294377e-06,4.862308537543825e-07,1.0839842141261071e-05
8.672702473672985e-07,3.5593383492315e-06,4.913708144777587e-07,1.0651991442968588e-05
8.756466718305406e-07,3.5705124138128717e-06,4.970091904020787e-07,1.0465044508738035e-05
8.848894150498795e-07,3.5816165186856818e-06,5.031334843520593e-07,1.0279470287764062e-05
8.95014635074984e-07,3.5928170205911003e-06,5.097238175786972e-07,1.0095813114746713e-05
9.060182530934198e-07,3.6042526722559316e-06,5.167547699044692e-07,9.914679768194994e-06
9.178863536999431e-07,3.616016694857728e-06,5.242008823451963e-07,9.736709467064805e-06
9.306075288148023e-07,3.628173962569324e-06,5.320421400649568e-07,9.562527185743306e-06
9.441791663844921e-07,3.640787930448864e-06,5.40264834666923e-07,9.392690168384727e-06
9.586061843576357e-07,3.6539275944081397e-06,5.488568152519497e-07,9.227651811944717e-06
9.738952145543324e-07,3.6676510533963736e-06,5.578024070072915e-07,9.067752970343621e-06
9.900470715768549e-07,3.6819825081317116e-06,5.67083049318493e-07,8.91323155024408e-06
1.0070503503179217e-06,3.696900009733274e-06,5.766829894474661e-07,8.764248800872494e-06
1.024878035137697e-06,3.712338741471589e-06,5.865920637515878e-07,8.62095167888914e-06
1.0434870405605628e-06,3.728200418329632e-06,5.968027430808087e-07,8.483575196535879e-06
1.062820885345518e-06,3.744358314522495e-06,6.07309343847562e-07,8.35252493695473e-06
1.0828153237599516e-06,3.7606577007970526e-06,6.1811351279631e-07,8.228361254631567e-06
1.1034046796366548e-06,3.7769153325016747e-06,6.292280304264884e-07,8.111688450076248e-06
1.1245264502140723e-06,3.7929194608591315e-06,6.406709969547616e-07,8.003028254953838e-06
1.1461208839578013e-06,3.8084328809025175e-06,6.52454020598053e-07,7.902747273792897e-06
1.1681248134743312e-06,3.82320027084757e-06,6.645742438804496e-07,7.811069585369383e-06
1.190470287692215e-06,3.83695598178478e-06,6.770140066354471e-07,7.728155194125273e-06
1.21309863851838e-06,3.8494293339350375e-06,6.897442379462372e-07,7.654160079725529e-06
1.2359819183928422e-06,3.860350459957498e-06,7.027278727436609e-07,7.589212019068535e-06
1.259133192274798e-06,3.869459312278968e-06,7.159228981615989e-07,7.533337189295094e-06
1.2825972138361295e-06,3.8765140625534035e-06,7.292846982846163e-07,7.486415475317284e-06
1.306427696104465e-06,3.881294799779849e-06,7.427669031683308e-07,7.448192203524094e-06
1.3306632061111629e-06,3.883603441705994e-06,7.563206685603453e-07,7.418310139414395e-06
1.3553113633280802e-06,3.8832626127137185e-06,7.698928530641213e-07,7.396323548472009e-06
1.380344876700728e-06,3.880118445088825e-06,7.834244398776951e-07,7.381721322648578e-06
1.4057056942735493e-06,3.874050825305968e-06,7.968506888724205e-07,7.3740324890347974e-06
1.4313112233082468e-06,3.864984675700842e-06,8.101026251952594e-07,7.3730069181033646e-06
1.4570604960123017e-06,3.852893460271968e-06,8.231082200625612e-07,7.378718099281188e-06
1.4828398496126634e-06,3.837794377552318e-06,8.357934645810429e-07,7.391482688818912e-06
1.508526297318505e-06,3.819738256967166e-06,8.480849922428977e-07,7.411693207142128e-06
1.5339894368998934e-06,3.7987964893289633e-06,8.599141266595512e-07,7.439685692710491e-06
1.559095464148286e-06,3.775052541209173e-06,8.712203480094009e-07,7.475684960061011e-06
1.58371322842775e-06,3.7486093328395693e-06,8.819518358559687e-07,7.5198879392023724e-06
1.607719344399487e-06,3.7196119724938454e-06,8.920621565233935e-07,7.572658550085698e-06
1.6310012603941715e-06,3.688268690410122e-06,9.015060051028738e-07,7.634634627406113e-06
1.6534573200308181e-06,3.6548533119531464e-06,9.102387712201772e-07,7.706644578168636e-06
1.6749931798533874e-06,3.6196862419123064e-06,9.182201969155657e-07,7.789551463535272e-06
1.6955173606037716e-06,3.5831017278390806e-06,9.254170274734621e-07,7.884136034252211e-06
1.7149382588528757e-06,3.545419957621766e-06,9.318016636507004e-07,7.991020131249461e-06
1.733162544969629e-06,3.5069459730131515e-06,9.373499919942896e-07,8.110603000672639e-06
1.7500955415869252e-06,3.467994824943538e-06,9.420413825277769e-07,8.243006546949674e-06
1.765643366568216e-06,3.4289178741391173e-06,9.458588641260143e-07,8.388048186170433e-06
1.7797154342666817e-06,3.3901082876180215e-06,9.487877289127741e-07,8.545248406915692e-06
1.792228279377441e-06,3.3519793903903613e-06,9.508144976196622e-07,8.713861191095723e-06
1.8031110723913213e-06,3.314927207276631e-06,9.519276449570579e-07,8.892920477807801e-06
1.8123088040435355e-06,3.2793081632914972e-06,9.521193547860594e-07,9.081288562168204e-06
1.8197802311426015e-06,3.245452402551317e-06,9.513869537399271e-07,9.277693704365167e-06
1.8254928667663464e-06,3.2136890155124353e-06,9.497327640218145e-07,9.480771282649102e-06
1.8294185450414517e-06,3.1843444879588937e-06,9.47163617161294e-07,9.689124503162567e-06
1.8315313347291352e-06,3.1577177561755195e-06,9.436921268831385e-07,9.901400757463894e-06
1.8318095268926415e-06,3.1340729715506117e-06,9.393395459058559e-07,1.0116351466638167e-05
1.8302428581180157e-06,3.11366176840768e-06,9.341402741410153e-07,1.0332836825708141e-05
1.8268397691143818e-06,3.0967395412164712e-06,9.281459629033758e-07,1.0549784839072298e-05
1.8216257103554825e-06,3.083552337608665e-06,9.214228717349388e-07,1.0766142030115567e-05
1.8146334084022026e-06,3.0743057405302536e-06,9.140426099825102e-07,1.0980832567969783e-05
1.805895490082281e-06,3.0691398750832005e-06,9.060758694238968e-07,1.1192733774928498e-05
1.7954438616931717e-06,3.0681324304814243e-06,8.975937555910822e-07,1.1400678812557636e-05
1.7833111600191715e-06,3.0713251483180963e-06,8.88672075734564e-07,1.1603491457375967e-05
1.7695304506210576e-06,3.07874470864354e-06,8.793933557515188e-07,1.180005371374201e-05
1.7541349780613297e-06,3.0904036707296885e-06,8.69843322330713e-07,1.1989397797087633e-05
1.7371606031404546e-06,3.1062901290970296e-06,8.601028215714729e-07,1.2170783538980368e-05
1.718649698733865e-06,3.126355255861985e-06,8.502415883609788e-07,1.2343711264140625e-05
1.6986541469850026e-06,3.150500341735153e-06,8.403178434357769e-07,1.2507870535749585e-05
1.6772373609573533e-06,3.178564400356265e-06,8.303815932659642e-07,1.2663075411508485e-05
1.6544758283729471e-06,3.210317032559092e-06,8.204775235841095e-07,1.2809227082518966e-05
1.6304589322156074e-06,3.245462892436287e-06,8.106453989733765e-07,1.2946292693496394e-05
1.6052849067008655e-06,3.2836606640079867e-06,8.009206886114052e-07,1.307426177727306e-05
1.5790538920493582e-06,3.3245455885986726e-06,7.913386710256121e-07,1.3193092279399964e-05
1.5518636076926291e-06,3.3677378797172423e-06,7.819388174720135e-07,1.3302697987318507e-05
1.523811761337e-06,3.4128411624058704e-06,7.727637575020662e-07,1.340298253838958e-05
1.4950022557084796e-06,3.459451709277565e-06,7.638534131325744e-07,1.3493885193146404e-05
1.4655481952359698e-06,3.5071816585270063e-06,7.552398971963452e-07,1.3575431137754922e-05
1.4355687346395852e-06,3.5556780956099924e-06,7.46945766576433e-07,1.3647801950318555e-05
1.405182966321354e-06,3.6046208603239237e-06,7.389853850453732e-07,1.3711394890738769e-05
1.374504499512618e-06,3.653701894193669e-06,7.313703484070437e-07,1.3766805000871897e-05
1.3436381052022257e-06,3.702609413811245e-06,7.241176622107842e-07,1.3814727520683545e-05
1.31267902093562e-06,3.751030007312852e-06,7.172561044615771e-07,1.3855843462683395e-05
1.2817143208521696e-06,3.7986549135960295e-06,7.10828477720319e-07,1.3890742099033548e-05
1.2508240315370909e-06,3.845183337813949e-06,7.048892054925933e-07,1.3919894776610464e-05
1.2200804396907696e-06,3.8903367263972935e-06,6.994968882561065e-07,1.3943660636419195e-05
1.1895469076697121e-06,3.933883550022464e-06,6.947074788740302e-07,1.3962309708500005e-05
1.1592780783474006e-06,3.975648814596282e-06,6.905742199942372e-07,1.3976098573944815e-05
1.1293211828133142e-06,4.015493726455589e-06,6.871485631880003e-07,1.3985427576426675e-05
1.0997177132301662e-06,4.053284051519643e-06,6.844750002268379e-07,1.3990975846596333e-05
1.0705074841044205e-06,4.088873137590519e-06,6.825847195971868e-07,1.3993662609226767e-05
1.0417369917494587e-06,4.122101158394395e-06,6.814944503530649e-07,1.3994467198261286e-05
1.0134683543026206e-06,4.152796519207254e-06,6.812080767090321e-07,1.3994257835183578e-05
9.857824019928509e-07,4.180775679203196e-06,6.817170541276064e-07,1.3993716561794687e-05
9.587733005509182e-07,4.205847813547533e-06,6.83001931197727e-07,1.3993426552585526e-05
9.32539307741424e-07,4.22782697795197e-06,6.850367568387779e-07,1.3994112425067127e-05
9.071778653662028e-07,4.246547835985231e-06,6.877911001866485e-07,1.3996836929559164e-05
8.827856180669642e-07,4.261879072374057e-06,6.912278017524096e-07,1.4002994944081491e-05
8.594576488787482e-07,4.273729755932322e-06,6.953025525160288e-07,1.401417646010983e-05
8.372853916148436e-07,4.282046003212064e-06,6.999671865383486e-07,1.4032019014599154e-05
8.163553270807368e-07,4.2867992260196416e-06,7.051723331521317e-07,1.4058080859930264e-05
7.967470260559529e-07,4.287971408472761e-06,7.108672783783597e-07,1.4093739790515564e-05
7.78528725984733e-07,4.285543569304153e-06,7.169977665341104e-07,1.414011788659578e-05
7.617519355431198e-07,4.279490732903859e-06,7.23503898040822e-07,1.4198024240834851e-05
7.464494511576456e-07,4.269782066117689e-06,7.303206645487076e-07,1.426792575202615e-05
7.326389787025638e-07,4.256383542425593e-06,7.373796985393605e-07,1.434995898013753e-05
7.203296183690173e-07,4.23926559638985e-06,7.446093753352528e-07,1.4443959829399282e-05
7.095280111355952e-07,4.218419376051378e-06,7.519345332850799e-07,1.4549477199747705e-05
7.002419200934222e-07,4.193874955745286e-06,7.592779603393243e-07,1.4665783113324448e-05
6.924783679836472e-07,4.165709269243096e-06,7.665639732639469e-07,1.4791909078329403e-05
6.862383012977595e-07,4.134041777446198e-06,7.737235442722424e-07,1.4926706710353558e-05
6.815198730519025e-07,4.099022268927885e-06,7.806972738477598e-07,1.5068925352016694e-05
6.783378355795331e-07,4.0608157484244085e-06,7.874329261665817e-07,1.5217300433332773e-05
6.767423296811669e-07,4.01960132695211e-06,7.938814633043277e-07,1.537062156695037e-05
6.768141493350926e-07,3.975597251833129e-06,7.999961508220597e-07,1.5527758925825367e-05
6.78640602583954e-07,3.929091379170922e-06,8.057342292358046e-07,1.568766688233296e-05
6.822940399485973e-07,3.8804475769165014e-06,8.110600093864176e-07,1.5849380267545666e-05
6.878228178724999e-07,3.830083576685204e-06,8.159465604955975e-07,1.6011994433148003e-05
6.952490152968486e-07,3.778434285569683e-06,8.20372653984937e-07,1.6174628675937228e-05
7.045663032235011e-07,3.7259157242530092e-06,8.243184162454717e-07,1.6336378646518342e-05
7.157377045035694e-07,3.6728998685718963e-06,8.277663416519113e-07,1.649628075368815e-05
7.286957798659216e-07,3.6197039208503432e-06,8.307080317869655e-07,1.6653344916881414e-05
7.433453989564319e-07,3.5665898141050973e-06,8.331513773439758e-07,1.6806647316946733e-05
7.595675371998252e-07,3.5137686790371637e-06,8.351240513043495e-07,1.6955379237613578e-05
7.77223924758991e-07,3.461414071956317e-06,8.366722918451933e-07,1.7098803900303386e-05
7.96164037558691e-07,3.409690238701722e-06,8.378548788532506e-07,1.723617778137627e-05
8.162345180346137e-07,3.358784590156612e-06,8.38734225984218e-07,1.7366698248983348e-05
8.372883588897224e-07,3.3089186308383837e-06,8.393715707499343e-07,1.7489505806857974e-05
8.591905468441967e-07,3.2603264541892907e-06,8.398304886696176e-07,1.760374285904316e-05
8.81818908366139e-07,3.2132204622485456e-06,8.40181045315878e-07,1.7708637468995546e-05
9.050621266660687e-07,3.1677719939396017e-06,8.404964236273062e-07,1.7803572447058467e-05
9.288170838301519e-07,3.1241110071515987e-06,8.408447538857939e-07,1.7888144119204494e-05
9.529850805743321e-07,3.0823286621505674e-06,8.412822395577249e-07,1.7962236334981907e-05
9.77466824631379e-07,3.042477465430748e-06,8.418512722784554e-07,1.8026072800499343e-05
1.002159236393431e-06,3.0045821515445094e-06,8.425842549740531e-07,1.8080174068635272e-05
1.0269564188563808e-06,2.9686697533785644e-06,8.435077401792751e-07,1.8125219954535512e-05
1.051752062974379e-06,2.9348040777118373e-06,8.446408964052728e-07,1.816189762999108e-05
1.0764392307718617e-06,2.903094363043428e-06,8.45991330409129e-07,1.819080011654024e-05
1.1009090100654993e-06,2.8736695412856988e-06,8.475557774377426e-07,1.8212382107173947e-05
1.1250529164704858e-06,2.8466558190329146e-06,8.493270477489309e-07,1.822695366032799e-05
1.1487686752577776e-06,2.822197119962354e-06,8.51301877859372e-07,1.8234696546397707e-05
1.1719648740398972e-06,2.8005033358609942e-06,8.53483911963102e-07,1.823570753969529e-05
1.1945620539401969e-06,2.781879196183304e-06,8.558803348496601e-07,1.823005769198696e-05
1.216488882524919e-06,2.7667059034165056e-06,8.584948965313388e-07,1.8217826198048102e-05
1.2376758441156088e-06,2.7553804909402198e-06,8.613223907024565e-07,1.819912464394818e-05
1.2580552756985656e-06,2.7482486037809157e-06,8.643488268749709e-07,1.81741353790713e-05
1.2775686169849658e-06,2.7455766394622908e-06,8.675557466706397e-07,1.8143090284412232e-05
1.2961694574042152e-06,2.747569721811272e-06,8.709238519278052e-07,1.8106195453517072e-05
1.31381983369101e-06,2.7543960464403357e-06,8.744349716055266e-07,1.806366931100309e-05
1.330487436536939e-06,2.7661887654876e-06,8.780733689035448e-07,1.8015946386602108e-05
1.346143704612277e-06,2.783031494484346e-06,8.818263567304036e-07,1.796386224548302e-05
1.3607600792060387e-06,2.804940264609967e-06,8.856847702804321e-07,1.790865085753574e-05
1.3743050228314394e-06,2.831847310331359e-06,8.896425516719395e-07,1.7851802257277828e-05
1.3867427164492944e-06,2.863593452094857e-06,8.936943234656794e-07,1.7794924983522132e-05
1.398032959729203e-06,2.899934624500706e-06,8.978323846109846e-07,1.7739659007252815e-05
1.4081340991404578e-06,2.940558564817497e-06,9.020436153529536e-07,1.7687589934441072e-05
1.417008333439834e-06,2.9851051177543123e-06,9.063065762170444e-07,1.764014992661581e-05
1.4246259895153709e-06,3.0331862894968887e-06,9.105911366515122e-07,1.7598538348114893e-05
1.4309670410027549e-06,3.084398474661872e-06,9.148603713233179e-07,1.756366314092626e-05
1.4360186698403024e-06,3.1383219743239553e-06,9.190727483245251e-07,1.7536102412238432e-05
1.4397700685636896e-06,3.1945207903953517e-06,9.231842448997857e-07,1.7516111773385482e-05
1.4422103604848057e-06,3.2525575221343223e-06,9.271500601700645e-07,1.7503669516128774e-05
1.4433323703906657e-06,3.312013235626768e-06,9.309255121698957e-07,1.74985338935583e-05
1.4431373587605494e-06,3.372491130121022e-06,9.344662058898762e-07,1.750030801042249e-05
1.441635538273286e-06,3.433604054253616e-06,9.377283238597458e-07,1.7508499341679824e-05
1.438842750539579e-06,3.4949689757302307e-06,9.406693791695336e-07,1.7522560269608173e-05
1.4347763191980022e-06,3.556219054070018e-06,9.432477684626976e-07,1.7541918503298176e-05
1.4294522541467589e-06,3.61701341191942e-06,9.454208415958573e-07,1.7566006095865157e-05
1.4228847534957803e-06,3.6770278703845278e-06,9.471437376090904e-07,1.759429940852695e-05
1.4150878982373536e-06,3.7359382124437104e-06,9.483699163546566e-07,1.7626397879732593e-05
1.4060785239637675e-06,3.793415791584842e-06,9.490526026084087e-07,1.7662154849104213e-05
1.3958776586803317e-06,3.849135780569888e-06,9.491463479848604e-07,1.7701792544841128e-05
1.384509068689495e-06,3.902781813295721e-06,9.486078668382544e-07,1.7745881285001857e-05
1.371997665536323e-06,3.954041971651056e-06,9.473965537511906e-07,1.7795174628595233e-05
1.358370192274422e-06,4.0026069986304735e-06,9.454767697403866e-07,1.7850409324101317e-05
1.3436572597766136e-06,4.048175593669983e-06,9.428220382048941e-07,1.791214717452174e-05
1.3278948226328364e-06,4.090462507091619e-06,9.394174893764759e-07,1.7980713994654582e-05
1.3111235269928391e-06,4.1292090886601895e-06,9.352575615971035e-07,1.8056320589118404e-05
1.2933869401526186e-06,4.164197633875001e-06,9.303415147200736e-07,1.813930407598876e-05
1.2747313078258641e-06,4.1952620440937406e-06,9.246715132252873e-07,1.823024190336972e-05
1.2552070791656714e-06,4.222283727327169e-06,9.182535345808991e-07,1.8329836943025603e-05
1.234871511826452e-06,4.245180463670912e-06,9.110984880866728e-07,1.843870025563653e-05
1.213792068867853e-06,4.263915245003041e-06,9.032228051990023e-07,1.855715941325105e-05
1.192048742733427e-06,4.278530004409736e-06,8.946481984056755e-07,1.8685162909598238e-05
1.169732280611974e-06,4.289173414422443e-06,8.853997900011576e-07,1.882228123139127e-05
1.1469375506232664e-06,4.296100660988397e-06,8.755038205561613e-07,1.8967743728539945e-05
1.1237559605816627e-06,4.2996530828044885e-06,8.649868372956955e-07,1.912049463556664e-05
1.1002716716122758e-06,4.3002282965202435e-06,8.538759460263924e-07,1.9279271952446327e-05
1.076562123776743e-06,4.298240840873568e-06,8.421987424167824e-07,1.9442664571674653e-05
1.052699951383241e-06,4.2940861649369416e-06,8.299832695457411e-07,1.9609123093534973e-05
1.0287541870200376e-06,4.288138963039972e-06,8.172592290358806e-07,1.977696744305101e-05
1.0047918977917988e-06,4.280790579290105e-06,8.040603880504128e-07,1.9944431956040087e-05
9.808819957983616e-07,4.272486525024801e-06,7.904270131569083e-07,2.0109733987480444e-05
9.571003228553637e-07,4.263726081461802e-06,7.764071226929941e-07,2.027113291760672e-05
9.33533200674836e-07,4.255018474887237e-06,7.620553500761293e-07,2.042695902784981e-05
9.102787187412693e-07,4.246823384104258e-06,7.474297326770577e-07,2.0575601712216337e-05
8.874474667751095e-07,4.2395202555584515e-06,7.325901203973189e-07,2.0715473331751958e-05
8.651614127676906e-07,4.233418856818892e-06,7.176001852675953e-07,2.0844986053828374e-05
8.435484859251104e-07,4.228773969529142e-06,7.025305964323853e-07,2.0962562228592465e-05
8.227352800320215e-07,4.225777445832065e-06,6.874609976935004e-07,2.1066676537349066e-05
8.028408610417746e-07,4.2245480183225115e-06,6.724786198418714e-07,2.1155901537852082e-05
7.839707259331052e-07,4.225141093531882e-06,6.576732262792881e-07,2.1228917307005736e-05
7.662115817354248e-07,4.227568476543686e-06,6.43132546532216e-07,2.128450303500289e-05
7.496310030679435e-07,4.231812468786659e-06,6.289417452872616e-07,2.132157746659579e-05
7.342823703034419e-07,4.2378324703462516e-06,6.151850480635864e-07,2.1339289161748857e-05
7.202112082760542e-07,4.245563263463598e-06,6.01945148103512e-07,2.133707292803298e-05
7.074590130478313e-07,4.254904900069046e-06,5.893017230317029e-07,2.1314633959632115e-05
6.960617116747897e-07,4.265717770948118e-06,5.773347554733514e-07,2.1271904018603893e-05
6.860447305317797e-07,4.277840598393579e-06,5.661308610495571e-07,2.120901132598681e-05
6.774205152154397e-07,4.291126960106829e-06,5.557839961244017e-07,2.1126275186785767e-05
6.701898337614736e-07,4.3054738324800174e-06,5.463873232484335e-07,2.1024201640530804e-05
6.643443398675706e-07,4.320821207908416e-06,5.380213994598135e-07,2.0903435027647026e-05
6.59869152333731e-07,4.337124141314485e-06,5.307457279104249e-07,2.0764689010523688e-05
6.56743634782905e-07,4.354319456965689e-06,5.245964534132523e-07,2.0608737930728252e-05
6.549386614238336e-07,4.372312716140871e-06,5.195889907132095e-07,2.0436459726657207e-05
6.544131332126528e-07,4.390987469959067e-06,5.157233904381925e-07,2.024884600997064e-05
6.551133512043854e-07,4.410218611257614e-06,5.129886115296832e-07,2.004696944528281e-05
6.569746208731503e-07,4.429876997165963e-06,5.113632325685301e-07,1.983195328900584e-05
6.599238753253013e-07,4.449822784495839e-06,5.108149779680904e-07,1.960494496621938e-05
6.638837113297117e-07,4.469892881090212e-06,5.11301447336916e-07,1.936707583863963e-05
6.687768322768778e-07,4.489894592174234e-06,5.127725094421571e-07,1.9119416465293327e-05
6.745291451758939e-07,4.5096085844064765e-06,5.1517360843701e-07,1.8862951726197133e-05
6.810708144974325e-07,4.52879544452123e-06,5.18447388913225e-07,1.8598583440011097e-05
6.883344359800046e-07,4.547210628214938e-06,5.22535255764736e-07,1.8327137426851033e-05
6.962505014836288e-07,4.564630001022513e-06,5.273836071515945e-07,1.80493531760512e-05
7.047430245211107e-07,4.580865986497969e-06,5.329511182887876e-07,1.7765896789076894e-05
7.13727816102207e-07,4.595758257351121e-06,5.392086459705083e-07,1.747748717725304e-05
7.231132744454772e-07,4.6091496531043435e-06,5.461325423798028e-07,1.7185109375586132e-05
7.328025638045152e-07,4.6208688903586885e-06,5.536982424961985e-07,1.6890105348622078e-05
7.426962382389031e-07,4.630732776131342e-06,5.618757634564361e-07,1.6594053955208093e-05
7.526945168309964e-07,4.638562630450376e-06,5.706274901475955e-07,1.6298640150054034e-05
7.626990941730238e-07,4.6441980534635625e-06,5.799101827189433e-07,1.600564548811639e-05
7.726146313454889e-07,4.6474989987925695e-06,5.896776677848961e-07,1.5716965103751714e-05
7.823492734612197e-07,4.648339531681523e-06,5.998804344005558e-07,1.543457887683448e-05
7.918142610367628e-07,4.646602851501492e-06,6.104649150659017e-07,1.5160479403521332e-05
8.009239555086099e-07,4.642187763331613e-06,6.213747266080766e-07,1.4896558547250268e-05
8.095962368656445e-07,4.635021405493607e-06,6.325523529290505e-07,1.4644485911477744e-05
8.177522184052578e-07,4.62505872899681e-06,6.439397208800521e-07,1.4405629884910166e-05
8.253160822469867e-07,4.612265240089531e-06,6.554777683012212e-07,1.4181033352851273e-05
8.322165176305234e-07,4.5966006274379415e-06,6.671070707773729e-07,1.3971427496052942e-05
8.383887105490367e-07,4.578015658087417e-06,6.787711236455193e-07,1.3777280873052005e-05
8.437754111158139e-07,4.556463785694954e-06,6.904197883663924e-07,1.3598879110648865e-05
8.483297766054225e-07,4.5319278676548405e-06,7.020098468622721e-07,1.3436392517284089e-05
8.520217569074638e-07,4.504454524011994e-06,7.135029833598894e-07,1.3289891834765637e-05
8.548416854407327e-07,4.47417621889914e-06,7.248616611185755e-07,1.3159341604136024e-05
8.567956051257301e-07,4.4413050954386255e-06,7.360445648387002e-07,1.3044633577457433e-05
8.578965499764776e-07,4.4061020894804815e-06,7.47005035805295e-07,1.2945652045764066e-05
8.581579898007713e-07,4.368838160888138e-06,7.576922315517319e-07,1.2862302957940967e-05
8.575909641719037e-07,4.329763111243654e-06,7.680525141964763e-07,1.2794475812595638e-05
8.56203758771301e-07,4.2890932743835646e-06,7.780310414967949e-07,1.2741965220599174e-05
8.540030244396225e-07,4.2470221184039425e-06,7.875741214629477e-07,1.2704398185383375e-05
8.509961307513569e-07,4.203743926258304e-06,7.96630339374704e-07,1.2681196425440316e-05
8.471934475539978e-07,4.1594723001185165e-06,8.05149351731483e-07,1.2671572825162595e-05
8.426082815843755e-07,4.114438166420976e-06,8.13080662976245e-07,1.2674548429041925e-05
8.372550258555884e-07,4.068866907356021e-06,8.203740592200058e-07,1.2688985890607445e-05
8.311482909649517e-07,4.022952071342563e-06,8.269814029800546e-07,1.2713644986356794e-05
8.24304054062415e-07,3.976842214231269e-06,8.32859083647119e-07,1.2747247098131477e-05
8.167412551647762e-07,3.930643565401262e-06,8.379704397882617e-07,1.2788515649134952e-05
8.084832213621233e-07,3.884438457102276e-06,8.422882164068724e-07,1.2836192951861173e-05
7.995618790164695e-07,3.83832143015211e-06,8.457968281974521e-07,1.2889078421113161e-05
7.900244479222766e-07,3.7924406694681635e-06,8.48493157624985e-07,1.2946105285258431e-05
7.799346472090392e-07,3.7470141670464095e-06,8.503857212498771e-07,1.3006390948486121e-05
7.693646897169825e-07,3.7023017236419266e-06,8.514922955078497e-07,1.3069186338124755e-05
7.58385547166045e-07,3.6585547692170655e-06,8.51835515735772e-07,1.3133758702693962e-05
7.470624709038548e-07,3.6159869131820986e-06,8.514390505880167e-07,1.319931144948831e-05
7.35454953169752e-07,3.574777626373815e-06,8.503271935537427e-07,1.3264992731136555e-05
7.236181294388816e-07,3.5350843471599447e-06,8.48526319079403e-07,1.3329972836122442e-05
7.116042943186604e-07,3.497045241116332e-06,8.460665704483125e-07,1.3393517160143359e-05
6.994636999353621e-07,3.4607793022690376e-06,8.429825430694874e-07,1.3454983795523967e-05
6.872438135035919e-07,3.426391132012005e-06,8.393104989517382e-07,1.351376131830887e-05
6.749879475937329e-07,3.39397343126001e-06,8.350839498621763e-07,1.3569217199643233e-05
6.627352431041426e-07,3.363598665991592e-06,8.303322726040039e-07,1.3620703115024574e-05
6.505217555626316e-07,3.335304343045288e-06,8.250819309897862e-07,1.3667629127741547e-05
6.383813482808701e-07,3.309083694532586e-06,8.193566501794176e-07,1.3709569062456676e-05
6.263478777960863e-07,3.284888942568042e-06,8.131763897107575e-07,1.3746305913372449e-05
6.144601157773279e-07,3.262643046316281e-06,8.065575072233158e-07,1.3777765807164844e-05
6.02765755890226e-07,3.2422473311720632e-06,7.995145739443615e-07,1.3803905795832645e-05
5.913198865260097e-07,3.2235812922108835e-06,7.92062917042899e-07,1.3824655563589694e-05
5.801785196512202e-07,3.2065027366410005e-06,7.842211521883216e-07,1.383991625150258e-05
5.693918478282717e-07,3.190850166157075e-06,7.760123048892757e-07,1.3849564148241018e-05
5.590019156606435e-07,3.176444640256107e-06,7.674623005878611e-07,1.3853472485752545e-05
5.490444529072803e-07,3.1630963814119237e-06,7.585968286918783e-07,1.3851592229917645e-05
5.395497643962613e-07,3.1506185923116044e-06,7.494389569071052e-07,1.3844090246147488e-05
5.305418258320582e-07,3.138837167051161e-06,7.400087522433566e-07,1.3831492459556824e-05
5.220400955278797e-07,3.1275894085458056e-06,7.303247123801963e-07,1.3814718760366016e-05
5.140632879696997e-07,3.1167234015045744e-06,7.204057116386389e-07,1.3794947738022086e-05
5.066303471631046e-07,3.1061043387116835e-06,7.102716437800441e-07,1.3773400505251444e-05
4.997597826123384e-07,3.095614846851038e-06,6.999433311677273e-07,1.3751164355388266e-05
4.934696531242615e-07,3.0851451165873124e-06,6.894442944783479e-07,1.3729131114347036e-05
4.877761400248171e-07,3.0745862160459487e-06,6.788036095843742e-07,1.370811871529345e-05
4.826927992751127e-07,3.06383000184863e-06,6.680555932684897e-07,1.3689130745336015e-05
4.782360700986779e-07,3.0527681722808287e-06,6.5723624573106e-07,1.3673538774917288e-05
4.7443325696221206e-07,3.041296022826629e-06,6.463826419414047e-07,1.3663050699364148e-05
4.713231302802472e-07,3.029327317012828e-06,6.355379954126566e-07,1.3659549304602056e-05
4.6894911140109777e-07,3.01680420043698e-06,6.247562345693118e-07,1.3664932167046706e-05
4.673530257222048e-07,3.003688044006005e-06,6.14099368062619e-07,1.368099934685367e-05
4.6657160017242405e-07,2.9899454504440886e-06,6.036292975879997e-07,1.3709377874202425e-05
4.6663277096167137e-07,2.975544188748601e-06,5.934016291766516e-07,1.375146522131945e-05
4.675522438695326e-07,2.96045128953854e-06,5.834648038142459e-07,1.3808387987458814e-05
4.6933254115418693e-07,2.944627886749586e-06,5.73861525417076e-07,1.3880973316271344e-05
4.719637344858052e-07,2.928029942520049e-06,5.646304827418095e-07,1.3969722169195871e-05
4.7542403574522e-07,2.910623511480867e-06,5.558093953822911e-07,1.40747769762831e-05
4.796807780367825e-07,2.892413370949164e-06,5.474379610259889e-07,1.4195904754848929e-05
4.846921969230468e-07,2.8734698925528967e-06,5.395566964534447e-07,1.4332538058607754e-05
4.904085605399977e-07,2.853932604053741e-06,5.322022628403253e-07,1.4483874160753812e-05
4.967738346928864e-07,2.8339825675787262e-06,5.254031216463507e-07,1.4648987278124313e-05
5.037301915509681e-07,2.8138054730662968e-06,5.191771891855323e-07,1.482692158932515e-05
5.112227620687733e-07,2.7935795468276253e-06,5.135325530596232e-07,1.501675194530185e-05
5.192010133537582e-07,2.77349017976773e-06,5.084707802130249e-07,1.5217615473549693e-05
5.276170764776216e-07,2.7537405493289647e-06,5.03991047735625e-07,1.5428733220868192e-05
5.364231487675628e-07,2.734538578138355e-06,5.000941112264201e-07,1.5649417129677874e-05
5.455697853280754e-07,2.7160703312764493e-06,4.967828025028671e-07,1.5879033766369307e-05
5.550055285872853e-07,2.698482474204107e-06,4.940578203156293e-07,1.6116922472673016e-05
5.646772284198552e-07,2.6818817120002853e-06,4.919156358719703e-07,1.6362305919537078e-05
5.745308210193625e-07,2.666339975459005e-06,4.90352263439396e-07,1.661423428914919e-05
5.845121587463316e-07,2.651903090101316e-06,4.893656855989846e-07,1.687157318196613e-05
5.945672557514986e-07,2.6386144170198465e-06,4.889527759793743e-07,1.7133030708722017e-05
6.046430544616662e-07,2.626545580073679e-06,4.891070016325426e-07,1.7397215744105506e-05
6.146913607630259e-07,2.615804840025968e-06,4.898206164579572e-07,1.7662693374842112e-05
6.246753904938925e-07,2.606513558542336e-06,4.910878461515911e-07,1.792801267135593e-05
6.345731261974322e-07,2.5987733802187683e-06,4.929070127245678e-07,1.819173090572673e-05
6.443752188392307e-07,2.592646956643014e-06,4.952811507554366e-07,1.845245473828928e-05
6.540824055189918e-07,2.588159339586553e-06,4.982145602102043e-07,1.870886669245293e-05
6.637035148702235e-07,2.585313877601515e-06,5.017061521153574e-07,1.8959714968297612e-05
6.732499247405484e-07,2.584104932866217e-06,5.057453822473671e-07,1.9203805142019295e-05
6.827281983879813e-07,2.584518233130584e-06,5.103132596861865e-07,1.9440005060370312e-05
6.921366943957982e-07,2.586527295837061e-06,5.153860022621203e-07,1.9667226513328588e-05
7.014669246716799e-07,2.5900906664173808e-06,5.209390028024196e-07,1.9884386748544368e-05
7.107063393874801e-07,2.5951495226938074e-06,5.269494646466812e-07,2.009037289020016e-05
7.198394357561888e-07,2.601633141260471e-06,5.333963620080163e-07,2.0284019090986303e-05
7.288463258485956e-07,2.6094699933425897e-06,5.402581996750969e-07,2.0464113351801045e-05
7.377015097769291e-07,2.6185889323371868e-06,5.475099726155899e-07,2.062943943815961e-05
7.463761156771291e-07,2.628918048905174e-06,5.551201602548133e-07,2.07788368862816e-05
7.548418929269824e-07,2.640404726968713e-06,5.630493727399861e-07,2.091125483575664e-05
7.630725610287259e-07,2.6530456218435606e-06,5.712522855537542e-07,2.1025779437660393e-05
7.710427343115702e-07,2.666890426303682e-06,5.796808055460422e-07,2.1121633217563904e-05
7.787280626111869e-07,2.682013312737904e-06,5.882853612175691e-07,2.1198161840445965e-05
7.861087238510049e-07,2.6984760635529014e-06,5.970148946568064e-07,2.1254821936388705e-05
7.931754344343416e-07,2.7163013222899687e-06,6.058169534853727e-07,2.1291189340454112e-05
7.999326465178573e-07,2.735461887969076e-06,6.146388590094034e-07,2.1306992761221922e-05
8.063937836304979e-07,2.755883001648883e-06,6.234308250591475e-07,2.130211130456605e-05
8.125714004921449e-07,2.7774481896107362e-06,6.321482231670394e-07,2.127650649348732e-05
8.184699865705795e-07,2.8000042649238344e-06,6.407499958638947e-07,2.1230175557733693e-05
8.240846722172966e-07,2.8233680815884737e-06,6.491953994929897e-07,2.1163181208800302e-05
8.294036902212795e-07,2.8473397818769243e-06,6.574427006016286e-07,2.1075714483878268e-05
8.344121337617912e-07,2.8717242272419417e-06,6.654506416599403e-07,2.0968126865946405e-05
8.390951367829615e-07,2.896352097239741e-06,6.731803083759275e-07,2.084089428015137e-05
8.434392604994601e-07,2.9210858080705448e-06,6.805944084737179e-07,2.069455850420307e-05
8.474344262451012e-07,2.94580524886722e-06,6.876549433525224e-07,2.0529734137753464e-05
8.510789426127945e-07,2.9703892807750026e-06,6.943230487556411e-07,2.0347162452241187e-05
8.543837159056859e-07,2.9947109046862047e-06,7.005628698628355e-07,2.014770683117705e-05
8.573699134996014e-07,3.0186403870041296e-06,7.063474540749899e-07,1.9932275216117896e-05
8.600611682898766e-07,3.042042839252378e-06,7.116609879086211e-07,1.9701757040953532e-05
8.62479447179035e-07,3.064774372233873e-06,7.164950073263626e-07,1.945703557391738e-05
8.646538785631819e-07,3.086688334723824e-06,7.208437335632854e-07,1.919906390478545e-05
8.666362722348095e-07,3.107650385997008e-06,7.247023827380295e-07,1.892892636513481e-05
8.685042849085856e-07,3.1275508542316573e-06,7.280665186819605e-07,1.864781199669881e-05
8.703462537227291e-07,3.146305820453512e-06,7.309308852220806e-07,1.8356931839828754e-05
8.722415528633205e-07,3.163847212944779e-06,7.332890877050203e-07,1.805745185691329e-05
8.74249835720739e-07,3.180109380716785e-06,7.351347398237431e-07,1.7750451517265292e-05
8.764099620070835e-07,3.1950196832045917e-06,7.364630536898616e-07,1.743690019868918e-05
8.787434324409184e-07,3.208498212163189e-06,7.372738756425845e-07,1.71176615761083e-05
8.812582790972866e-07,3.220470085835726e-06,7.375771324376826e-07,1.679351934562442e-05
8.839532308875082e-07,3.23088284531289e-06,7.373967750788341e-07,1.6465206630103313e-05
8.868239187846933e-07,3.2397115127802015e-06,7.367683243466194e-07,1.613346904729574e-05
8.898686189510888e-07,3.24694570277616e-06,7.357306364591112e-07,1.5799208644491267e-05
8.930893563604691e-07,3.2525745483852124e-06,7.343178239048891e-07,1.546362449627528e-05
8.964892585278181e-07,3.2565865452429626e-06,7.325561695417988e-07,1.5128200280501596e-05
9.000695475141722e-07,3.2589795448773635e-06,7.304654356109365e-07,1.4794555756865366e-05
9.038289212159798e-07,3.2597641012146155e-06,7.280612753664643e-07,1.4464300697299635e-05
9.077681743510272e-07,3.2589572606994595e-06,7.253570201496558e-07,1.4139018506731632e-05
9.118988428620264e-07,3.256573758944019e-06,7.223659891127677e-07,1.3820430792487637e-05
9.162482596888636e-07,3.252617308252795e-06,7.191045271115107e-07,1.3510589940891956e-05
9.208548261600515e-07,3.24707597246042e-06,7.155927564705279e-07,1.3211885000355105e-05
9.257557383160526e-07,3.2399260978456563e-06,7.118523730712443e-07,1.2926876574645924e-05
9.309754945401793e-07,3.2311414895444244e-06,7.079047051674772e-07,1.2658115296948214e-05
9.365215205326664e-07,3.220702741334276e-06,7.037714263661857e-07,1.2408011163915806e-05
9.423863411160456e-07,3.208605694159049e-06,6.99477957624476e-07,1.2178737676914332e-05
9.485531525959169e-07,3.194869647937736e-06,6.950574744240421e-07,1.1972144460614955e-05
9.550036050700814e-07,3.179545722876434e-06,6.905532704444407e-07,1.1789671075578169e-05
9.617261184493992e-07,3.1627221448920363e-06,6.860179089286756e-07,1.1632290792310507e-05
9.687207384359913e-07,3.144518654631577e-06,6.815075579361635e-07,1.1500512518711183e-05
9.759966618706863e-07,3.1250681696437383e-06,6.770747824293735e-07,1.139442247344644e-05
9.835638935428088e-07,3.1044985353476972e-06,6.727667539805239e-07,1.1313734588489506e-05
9.914258570899941e-07,3.082928605154532e-06,6.686293115548916e-07,1.1257847277703187e-05
9.995758671042377e-07,3.0604773377878237e-06,6.6471041997097e-07,1.1225908772896203e-05
1.00799493161169e-06,3.0372753802585138e-06,6.610582755769204e-07,1.1216885669062233e-05
1.0166517290437394e-06,3.0134702754845637e-06,6.57715195640181e-07,1.1229637267242081e-05
1.0255081018382977e-06,2.98921932879876e-06,6.547119737377525e-07,1.1262978746328148e-05
1.0345263400568086e-06,2.964671620856026e-06,6.520658278023527e-07,1.1315698010719875e-05
1.0436706933046531e-06,2.9399500043288768e-06,6.497816380448814e-07,1.138653913385066e-05
1.0529041427046386e-06,2.9151441466231898e-06,6.478548022395368e-07,1.1474192998825486e-05
1.0621859871944289e-06,2.8903166165625173e-06,6.462733752760218e-07,1.1577291025825266e-05
1.0714697467577692e-06,2.865514229964815e-06,6.450183897731603e-07,1.16943821882918e-05
1.0807004177974214e-06,2.840773395152745e-06,6.440640158347696e-07,1.182390443721919e-05
1.089813917893454e-06,2.816115304654148e-06,6.433788511715325e-07,1.1964180348085886e-05
1.0987389506863036e-06,2.7915393468257407e-06,6.429284460267125e-07,1.2113453870591405e-05
1.1073991875952351e-06,2.7670247634393713e-06,6.426795345959861e-07,1.2269943627384477e-05
1.1157157568062559e-06,2.742541063060177e-06,6.426045965583871e-07,1.243187892347403e-05
1.1236108444148432e-06,2.718059640882581e-06,6.426833603546907e-07,1.259751956219723e-05
1.1310119680005038e-06,2.6935567286148863e-06,6.429005321455867e-07,1.2765166260218179e-05
1.1378548982904601e-06,2.669007482950523e-06,6.432420242383939e-07,1.2933161597532913e-05
1.1440834963907905e-06,2.6443836856838724e-06,6.436922927896236e-07,1.3099890093184413e-05
1.1496502514798827e-06,2.6196618175716354e-06,6.442340482158155e-07,1.3263782657185546e-05
1.1545225598033545e-06,2.594833243751459e-06,6.448494372440455e-07,1.3423325920731516e-05
1.1586898683731188e-06,2.569904657880899e-06,6.455217134710385e-07,1.3577067047854995e-05
1.1621633400660087e-06,2.544887740532828e-06,6.462358181217618e-07,1.372360724056405e-05
1.1649685102515031e-06,2.5197907839152603e-06,6.469763800322496e-07,1.3861600591663406e-05
1.1671357543553101e-06,2.494621607429866e-06,6.477256428009936e-07,1.3989773807246838e-05
1.1686915815845656e-06,2.46939325346091e-06,6.484635136920918e-07,1.4106971974121594e-05
1.169653235874196e-06,2.444122244176452e-06,6.491674791995472e-07,1.4212234331668406e-05
1.170027407080266e-06,2.418825835164748e-06,6.498119706944805e-07,1.4304898000891006e-05
1.1698118656734055e-06,2.393526499718801e-06,6.50370447903306e-07,1.4384692854881952e-05
1.1689999740697602e-06,2.368254892945816e-06,6.508195397392633e-07,1.4451755071325393e-05
1.1675878034638022e-06,2.3430431989089897e-06,6.511403638377701e-07,1.450653542400764e-05
1.1655801137253756e-06,2.31792000587545e-06,6.513164480049346e-07,1.4549648956426505e-05
1.1629910727164257e-06,2.2929159035678038e-06,6.513327764171049e-07,1.4581722140259225e-05
1.1598403284934349e-06,2.268071762054395e-06,6.511778817676052e-07,1.4603291436444405e-05
1.1561487656320937e-06,2.2434401852374042e-06,6.508460497314979e-07,1.4614782312065613e-05
1.1519374593255643e-06,2.21907849759042e-06,6.503363489293513e-07,1.461653563189144e-05
1.1472305561494406e-06,2.1950398258603548e-06,6.496491537122059e-07,1.4608864881311554e-05
1.1420593263737595e-06,2.1713712961504717e-06,6.487848207535637e-07,1.4592197840817664e-05
1.1364618900746072e-06,2.1481189835940362e-06,6.477456264953463e-07,1.456726083404375e-05
1.1304774089712309e-06,2.125334013797925e-06,6.465363079935967e-07,1.4535118060094785e-05
1.1241422176803406e-06,2.103074342441591e-06,6.451626177876307e-07,1.4497001648727716e-05
1.1174934432447471e-06,2.0813967729827838e-06,6.436313865465024e-07,1.4454088083195452e-05
1.110573566606438e-06,2.060343875617197e-06,6.419519628858775e-07,1.4407390055373974e-05
1.103427603217977e-06,2.0399369942146567e-06,6.401377480395314e-07,1.4357836929926236e-05
1.0960955943550136e-06,2.020178865314489e-06,6.3820754811561e-07,1.4306516115421835e-05
1.0886078571641822e-06,2.001063206307884e-06,6.361853735504574e-07,1.4254915294496756e-05
1.0809853449416509e-06,1.9825839135843683e-06,6.340984442470416e-07,1.4204991445608596e-05
1.07324317956998e-06,1.9647343559771984e-06,6.319751821629064e-07,1.4159063562545758e-05
1.0653950904421721e-06,1.9474983736188244e-06,6.298430562883967e-07,1.4119633993798756e-05
1.0574563694653051e-06,1.930843733056212e-06,6.277258292234187e-07,1.4089201924611167e-05
1.0494433309134487e-06,1.9147222906021644e-06,6.256448706459246e-07,1.4070094202931467e-05
1.04137068051262e-06,1.8990729644939057e-06,6.236275103672524e-07,1.4064333332574295e-05
1.0332495623438326e-06,1.883824279971317e-06,6.217140452625631e-07,1.4073553931790388e-05
1.025086548771548e-06,1.8688970435322285e-06,6.199536992165022e-07,1.4098963937930832e-05
1.016882843407676e-06,1.8542090863916802e-06,6.183937270874435e-07,1.4141330977776132e-05
1.0086343012953494e-06,1.8396832254180749e-06,6.170720409414045e-07,1.4200978588689276e-05
1.0003340324279869e-06,1.8252563950252857e-06,6.160160856510455e-07,1.4277801435403616e-05
9.91977245851594e-07,1.8108847833182526e-06,6.152454385694645e-07,1.4371314313340402e-05
9.83564534919468e-07,1.7965412156497966e-06,6.147742886805508e-07,1.4480714749170779e-05
9.751019327294536e-07,1.782208599615239e-06,6.146112486522235e-07,1.4604926799712809e-05
9.666002017568788e-07,1.7678812139798733e-06,6.147591147968718e-07,1.4742638970073901e-05
9.580747128413006e-07,1.7535771237448998e-06,6.152171613355132e-07,1.4892362684695946e-05
9.495447867710562e-07,1.7393469588355217e-06,6.159840911209843e-07,1.5052492812304183e-05
9.410311637335985e-07,1.725265469452832e-06,6.170599582585815e-07,1.5221350294522681e-05
9.325518929561352e-07,1.7114115573440941e-06,6.18446965636391e-07,1.5397227927837186e-05
9.241195493824812e-07,1.697855731965561e-06,6.201476968494772e-07,1.5578441779139816e-05
9.157414927097177e-07,1.6846633514326412e-06,6.221607648698439e-07,1.5763354565026222e-05
9.074211930317472e-07,1.6719023473310776e-06,6.244769965950239e-07,1.5950373926850924e-05
8.991591042101717e-07,1.6596450624959803e-06,6.270781294476127e-07,1.6137955609274052e-05
8.909536962498345e-07,1.6479639469689047e-06,6.299379009464414e-07,1.6324602062291987e-05
8.828031037408457e-07,1.6369227684184315e-06,6.330247505658197e-07,1.65088522213184e-05
8.747067620116068e-07,1.6265684911074414e-06,6.363044574038079e-07,1.6689297182224635e-05
8.666654589023497e-07,1.6169322611119042e-06,6.397408802618907e-07,1.686461288523363e-05
8.586793280920098e-07,1.6080394858031974e-06,6.432945967258888e-07,1.703356187929203e-05
8.507457200222269e-07,1.5999177480437276e-06,6.469214032916697e-07,1.7194960120314845e-05
8.428586972458262e-07,1.5925952919743157e-06,6.505735842834025e-07,1.7347635529892487e-05
8.350102832253003e-07,1.5860957997752374e-06,6.542051785759211e-07,1.749040301974018e-05
8.271922311695804e-07,1.5804360111633474e-06,6.57777395949998e-07,1.7622085000616895e-05
8.193961309309597e-07,1.575623328154232e-06,6.612585204246949e-07,1.7741606967535215e-05
8.116117206780709e-07,1.571650713049022e-06,6.646198461736874e-07,1.784815151327925e-05
8.038267645414764e-07,1.5684966890428282e-06,6.678338469830402e-07,1.7941274450718262e-05
7.960309591534769e-07,1.5661392552130497e-06,6.708750108698819e-07,1.802090654361048e-05
7.88219993528124e-07,1.5645800698716463e-06,6.737201590545322e-07,1.8087276023306047e-05
7.803941829643106e-07,1.5638653604298759e-06,6.763481098970605e-07,1.8140822143945458e-05
7.725539388872276e-07,1.5640878678508562e-06,6.787395938932014e-07,1.8182119661130654e-05
7.646975649532156e-07,1.5653643375579078e-06,6.808778633075859e-07,1.821179834444824e-05
7.568218726541206e-07,1.5678101559247175e-06,6.827498732163269e-07,1.823045713476891e-05
7.489250458122734e-07,1.5715395058079362e-06,6.843459161884051e-07,1.8238618626741973e-05
7.410123086453624e-07,1.576685974101003e-06,6.856566314349638e-07,1.8236750950528404e-05
7.331015683514666e-07,1.5834149518185196e-06,6.866700263440373e-07,1.8225299888542397e-05
7.252238757332072e-07,1.5919102876386428e-06,6.873714477975158e-07,1.8204674248445827e-05
7.174176940532539e-07,1.6023421429922399e-06,6.877459932004191e-07,1.8175204740573506e-05
7.097217162844876e-07,1.61484339185012e-06,6.877806570886843e-07,1.813714179641733e-05
7.021710612068698e-07,1.6295112352492844e-06,6.874652626341508e-07,1.809074231233494e-05
6.947974560352173e-07,1.6464169638184554e-06,6.86793629023793e-07,1.8036377078018764e-05
6.876318043462961e-07,1.6656027563812877e-06,6.857653633389957e-07,1.797453164224459e-05
6.8070730568128e-07,1.6870713510748092e-06,6.8438701334716e-07,1.790575063420083e-05
6.740615343397456e-07,1.710789559938243e-06,6.826729774783879e-07,1.783064232294549e-05
6.677364970711277e-07,1.7367131204817792e-06,6.806467188024708e-07,1.7749899008485225e-05
6.617752538179335e-07,1.764817630757492e-06,6.783396949175132e-07,1.766427819604977e-05
6.562166005317088e-07,1.7951146239369988e-06,6.75786819218058e-07,1.7574575004953175e-05
6.510933471785434e-07,1.8276402060324558e-06,6.730222735491494e-07,1.7481613563472738e-05
6.464341972813591e-07,1.8624244674508514e-06,6.700788784588203e-07,1.7386277047602357e-05
6.422644935118125e-07,1.8994801265749618e-06,6.669889777958671e-07,1.7289574413648733e-05
6.386093631056004e-07,1.9388365232600938e-06,6.637840332082219e-07,1.7192685053042756e-05
6.355038210924005e-07,1.9805901789488123e-06,6.604935928244641e-07,1.7096915554326292e-05
6.330013672101478e-07,2.0249260321701167e-06,6.57143866208004e-07,1.7003581581573966e-05
6.311702278080132e-07,2.0720935152119763e-06,6.537560175651741e-07,1.6913882916587693e-05
6.300785141371751e-07,2.1223496740243933e-06,6.503465867247635e-07,1.6828815178942745e-05
6.297805666349647e-07,2.1759000595232517e-06,6.469288792641226e-07,1.6749162401883308e-05
6.303142786298988e-07,2.2328719731706053e-06,6.43513162513851e-07,1.6675619673557752e-05
6.317063647566592e-07,2.293322700543161e-06,6.401078217621467e-07,1.660896617037686e-05
6.339776140427175e-07,2.3572531345663e-06,6.367210189036757e-07,1.6550129317732496e-05
6.371439064515015e-07,2.4246074669518213e-06,6.333604882803453e-07,1.6500134266510393e-05
6.412131586312215e-07,2.4952619268480013e-06,6.300326683393749e-07,1.6460033013962124e-05
6.46182129110469e-07,2.569014186210085e-06,6.267423615587397e-07,1.6430840584589026e-05
6.520349448500763e-07,2.6455846730463504e-06,6.234932192855896e-07,1.6413467724192978e-05
6.587426345394171e-07,2.7246316311529515e-06,6.202887240790886e-07,1.6408655199355372e-05
6.662656932901282e-07,2.805773035003075e-06,6.1713242799941e-07,1.6416950023459813e-05
6.745586678219154e-07,2.8886086408607203e-06,6.140291688746164e-07,1.643878567766209e-05
6.835712146887193e-07,2.9727406778795467e-06,6.109893235442464e-07,1.6474653384331345e-05
6.932463945290782e-07,3.057791426790996e-06,6.080338818819635e-07,1.652521480148654e-05
7.035210389839739e-07,3.14341096836279e-06,6.051965368544368e-07,1.6591225536435587e-05
7.143273932202934e-07,3.2292724487578448e-06,6.025193627050428e-07,1.6673328837571137e-05
7.25592816017864e-07,3.3150604985779436e-06,6.000428915371606e-07,1.6771869234909338e-05
7.372381824945256e-07,3.4004580079668967e-06,5.977978733523446e-07,1.6886861165836538e-05
7.491776983052159e-07,3.4851366524136666e-06,5.95803486372139e-07,1.701821276975702e-05
7.613205202615406e-07,3.5687616767565164e-06,5.940694361315224e-07,1.716609430673281e-05
7.73572645264567e-07,3.6510129791501993e-06,5.925988523360121e-07,1.7331129442298708e-05
7.858386632884694e-07,3.731608468674655e-06,5.913910096067771e-07,1.7514266064705233e-05
7.980238605722533e-07,3.810314864648648e-06,5.904421661661493e-07,1.7716509786896444e-05
8.100358352264534e-07,3.88694209908311e-06,5.897443726305393e-07,1.793871279414332e-05
8.217845055873522e-07,3.9613278357525735e-06,5.892846775950661e-07,1.818143629302521e-05
8.331815343340725e-07,4.033320339503721e-06,5.890450513748476e-07,1.844485841084182e-05
8.441406487334242e-07,4.102762273043276e-06,5.890021368541165e-07,1.872873245870848e-05
8.545784889709027e-07,4.169478095101301e-06,5.891278169080518e-07,1.903238454735587e-05
8.64415422887649e-07,4.233275159032296e-06,5.893911259853028e-07,1.9354718530169603e-05
8.735765962800356e-07,4.2939657949465205e-06,5.897616668393054e-07,1.9694224548008027e-05
8.819928430950994e-07,4.351399723476804e-06,5.90214660512565e-07,2.004902194182865e-05
8.896006908267081e-07,4.405486146646576e-06,5.907341873882758e-07,2.0416950552051322e-05
8.963419872899763e-07,4.456194230626651e-06,5.91311277067226e-07,2.079567828109273e-05
9.021644540880241e-07,4.503534758683442e-06,5.919404112204285e-07,2.118278471882518e-05
9.070229091041944e-07,4.547532527562928e-06,5.926184730383216e-07,2.1575798405267334e-05
9.108795505066284e-07,4.58820261010593e-06,5.933441226945312e-07,2.1972187049741628e-05
9.137032692231195e-07,4.625544815940075e-06,5.941163549547492e-07,2.2369343284987e-05
9.154692191136239e-07,4.659555843424829e-06,5.949331965576044e-07,2.2764603850291626e-05
9.161586489111464e-07,4.690238124162421e-06,5.957906182646985e-07,2.315529018760408e-05
9.157581757774246e-07,4.717592411845422e-06,5.966839950642335e-07,2.353875029247576e-05
9.142586449640468e-07,4.741607671853032e-06,5.976123256430033e-07,2.3912383456438884e-05
9.116548260738049e-07,4.762261109660961e-06,5.985791158937205e-07,2.427364559651409e-05
9.079461513844541e-07,4.779524022699546e-06,5.995879160079976e-07,2.4620069816451894e-05
9.031373183014263e-07,4.793374526812458e-06,6.006384227393183e-07,2.494930825396643e-05
8.972389678206795e-07,4.803821204202221e-06,6.017265130197177e-07,2.5259155890515665e-05
8.902702175235546e-07,4.810924609168101e-06,6.028463221407835e-07,2.554755450887136e-05
8.822638760053339e-07,4.814799495113058e-06,6.039929540390921e-07,2.5812606672201543e-05
8.732727848188898e-07,4.815593818736347e-06,6.051645905296853e-07,2.605258945092057e-05
8.633729635661084e-07,4.813455443840274e-06,6.063620666550425e-07,2.6265953289901296e-05
8.526591272242384e-07,4.808507001042699e-06,6.075862885586995e-07,2.6451325674232755e-05
8.412351933294327e-07,4.8008392175670285e-06,6.088358459710432e-07,2.660752322795591e-05
8.292102410685537e-07,4.790514150273559e-06,6.101072778154015e-07,2.6733553194007403e-05
8.167044711562282e-07,4.777571525843857e-06,6.113989192298415e-07,2.6828595373584853e-05
8.038542546733809e-07,4.7620429685385e-06,6.127161121798994e-07,2.689196687327782e-05
7.908045912907643e-07,4.743974458996763e-06,6.140729044716874e-07,2.69230902017531e-05
7.776941754902481e-07,4.723444470707293e-06,6.154866427625738e-07,2.692149268974429e-05
7.646461602452948e-07,4.700566140949953e-06,6.169694424570285e-07,2.688683688972696e-05
7.517671655200355e-07,4.675475173416616e-06,6.185241182465118e-07,2.681897737197032e-05
7.391480915741324e-07,4.648309902659158e-06,6.201456110648981e-07,2.6718048606091463e-05
7.268639471023885e-07,4.6191903230700135e-06,6.218242632267849e-07,2.658453356945877e-05
7.149755875866837e-07,4.588208217471545e-06,6.235483146260055e-07,2.6419243762256893e-05
7.035344253253747e-07,4.555432187385305e-06,6.253040126115686e-07,2.622323196946772e-05
6.925857174577557e-07,4.520915016185878e-06,6.270738045311286e-07,2.5997712888754863e-05
6.821670023466509e-07,4.484695440158936e-06,6.288351348527292e-07,2.5744025453521828e-05
6.723051215155172e-07,4.446802685170261e-06,6.305610231654921e-07,2.5463617434134548e-05
6.630164827496917e-07,4.4072703710497584e-06,6.322219953957653e-07,2.515802631519437e-05
6.543105759724673e-07,4.366151008978679e-06,6.337880613811932e-07,2.482887990425949e-05
6.461944197910565e-07,4.323517000205632e-06,6.352291518429166e-07,2.4477987421741048e-05
6.386767121057772e-07,4.279447275242111e-06,6.365146478753389e-07,2.4107537159676306e-05
6.317709204788017e-07,4.234016638942909e-06,6.376134582827693e-07,2.3720249783323958e-05
6.254942070378532e-07,4.187296963783388e-06,6.384948519507245e-07,2.3319305392545448e-05
6.198622788837853e-07,4.1393581667548035e-06,6.391300200717321e-07,2.2908083579185448e-05
6.148879018247977e-07,4.0902665183566885e-06,6.394931776211409e-07,2.2489885668595332e-05
6.105851956724368e-07,4.040093942726152e-06,6.39561459036711e-07,2.206775849701936e-05
6.069708096670005e-07,3.9889343261070525e-06,6.393153422469095e-07,2.1644528495026165e-05
6.040580322429664e-07,3.936904743137709e-06,6.387393607357675e-07,2.1223033911221148e-05
6.018497709072837e-07,3.88412885134461e-06,6.378215105817782e-07,2.0806316230348287e-05
6.003353995104001e-07,3.830725789938733e-06,6.365526984287543e-07,2.0397599401639005e-05
5.994918333927399e-07,3.7768157059481933e-06,6.349276976422161e-07,2.0000144540403726e-05
5.992883281300018e-07,3.722524148597415e-06,6.329482461603449e-07,1.9617114535639032e-05
5.996942557142993e-07,3.6679716873230814e-06,6.306279357985803e-07,1.925148450509355e-05
6.006856927841775e-07,3.6132618636153267e-06,6.279950636388861e-07,1.890599030739018e-05
6.022460361776184e-07,3.55848291697631e-06,6.250897708824908e-07,1.858310359261193e-05
6.043611710126213e-07,3.5037175247455805e-06,6.219570158104761e-07,1.8285023511527623e-05
6.070133058079069e-07,3.449048159763401e-06,6.186419752957163e-07,1.801366976766768e-05
6.101780773560469e-07,3.3945558243065267e-06,6.151918647453962e-07,1.777064348440397e-05
