2.196859120665576e-07,3.6858018423889904e-07,2.5466168564948396e-07,1.434854515402094e-05
2.2017604916754345e-07,3.6747414806305547e-07,2.5230960940501063e-07,1.4391963147018427e-05
2.2090002057931e-07,3.663996638820254e-07,2.49986909320656e-07,1.4425703139337855e-05
2.218548578886589e-07,3.653704413876258e-07,2.477005238428296e-07,1.444984391607874e-05
2.2303625570041275e-07,3.644012443610042e-07,2.454561350311101e-07,1.4464398319476694e-05
2.2443987557111979e-07,3.635052352341437e-07,2.43257780053408e-07,1.4469313854796273e-05
2.260615788620632e-07,3.6269170153658283e-07,2.411078557097789e-07,1.4464481926986813e-05
2.278955858396161e-07,3.619651870940153e-07,2.3900866351363267e-07,1.444975908576522e-05
2.2993244203891421e-07,3.6132591905074727e-07,2.3696414693141366e-07,1.4424998911414056e-05
2.3215834500171552e-07,3.6077113563160135e-07,2.34979718965638e-07,1.4390085469515774e-05
2.345558450522511e-07,3.602964446691625e-07,2.3306111421018195e-07,1.4344955494023645e-05
2.3710483757799987e-07,3.5989620969435976e-07,2.312141053943852e-07,1.4289594595221756e-05
2.3978317090048327e-07,3.595635655805669e-07,2.294452485222508e-07,1.4224007889976019e-05
2.4256787424200864e-07,3.592907131791246e-07,2.2776191594850978e-07,1.4148199529374667e-05
2.454370609036064e-07,3.5906871182005726e-07,2.2617084986174049e-07,1.4062195409286646e-05
2.483710088234271e-07,3.5888679983192076e-07,2.2467684044588322e-07,1.396609432767528e-05
2.5135241479796984e-07,3.587321566324158e-07,2.2328270882888365e-07,1.3860091928355334e-05
2.5436635417810284e-07,3.585900663081517e-07,2.2199091694754448e-07,1.3744446701393493e-05
2.5739978963368826e-07,3.584439501216217e-07,2.2080552710317441e-07,1.3619428823472665e-05
2.604408158233521e-07,3.582753586591169e-07,2.197317708486696e-07,1.3485305875522345e-05
2.634781201261143e-07,3.5806472328384704e-07,2.1877386833685994e-07,1.3342358230933638e-05
2.6650158664996977e-07,3.5779312435486284e-07,2.179342935521557e-07,1.3190890744463929e-05
2.6950408806260577e-07,3.5744365018317046e-07,2.1721465753054642e-07,1.3031234926553814e-05
2.724824687295909e-07,3.5700122981684797e-07,2.1661725841236216e-07,1.2863746174059566e-05
2.7543673867113164e-07,3.564520425060388e-07,2.161469933697125e-07,1.2688793490978896e-05
2.783688046671756e-07,3.5578405768912613e-07,2.1581102391295186e-07,1.2506745172655572e-05
2.8128083715699486e-07,3.5498846211497616e-07,2.156156989333263e-07,1.2317963301441679e-05
2.841727823918165e-07,3.540601514464805e-07,2.1556480496856297e-07,1.2122818415158909e-05
2.8704091585571127e-07,3.5299680485306906e-07,2.1566016206219357e-07,1.1921723100067415e-05
2.898787708797224e-07,3.517980479005779e-07,2.1590190281913852e-07,1.1715161020792454e-05
2.9267893760259825e-07,3.504649021065643e-07,2.162878126446808e-07,1.1503683042972875e-05
2.954343125894597e-07,3.4899927239444177e-07,2.1681300504223903e-07,1.1287882775814388e-05
2.9813938844480013e-07,3.474052035689955e-07,2.1747058824451185e-07,1.1068383995001308e-05
3.007915848742072e-07,3.4569173901268265e-07,2.182525335530961e-07,1.0845826263627404e-05
3.033915358538704e-07,3.438736719484734e-07,2.1914967634260579e-07,1.0620833857096582e-05
3.0594322057209556e-07,3.41968987112741e-07,2.201515400533784e-07,1.0394003882567562e-05
3.08454072308831e-07,3.399963489817049e-07,2.212470611665372e-07,1.0165936836180001e-05
3.1093262453825003e-07,3.3797431579034525e-07,2.2242520636519885e-07,9.937307347383946e-06
3.1338448704492323e-07,3.359208225171056e-07,2.236743752720797e-07,9.708962321829307e-06
3.1581054485712273e-07,3.3385310022476486e-07,2.2498143784239162e-07,9.481982254076046e-06
3.1820818807396396e-07,3.317879959484416e-07,2.2633160262530469e-07,9.257639669722166e-06
3.205728768061885e-07,3.297409026275616e-07,2.2770927926736145e-07,9.037278537855934e-06
3.228980503207558e-07,3.277246019717105e-07,2.29098873124119e-07,8.822209457352824e-06
3.2517424873970873e-07,3.2575012935311587e-07,2.3048468035376592e-07,8.613689457464187e-06
3.273889965811897e-07,3.2382753926940076e-07,2.3185052631281533e-07,8.412946511039803e-06
3.295282408046561e-07,3.219647425741703e-07,2.331798938656098e-07,8.22116214667024e-06
3.315791641545455e-07,3.2016679078118465e-07,2.3445698716608767e-07,8.039410639620506e-06
3.3353161419256217e-07,3.184375483646484e-07,2.356686481019073e-07,7.868605669797623e-06
3.353763972083387e-07,3.1678252510866576e-07,2.3680537345276408e-07,7.709474847980474e-06
3.371033196091373e-07,3.1521152032302044e-07,2.3786029596166268e-07,7.562568666736248e-06
3.387019771301549e-07,3.1374020823729365e-07,2.388280648863541e-07,7.4282949613257845e-06
3.4016526467204905e-07,3.1238914398355806e-07,2.397050904577336e-07,7.3069399302832005e-06
3.4149309446589287e-07,3.111812218303013e-07,2.404896193049732e-07,7.198657537605101e-06
3.4269250527500665e-07,3.101405992310593e-07,2.4118100222969064e-07,7.103472512713158e-06
3.43773614133778e-07,3.092914619607699e-07,2.4177960151503893e-07,7.021366412514352e-06
3.4474582426858923e-07,3.086541787318763e-07,2.4228715607175644e-07,6.9524331790122344e-06
3.456178876247301e-07,3.082427792420324e-07,2.427059243351045e-07,6.8969767678647235e-06
3.464003949804923e-07,3.0806707074371636e-07,2.4303717490330913e-07,6.855465483755844e-06
3.471066893936551e-07,3.081356965487198e-07,2.4328124079435066e-07,6.8284067906920894e-06
3.477507472192262e-07,3.0845625531710173e-07,2.434394075238134e-07,6.816266681644388e-06
3.483446770674933e-07,3.090339202422357e-07,2.435160968345521e-07,6.8194948039467435e-06
3.488981161572269e-07,3.098706709783202e-07,2.4351962225426304e-07,6.838584107268316e-06
3.494191505294552e-07,3.1096463722260445e-07,2.434608325991763e-07,6.874062568442746e-06
3.499153044937531e-07,3.123097230208036e-07,2.43351342366466e-07,6.926444497882678e-06
3.5039302792013287e-07,3.138962933085878e-07,2.432027205301219e-07,6.996222411289455e-06
3.508561344299136e-07,3.157117514162445e-07,2.430257730621643e-07,7.083893329390158e-06
3.513050498440945e-07,3.177405641937173e-07,2.428297058053341e-07,7.1899494499776426e-06
3.5173700413036746e-07,3.199648502231109e-07,2.4262174571744624e-07,7.31479979486648e-06
3.521462259113924e-07,3.223656660544036e-07,2.424071454814139e-07,7.458664456396827e-06
3.52524314097098e-07,3.2492477064983173e-07,2.421895014067873e-07,7.621494612555123e-06
3.5286142868519284e-07,3.276254878753297e-07,2.4197127897148053e-07,7.802953887614258e-06
3.531475198006439e-07,3.3045106031148613e-07,2.417545493841391e-07,8.00248282317591e-06
3.5337276941052884e-07,3.333830304505542e-07,2.4154184991733564e-07,8.219397174484316e-06
3.5352763907924266e-07,3.3640299966052947e-07,2.413366074373024e-07,8.452931122247071e-06
3.5360267283219817e-07,3.394960885637625e-07,2.411432161438748e-07,8.702213977564575e-06
3.535879980237892e-07,3.426519085935676e-07,2.409669561635164e-07,8.966234008281514e-06
3.534734220052092e-07,3.458626089807105e-07,2.4081372773172224e-07,9.243817003926136e-06
3.532501469257801e-07,3.4912146227870523e-07,2.4069023059937137e-07,9.533614023368183e-06
3.529129965310732e-07,3.5242293921054994e-07,2.4060477724706685e-07,9.8341013823557e-06
3.524610435466995e-07,3.557619110323275e-07,2.4056740572879826e-07,1.0143605566712258e-05
3.5189622537575577e-07,3.5913180643219094e-07,2.4058829595789386e-07,1.0460385181164662e-05
3.512212693190825e-07,3.625236907517625e-07,2.40676060419205e-07,1.0782794191293345e-05
3.504383894046052e-07,3.6592668905667365e-07,2.408371904169698e-07,1.1109422205585804e-05
3.4954875517152665e-07,3.6932853259190737e-07,2.4107575632940825e-07,1.1439062870320136e-05
3.485526337849215e-07,3.7271522710742095e-07,2.413934001242546e-07,1.1770553326178112e-05
3.474507715321145e-07,3.7607041392505116e-07,2.4179033484970003e-07,1.2102650306095556e-05
3.4624695060583764e-07,3.7937608359878954e-07,2.4226633763595034e-07,1.2434042518314095e-05
3.449504214355513e-07,3.826142127370875e-07,2.4282091453265305e-07,1.2763532504070379e-05
3.435751671629054e-07,3.8576686590272076e-07,2.43453820272124e-07,1.3090302581161995e-05
3.4213586716019787e-07,3.888148136654272e-07,2.4416673972767936e-07,1.3414036158282076e-05
3.4064544018417365e-07,3.917368797052168e-07,2.44964685781511e-07,1.3734784920525014e-05
3.391156331805049e-07,3.9451051524015297e-07,2.4585513296640464e-07,1.4052722755793591e-05
3.375569992490038e-07,3.971129919724325e-07,2.4684521696041643e-07,1.4367946795951917e-05
3.359773773429404e-07,3.9952349772836104e-07,2.4793938245267057e-07,1.468038921654053e-05
3.343814581122087e-07,4.017260466566615e-07,2.491387814754039e-07,1.4989850244516614e-05
3.3277234778895785e-07,4.037112546790425e-07,2.5044158372655356e-07,1.5296078624719335e-05
3.311538115163937e-07,4.054752549117191e-07,2.518432861772231e-07,1.559880873825356e-05
3.2953157355995787e-07,4.0701676521261286e-07,2.533371693193885e-07,1.5897756487985142e-05
3.279129878092215e-07,4.0833468202641885e-07,2.5491455961424205e-07,1.619261115065274e-05
3.263058555736328e-07,4.0942740702949617e-07,2.565645114136325e-07,1.6483018156672835e-05
3.247176117770946e-07,4.1029317377574573e-07,2.5827371915637704e-07,1.6768544459127867e-05
3.23155471385336e-07,4.109302223085649e-07,2.600267519194113e-07,1.7048658809219086e-05
3.216267785736208e-07,4.113375980649666e-07,2.618062803272109e-07,1.732275380287383e-05
3.201391057891748e-07,4.115169700106628e-07,2.6359390613730444e-07,1.7590186494664827e-05
3.1870104264263763e-07,4.114738155579819e-07,2.6537142608302e-07,1.7850293194543388e-05
3.173228947478648e-07,4.1121840298105026e-07,2.671220985652195e-07,1.810235790061064e-05
3.160154798844174e-07,4.10767405170662e-07,2.6883253606263104e-07,1.8345569181298127e-05
3.147880452160577e-07,4.1014339326552674e-07,2.704942943274735e-07,1.8579024245455632e-05
3.1364777577436534e-07,4.093707380663009e-07,2.7210264993471053e-07,1.8801775907555506e-05
3.1260097256495484e-07,4.084710230153178e-07,2.7365368263160746e-07,1.901286216657324e-05
3.11653604430444e-07,4.0746145368170853e-07,2.751433741806644e-07,1.921130088787904e-05
3.108099672749092e-07,4.0635678382482546e-07,2.7656816920513203e-07,1.939609065168313e-05
3.100712291924769e-07,4.0517249998686473e-07,2.77924902462133e-07,1.9566230944202403e-05
3.0943621214782617e-07,4.039259758707019e-07,2.7921121631742786e-07,1.972074362191009e-05
3.0890352472236467e-07,4.0263491990139034e-07,2.804262751662899e-07,1.9858720194188454e-05
3.084726389477732e-07,4.0131534471337707e-07,2.8156977878698005e-07,1.9979402619145525e-05
3.0814349322665026e-07,3.99980264884565e-07,2.826402500426112e-07,2.008222456934892e-05
3.079155025988647e-07,3.9863911626531946e-07,2.8363519185214483e-07,2.016678241752199e-05
3.077868382021273e-07,3.9729759529289436e-07,2.8455298611449124e-07,2.023280611759836e-05
3.077539168677299e-07,3.9595752781134134e-07,2.853936297051197e-07,2.0280183137154105e-05
3.078108720828825e-07,3.946174372835674e-07,2.86157434800756e-07,2.0309010127827286e-05
3.0794952852296014e-07,3.9327477741189e-07,2.868443387280961e-07,2.031960860268688e-05
3.0815999969918427e-07,3.919300061564129e-07,2.874545927543036e-07,2.031247173168684e-05
3.0843216908645787e-07,3.90590117678934e-07,2.8798930372004824e-07,2.0288179081779668e-05
3.0875728071179646e-07,3.8926751720256585e-07,2.884508548679747e-07,2.024734006994184e-05
3.091280419252206e-07,3.879746977239551e-07,2.888427832325861e-07,2.0190596102747707e-05
3.0953942820116026e-07,3.8671998919461437e-07,2.891684477763472e-07,2.0118648293614083e-05
3.099912814797738e-07,3.855074393040217e-07,2.894306258987893e-07,2.0032247990273733e-05
3.104880001354439e-07,3.84339328616693e-07,2.896328072797249e-07,1.9932151835474866e-05
3.110347535203086e-07,3.832180650461311e-07,2.8977935555661937e-07,1.9819083104455678e-05
3.116353531962073e-07,3.821458945246887e-07,2.8987385306369226e-07,1.9693702748261333e-05
3.122927553997265e-07,3.8112419663845626e-07,2.899181891395316e-07,1.955658371769008e-05
3.1300978548025326e-07,3.80153792943319e-07,2.8991319272103353e-07,1.9408214582805715e-05
3.137892145646287e-07,3.7923455644083597e-07,2.8985907733269317e-07,1.924904517276931e-05
3.146331204280944e-07,3.783636337512558e-07,2.897548639361495e-07,1.907953842614045e-05
3.155416649616321e-07,3.775347856541604e-07,2.895981160113963e-07,1.8900218414345348e-05
3.165120084703713e-07,3.767402707015589e-07,2.8938594106150737e-07,1.8711776797287065e-05
3.175379324093769e-07,3.7597309479852813e-07,2.891157738568364e-07,1.851527041535491e-05
3.1861028549197457e-07,3.75227350471514e-07,2.8878463793936976e-07,1.831229018123576e-05
3.197180951640253e-07,3.7449768369906935e-07,2.8838898716180445e-07,1.8104919491983826e-05
3.208494300855571e-07,3.7378009186147366e-07,2.8792790965634444e-07,1.7895487489308775e-05
3.219912478840134e-07,3.730732364279449e-07,2.8740702741468464e-07,1.7686330815707445e-05
3.2312913148308876e-07,3.723777410930465e-07,2.868377932561166e-07,1.7479720212488572e-05
3.24248196410008e-07,3.7169404896793243e-07,2.8623355202604606e-07,1.7277889364381467e-05
3.253343950659078e-07,3.71021475743089e-07,2.856072246958323e-07,1.7083037666264573e-05
3.263744893897306e-07,3.7035989612239397e-07,2.849709377585677e-07,1.689728819083597e-05
3.273550964181866e-07,3.69713075594925e-07,2.8433558681351426e-07,1.6722638789688558e-05
3.282625310317178e-07,3.690898202443682e-07,2.837097224612845e-07,1.6560916734327634e-05
3.2908385445566385e-07,3.685013054836821e-07,2.8309868329223656e-07,1.6413737543449586e-05
3.298080429753876e-07,3.6795781639906394e-07,2.8250482250748546e-07,1.628247524243459e-05
3.304260581054706e-07,3.6746696912064577e-07,2.8192835350210704e-07,1.6168241169610942e-05
3.309301429411761e-07,3.670326468201147e-07,2.813681207993021e-07,1.6071863451638198e-05
3.313136330457127e-07,3.666548169242182e-07,2.8082247155809626e-07,1.5993874075802003e-05
3.3157127790961907e-07,3.6633050076143777e-07,2.8029017059513457e-07,1.593451091768314e-05
3.316996764323519e-07,3.660544088106657e-07,2.797701793369272e-07,1.589372142564299e-05
3.3169823451786e-07,3.658190981047988e-07,2.7926052813235285e-07,1.5871149546645044e-05
3.3156981438237763e-07,3.656168501527394e-07,2.78758424042509e-07,1.5866121600564982e-05
3.3131973219092224e-07,3.654421970153686e-07,2.782620183575065e-07,1.5877677810632878e-05
3.309541110274711e-07,3.652916789036133e-07,2.7777166395118706e-07,1.5904654150345547e-05
3.3047919944406855e-07,3.651621358376797e-07,2.772890404267186e-07,1.5945748162665654e-05
3.299016799956637e-07,3.6505041144221956e-07,2.768152756589373e-07,1.5999526242290782e-05
3.292290299314423e-07,3.6495333116150844e-07,2.763500333968633e-07,1.606441603085637e-05
3.2846916603223555e-07,3.648668575205531e-07,2.7589214927447783e-07,1.6138726282800547e-05
3.2763010250185773e-07,3.647859245090829e-07,2.7544101747092826e-07,1.6220676881279407e-05
3.2672019583259625e-07,3.647049548483801e-07,2.7499699724343126e-07,1.6308421632160904e-05
3.257480328461071e-07,3.646178605127018e-07,2.7456019894743205e-07,1.6400073443592112e-05
3.247222985611132e-07,3.645179117769692e-07,2.7412939051355464e-07,1.6493734551390748e-05
3.2365252083605e-07,3.643978719941053e-07,2.737023241694499e-07,1.6587520256431098e-05
3.225494092129777e-07,3.6425053230543507e-07,2.7327618669196176e-07,1.667957185641599e-05
3.2142370386300075e-07,3.640700204433511e-07,2.728472306279732e-07,1.6768073210349234e-05
3.2028493617067663e-07,3.6385306437727225e-07,2.724108554886007e-07,1.6851294320191494e-05
3.1914168777807114e-07,3.635986842511824e-07,2.7196247834360013e-07,1.6927647630783446e-05
3.1800299640378773e-07,3.633064801148772e-07,2.71498075979217e-07,1.699570436454823e-05
3.168793686785087e-07,3.6297560228940407e-07,2.710141034875265e-07,1.7054190133891338e-05
3.157819951775439e-07,3.626053101388258e-07,2.705073529070191e-07,1.7102041666366873e-05
3.1472071846907156e-07,3.621954315334091e-07,2.6997517153792965e-07,1.7138497679489275e-05
3.137028895848877e-07,3.617452578333574e-07,2.6941537721618017e-07,1.7163100139566332e-05
3.127336400981861e-07,3.612519986960381e-07,2.688252991090159e-07,1.7175587930344783e-05
3.1181620719754407e-07,3.6071059011087177e-07,2.682015598692744e-07,1.717580042268355e-05
3.109514029607924e-07,3.601150097791904e-07,2.6754194645646816e-07,1.7163659833678847e-05
3.101370253237261e-07,3.5945978715147854e-07,2.6684699100832657e-07,1.7139189412899502e-05
3.093681381904659e-07,3.5874006602718115e-07,2.661193887905827e-07,1.7102519382422314e-05
3.0863774609167683e-07,3.579506445924071e-07,2.653635111323584e-07,1.7053881206365067e-05
3.079376529967668e-07,3.570864481635739e-07,2.645859080386021e-07,1.699362828436196e-05
3.072599101990203e-07,3.561443866744197e-07,2.637948549493137e-07,1.6922287947055524e-05
3.065983003397911e-07,3.5512343029876257e-07,2.6299878721870926e-07,1.6840559151485355e-05
3.0594876593930843e-07,3.540224671717797e-07,2.6220535940443247e-07,1.674921525781052e-05
3.0530864500477576e-07,3.528386855046907e-07,2.614215568680352e-07,1.6649015240998618e-05
3.046757459689909e-07,3.515673432392735e-07,2.6065342206240385e-07,1.6540707327140538e-05
3.040475466135216e-07,3.5020241393602034e-07,2.5990519771659305e-07,1.6425077689707033e-05
3.0342006240539496e-07,3.487380443200176e-07,2.591792506235052e-07,1.630296827994942e-05
3.0278734915118944e-07,3.4717010523548364e-07,2.584769377556739e-07,1.6175236235717498e-05
3.021427571285101e-07,3.4549685679583763e-07,2.577996056582655e-07,1.6042687186633067e-05
3.0148143645058647e-07,3.437185491588187e-07,2.5714933248414784e-07,1.590606248597717e-05
3.008020773041654e-07,3.418366105565745e-07,2.565291072842949e-07,1.5766087039766102e-05
3.00106063896454e-07,3.3985302933162927e-07,2.559425930029175e-07,1.562348395810076e-05
2.9939565562846013e-07,3.377701924957315e-07,2.553943834147386e-07,1.5478925975808966e-05
2.986736610769404e-07,3.3559113932006104e-07,2.54890046494699e-07,1.533297571845286e-05
2.9794370915331385e-07,3.33319405235215e-07,2.544351691925316e-07,1.518605741260583e-05
2.972106713345262e-07,3.30958627234967e-07,2.540350509753289e-07,1.5038526607134036e-05
2.9648218647840273e-07,3.2851406888126897e-07,2.536948373402146e-07,1.4890872721702054e-05
2.957696595341541e-07,3.2599615212974247e-07,2.534184836138891e-07,1.4743905691932605e-05
2.950873294444358e-07,3.234221865857851e-07,2.5320778556596607e-07,1.4598741778696964e-05
2.9445035760384176e-07,3.208146748536111e-07,2.5306290470502e-07,1.4456638472584434e-05
2.9387306440816307e-07,3.1819889649892697e-07,2.5298357682291287e-07,1.431884883555848e-05
2.933685317850995e-07,3.1560135173330604e-07,2.529694442879656e-07,1.418654406965566e-05
2.929491341736696e-07,3.130488473593205e-07,2.530192522051954e-07,1.4060769155611178e-05
2.926258257265624e-07,3.105676947299108e-07,2.531302048825581e-07,1.3942416895109186e-05
2.924065620495479e-07,3.0818202837159033e-07,2.532977174996305e-07,1.3832213167920074e-05
2.922958817474272e-07,3.059115915320743e-07,2.535148732332346e-07,1.3730696830692644e-05
2.922956634621567e-07,3.0377091363947817e-07,2.5377244623153117e-07,1.3638192198474162e-05
2.9240614867594644e-07,3.0177087293115144e-07,2.540603653486628e-07,1.3554787731062565e-05
2.9262627820616114e-07,2.9992059942249215e-07,2.543694197333798e-07,1.348033371478328e-05
2.9295275971761377e-07,2.982271817925721e-07,2.5469154554533125e-07,1.3414467595256794e-05
2.9337910705333845e-07,2.966946032377815e-07,2.550189282925441e-07,1.3356667949995093e-05
2.9389611399056076e-07,2.953244596027152e-07,2.553432900584653e-07,1.330632914102284e-05
2.9449381441400853e-07,2.9411692964273e-07,2.5565568692733164e-07,1.3262848025905734e-05
2.95163910005336e-07,2.930697262357218e-07,2.5594694147052657e-07,1.3225703333946162e-05
2.959011639613956e-07,2.921768924753572e-07,2.5620901093766965e-07,1.3194487328878106e-05
2.967029510306619e-07,2.9142980349208653e-07,2.564362406309106e-07,1.3168880143926275e-05
2.975675426435153e-07,2.9081908626615017e-07,2.5662573088692805e-07,1.3148614727083087e-05
2.98492627720959e-07,2.9033526200108516e-07,2.5677720717893574e-07,1.313346134568616e-05
2.9947481408978037e-07,2.899679934343621e-07,2.5689201750167885e-07,1.3123208783103544e-05
3.00509396764922e-07,2.897052264491469e-07,2.569715599700172e-07,1.3117634953633064e-05
3.015899641621177e-07,2.8953340400756267e-07,2.5701694307061876e-07,1.3116486814841982e-05
3.027082056866456e-07,2.8943866123156985e-07,2.5702950658465827e-07,1.3119465618678827e-05
3.0385435065132515e-07,2.894085145295869e-07,2.5701035714992893e-07,1.3126201265439606e-05
3.050187381724109e-07,2.89433587680157e-07,2.569598057051587e-07,1.3136223158022549e-05
3.0619343433207734e-07,2.8950752038591536e-07,2.568779494942446e-07,1.3148946164425952e-05
3.073715954939757e-07,2.8962488739857613e-07,2.5676484254270785e-07,1.3163675895021046e-05
3.085453912412379e-07,2.897803251780632e-07,2.5661948865074447e-07,1.3179623281315615e-05
3.097052393536345e-07,2.8996996857351234e-07,2.56439234173168e-07,1.319592896554114e-05
3.108401117430489e-07,2.901930433262802e-07,2.562201464684222e-07,1.3211706984640896e-05
3.1193771879383537e-07,2.904522238289066e-07,2.5595784643366307e-07,1.322609840181049e-05
3.129854933703781e-07,2.9075285191357977e-07,2.556487169285964e-07,1.3238326479146275e-05
3.139720078556946e-07,2.911017733016964e-07,2.5529117374491267e-07,1.3247749019695967e-05
3.1488695551917593e-07,2.9150662002054713e-07,2.548866291443401e-07,1.3253884535725513e-05
3.157209081639872e-07,2.919754146969873e-07,2.54440247890255e-07,1.3256413880241358e-05
3.164668914359417e-07,2.925160135164741e-07,2.5396093834536227e-07,1.3255173225028825e-05
3.171218670808553e-07,2.931352210918129e-07,2.534598312297017e-07,1.3250116648504075e-05
3.176855877941189e-07,2.938374126464267e-07,2.529484630754462e-07,1.324124760659414e-05
3.1815819100791657e-07,2.946231033573416e-07,2.5243805409050805e-07,1.3228581749589286e-05
3.185390066722333e-07,2.954883634036381e-07,2.5193900589117396e-07,1.3212182505689489e-05
3.188264758299884e-07,2.9642568471547325e-07,2.514601527422118e-07,1.319222486925632e-05
3.190180023446095e-07,2.974265175457293e-07,2.510082769279211e-07,1.3169024802012536e-05
3.1910958587432533e-07,2.984840321895516e-07,2.505876965531451e-07,1.3143023778466756e-05
3.1909562134679714e-07,2.995939027987769e-07,2.5020062206932307e-07,1.3114752272143663e-05
3.1896901176062157e-07,3.007535087427311e-07,2.498486259193656e-07,1.3084791842246773e-05
3.18721478520529e-07,3.019608965744498e-07,2.495336206366776e-07,1.3053734751182438e-05
3.1834409216466733e-07,3.032137653463178e-07,2.492578395200497e-07,1.3022149230417066e-05
3.178283980611445e-07,3.04509064501742e-07,2.4902364670920616e-07,1.2990580806396471e-05
3.171677412203043e-07,3.0584277009882173e-07,2.488336784878211e-07,1.2959597747613514e-05
3.163575407960329e-07,3.0720913317540145e-07,2.4869163931978173e-07,1.2929836648443252e-05
3.153945530010188e-07,3.086007507690657e-07,2.486036804481533e-07,1.29019895825173e-05
3.1427675128303585e-07,3.100094365778216e-07,2.4857979092157656e-07,1.2876741461256427e-05
3.130047286411688e-07,3.114262447231731e-07,2.486334518452403e-07,1.2854716840005755e-05
3.115830245072157e-07,3.1284164653809306e-07,2.4877855895775645e-07,1.2836446002125525e-05
3.1001961761022647e-07,3.142470233392317e-07,2.49026063900587e-07,1.2822323377688087e-05
3.0832431715534874e-07,3.156357335991185e-07,2.493823992798229e-07,1.2812571426408045e-05
3.0650725809440777e-07,3.170024684459232e-07,2.498489866094479e-07,1.2807241146283764e-05
3.045782795571837e-07,3.1834169436130035e-07,2.5042242590455977e-07,1.280623809381012e-05
3.025472102491517e-07,3.1964658722037837e-07,2.510957833946645e-07,1.2809334338548185e-05
3.004235128313201e-07,3.209095315230545e-07,2.5186043557260764e-07,1.2816164573150445e-05
2.9821533925658514e-07,3.2212458677571986e-07,2.5270706592140486e-07,1.2826258565727572e-05
2.959297355492333e-07,3.2329097054908927e-07,2.536255510719984e-07,1.2839127779421872e-05
2.935733973922832e-07,3.244139400802308e-07,2.5460485064603656e-07,1.2854361308415076e-05
2.911524214770192e-07,3.2550126945464265e-07,2.5563368058142727e-07,1.2871698899108276e-05
2.886719984200193e-07,3.265593371928853e-07,2.5670145613009675e-07,1.2891061828860871e-05
2.861375974247748e-07,3.275916426901773e-07,2.5779798327227893e-07,1.2912520996018418e-05
2.835564284476728e-07,3.285986741419546e-07,2.589120526637211e-07,1.2936215188166632e-05
2.809371630265421e-07,3.2957861880119876e-07,2.600311296712986e-07,1.2962256433189596e-05
2.782894490464399e-07,3.3052808085028683e-07,2.611429203381991e-07,1.2990653084622004e-05
2.756250649315677e-07,3.314419668273159e-07,2.6223714787829087e-07,1.3021268014756055e-05
2.7295854181303117e-07,3.323134726946379e-07,2.633054150330825e-07,1.3053813016438173e-05
2.703062626198542e-07,3.33134514668969e-07,2.6433936868033827e-07,1.3087875167949836e-05
2.6768556917968825e-07,3.3389648698887036e-07,2.6532926546560225e-07,1.312300031394664e-05
2.651138909062997e-07,3.345919037374565e-07,2.6626392272216964e-07,1.3158836308093727e-05
2.626085379884003e-07,3.352160386150992e-07,2.671321385829813e-07,1.31952201666211e-05
2.601881165047129e-07,3.357670297966635e-07,2.679246880096341e-07,1.3232111105645207e-05
2.578732279260632e-07,3.3624459723821764e-07,2.6863459860568853e-07,1.3269454911349153e-05
2.556840939760673e-07,3.3664841719598925e-07,2.6925560221668865e-07,1.3307103964819145e-05
2.5363729010605425e-07,3.3697716331356304e-07,2.697814059844224e-07,1.3344843105637562e-05
2.517451240338965e-07,3.3722832585152674e-07,2.702065215838091e-07,1.338256264962399e-05
2.5001715329838573e-07,3.373984018493877e-07,2.70527065825759e-07,1.3420497279462022e-05
2.4846120975760266e-07,3.3748361415223226e-07,2.7074135842721865e-07,1.3459279647048595e-05
2.470832667660752e-07,3.374803168787704e-07,2.7085085933421364e-07,1.3499732247994187e-05
2.458867838560057e-07,3.373841091265289e-07,2.7086023304204733e-07,1.3542618461254547e-05
2.448722815190908e-07,3.371889468140021e-07,2.707759517428572e-07,1.3588512785342833e-05
2.440375247426255e-07,3.368874088021716e-07,2.706053744819168e-07,1.3637754264849008e-05
2.433778087010901e-07,3.3647169279694073e-07,2.70357365562517e-07,1.3690439847512573e-05
2.428859464245044e-07,3.359350977213076e-07,2.7004292951514817e-07,1.3746446411483703e-05
2.425521242319636e-07,3.352732434459237e-07,2.696748295564076e-07,1.3805459786143806e-05
2.423640166690505e-07,3.34483796451199e-07,2.6926622936446426e-07,1.3867002608327875e-05
2.42307604104947e-07,3.335650901290285e-07,2.688289008888688e-07,1.3930455190749704e-05
2.423685956449396e-07,3.325153117842866e-07,2.6837245327659513e-07,1.3995066857069247e-05
2.425336418208545e-07,3.313331365664299e-07,2.6790453569944137e-07,1.4059973555354569e-05
2.427907249409536e-07,3.3001854550174897e-07,2.674306080374809e-07,1.4124229600464914e-05
2.4312875649582674e-07,3.285726366235157e-07,2.66953312115843e-07,1.4186843305715494e-05
2.435367459787131e-07,3.269970993285284e-07,2.664724745666969e-07,1.4246799510268105e-05
2.440033485169257e-07,3.2529363011224124e-07,2.659860226793219e-07,1.4303068821258893e-05
2.4451760111779656e-07,3.234633282327333e-07,2.6549100233583005e-07,1.4354625075637315e-05
2.4507072766923237e-07,3.215067614536513e-07,2.649843017259668e-07,1.4400480383497529e-05
2.4565785461407177e-07,3.19424663718902e-07,2.644636646888737e-07,1.443972514709376e-05
2.4627838016787966e-07,3.1721856737430573e-07,2.639286878350341e-07,1.4471545563391822e-05
2.469345494280284e-07,3.148908472146637e-07,2.6338029269296604e-07,1.4495200679401974e-05
2.476293226343783e-07,3.1244429163056665e-07,2.628188946649365e-07,1.4509986470412885e-05
2.483656890935507e-07,3.0988165021093177e-07,2.6224397812544397e-07,1.4515222514200666e-05
2.4914731635462965e-07,3.072051935876886e-07,2.616556615647547e-07,1.4510263405911786e-05
2.4997847008477696e-07,3.044163473637384e-07,2.610555597765026e-07,1.449454064245666e-05
2.508630394035872e-07,3.0151588984993444e-07,2.604459954580012e-07,1.4467633438031036e-05
2.518035489913495e-07,2.9850497660666165e-07,2.598288064178397e-07,1.442930359561463e-05
2.528009375609266e-07,2.953860954439989e-07,2.592042283994994e-07,1.437944675095499e-05
2.5385553938673374e-07,2.92163157062188e-07,2.5857026630605924e-07,1.4318022060096743e-05
2.549674500644178e-07,2.888417809010428e-07,2.5792329803590585e-07,1.4245025316344129e-05
2.5613508290250923e-07,2.8543023138254684e-07,2.572596928296188e-07,1.4160489075976017e-05
2.573544003155077e-07,2.8193992866064054e-07,2.565771017713806e-07,1.4064488060541932e-05
2.5862038691104195e-07,2.783854235704956e-07,2.55874530340493e-07,1.3957161098562296e-05
2.5992870507292306e-07,2.747839760535379e-07,2.5515237720324217e-07,1.383876977323497e-05
2.612761654873188e-07,2.7115416287225663e-07,2.544132637482065e-07,1.3709774956280913e-05
2.626603599985157e-07,2.675137295063955e-07,2.536618040951129e-07,1.3570860679944036e-05
2.6407821518629225e-07,2.63878032082316e-07,2.52902778497538e-07,1.3422884393638685e-05
2.6552434879391123e-07,2.602600472064838e-07,2.5214029671202844e-07,1.3266804797605245e-05
2.6699108070781327e-07,2.5667118329362173e-07,2.513784697043798e-07,1.3103618065356661e-05
2.684696672967028e-07,2.531213954864836e-07,2.50621281704162e-07,1.2934303097662308e-05
2.699514192760166e-07,2.4961874947787306e-07,2.4987154105228817e-07,1.2759778765337793e-05
2.714290569083229e-07,2.4616970025247824e-07,2.491308257674365e-07,1.2580876430066186e-05
2.728981446666532e-07,2.427800133266677e-07,2.48400707354541e-07,1.239833979905666e-05
2.7435657280284015e-07,2.394557837076629e-07,2.476840100764172e-07,1.2212856118527417e-05
2.7580194397910897e-07,2.3620493085468287e-07,2.469854026837576e-07,1.2025083319049244e-05
2.77229510630445e-07,2.33038755925355e-07,2.463115679861471e-07,1.1835641797083995e-05
2.786321344840161e-07,2.2997249781803175e-07,2.456711344182725e-07,1.164509756265119e-05
2.800014870201765e-07,2.2702437424176932e-07,2.450739826265329e-07,1.1454012629964729e-05
2.813293613606292e-07,2.2421309083058762e-07,2.4452963665161105e-07,1.1263091122693933e-05
2.826083560366897e-07,2.215554601229839e-07,2.4404575296817064e-07,1.1073298282124476e-05
2.838315464808988e-07,2.190656661546264e-07,2.436284707703825e-07,1.088583764450462e-05
2.8499194646353976e-07,2.167549883744853e-07,2.4328365933087805e-07,1.0702062185231211e-05
2.8608319560850866e-07,2.146314407321456e-07,2.4301643284350875e-07,1.0523404869355133e-05
2.871007609620285e-07,2.1270055011484332e-07,2.428298451663241e-07,1.0351299275478944e-05
2.880415908851039e-07,2.109666533861538e-07,2.427248046619888e-07,1.0187087613004287e-05
2.889024945204185e-07,2.0943336719196078e-07,2.4270039195176075e-07,1.0031964728602193e-05
2.896792568130288e-07,2.081031013010635e-07,2.427537861859997e-07,9.886969748269613e-06
2.903669485762881e-07,2.0697597834161338e-07,2.428802669814398e-07,9.753004420245053e-06
2.909603772396791e-07,2.0604958769777122e-07,2.430736842626219e-07,9.63085137301833e-06
2.91454376906866e-07,2.0532033405182715e-07,2.4332766148666874e-07,9.521153917867791e-06
2.9184387620724157e-07,2.047842901994381e-07,2.4363655197351584e-07,9.42435415161463e-06
2.9212362587007533e-07,2.04436257220167e-07,2.43995252733038e-07,9.340649897748061e-06
2.922885060444517e-07,2.042689802239893e-07,2.4439989662819207e-07,9.270020472822549e-06
2.9233411932439857e-07,2.0427333285915429e-07,2.448499565110619e-07,9.21232706818741e-06
2.922566129002348e-07,2.044387573911135e-07,2.4534789811012467e-07,9.167468840635196e-06
2.920526203268049e-07,2.0475487283586272e-07,2.458957128240371e-07,9.135512095414554e-06
2.917196503509886e-07,2.0521362756848788e-07,2.46492577634723e-07,9.116692809096436e-06
2.912558173271272e-07,2.0580956614268988e-07,2.4713513247518437e-07,9.111305619690376e-06
2.906591809396386e-07,2.0653901223889202e-07,2.4781860094270464e-07,9.119564082530857e-06
2.8992822118602104e-07,2.0740052486088512e-07,2.485377990104396e-07,9.141489780022523e-06
2.8906358013650776e-07,2.0839553137509899e-07,2.492876953156404e-07,9.176864916772084e-06
2.8806895811974456e-07,2.095269388568521e-07,2.500635954626044e-07,9.2252449536642e-06
2.8694986627772887e-07,2.107966377060297e-07,2.5086174038095087e-07,9.285988083666944e-06
2.8571255193493556e-07,2.1220408949801365e-07,2.516798173743721e-07,9.358301746802244e-06
2.8436539441484536e-07,2.137468203688823e-07,2.5251690096811426e-07,9.441356844209675e-06
2.8292009608474694e-07,2.1542145341637568e-07,2.5337452418634365e-07,9.53442430307606e-06
2.8138970166066927e-07,2.172235990307053e-07,2.5425823731464263e-07,9.636893664857722e-06
2.7978615531017015e-07,2.1914771456235065e-07,2.5517661415796565e-07,9.748163707044782e-06
2.7812039459297617e-07,2.2118842203689962e-07,2.56138469262216e-07,9.867544850290486e-06
2.764029247865835e-07,2.233428551067241e-07,2.571506136619075e-07,9.994286365550079e-06
2.746426947602573e-07,2.2561275910910287e-07,2.5821613264923216e-07,1.0127774172698046e-05
2.728459843143458e-07,2.2800375816654892e-07,2.5933343175193665e-07,1.0267840532285629e-05
2.7101703728073287e-07,2.3052101419833745e-07,2.6049671011339486e-07,1.041494528185211e-05
2.691595026654562e-07,2.3316567027946024e-07,2.616972795855504e-07,1.0570020595540263e-05
2.672771869267757e-07,2.359354315304129e-07,2.629249270468367e-07,1.0734099723804395e-05
2.6537440300502284e-07,2.388265750459207e-07,2.6416933156772444e-07,1.09080053904173e-05
2.6345724765035875e-07,2.418343163705941e-07,2.6542143474993424e-07,1.1092197421020239e-05
2.6153474645975836e-07,2.449522135126515e-07,2.6667332018288216e-07,1.1286737925882151e-05
2.596176453686624e-07,2.481719800067668e-07,2.679162630589221e-07,1.14913386797937e-05
2.577163026909893e-07,2.514839021699329e-07,2.6913928335624753e-07,1.170545786769247e-05
2.558403203974412e-07,2.5487723335939014e-07,2.703296126428173e-07,1.1928395688700686e-05
2.5399926191514376e-07,2.5833997998429104e-07,2.7147393776746984e-07,1.2159357113786195e-05
2.522032512267533e-07,2.6185846083503977e-07,2.7255933624806924e-07,1.2397481877380675e-05
2.504632593455597e-07,2.654170160063655e-07,2.735742603899996e-07,1.264184037096334e-05
2.487905812197701e-07,2.68997865383373e-07,2.745097808918665e-07,1.2891397750076767e-05
2.4719621362914983e-07,2.725818544166444e-07,2.7536004395017747e-07,1.3144981041625486e-05
2.45691335128855e-07,2.7615094228227074e-07,2.7612135237923925e-07,1.3401281475885105e-05
2.4428840641631687e-07,2.7969146221106785e-07,2.76790951628256e-07,1.3658881721458196e-05
2.430014562315563e-07,2.831952662325146e-07,2.7736671297117826e-07,1.3916280521814374e-05
2.41844336865507e-07,2.866574381886841e-07,2.778477315552556e-07,1.4171909818560098e-05
2.408277628680795e-07,2.900730415453107e-07,2.782351172452223e-07,1.4424160789017056e-05
2.3995791662432427e-07,2.934352853609388e-07,2.7853199339794674e-07,1.4671417746551553e-05
2.392376629288432e-07,2.967347571763589e-07,2.787424084961309e-07,1.4912075396446082e-05
2.3866854832848375e-07,2.9995947424146283e-07,2.788704299293955e-07,1.5144538522355047e-05
2.382515185325559e-07,3.0309622987746693e-07,2.789202901535075e-07,1.5367234901042442e-05
2.3798597425217503e-07,3.0613211556185305e-07,2.788966899202209e-07,1.5578654861785013e-05
2.378683436858868e-07,3.090554840323056e-07,2.78804406230928e-07,1.5777402680003628e-05
2.3789143310912728e-07,3.118575386738844e-07,2.7864724065006525e-07,1.5962253011496286e-05
2.380451022052089e-07,3.145342113251561e-07,2.7842705303125074e-07,1.6132196345862987e-05
2.3831818537482639e-07,3.1708643622493524e-07,2.7814356502538186e-07,1.6286431219218515e-05
2.3870029406002684e-07,3.195178732816873e-07,2.7779454120645407e-07,1.6424304214753293e-05
2.3918219642824263e-07,3.21831678164297e-07,2.773760967291569e-07,1.654525129070023e-05
2.397553640261602e-07,3.240298531560343e-07,2.768837789780274e-07,1.6648772539421795e-05
2.4041137103155406e-07,3.261151243765193e-07,2.7631429070468304e-07,1.6734434260903573e-05
2.4114144630167444e-07,3.280919065099615e-07,2.7566605968440726e-07,1.6801874073961763e-05
2.419369434734971e-07,3.2996528254782207e-07,2.7493853383572265e-07,1.6850790964850908e-05
2.427903932013839e-07,3.31739664922057e-07,2.7413261347330077e-07,1.6880932042486536e-05
2.436956315713813e-07,3.334187471805339e-07,2.732514964179833e-07,1.6892102185177353e-05
2.44646537810704e-07,3.350060903009029e-07,2.7229962505162024e-07,1.6884200142167928e-05
2.456358331512537e-07,3.365051893127285e-07,2.7128106017207714e-07,1.6857270996085254e-05
2.466553433232553e-07,3.3792031969725205e-07,2.701988164190945e-07,1.6811589861941557e-05
2.476967962126275e-07,3.392591701337504e-07,2.6905494432098565e-07,1.6747757110165086e-05
2.487520115006144e-07,3.405349314671196e-07,2.6785088481087606e-07,1.6666710423838405e-05
2.498132789326216e-07,3.417653777301807e-07,2.665875237517203e-07,1.6569615520881145e-05
2.5087414276398265e-07,3.429702811314549e-07,2.652653769726386e-07,1.6457709833452053e-05
2.5192973614543037e-07,3.4416978670403325e-07,2.6388548907912803e-07,1.633217818457294e-05
2.5297637565269565e-07,3.45383421341438e-07,2.6245018580999453e-07,1.6194091497046963e-05
2.54010373929362e-07,3.466284675194007e-07,2.609629223122984e-07,1.6044408838300502e-05
2.550267597670046e-07,3.4791870757461977e-07,2.594277063895843e-07,1.5884028143959852e-05
2.560189849456217e-07,3.4926445012463787e-07,2.5784856876390364e-07,1.571389313426405e-05
2.569792897544104e-07,3.506728196482443e-07,2.562299757394372e-07,1.5535174459806854e-05
2.5789919553257513e-07,3.5214741377858636e-07,2.5457918825242525e-07,1.5349436291746066e-05
2.58770375325427e-07,3.5368844618783243e-07,2.529079909455929e-07,1.5158619916864642e-05
2.5958533102673396e-07,3.552948401221687e-07,2.5123041838684046e-07,1.4964824772071756e-05
2.6033746844810853e-07,3.569658536005226e-07,2.495587649092012e-07,1.4770043222707214e-05
2.610214465234867e-07,3.5870005426176784e-07,2.47901950476918e-07,1.4576010115073273e-05
2.6163383872122716e-07,3.6049479135505454e-07,2.4626602680855174e-07,1.4384262391492663e-05
2.6217287372619535e-07,3.623471736236047e-07,2.446550545205265e-07,1.4196385841403037e-05
2.626370440664275e-07,3.642547679866905e-07,2.43072125492505e-07,1.4014256988516522e-05
2.630243005454424e-07,3.662170394413585e-07,2.4152030709939043e-07,1.384008810162871e-05
2.6333401835489964e-07,3.6823600118311467e-07,2.4000261424699913e-07,1.3676298331562793e-05
2.635712494686871e-07,3.703134383470553e-07,2.385210843912754e-07,1.352534958810756e-05
2.6374834869801265e-07,3.7244746063861533e-07,2.3707603857163988e-07,1.3389603043659425e-05
2.6388102493281585e-07,3.746314035385352e-07,2.3566595693806372e-07,1.3271188641953426e-05
2.639834329370557e-07,3.7685511908620797e-07,2.3428782770854163e-07,1.3171896883525724e-05
2.6406684780423926e-07,3.7910728054753437e-07,2.3293762247878198e-07,1.3093111545872724e-05
2.641402304233637e-07,3.81376200245831e-07,2.3161029917563394e-07,1.303578550831958e-05
2.6421060651302465e-07,3.8364894973228065e-07,2.3030015803063693e-07,1.3000444688987528e-05
2.6428403487821843e-07,3.859119634507843e-07,2.2900272063864012e-07,1.2987198816176844e-05
2.6436685037696035e-07,3.881539261874232e-07,2.2771603340386805e-07,1.299575701872228e-05
2.6446586584343345e-07,3.9036721462906524e-07,2.2643983264801388e-07,1.302546785411904e-05
2.645879218818807e-07,3.925460408760732e-07,2.2517530407527642e-07,1.3075389110310856e-05
2.6473947744390713e-07,3.946842090445204e-07,2.2392631512954532e-07,1.314437325295338e-05
2.6492635804408537e-07,3.967744566823062e-07,2.226998365866528e-07,1.3231160814352988e-05
2.651538558729561e-07,3.988079072095806e-07,2.2150543402352969e-07,1.333447579054278e-05
2.6542674454168393e-07,4.0077285606931095e-07,2.2035505068066693e-07,1.3453098375570876e-05
2.657486554597624e-07,4.0265407946477116e-07,2.1926273795472408e-07,1.3585892259227135e-05
2.661216404702544e-07,4.0443325668080245e-07,2.182433623014424e-07,1.3731786225879538e-05
2.665465862473964e-07,4.06090314065164e-07,2.173105277945888e-07,1.3889714424101055e-05
2.670231555746177e-07,4.0760523815553925e-07,2.1647480877121172e-07,1.405853316393576e-05
2.6754874581976556e-07,4.08958875382535e-07,2.1574310022299534e-07,1.4236959357445172e-05
2.6811789171004445e-07,4.101322635578913e-07,2.1511930434134043e-07,1.4423555917586249e-05
2.6872250126211636e-07,4.1110635168910596e-07,2.1460571343006489e-07,1.4616756189618264e-05
2.693524346191665e-07,4.118625735124372e-07,2.142042828010219e-07,1.4814934188145493e-05
2.699964271557348e-07,4.123831493240199e-07,2.1391732427078453e-07,1.501650016237515e-05
2.7064314370403035e-07,4.126516432677181e-07,2.1374696348516548e-07,1.5219936043735003e-05
2.7128171160410537e-07,4.1265419500326404e-07,2.136936430743456e-07,1.5423749110852987e-05
2.7190129802916577e-07,4.123800447424525e-07,2.1375541597592327e-07,1.5626426711659946e-05
2.7249024727308996e-07,4.118207697331893e-07,2.1392904774384392e-07,1.5826439542979207e-05
2.7303597394219627e-07,4.10969429521296e-07,2.1421235591294093e-07,1.6022269778194918e-05
2.7352618164005426e-07,4.098207747024096e-07,2.146061450150214e-07,1.6212450538053977e-05
2.7395044848007114e-07,4.083719603185879e-07,2.1511439908507506e-07,1.639563100627463e-05
2.743008461280357e-07,4.066221533665837e-07,2.1574374286460305e-07,1.657063743684772e-05
2.745725671481287e-07,4.0457121376917096e-07,2.1650287107013745e-07,1.6736473603962326e-05
2.747659262992388e-07,4.022197437763779e-07,2.1740090916627544e-07,1.6892290334232706e-05
2.748870138870687e-07,3.9957165579048454e-07,2.1844537542951575e-07,1.7037378345303037e-05
2.749444488836829e-07,3.9663709388636214e-07,2.1964073724209806e-07,1.7171154426187233e-05
2.7494528715650174e-07,3.9343261216822037e-07,2.2098727735065413e-07,1.7293100658082986e-05
2.7489366109020164e-07,3.899785230219675e-07,2.2248105961101168e-07,1.7402689149593115e-05
2.747915939331661e-07,3.8629571873175117e-07,2.241156145987576e-07,1.7499360533527965e-05
2.746398378599856e-07,3.824038121369982e-07,2.2588352834151026e-07,1.7582576862034586e-05
2.7443793843504893e-07,3.783214287797489e-07,2.277763206291813e-07,1.765190008996692e-05
2.741842520248691e-07,3.7406776752005077e-07,2.297836616804625e-07,1.7707041870998817e-05
2.738766026902149e-07,3.6966300320087093e-07,2.318931741392013e-07,1.774787309995845e-05
2.7351321203592e-07,3.65126899934436e-07,2.3409065894324983e-07,1.7774399093760338e-05
2.730933138473784e-07,3.604774860224635e-07,2.3636037180956177e-07,1.7786711700210788e-05
2.726174381096685e-07,3.5573116177253206e-07,2.3868518561375645e-07,1.7784944132013642e-05
2.7208729308952267e-07,3.509037708438409e-07,2.410469450947832e-07,1.776925006044754e-05
2.715052474735279e-07,3.460112783079321e-07,2.43427401681167e-07,1.7739825445835088e-05
2.7087384674374746e-07,3.410697404208508e-07,2.4580903096260554e-07,1.7696949821654692e-05
2.7019588400547927e-07,3.360952856631245e-07,2.4817492867415e-07,1.7640975679161582e-05
2.694747492440408e-07,3.311048296837549e-07,2.505085315550017e-07,1.7572265228668774e-05
2.6871398325627185e-07,3.261175078209002e-07,2.527941346627765e-07,1.7491136919246122e-05
2.679165435592941e-07,3.2115496046642105e-07,2.550178335195523e-07,1.7397843687357542e-05
2.670849837242665e-07,3.162395082802136e-07,2.5716798962197034e-07,1.7292574926604564e-05
2.6622196107970943e-07,3.113920203638512e-07,2.592345301053086e-07,1.717547627131371e-05
2.6533018211595487e-07,3.0663082836070784e-07,2.612075092518138e-07,1.7046675150693164e-05
2.6441177487679996e-07,3.019714226014169e-07,2.6307674864266746e-07,1.6906296186658604e-05
2.6346755512552773e-07,2.974268106595734e-07,2.648329711301188e-07,1.6754468191518326e-05
2.6249672857206786e-07,2.930087422535773e-07,2.664685807853552e-07,1.6591334967546167e-05
2.6149720382429707e-07,2.8872854225225956e-07,2.679773195046937e-07,1.6417068459160184e-05
2.6046635517147066e-07,2.8459658900593427e-07,2.693537699320353e-07,1.6231875383531824e-05
2.594017749149029e-07,2.806221916506231e-07,2.705938030715879e-07,1.6035991380392162e-05
2.5830175038487205e-07,2.768146293146311e-07,2.716965331131161e-07,1.582967184165118e-05
2.5716544942654126e-07,2.7318338467922604e-07,2.726659322663522e-07,1.5613203460276504e-05
2.559930160323583e-07,2.697371303401217e-07,2.735098771697448e-07,1.5386937973154792e-05
2.547865240930223e-07,2.6648398194269037e-07,2.74238231592762e-07,1.5151313388678519e-05
2.5355129751965126e-07,2.634335094321024e-07,2.748620890668519e-07,1.4906840368511059e-05
2.522955666042799e-07,2.605971455651124e-07,2.753932760968037e-07,1.4654078828106805e-05
2.510284681371539e-07,2.579859202053953e-07,2.758429032430254e-07,1.439363224014198e-05
2.4975820069530697e-07,2.556084865298059e-07,2.762196433053249e-07,1.412615018763223e-05
2.484915279134561e-07,2.534711852910228e-07,2.765292318955493e-07,1.385232707430721e-05
2.472344760158856e-07,2.5157862421330065e-07,2.7677499181003964e-07,1.357290080017043e-05
2.4599400106462586e-07,2.499329961337232e-07,2.7695815478815133e-07,1.328865488420555e-05
2.447800179154787e-07,2.4853308011148967e-07,2.770782119603961e-07,1.3000422482360949e-05
2.4360567139631546e-07,2.473742893044449e-07,2.771334385940118e-07,1.2709076768999166e-05
2.424853581158325e-07,2.46449195046844e-07,2.771210840888699e-07,1.2415495883782667e-05
2.4143217641244715e-07,2.4574832110336564e-07,2.7703757124097984e-07,1.2120519870324502e-05
2.404561159489216e-07,2.452610534850795e-07,2.768789011300458e-07,1.1824930126747106e-05
2.395637367495728e-07,2.449758357727458e-07,2.7664123116300264e-07,1.1529473975829975e-05
2.387590107178408e-07,2.448805710160805e-07,2.7632164536435087e-07,1.1234910439408466e-05
2.380444628358695e-07,2.449639758717669e-07,2.759185323797276e-07,1.0942009729720098e-05
2.3742210349559326e-07,2.4521667502307765e-07,2.7543176149485524e-07,1.065150204100227e-05
2.3689379457364411e-07,2.45632026760218e-07,2.7486333710881684e-07,1.0364044368156204e-05
2.364614283995293e-07,2.46206607418326e-07,2.7421840804157637e-07,1.008023794830963e-05
2.3612718060462628e-07,2.46938555242455e-07,2.735063085868501e-07,9.800691042175598e-06
2.3589339984516736e-07,2.478251571092217e-07,2.72740536541402e-07,9.526109588310504e-06
2.3576230781485032e-07,2.488635070726113e-07,2.719370257163956e-07,9.257352482414123e-06
2.3573569053022127e-07,2.5005300437911224e-07,2.7111223513752406e-07,8.995400289202019e-06
2.358145838735568e-07,2.513951630014925e-07,2.702820197985497e-07,8.741265535728596e-06
2.360003709907575e-07,2.528907055246961e-07,2.6946078819321105e-07,8.49589629924636e-06
2.3629764213701077e-07,2.545371004147368e-07,2.686609103459428e-07,8.260108673765791e-06
2.367152924413765e-07,2.563276231190673e-07,2.6789244519788603e-07,8.034589087652476e-06
2.3726347740125246e-07,2.582515653712139e-07,2.6716340832414304e-07,7.819966539264237e-06
2.3794961410647579e-07,2.602956641999834e-07,2.664807356682333e-07,7.6168703598362685e-06
2.3877691474638463e-07,2.624463542354447e-07,2.658505174822101e-07,7.425908735376349e-06
2.3974462109934027e-07,2.6469153958606574e-07,2.652767004973203e-07,7.247605615768546e-06
2.4084825346443484e-07,2.670215467967605e-07,2.647599941287527e-07,7.082351508917845e-06
2.420802410547668e-07,2.694295203546082e-07,2.6429860845768534e-07,6.9303790813537595e-06
2.434316205641369e-07,2.719100841013645e-07,2.63890203858174e-07,6.791759220723951e-06
2.4489380240965535e-07,2.744563794738048e-07,2.635334712291237e-07,6.666406303419343e-06
2.464586376775645e-07,2.770584937435145e-07,2.632292285130347e-07,6.554098213085374e-06
2.481170936747205e-07,2.797045630285137e-07,2.629811817334617e-07,6.454560725854178e-06
2.4985834103954384e-07,2.823827429745316e-07,2.6279511556244005e-07,6.3676140965563525e-06
2.5167014411363203e-07,2.8508278327996106e-07,2.626768851382316e-07,6.2932568263312986e-06
2.5354040100754966e-07,2.877964134946045e-07,2.626315670731956e-07,6.231601474398159e-06
2.5545831704412536e-07,2.905156472152379e-07,2.6266389619061984e-07,6.182746983606718e-06
2.5741415125577557e-07,2.932306278506405e-07,2.627783335918195e-07,6.146693961018591e-06
2.593988611516e-07,2.9592954149208284e-07,2.629787139173086e-07,6.123331740515176e-06
2.614042568512971e-07,2.98600438486294e-07,2.632680808360863e-07,6.112532918042608e-06
2.634231411077946e-07,3.0123269805003884e-07,2.636485761277725e-07,6.1143232055603075e-06
2.6544968600685394e-07,3.0381652609954657e-07,2.641210931269967e-07,6.128954831168636e-06
2.674793098729037e-07,3.0634141409607855e-07,2.646847600388609e-07,6.156812502744162e-06
2.695075349558532e-07,3.0879539933264265e-07,2.653366223808689e-07,6.198272215985785e-06
2.7152906885034215e-07,3.111654279108252e-07,2.660714332347789e-07,6.253599424316306e-06
2.7353741170882807e-07,3.134377953542167e-07,2.6688141231306693e-07,6.322877265265306e-06
2.7552496728690127e-07,3.155979027572644e-07,2.6775626666082675e-07,6.405964679976907e-06
2.774840112740168e-07,3.176300586747901e-07,2.6868342442412785e-07,6.502494679963835e-06
2.7940716812874534e-07,3.1951845663601497e-07,2.6964862007465945e-07,6.6118935205607675e-06
2.812870492346096e-07,3.2124883599145016e-07,2.7063708727394836e-07,6.733398558509901e-06
2.831170340804668e-07,3.2280932892283357e-07,2.7163427424198265e-07,6.866080138061851e-06
2.848924018742953e-07,3.24190012346452e-07,2.726254656906331e-07,7.008883863093463e-06
2.866096155730086e-07,3.253820547246338e-07,2.735957567364645e-07,7.160690852992703e-06
2.882655293526633e-07,3.2637753077250943e-07,2.745310543650057e-07,7.3203707077062256e-06
2.898581433119557e-07,3.271699841505221e-07,2.7541894566461164e-07,7.486810974528943e-06
2.913865426588574e-07,3.277549419190023e-07,2.7624867822631267e-07,7.658943070502464e-06
2.9284911949097927e-07,3.2812969377841747e-07,2.7701060829841585e-07,7.835786058238334e-06
2.9424267668898844e-07,3.282922769793049e-07,2.776956514981824e-07,8.016480332803736e-06
2.955631624727605e-07,3.282406405215442e-07,2.7829505238423055e-07,8.200273866994334e-06
2.968062797164907e-07,3.279730318973292e-07,2.7880048340824197e-07,8.386480092174837e-06
2.979674446572426e-07,3.2748918786857574e-07,2.792041366434332e-07,8.574439701095137e-06
2.990419069039879e-07,3.2679168316406085e-07,2.7949881296215374e-07,8.76348322119247e-06
3.000258360293675e-07,3.258871481351596e-07,2.796782587784956e-07,8.952899820045875e-06
3.009182164032061e-07,3.247862376049427e-07,2.797373035973748e-07,9.141932855569376e-06
3.0172163510464174e-07,3.235020038225546e-07,2.796716794469245e-07,9.329790098859036e-06
3.024405552807218e-07,3.220481264456483e-07,2.794780861361325e-07,9.515654473378952e-06
3.030785913197192e-07,3.204380654990229e-07,2.791544826016244e-07,9.698722843070044e-06
3.0363747060688536e-07,3.186853192042969e-07,2.787004063453041e-07,9.878269731087573e-06
3.041185015611836e-07,3.1680427378970144e-07,2.7811676005258e-07,1.005367119038358e-05
3.045241011086427e-07,3.148104733556915e-07,2.774045488229332e-07,1.022437505250717e-05
3.048569426289152e-07,3.127204493501578e-07,2.7656396812087544e-07,1.0389879626502047e-05
3.051184871932176e-07,3.1055176958919405e-07,2.755954396448754e-07,1.0549757073767745e-05
3.0530911595724225e-07,3.0832278714310807e-07,2.745016516183557e-07,1.0703691487056939e-05
3.0542876959734996e-07,3.060521130378704e-07,2.7328834013637923e-07,1.0851472316544176e-05
3.054768422770367e-07,3.037583410475719e-07,2.719632599585789e-07,1.099292993922464e-05
3.05451610100931e-07,3.014597721341136e-07,2.7053490544449603e-07,1.1127867678433874e-05
3.0535000746721447e-07,2.991737326687322e-07,2.690121613536665e-07,1.1256025609185396e-05
3.0516837435144784e-07,2.969155106213262e-07,2.6740463411918924e-07,1.1377072123535972e-05
3.049038091069517e-07,2.946977336025175e-07,2.657229862596972e-07,1.1490637526470026e-05
3.0455547680102823e-07,2.925311084638926e-07,2.639787442365628e-07,1.159639481662404e-05
3.04124869056746e-07,2.90425639858205e-07,2.6218366866013264e-07,1.169412358547264e-05
3.036144282298505e-07,2.883906975797009e-07,2.603491073460611e-07,1.1783686366755007e-05
3.030264312923779e-07,2.8643450036259016e-07,2.584856664173239e-07,1.1864947622438491e-05
3.023634616963026e-07,2.8456390224055727e-07,2.566042002207732e-07,1.1937718112350308e-05
3.016294349261607e-07,2.8278378060490127e-07,2.547182736162186e-07,1.2001751605620885e-05
3.0083002031832773e-07,2.810964641550321e-07,2.5284529977771345e-07,1.2056776326403528e-05
2.999716299691308e-07,2.795021009984747e-07,2.5100430844922903e-07,1.2102536735206633e-05
2.9905952616234737e-07,2.7799946033874306e-07,2.492124755621302e-07,1.2138826241440154e-05
2.980967509164121e-07,2.765864087162425e-07,2.474832050482061e-07,1.2165549562804785e-05
2.9708410091561817e-07,2.752595256590858e-07,2.4582628648491297e-07,1.2182856832570649e-05
2.960202804387319e-07,2.7401331323624914e-07,2.442488877898193e-07,1.2191243058964862e-05
2.9490237523003304e-07,2.728401558760972e-07,2.427559562813794e-07,1.2191482938584994e-05
2.937273197438953e-07,2.71731388032224e-07,2.413508371160544e-07,1.2184463684297929e-05
2.924939278279272e-07,2.706793408074713e-07,2.400372687593355e-07,1.2171043261790484e-05
2.9120390552342125e-07,2.696792622648253e-07,2.3882106560535085e-07,1.2151988424244475e-05
2.898609257809551e-07,2.687291570377553e-07,2.3770976867391483e-07,1.2128042068179992e-05
2.884693288335669e-07,2.6782777744434826e-07,2.3671068151843786e-07,1.2100094871010139e-05
2.870343381185485e-07,2.6697273413345145e-07,2.3582872106730538e-07,1.2069289580278086e-05
2.855626212271936e-07,2.661594702425082e-07,2.35065716425567e-07,1.203696312427444e-05
2.840614641559674e-07,2.653811482792774e-07,2.344215300071225e-07,1.2004530400139595e-05
2.8253768856388213e-07,2.646296557447033e-07,2.3389619071439338e-07,1.1973406444820332e-05
2.8099747213140104e-07,2.6389751081293357e-07,2.3349107593120398e-07,1.1944949808357362e-05
2.7944629240581325e-07,2.631795033555272e-07,2.3320750938806671e-07,1.1920393176228796e-05
2.778889168923692e-07,2.6247245260060183e-07,2.330452049230596e-07,1.190076446885704e-05
2.763296576815494e-07,2.6177348368166816e-07,2.3300349996364175e-07,1.1886822316156145e-05
2.747723675210777e-07,2.610786960412536e-07,2.3308358446588284e-07,1.1879028182070522e-05
2.732205758726848e-07,2.6038259164280217e-07,2.332886088046412e-07,1.1877564658532762e-05
2.7167777192723195e-07,2.596780504773925e-07,2.3362219000314135e-07,1.1882393080685181e-05
2.7014756148022106e-07,2.5895696511884136e-07,2.3408771833787785e-07,1.1893323920384946e-05
2.686350183747242e-07,2.5821123848825623e-07,2.3468862855252504e-07,1.1910064514581575e-05
2.671487127515421e-07,2.5743398076402365e-07,2.354282965869157e-07,1.1932227696975753e-05
2.657003549645348e-07,2.5662036553706217e-07,2.3630912271774077e-07,1.1959325624834566e-05
2.643016307712922e-07,2.55767264654351e-07,2.3733143624083443e-07,1.1990790180655958e-05
2.6296123768719175e-07,2.548730625327413e-07,2.384933998562586e-07,1.20260169155621e-05
2.616841114111149e-07,2.539392362829853e-07,2.397920241467024e-07,1.2064395911646076e-05
2.6047220445050877e-07,2.529712268851979e-07,2.412239314645541e-07,1.2105331216751873e-05
2.593261815857326e-07,2.5197689640962664e-07,2.4278501371777856e-07,1.2148269275218747e-05
2.582476836883541e-07,2.5096472544622496e-07,2.444696554932991e-07,1.2192720738560035e-05
2.5724050000943844e-07,2.4994293627972716e-07,2.4627095178154465e-07,1.223825418168832e-05
2.563097839224057e-07,2.489191945773328e-07,2.4818159397239107e-07,1.2284471766925819e-05
2.55460903467328e-07,2.4790049071279603e-07,2.50193785000453e-07,1.2330980844236407e-05
2.54698959619722e-07,2.4689316141231546e-07,2.5229922651436097e-07,1.2377368925057326e-05
2.5402839410577414e-07,2.4590350997503055e-07,2.5449061421162097e-07,1.2423221695088612e-05
2.534528397243594e-07,2.4493793453343413e-07,2.567622465380539e-07,1.2468190952175826e-05
2.5297582475862306e-07,2.440015784214251e-07,2.591081779617549e-07,1.2512019918586142e-05
2.526021188858883e-07,2.43097206269957e-07,2.615205573599773e-07,1.2554477277638886e-05
2.523387516197395e-07,2.422257849985704e-07,2.639898119838876e-07,1.2595273514981787e-05
2.521942861593713e-07,2.413878385196109e-07,2.6650539096729424e-07,1.2634027591370406e-05
2.521761297625402e-07,2.405840836641862e-07,2.690559626792193e-07,1.2670275748067979e-05
2.522881794644226e-07,2.3981525054491505e-07,2.716293986391127e-07,1.2703492198606117e-05
2.5253084892949616e-07,2.390817598122036e-07,2.742135195595907e-07,1.2733117258197536e-05
2.5290200552579217e-07,2.3838391902610198e-07,2.767969743302324e-07,1.2758593000591525e-05
2.5339684273724325e-07,2.3772304638757038e-07,2.793690797228289e-07,1.2779405136075533e-05
2.540076629138573e-07,2.371024067260954e-07,2.8191986454945784e-07,1.2795147440617013e-05
2.547245565622701e-07,2.365268975417165e-07,2.844406518564251e-07,1.280561279375813e-05
2.555363666329454e-07,2.360024103807961e-07,2.869232994236638e-07,1.281086450912036e-05
2.5643161731344657e-07,2.3553558961610595e-07,2.8935847412233296e-07,1.281121082231987e-05
2.573992787963335e-07,2.3513326732091517e-07,2.9173482982011644e-07,1.2807071843835285e-05
2.584290553633537e-07,2.3480163599469465e-07,2.940395388958471e-07,1.2798842895677914e-05
2.5951119119061296e-07,2.345464659535574e-07,2.962596604784122e-07,1.2786859075042515e-05
2.606362708204353e-07,2.3437393231307608e-07,2.983829909416325e-07,1.2771449461822158e-05
2.617954695365029e-07,2.342903060062581e-07,3.0039760763926897e-07,1.2752998949367073e-05
2.6298077659806963e-07,2.3430084539593191e-07,3.0229157143194707e-07,1.2731974862705616e-05
2.6418429912639585e-07,2.3440921656436835e-07,3.0405396365899465e-07,1.2708908982479167e-05
2.6539687699238786e-07,2.346175444619616e-07,3.056757005216663e-07,1.268434685291427e-05
2.6660751578443336e-07,2.349267665514737e-07,3.071488655254158e-07,1.2658846664021292e-05
2.678044849442359e-07,2.353374180746365e-07,3.08466015365897e-07,1.2633051011846435e-05
2.6897679737053106e-07,2.3585047803245745e-07,3.096202545692004e-07,1.2607709755950245e-05
2.701142595438631e-07,2.3646677620515498e-07,3.106054505509417e-07,1.2583603678326155e-05
2.712064176153385e-07,2.3718533233475428e-07,3.114164697236022e-07,1.2561444686315993e-05
2.722424582887536e-07,2.380028698668981e-07,3.120491450742475e-07,1.2541830773375338e-05
2.732132262965898e-07,2.38914175391152e-07,3.1250045133530865e-07,1.2525331628534219e-05
2.741136285762026e-07,2.3991223875544264e-07,3.127692357239551e-07,1.2512654598126295e-05
2.749423199048539e-07,2.409893045232513e-07,3.1285589835776766e-07,1.2504696765653549e-05
2.756994760524212e-07,2.421383434481728e-07,3.1276103295701513e-07,1.2502429988045708e-05
2.7638655356774e-07,2.4335335576194575e-07,3.1248493587522724e-07,1.2506743209762865e-05
2.77007691372616e-07,2.446295777794761e-07,3.120281859383586e-07,1.251834414954661e-05
2.7756908759171264e-07,2.459637067535089e-07,3.113928219073582e-07,1.253773946728537e-05
2.780764160233864e-07,2.4735291235496004e-07,3.105835440616212e-07,1.2565252936236011e-05
2.78532998762976e-07,2.487935916908857e-07,3.096074099341225e-07,1.2601036838832581e-05
2.7893943788676626e-07,2.502806475053581e-07,3.084720859765588e-07,1.2645074562781434e-05
2.792940891287573e-07,2.518073901240457e-07,3.071843999824385e-07,1.2697196128640327e-05
2.7959414308103604e-07,2.5336628570433693e-07,3.0575009003943897e-07,1.2757108593583182e-05
2.798374726256113e-07,2.549492511998456e-07,3.0417459411666496e-07,1.2824411263270736e-05
2.800248309700112e-07,2.565470191939721e-07,3.024635781018917e-07,1.289857965038002e-05
2.8016070669321426e-07,2.5814916317779285e-07,3.0062253273754857e-07,1.2978946612606675e-05
2.8025195637207234e-07,2.5974497674480964e-07,2.9865752882125766e-07,1.3064718693546867e-05
2.8030572468329746e-07,2.613246805885789e-07,2.9657839402590425e-07,1.3155037977697666e-05
2.8032864930847764e-07,2.628814228025624e-07,2.9440110938048285e-07,1.3249058843448865e-05
2.803275032669921e-07,2.6441281497980553e-07,2.921456430066431e-07,1.3345991110360584e-05
2.8030975806814965e-07,2.659201244644461e-07,2.898311002607075e-07,1.3445099918960092e-05
2.802832723901793e-07,2.674063055050784e-07,2.874733226187025e-07,1.3545688494018116e-05
2.802558807169052e-07,2.688750522824754e-07,2.850862531574594e-07,1.3647081674587105e-05
2.802354263345973e-07,2.7033065041766383e-07,2.8268436006944397e-07,1.3748622442658896e-05
2.8022973616618253e-07,2.7177757271136585e-07,2.802831109426064e-07,1.3849686633283921e-05
2.802459524145999e-07,2.7321950702606285e-07,2.778972514345824e-07,1.3949700304262732e-05
2.802892213552741e-07,2.746581346446733e-07,2.7553978790357273e-07,1.4048139145164725e-05
2.8036164378706734e-07,2.760930584464121e-07,2.7322326765482603e-07,1.4144497970633096e-05
2.804625663093095e-07,2.775232956481861e-07,2.7096133751200645e-07,1.4238242046279971e-05
2.805894586085361e-07,2.7894907501310405e-07,2.68768369843362e-07,1.4328777881184644e-05
2.807381442145264e-07,2.803723751015132e-07,2.6665761628547876e-07,1.4415456427189396e-05
2.8090289305252064e-07,2.8179629934454734e-07,2.64639646554932e-07,1.4497589558664084e-05
2.8107668659879106e-07,2.832256248149316e-07,2.627221153663537e-07,1.4574484002198893e-05
2.812513542335073e-07,2.846679346855443e-07,2.609115239059493e-07,1.4645498480571066e-05
2.81417894099262e-07,2.86133162712075e-07,2.592164375417352e-07,1.4710080891065876e-05
2.815671271101856e-07,2.876326860083493e-07,2.576491804856092e-07,1.4767753703498685e-05
2.816905872912305e-07,2.891784588121771e-07,2.5622404666903163e-07,1.4818089421738624e-05
2.817813663265129e-07,2.907814776869305e-07,2.549541508674553e-07,1.4860712160289053e-05
2.818338937763937e-07,2.9245007900459216e-07,2.538495055122972e-07,1.4895312829554611e-05
2.818431429095516e-07,2.941882890968693e-07,2.529163879523426e-07,1.4921684120497556e-05
2.818057758622015e-07,2.959948434319389e-07,2.521577309145685e-07,1.4939767285120389e-05
2.817220518738556e-07,2.978636706715012e-07,2.515746062242248e-07,1.494965395903729e-05
2.8159469809292806e-07,2.997855101933994e-07,2.511676234140982e-07,1.4951526861461593e-05
2.81426333712165e-07,3.0175032130478645e-07,2.5093709964861713e-07,1.4945580786621653e-05
2.812196057736805e-07,3.037494991617261e-07,2.508824298846707e-07,1.493196661045153e-05
2.8097923934564054e-07,3.057761223218965e-07,2.510011853919065e-07,1.4910797085364124e-05
2.807123960911193e-07,3.0782354512114785e-07,2.512883336693436e-07,1.488222217941804e-05
2.804267628919621e-07,3.098844906871751e-07,2.517359003062382e-07,1.4846531476446396e-05
2.801289441792958e-07,3.119511889305166e-07,2.5233267293683876e-07,1.4804224059870608e-05
2.798243439727293e-07,3.140152326347229e-07,2.5306410855587764e-07,1.4755984296472965e-05
2.795171349676293e-07,3.160666881247213e-07,2.539132784162168e-07,1.470257107025711e-05
2.7920951411827307e-07,3.180937958271678e-07,2.5486303675839497e-07,1.4644717631400909e-05
2.7890094767388764e-07,3.2008394057767e-07,2.558980838842686e-07,1.4583091299413394e-05
2.785884611346952e-07,3.2202436539955674e-07,2.5700499662230537e-07,1.4518282433719074e-05
2.782684926198811e-07,3.239024148082373e-07,2.5817048532592176e-07,1.4450785693569396e-05
2.7793909086406323e-07,3.2570714279496216e-07,2.593799606880291e-07,1.438096512344586e-05
2.7760064725371396e-07,3.2743092552651963e-07,2.606174676167393e-07,1.4309038535490696e-05
2.772551665555985e-07,3.290682591512589e-07,2.6186629870803666e-07,1.4235100586958435e-05
2.76904819417948e-07,3.306135674332417e-07,2.6310916187187553e-07,1.4159155894017142e-05
2.765503222885713e-07,3.320611073439972e-07,2.643278910377334e-07,1.4081157004944232e-05
2.761904911932032e-07,3.334057356030496e-07,2.6550360900416513e-07,1.4001079585546165e-05
2.758234143827393e-07,3.3464293024132336e-07,2.6661796771494237e-07,1.3919021413687836e-05
2.7544771311700374e-07,3.3576943738611803e-07,2.6765485961571284e-07,1.383523506558634e-05
2.7506289045311326e-07,3.367841068547141e-07,2.68601190463152e-07,1.3750081626951916e-05
2.746688753722092e-07,3.376870215468787e-07,2.6944696310341845e-07,1.3664055537125122e-05
2.742649546691031e-07,3.384783559470297e-07,2.7018589972296693e-07,1.3577899542808775e-05
2.738493523496809e-07,3.3915858691154497e-07,2.7081597382321696e-07,1.3492605112494472e-05
2.7342024366021555e-07,3.397283989595068e-07,2.713384702971746e-07,1.340926348205744e-05
2.7297639924876443e-07,3.4018723486899127e-07,2.717558577088031e-07,1.3328926136575563e-05
2.7251684154909804e-07,3.405322088140276e-07,2.720699842674644e-07,1.3252524709529675e-05
2.720413151890994e-07,3.407585057418236e-07,2.722813153967781e-07,1.3180810212530451e-05
2.715515477161136e-07,3.408601653127576e-07,2.7238895336644057e-07,1.3114300851633569e-05
2.710520570539864e-07,3.4083094286371165e-07,2.723909964873536e-07,1.305326334080244e-05
2.705504203660382e-07,3.406667174557089e-07,2.722850907183795e-07,1.2997740280630366e-05
2.7005691878188025e-07,3.403679806072737e-07,2.720697493036639e-07,1.294758777925282e-05
2.695834555754439e-07,3.399390723513304e-07,2.717462075949455e-07,1.2902505143533695e-05
2.691421894118029e-07,3.393858619718907e-07,2.7131918649721865e-07,1.2862124449508182e-05
2.6874450365639853e-07,3.387151857272485e-07,2.7079614951314216e-07,1.2826235654706698e-05
2.6840046715167453e-07,3.3793496371877666e-07,2.7018612452201696e-07,1.2795044249710685e-05
2.6811846516607514e-07,3.370531941139409e-07,2.694987680907408e-07,1.2769200489324906e-05
2.679053762595744e-07,3.360766423016613e-07,2.687443931919693e-07,1.2749560273725022e-05
2.6776691143674505e-07,3.3501044234165566e-07,2.67934577717296e-07,1.2736976802407856e-05
2.677069603215272e-07,3.338582362422689e-07,2.670820649789608e-07,1.273228316296886e-05
2.677268397530394e-07,3.3262219564720177e-07,2.66201636091983e-07,1.2736318953273855e-05
2.6782512881818856e-07,3.3130342463233645e-07,2.6531214494090557e-07,1.274992305981436e-05
2.679974012009069e-07,3.299032639745024e-07,2.6443553344376485e-07,1.2773920986451907e-05
2.68236245340573e-07,3.284248218445352e-07,2.6359297227463717e-07,1.2809087344068295e-05
2.685319872228689e-07,3.268733928179497e-07,2.628023507379725e-07,1.2856090635795227e-05
2.688740359320393e-07,3.2525519768304936e-07,2.620776799952306e-07,1.291543575937814e-05
2.692525321751405e-07,3.235756135301978e-07,2.614290079866508e-07,1.2987396315942425e-05
2.69659130603876e-07,3.218390920850523e-07,2.6086322038637556e-07,1.3071961014423825e-05
2.700870742696503e-07,3.200508048625011e-07,2.6038592622472574e-07,1.3168811947367558e-05
2.7053175406020677e-07,3.182171043014695e-07,2.6000281106399157e-07,1.3277329654687574e-05
2.709908954731492e-07,3.16344538468195e-07,2.5971952048910944e-07,1.3396649236095945e-05
2.714633638958848e-07,3.144404694990705e-07,2.5954098574248556e-07,1.352579029581846e-05
2.7194797385504165e-07,3.125146634307539e-07,2.5947079044643066e-07,1.3663776819723828e-05
2.7244339762962983e-07,3.105792575783617e-07,2.5951037442530986e-07,1.3809636116558545e-05
2.729484249541559e-07,3.08648234776365e-07,2.596581934119941e-07,1.3962329754943454e-05
2.7346235063968163e-07,3.0673709617040355e-07,2.5990942769114626e-07,1.4120714498114975e-05
2.73985503629698e-07,3.0486144277400514e-07,2.602573621782028e-07,1.4283521517503075e-05
2.74518799214668e-07,3.0303585539337157e-07,2.606971014753305e-07,1.4449347465338889e-05
2.750624375750012e-07,3.0127449215341676e-07,2.612285357002259e-07,1.4616687783284707e-05
2.7561540288958304e-07,2.9959172884798307e-07,2.6185472167882984e-07,1.4784022872255625e-05
2.761759203483584e-07,2.9800139138369487e-07,2.6257803320555205e-07,1.4949946366601321e-05
2.767424547243835e-07,2.965148614476933e-07,2.633981951612405e-07,1.5113252750138953e-05
2.773151103320244e-07,2.951394365576896e-07,2.643120409212612e-07,1.5272902641629493e-05
2.778954708800522e-07,2.9387834029398533e-07,2.6531404046110147e-07,1.542793351015463e-05
2.784843916831173e-07,2.927324263242819e-07,2.6639725409445184e-07,1.5577426662174256e-05
2.7908055425428737e-07,2.9170241003808107e-07,2.6755376446884177e-07,1.5720528390324478e-05
2.796809433238352e-07,2.907899338014542e-07,2.687746424820937e-07,1.5856464696330385e-05
2.802820597777265e-07,2.899971438919857e-07,2.700502624229777e-07,1.5984532458219173e-05
2.808803345447009e-07,2.893261438474824e-07,2.713708808488743e-07,1.6104080593474992e-05
2.814711060749355e-07,2.887781887665949e-07,2.727268623104423e-07,1.6214487334976916e-05
2.820478939843844e-07,2.883521899409514e-07,2.741086780972013e-07,1.6315169678590438e-05
2.826035318247828e-07,2.880443386971137e-07,2.755075261771546e-07,1.640565379805458e-05
2.8313248780330264e-07,2.878489576987537e-07,2.76916866852055e-07,1.648565590047799e-05
2.836327272777369e-07,2.877591004503384e-07,2.78333483958152e-07,1.6555113560728502e-05
2.8410550204252117e-07,2.877675620228086e-07,2.7975628711157964e-07,1.6614159079817997e-05
2.8455318907019724e-07,2.8786771399079144e-07,2.8118363478400605e-07,1.6663046306808756e-05
2.849770272438609e-07,2.880525607014462e-07,2.826113708446148e-07,1.6702051166238073e-05
2.853760567504737e-07,2.883138503098055e-07,2.840324420644592e-07,1.67313872217588e-05
2.8574748593447736e-07,2.8864236467994704e-07,2.854378631581493e-07,1.675117579573083e-05
2.860878322171888e-07,2.8902761498264024e-07,2.868181970932593e-07,1.6761462096132285e-05
2.863937524638853e-07,2.89457639238693e-07,2.88164769488455e-07,1.676224880619657e-05
2.866620739975325e-07,2.8992076302698923e-07,2.8947019896271884e-07,1.675355479266298e-05
2.868894543566787e-07,2.904072510600489e-07,2.907279746781887e-07,1.6735472772182712e-05
2.870726527642276e-07,2.909090185790423e-07,2.919317159240397e-07,1.6708150589650643e-05
2.87209344968735e-07,2.9141932522139904e-07,2.9307525663033987e-07,1.667171211096799e-05
2.872979574617836e-07,2.919334513319941e-07,2.941532088679202e-07,1.6626207791353558e-05
2.8733658697961307e-07,2.9244954593678725e-07,2.9516080483028537e-07,1.657161762121609e-05
2.87322648278866e-07,2.929684836322951e-07,2.960935024325827e-07,1.6507867983810064e-05
2.872530221099601e-07,2.934918195495016e-07,2.9694707922524307e-07,1.6434841286086455e-05
2.8712400186066234e-07,2.9401931976943086e-07,2.977174852830009e-07,1.6352391803406165e-05
2.869316415002309e-07,2.9454786565412674e-07,2.9840048555244414e-07,1.6260377470077334e-05
2.866724115757091e-07,2.9507148345203685e-07,2.9899235012614386e-07,1.6158704449313305e-05
2.8634369739511924e-07,2.9558205771114456e-07,2.9949152495690843e-07,1.6047408231029853e-05
2.859441363024225e-07,2.960706216881803e-07,2.998994922743508e-07,1.5926761162790054e-05
2.854740454845358e-07,2.965284477057086e-07,3.002201250656187e-07,1.5797294412316352e-05
2.8493653792785074e-07,2.96947141106128e-07,3.004584197670872e-07,1.5659689738484454e-05
2.843386210059177e-07,2.973183146281222e-07,3.006191833660348e-07,1.5514659259356024e-05
2.836902349216753e-07,2.97634286009986e-07,3.007060867933792e-07,1.5362892816184522e-05
2.8300144433854126e-07,2.9789013474848716e-07,3.00721336203984e-07,1.520503487331188e-05
2.822806860460176e-07,2.9808567488722616e-07,3.0066579695791586e-07,1.5041660675056723e-05
2.8153470135970177e-07,2.982251847296628e-07,3.005393357635881e-07,1.4873266141526687e-05
2.807683849418397e-07,2.983145149373242e-07,3.003407883538722e-07,1.4700278302882941e-05
2.799848217217116e-07,2.983578959117134e-07,3.000676834369048e-07,1.45230683812897e-05
2.791863377163989e-07,2.98356439793785e-07,2.99716521848036e-07,1.4341953331744073e-05
2.7837567674513443e-07,2.983082433578217e-07,2.992833399245475e-07,1.4157191260077564e-05
2.7755623834354054e-07,2.9820952453189867e-07,2.987645445110816e-07,1.3968981837649204e-05
2.767311936441806e-07,2.9805634096970346e-07,2.981584022768929e-07,1.3777481392147165e-05
2.759026179096252e-07,2.9784550437635954e-07,2.9746593317275925e-07,1.3582829481011478e-05
2.7507138579758405e-07,2.975741096782732e-07,2.9669065176013496e-07,1.338518568314383e-05
2.742370116956497e-07,2.9723938059338714e-07,2.9583835885017783e-07,1.318480112732766e-05
2.733978431988913e-07,2.96839229824614e-07,2.949166067132737e-07,1.2982106321481845e-05
2.7255250515449444e-07,2.963724309806162e-07,2.9393345150963004e-07,1.2777753383671788e-05
2.717009937538439e-07,2.958389959841179e-07,2.9289742916959593e-07,1.2572589930518436e-05
2.7084423761503737e-07,2.9524079150823496e-07,2.918186692707249e-07,1.2367595876215504e-05
2.699835134095845e-07,2.9458080504512964e-07,2.9070871321381365e-07,1.2163872978570048e-05
2.691206082917517e-07,2.938614853000176e-07,2.895789574139502e-07,1.1962720135126473e-05
2.682583019383731e-07,2.9308395977490893e-07,2.8843930827114465e-07,1.176567349535242e-05
2.674006890227797e-07,2.922480859159697e-07,2.8729776691928357e-07,1.1574417092502796e-05
2.6655256852572896e-07,2.9135292855917675e-07,2.861604829806999e-07,1.1390635519006321e-05
2.6571838356253685e-07,2.903983430500638e-07,2.850315352116066e-07,1.1215915058524398e-05
2.64902437010286e-07,2.8938655524809947e-07,2.839128249926421e-07,1.1051686742496813e-05
2.6410921048302657e-07,2.8832133780446574e-07,2.82804872122752e-07,1.0899169260378052e-05
2.633419950494812e-07,2.872057142185789e-07,2.817079325704474e-07,1.0759356252293443e-05
2.626019058396937e-07,2.8604120732733077e-07,2.806219448754919e-07,1.0633077322021368e-05
2.618889019591525e-07,2.848289563231333e-07,2.795455430912253e-07,1.052106460428956e-05
2.612032149427586e-07,2.8357104980673926e-07,2.784761511173833e-07,1.0423971609012167e-05
2.605455417930028e-07,2.822712548059286e-07,2.7741143059153625e-07,1.0342355206394189e-05
2.599159733365353e-07,2.809345612161284e-07,2.763503058070849e-07,1.0276658286534027e-05
2.593135666960797e-07,2.795662469498957e-07,2.7529328330092267e-07,1.0227224089370316e-05
2.587380034488199e-07,2.7817267170991177e-07,2.7424317206027605e-07,1.0194326269281e-05
2.5819086698787433e-07,2.767620922412867e-07,2.73205165471992e-07,1.0178198983423104e-05
2.5767427229048893e-07,2.75342878257997e-07,2.7218519316760504e-07,1.0179105383045627e-05
2.571890150046997e-07,2.7392214596684e-07,2.71188662581046e-07,1.0197436834189814e-05
2.567345377156586e-07,2.7250693117963783e-07,2.7022071133874804e-07,1.023373253973884e-05
2.56310202043266e-07,2.711050389665785e-07,2.6928633087839606e-07,1.0288566887523103e-05
2.559165245918914e-07,2.6972413607911645e-07,2.683897448072781e-07,1.0362388298737827e-05
2.5555543082308477e-07,2.683705240766903e-07,2.675337411472032e-07,1.0455396380406456e-05
2.552294681020255e-07,2.6704828814029934e-07,2.6671932879103543e-07,1.056752665648939e-05
2.549412612610924e-07,2.657593931245775e-07,2.6594617878072125e-07,1.0698606092093719e-05
2.546936434571159e-07,2.6450558935355284e-07,2.652138108172249e-07,1.0848568905842157e-05
2.544891903413605e-07,2.6329018179187924e-07,2.645220062788528e-07,1.101751534071121e-05
2.543298906291389e-07,2.6211698712825344e-07,2.6386998694320845e-07,1.1205598836302549e-05
2.542186302882433e-07,2.609881150999183e-07,2.6325562271128405e-07,1.1412900800157513e-05
2.541607518961073e-07,2.599035371665232e-07,2.626752556806955e-07,1.1639356366327184e-05
2.541635812695735e-07,2.588618266675941e-07,2.6212400583107145e-07,1.1884665643069395e-05
2.542354451590168e-07,2.578605447190018e-07,2.6159604491375205e-07,1.2148184022585906e-05
2.543853318384753e-07,2.568971953310848e-07,2.610845378909498e-07,1.2428879135306915e-05
2.5462180385005327e-07,2.559713040374802e-07,2.605817076468264e-07,1.2725368024092904e-05
2.5495160548382923e-07,2.550860090192964e-07,2.600791050000718e-07,1.3035970805899233e-05
2.553795987319342e-07,2.5424807140742786e-07,2.5956804136695625e-07,1.3358758823025645e-05
2.559096480057788e-07,2.534661147666166e-07,2.5904083879492284e-07,1.3691603467146115e-05
2.5654506159609926e-07,2.527478082231662e-07,2.584928061578845e-07,1.4032227584900958e-05
2.572877625625305e-07,2.520984486987254e-07,2.5792280898740266e-07,1.4378272364361333e-05
2.581370468934979e-07,2.5152170108187187e-07,2.573315570976688e-07,1.472738811885731e-05
2.5909021352561444e-07,2.5102033805191337e-07,2.567200434162368e-07,1.5077326794562051e-05
2.601458071539012e-07,2.505962677680177e-07,2.560892233487081e-07,1.5425993798782032e-05
2.6130568595357854e-07,2.502509056512312e-07,2.554402190547752e-07,1.577143900321535e-05
2.625725549251993e-07,2.499857602861599e-07,2.547752997488309e-07,1.6111811080430946e-05
2.639468969427467e-07,2.498024186186372e-07,2.540986839635343e-07,1.6445307830064505e-05
2.6542829639001174e-07,2.497018280217049e-07,2.534162154001342e-07,1.677013832579413e-05
2.6701857456707964e-07,2.496839057309165e-07,2.527352544331744e-07,1.7084519798118584e-05
2.687213153975342e-07,2.497480293572655e-07,2.520653046193644e-07,1.7386716061038032e-05
2.705385708913172e-07,2.498929445826356e-07,2.5141828297760813e-07,1.7675070040177315e-05
2.724693796091496e-07,2.501156731275177e-07,2.5080722008381426e-07,1.794800206341417e-05
2.74510627278588e-07,2.504108248975691e-07,2.502434753786782e-07,1.820401977787863e-05
2.7665772109083055e-07,2.5077079745705574e-07,2.4973538955927284e-07,1.844176986406675e-05
2.7890429600780833e-07,2.511869218699381e-07,2.492901677184688e-07,1.8660082215869272e-05
2.812419735620932e-07,2.516510015074367e-07,2.4891596761716506e-07,1.8857958393083115e-05
2.836608247722092e-07,2.521556497362756e-07,2.486213792594113e-07,1.9034525971665213e-05
2.861498175478976e-07,2.5269358950384804e-07,2.48413736188944e-07,1.9188996933265656e-05
2.886970440623257e-07,2.532574440021568e-07,2.482985682094177e-07,1.932064570645221e-05
2.912902625845141e-07,2.5384046596305777e-07,2.482802738836089e-07,1.9428812199082103e-05
2.939169480962735e-07,2.54437734448354e-07,2.483624551175691e-07,1.951291258962612e-05
2.965637494521816e-07,2.550463126847794e-07,2.4854751589399015e-07,1.957244061242558e-05
2.992164548528659e-07,2.556642801307461e-07,2.488366404582567e-07,1.96069700046745e-05
3.0186053429811056e-07,2.5629124447019105e-07,2.492297275586914e-07,1.961616193150197e-05
3.044824006107139e-07,2.569299302032938e-07,2.497249896994383e-07,1.9599777632548534e-05
3.070705796633066e-07,2.575857492870936e-07,2.5032027420408213e-07,1.9557724203750448e-05
3.096152517398602e-07,2.582643950015597e-07,2.5101563762779423e-07,1.9490132132954512e-05
3.1210729336530014e-07,2.5896986781352865e-07,2.518133661559136e-07,1.939739675124356e-05
3.145382952537945e-07,2.5970458613391473e-07,2.5271525934944546e-07,1.9280136463738345e-05
3.169008777569611e-07,2.6047065087988033e-07,2.5372054939564444e-07,1.9139100429850367e-05
3.191885366507253e-07,2.612703115748276e-07,2.5482559340999625e-07,1.897508812945472e-05
3.213953989941641e-07,2.6210669645174124e-07,2.5602433230092357e-07,1.878891736045777e-05
3.2351644360365274e-07,2.629857181882373e-07,2.573088623110282e-07,1.8581437443176623e-05
3.255478896461096e-07,2.6391614482914556e-07,2.5866996000218247e-07,1.8353554867827248e-05
3.274868677150361e-07,2.649065935710692e-07,2.6009723659431075e-07,1.810624856601916e-05
3.2933025803795643e-07,2.659629539026823e-07,2.615790231333334e-07,1.7840617484866013e-05
3.310738884483434e-07,2.670892796855083e-07,2.6310281907382737e-07,1.7558011011609014e-05
3.327123972015342e-07,2.6829052514896824e-07,2.6465637877183445e-07,1.726015011840387e-05
3.342388034308766e-07,2.695732665168004e-07,2.6622868548998264e-07,1.694909387603123e-05
3.356440878669709e-07,2.7094459682039817e-07,2.6781016421992504e-07,1.6627076961138595e-05
3.3691793357695606e-07,2.724120149260837e-07,2.69391745883126e-07,1.6296339426609288e-05
3.380504168901173e-07,2.7398378240384326e-07,2.709635084833213e-07,1.595903204172354e-05
3.390329953344269e-07,2.7566780602774484e-07,2.725145719592943e-07,1.561728439579396e-05
3.3985830596510804e-07,2.774697022711467e-07,2.7403418682002924e-07,1.5273406048642658e-05
3.405205323701945e-07,2.793919465206302e-07,2.7551203019600386e-07,1.4930001205079238e-05
3.410177030050741e-07,2.814341289100981e-07,2.769374227042833e-07,1.4589884274040368e-05
3.413542554897519e-07,2.8359289067814666e-07,2.782991009509069e-07,1.4255911409348455e-05
3.415404130217814e-07,2.8586182604888873e-07,2.7958595609385985e-07,1.3930838193790362e-05
3.4158871335315257e-07,2.882323921881478e-07,2.807874689571668e-07,1.361720567857858e-05
3.41511043175554e-07,2.9069509723194407e-07,2.8189323162015947e-07,1.331723478109046e-05
3.41317006167355e-07,2.932404464678817e-07,2.8289302295783853e-07,1.3032746244559053e-05
3.41013503635316e-07,2.9586015531848945e-07,2.8377813745160105e-07,1.2765139631013194e-05
3.406058950637861e-07,2.985478256917535e-07,2.845417234023137e-07,1.2515433365084713e-05
3.401001088293306e-07,3.0129811785036483e-07,2.851773936136617e-07,1.2284326052377395e-05
3.395038874281458e-07,3.0410577625139024e-07,2.856788355235556e-07,1.2072236370994205e-05
3.388254415431009e-07,3.0696590360803605e-07,2.8604092185306736e-07,1.1879318372937191e-05
3.380712457723246e-07,3.0987424242207545e-07,2.862600342331224e-07,1.1705474597429445e-05
3.3724596599427555e-07,3.1282594758910304e-07,2.8633415899984626e-07,1.1550378463926613e-05
3.3635373370466397e-07,3.158139448297894e-07,2.8626421877073013e-07,1.1413510542061036e-05
3.353993463327334e-07,3.1882857519040244e-07,2.860552614631859e-07,1.1294214443234187e-05
3.343892631862649e-07,3.21858076352769e-07,2.8571727785150445e-07,1.1191768579685606e-05
3.333313874273008e-07,3.248890364116267e-07,2.85266085952792e-07,1.1105457896303497e-05
3.322342176171923e-07,3.2790669547716797e-07,2.847219832042872e-07,1.1034624880939856e-05
3.311063987547948e-07,3.308948037018098e-07,2.841058072375532e-07,1.0978685247843783e-05
3.2995548990691354e-07,3.338355988402148e-07,2.834356651136264e-07,1.0937105065698856e-05
3.2878648220414126e-07,3.367104290100204e-07,2.827260729075144e-07,1.0909354279498055e-05
3.276020493243196e-07,3.395000504803066e-07,2.8198824098076e-07,1.0894859325676573e-05
3.264038324415113e-07,3.4218460214254196e-07,2.812300523191739e-07,1.0892957812703901e-05
3.251926879589222e-07,3.447443974220951e-07,2.8045631487564025e-07,1.090286742936728e-05
3.239679656803503e-07,3.471613066302212e-07,2.7967041861056125e-07,1.0923712881978192e-05
3.227278944481369e-07,3.4942026441249405e-07,2.788764139699839e-07,1.0954600475383372e-05
3.214717643567359e-07,3.515104960021762e-07,2.7808017880330034e-07,1.0994657666497506e-05
3.202013580418947e-07,3.534248261561602e-07,2.772900925220341e-07,1.1043014454544928e-05
3.18919880443198e-07,3.55157218295389e-07,2.765180084505682e-07,1.1098786218646506e-05
3.176307756073639e-07,3.5670104940736044e-07,2.7577984231630996e-07,1.1161095472287628e-05
3.1633798628843196e-07,3.580490876864453e-07,2.750939628663216e-07,1.1229114717825273e-05
3.1504654376305324e-07,3.591942127053974e-07,2.744781575202916e-07,1.130208147439432e-05
3.137631100813704e-07,3.601295924428753e-07,2.7394856378079573e-07,1.1379262467471714e-05
3.12495464361212e-07,3.608479689319266e-07,2.7352054050388516e-07,1.1459909368905334e-05
3.1125082034268216e-07,3.613412918203264e-07,2.7320783233319287e-07,1.1543237517405533e-05
3.100355788210672e-07,3.6160206958903396e-07,2.7301979655385514e-07,1.162841885472692e-05
3.088566306631127e-07,3.616262186672514e-07,2.729599251193556e-07,1.1714612032172748e-05
3.0772252099922967e-07,3.614147874261889e-07,2.7302641492088746e-07,1.1801050725854965e-05
3.066445286110976e-07,3.609727123604621e-07,2.732133715407552e-07,1.1887131602916866e-05
3.056366930250339e-07,3.603071178432225e-07,2.7351221795555853e-07,1.197242205501487e-05
3.0471327319034386e-07,3.5942697519328156e-07,2.739131431382919e-07,1.2056582979676531e-05
3.038853327512083e-07,3.5834200091705157e-07,2.744054482720254e-07,1.2139266812093942e-05
3.03159729232444e-07,3.570606731732402e-07,2.749766999330083e-07,1.222005130569058e-05
3.025406199201271e-07,3.5559027080026677e-07,2.756127154064639e-07,1.229842542247022e-05
3.020306049061658e-07,3.539390087520247e-07,2.762996788269415e-07,1.237380956361563e-05
3.0163045680936433e-07,3.5211678174701e-07,2.770267827331227e-07,1.2445615709083368e-05
3.013390617223271e-07,3.501332766769286e-07,2.7778647317643407e-07,1.2513383469032007e-05
3.0115430420153854e-07,3.4799657903950056e-07,2.7857207434039093e-07,1.2576981695942947e-05
3.010736068317698e-07,3.457145399791932e-07,2.793754488880207e-07,1.2636743157719749e-05
3.0109313447573573e-07,3.432968908902831e-07,2.80186310624448e-07,1.2693400335252475e-05
3.012065422443913e-07,3.407551954094008e-07,2.809931964010137e-07,1.2747887089409862e-05
3.0140450605275784e-07,3.381013025007997e-07,2.817857068546111e-07,1.2801147844799467e-05
3.0167511727461534e-07,3.3534662306332305e-07,2.8255688549141023e-07,1.2854015366930287e-05
3.0200460193692325e-07,3.325022948155524e-07,2.8330386880873716e-07,1.2907224782886791e-05
3.023786100056245e-07,3.2957968279446976e-07,2.840259591582256e-07,1.296158199673354e-05
3.0278542784061324e-07,3.2659123363194533e-07,2.8472211731523573e-07,1.3018122118856426e-05
3.0321964053171016e-07,3.2355106972224225e-07,2.8539004208572173e-07,1.3078102993380056e-05
3.036816765415719e-07,3.2047459475571263e-07,2.860264433784284e-07,1.3142886253404635e-05
3.0417388237096073e-07,3.17377158226871e-07,2.8662741149747764e-07,1.3213822623943472e-05
3.046979680645531e-07,3.142736028469664e-07,2.871884959870008e-07,1.3292165607846307e-05
3.0525427889263785e-07,3.111803012252843e-07,2.8770501112998534e-07,1.3378993741327644e-05
3.0584174100258653e-07,3.081171856927982e-07,2.8817296877225623e-07,1.3475146133173864e-05
3.06458880208855e-07,3.051062926384645e-07,2.8858940851632104e-07,1.3581185854410525e-05
3.0710472664306025e-07,3.021680046548848e-07,2.889516919700307e-07,1.3697388179864532e-05
3.077784239307492e-07,2.993188803373978e-07,2.892572026588765e-07,1.3823738554264471e-05
3.084782280310169e-07,2.965728450461344e-07,2.895034260339516e-07,1.3959928980118618e-05
3.09200716690292e-07,2.939437544827786e-07,2.896875470369768e-07,1.4105356562899708e-05
3.0994078002429397e-07,2.9144549031397783e-07,2.898062540690849e-07,1.4259138138114056e-05
3.106925011635773e-07,2.890899066875567e-07,2.8985653917832666e-07,1.4420154167180982e-05
3.114495271959969e-07,2.868869271947565e-07,2.89836795028798e-07,1.4587130298643146e-05
3.1220420314494947e-07,2.848462553795681e-07,2.8974679215740087e-07,1.4758741096498895e-05
3.129475179678512e-07,2.829768252890794e-07,2.895869407417261e-07,1.4933691083751365e-05
3.1367065686359125e-07,2.812848339405827e-07,2.893579873625004e-07,1.5110743872851254e-05
3.143657734996641e-07,2.7977290636814194e-07,2.890606204381705e-07,1.528871979579048e-05
3.1502486230096174e-07,2.784405476582621e-07,2.886952854316785e-07,1.546649992790382e-05
3.1563825114248534e-07,2.772858275315095e-07,2.882630129301057e-07,1.564304093587936e-05
3.161941693266637e-07,2.763080674641366e-07,2.8776613153605373e-07,1.5817374058726086e-05
3.1667977715848266e-07,2.7550916573338897e-07,2.8720818792666106e-07,1.598857678651465e-05
3.170830390650737e-07,2.7489155752563967e-07,2.865931659376749e-07,1.6155729251774453e-05
3.1739395163546984e-07,2.744551134347591e-07,2.8592389702691676e-07,1.6317877958179146e-05
3.176046369814857e-07,2.741963330999441e-07,2.8520084702112303e-07,1.6474048156776373e-05
3.177093363251141e-07,2.74109607672642e-07,2.844223528068673e-07,1.6623299207038127e-05
3.1770442224701036e-07,2.741884183296241e-07,2.835857498931668e-07,1.6764737904742176e-05
3.175876465747412e-07,2.744254960771981e-07,2.826884951877613e-07,1.6897467154268852e-05
3.173574753244289e-07,2.74812405974035e-07,2.8172913548699604e-07,1.7020546039246218e-05
3.1701372590378925e-07,2.753392916361432e-07,2.8070851830367545e-07,1.7132999008880135e-05
3.1655806395903673e-07,2.7599500084689584e-07,2.7963085288048613e-07,1.7233862690096692e-05
3.1599265848138144e-07,2.767674765772467e-07,2.785031278921537e-07,1.732227456473891e-05
3.1531853059864467e-07,2.776445653157125e-07,2.7733263566489e-07,1.7397574746288475e-05
3.145356317016083e-07,2.7861489455922407e-07,2.7612490865495793e-07,1.7459336722193802e-05
3.1364357109860594e-07,2.7966808792657883e-07,2.748841333763765e-07,1.7507310397797323e-05
3.126413503174552e-07,2.8079446163761485e-07,2.736155701523903e-07,1.7541356416775908e-05
3.1152704436557413e-07,2.819848697662428e-07,2.72327353303232e-07,1.7561405917131962e-05
3.102983142589752e-07,2.832309688101058e-07,2.7102946656230413e-07,1.7567417471072383e-05
3.089529377104085e-07,2.845249803628483e-07,2.697313739443301e-07,1.7559333263760158e-05
3.0748922037704056e-07,2.8585905938522616e-07,2.6844075161578587e-07,1.7537069425514266e-05
3.0590652636440984e-07,2.872261389553689e-07,2.6716305394646676e-07,1.7500561793195956e-05
3.042054424241897e-07,2.8862111729009997e-07,2.659013660282483e-07,1.7449848872120953e-05
3.023875671462801e-07,2.9003999198432877e-07,2.6465685022608754e-07,1.7385144789065032e-05
3.0045533046387694e-07,2.91478386543518e-07,2.634297930334209e-07,1.730686725196589e-05
2.984121625857905e-07,2.929309785255233e-07,2.6222115004013535e-07,1.7215621540823763e-05
2.9626286952643057e-07,2.9439093647439873e-07,2.6103397821316927e-07,1.711215378107271e-05
2.9401330648977605e-07,2.9584955912902925e-07,2.598737399822116e-07,1.699728292138707e-05
2.916695202344415e-07,2.972970903532412e-07,2.587470835971349e-07,1.6871843484378875e-05
2.8923753458523816e-07,2.987243579127996e-07,2.576597496599816e-07,1.6736669988128382e-05
2.867239213134286e-07,3.00124564227078e-07,2.566149785474334e-07,1.6592599155491598e-05
2.841369234048261e-07,3.014943480847216e-07,2.5561315894844377e-07,1.6440438864200807e-05
2.814878576533345e-07,3.028326262504082e-07,2.546527044694804e-07,1.628091039642605e-05
2.787913953134837e-07,3.041379584597434e-07,2.537320169951349e-07,1.6114627020200242e-05
2.7606423027498257e-07,3.0540699949463844e-07,2.528509635349384e-07,1.5942111291992085e-05
2.7332387938677203e-07,3.0663420184577604e-07,2.5201064723146637e-07,1.5763801489523765e-05
2.705880055624061e-07,3.078117578911289e-07,2.512126040313242e-07,1.5580050179438597e-05
2.678732461897059e-07,3.08930177222447e-07,2.5045779896957504e-07,1.5391133769474575e-05
2.6519413269177034e-07,3.0997964225566106e-07,2.4974536795045096e-07,1.5197267590642829e-05
2.625632417562652e-07,3.109514018451076e-07,2.490725120220998e-07,1.4998630744348755e-05
2.5999262837565106e-07,3.118390295787985e-07,2.484357040220847e-07,1.4795399172504892e-05
2.574946787674552e-07,3.126394034164816e-07,2.4783126462317145e-07,1.4587765766597056e-05
2.550808486269996e-07,3.133523742944245e-07,2.472547201918965e-07,1.4375940420161676e-05
