2.69784502308074e-07,3.595828036811646e-07,2.986424879930088e-07,1.9029633752142765e-05
2.708104737553388e-07,3.624995219995236e-07,2.975032392939e-07,1.8844788725485386e-05
2.7191975918433506e-07,3.6535303327044345e-07,2.963113583535618e-07,1.865128162937831e-05
2.731114815782292e-07,3.6813579905641046e-07,2.95072931448483e-07,1.845037211534208e-05
2.7438338382693576e-07,3.7084200844037225e-07,2.937949492510811e-07,1.8243309995423968e-05
2.757321939059781e-07,3.734650154400317e-07,2.924845737768736e-07,1.8031253485939247e-05
2.7715323534217675e-07,3.7599629104423844e-07,2.9114897382091754e-07,1.7815212224794597e-05
2.7863996123002427e-07,3.7842628301671217e-07,2.897962123992352e-07,1.7596032039717812e-05
2.801840407576434e-07,3.8074513638799626e-07,2.884360009938525e-07,1.737439913627645e-05
2.81775532212808e-07,3.82942398920275e-07,2.870792992511873e-07,1.715084811024721e-05
2.834028606618173e-07,3.850069591015801e-07,2.857370399076227e-07,1.692576945811351e-05
2.8505322077829036e-07,3.8692772208670047e-07,2.844185150546372e-07,1.669942337937656e-05
2.8671334426201854e-07,3.886945832986944e-07,2.831302751440443e-07,1.647197188970864e-05
2.8836979944216305e-07,3.9029986489964103e-07,2.818761266073978e-07,1.6243534494614818e-05
2.900087548327365e-07,3.917396698483833e-07,2.806580404280723e-07,1.601424694778343e-05
2.9161578516263146e-07,3.9301384538084753e-07,2.794776520956478e-07,1.5784299630993025e-05
2.931760247134226e-07,3.9412499362431674e-07,2.7833750803131963e-07,1.5553969006424412e-05
2.946744426576593e-07,3.95077313600316e-07,2.772417291690945e-07,1.5323631762292347e-05
2.960961165051342e-07,3.958748717322458e-07,2.761974020298288e-07,1.5093712548947434e-05
2.974266912307629e-07,3.9651998176409147e-07,2.752157386915393e-07,1.4864597745783267e-05
2.986532729651743e-07,3.970130436450402e-07,2.7430978233540485e-07,1.4636599897335244e-05
2.9976562980464193e-07,3.9735403698195145e-07,2.734901037577992e-07,1.4409978429971414e-05
3.007566202102314e-07,3.975449626839933e-07,2.727632157979437e-07,1.4184968209451828e-05
3.016218073711659e-07,3.975910365474875e-07,2.721336415512312e-07,1.3961787566863183e-05
3.023595944722865e-07,3.9749896136877924e-07,2.716066433894868e-07,1.3740630482372542e-05
3.02971482915524e-07,3.972750094378162e-07,2.711888301751104e-07,1.3521658634040327e-05
3.0346208185905464e-07,3.9692605640310725e-07,2.708868132039681e-07,1.3305001536241207e-05
3.038393960736094e-07,3.96461600117508e-07,2.707063967581569e-07,1.3090771941985167e-05
3.041135592168924e-07,3.9589351486865285e-07,2.7065314940917556e-07,1.2879093921741444e-05
3.042936351545801e-07,3.95233624927756e-07,2.7073237581922076e-07,1.2670124472983213e-05
3.043861486858456e-07,3.944912171195752e-07,2.709484961335836e-07,1.2464046759380445e-05
3.0439653341640825e-07,3.936722375671602e-07,2.713055532279857e-07,1.2261035591942818e-05
3.043302228100339e-07,3.927797627039903e-07,2.718077154348556e-07,1.2061243458285036e-05
3.0419203570473384e-07,3.9181420881230616e-07,2.7245857585331895e-07,1.1864828709850248e-05
3.03986463928911e-07,3.9077401050714995e-07,2.732607159926757e-07,1.1671967229145274e-05
3.037195069024163e-07,3.8965794197777296e-07,2.742161436889772e-07,1.1482832625181825e-05
3.034001039181769e-07,3.8846686803160937e-07,2.753262867049047e-07,1.129758205362914e-05
3.0304063027635954e-07,3.872033051809441e-07,2.7659159368848693e-07,1.111633990954856e-05
3.0265612073680785e-07,3.8587073489821223e-07,2.7801125280933186e-07,1.0939193140410857e-05
3.0226206485192925e-07,3.844734093304619e-07,2.7958220119062774e-07,1.0766219789527664e-05
3.0187199548585945e-07,3.830155704340765e-07,2.812982766967968e-07,1.0597507462900796e-05
3.0149596603508556e-07,3.8150048820808856e-07,2.831510465192671e-07,1.0433158643506919e-05
3.0114053735806714e-07,3.7993064669444155e-07,2.851312025475785e-07,1.0273325605978208e-05
3.0080969657894804e-07,3.783090743535051e-07,2.8722859145466016e-07,1.0118253494259275e-05
3.0050542223350856e-07,3.7664033850406864e-07,2.8943135825638054e-07,9.968281518665635e-06
3.002277779633585e-07,3.7493015156425523e-07,2.9172631937265285e-07,9.82379320654648e-06
2.999748074936423e-07,3.731843834978728e-07,2.941001245958101e-07,9.68515460136234e-06
2.997425044196413e-07,3.714089655728181e-07,2.965392292276664e-07,9.552679280632104e-06
2.995252044072166e-07,3.696105919505936e-07,2.9902952769560196e-07,9.426611510460036e-06
2.993161489404187e-07,3.677972075047004e-07,3.015569747921568e-07,9.30712874582908e-06
2.991088644957308e-07,3.65977341400252e-07,3.0410773066083887e-07,9.194383685372293e-06
2.989001857403131e-07,3.641582351785167e-07,3.066669718752047e-07,9.088544670293319e-06
2.9869222827824245e-07,3.623444053566394e-07,3.092181071397605e-07,8.989782512629468e-06
2.9849096486221106e-07,3.605372539904326e-07,3.117430849861044e-07,8.898228150168263e-06
2.983039379675146e-07,3.5873545382063825e-07,3.14223417454065e-07,8.813943510954106e-06
2.981390752407648e-07,3.569366353982237e-07,3.166422699163269e-07,8.7369234571946e-06
2.980034954874357e-07,3.5513912988710497e-07,3.189859809631115e-07,8.667143879271722e-06
2.979021342195063e-07,3.533418446093115e-07,3.212428911106184e-07,8.604636306311587e-06
2.978371852592494e-07,3.515431818426889e-07,3.2340116220301376e-07,8.549533821533705e-06
2.978082139485815e-07,3.497410403904441e-07,3.2544805907218647e-07,8.502059338658378e-06
2.978121804304927e-07,3.479344453513164e-07,3.273705824449743e-07,8.46247763399988e-06
2.978434277697413e-07,3.461248735573894e-07,3.29156510373744e-07,8.431047525309688e-06
2.97894239726217e-07,3.443148661604693e-07,3.3079499760903303e-07,8.407989965050342e-06
2.979562211773185e-07,3.425053177700719e-07,3.322762969424905e-07,8.39347142883459e-06
2.980215157484521e-07,3.406943133556501e-07,3.335914328199736e-07,8.387591988886476e-06
2.98082660557778e-07,3.388774076799067e-07,3.3473221784556777e-07,8.390368897664473e-06
2.981321583239544e-07,3.370481258393772e-07,3.3569110936395577e-07,8.401719293538766e-06
2.981639060570428e-07,3.3519844970027387e-07,3.364619132258481e-07,8.421445330504707e-06
2.981759048972252e-07,3.3331975984317137e-07,3.3704184378721534e-07,8.449219603341035e-06
2.981716312850643e-07,3.3140442668662124e-07,3.3743269103281357e-07,8.484577415530046e-06
2.981594586251961e-07,3.294468612154788e-07,3.3764035861708486e-07,8.526934989906183e-06
2.981508546204219e-07,3.274432030134385e-07,3.376740946237508e-07,8.575636353338057e-06
2.9815728117385695e-07,3.2539025021422817e-07,3.375449673448905e-07,8.630002248202159e-06
2.981871332423273e-07,3.232846326043017e-07,3.3726343656240766e-07,8.689364920926535e-06
2.982448729012676e-07,3.211236706008994e-07,3.368376539884254e-07,8.753099807663698e-06
2.983325694469076e-07,3.189075173221308e-07,3.362729993914581e-07,8.820643375448883e-06
2.98452753173437e-07,3.1664036020047067e-07,3.355724205758927e-07,8.891471714315424e-06
2.986104697580341e-07,3.143305775575368e-07,3.347376159501944e-07,8.965070122415698e-06
2.988123310986343e-07,3.119900014108118e-07,3.3377078436568963e-07,9.040942444629266e-06
2.990638610474305e-07,3.096313010278568e-07,3.326759819840315e-07,9.118644843102887e-06
2.9936866686239145e-07,3.072649939082159e-07,3.3145949459852226e-07,9.197796067912897e-06
2.997297904461029e-07,3.048986599902568e-07,3.301300058165533e-07,9.278056173393609e-06
3.001513537473988e-07,3.02538185011075e-07,3.286989556140852e-07,9.359100566310052e-06
3.0063922535079257e-07,3.001890764750593e-07,3.271798431733466e-07,9.440600275004356e-06
3.0119964386680984e-07,2.978573918368191e-07,3.2558655480273216e-07,9.522202587506217e-06
3.018374317746998e-07,2.9555127997861925e-07,3.239318242960685e-07,9.60352613639404e-06
3.025569507139764e-07,2.932816903492993e-07,3.222258472652696e-07,9.68418952134528e-06
3.0336398689524627e-07,2.910601826937708e-07,3.20475833555262e-07,9.76386681692804e-06
3.0426470949369377e-07,2.888959611531802e-07,3.186869256253257e-07,9.842356589613043e-06
3.0526270722043746e-07,2.8679536882365424e-07,3.1686293400219e-07,9.919640760812264e-06
3.0635739570063894e-07,2.8476401568285607e-07,3.150065464754684e-07,9.995877907376988e-06
3.0754430070775907e-07,2.8280921605953767e-07,3.131206313896789e-07,1.0071310523298387e-05
3.088157095489725e-07,2.809403472861873e-07,3.112103290375337e-07,1.01461534654954e-05
3.101615076471441e-07,2.7916699760486987e-07,3.0928326150889056e-07,1.022052242229306e-05
3.115705220567451e-07,2.774969606022996e-07,3.0734749940855897e-07,1.0294398941302173e-05
3.1303082421660926e-07,2.759356140502636e-07,3.054097726231045e-07,1.0367632260029907e-05
3.145286453663775e-07,2.744858433973184e-07,3.034749755325348e-07,1.0439986874657114e-05
3.160481048234314e-07,2.731480297605883e-07,3.0154600806256304e-07,1.0511228738492983e-05
3.1757201087387467e-07,2.719213854145554e-07,2.996236334633297e-07,1.058121799395008e-05
3.1908212622848873e-07,2.7080558282341485e-07,2.977072384789257e-07,1.0649967632979393e-05
3.2055899771782826e-07,2.6980036452556964e-07,2.957965737943536e-07,1.0717662261729598e-05
3.219823201410589e-07,2.689047377792318e-07,2.938927662948981e-07,1.0784637696355537e-05
3.23331697393499e-07,2.681183564366428e-07,2.919982219377139e-07,1.0851322199397875e-05
3.245871220263138e-07,2.674438281264999e-07,2.90116556787256e-07,1.0918170689681947e-05
3.2572961970376906e-07,2.6688664945120344e-07,2.8825215106064377e-07,1.0985608183489197e-05
3.267432417591025e-07,2.664521987925984e-07,2.864095940633393e-07,1.1053965863959095e-05
3.2761742948676136e-07,2.661428924588675e-07,2.8459414433158606e-07,1.1123416749822394e-05
3.283473130994738e-07,2.659576548853625e-07,2.8281216635906097e-07,1.1193943086236501e-05
3.2893242276048176e-07,2.658928855936132e-07,2.810704506517136e-07,1.126534099053108e-05
3.2937576409666985e-07,2.65943371456583e-07,2.793752554809317e-07,1.1337245990966315e-05
3.2968245902302807e-07,2.6610210726878065e-07,2.777322429235359e-07,1.1409169177201206e-05
3.298574994285188e-07,2.663595943001229e-07,2.761469394700773e-07,1.1480538307482886e-05
3.299051007576384e-07,2.6670390093656146e-07,2.746243245600958e-07,1.155075676357698e-05
3.2983037261724875e-07,2.671213832241786e-07,2.731680312824298e-07,1.1619314286898136e-05
3.2964059232698305e-07,2.675978315647875e-07,2.717808458450689e-07,1.1685923178200317e-05
3.293449606397473e-07,2.6812006782834097e-07,2.704658719546496e-07,1.1750571233756619e-05
3.289546319141677e-07,2.686766638535345e-07,2.6922666565521514e-07,1.181345675964812e-05
3.2848293214306586e-07,2.6925704666342733e-07,2.680664452407321e-07,1.1874889658364709e-05
3.2794393318644586e-07,2.698504378543725e-07,2.669872332789907e-07,1.1935217659226566e-05
3.273500033464543e-07,2.704459390389802e-07,2.6598913513126464e-07,1.1994776563184402e-05
3.267101667880981e-07,2.7103362905188923e-07,2.650700169602849e-07,1.2053851696631555e-05
3.260300694011973e-07,2.7160540639983745e-07,2.6422619056373164e-07,1.2112635204299072e-05
3.2531361318762523e-07,2.7215526769352216e-07,2.6345369461536695e-07,1.2171183938525545e-05
3.245652117173496e-07,2.7268052970638264e-07,2.6274864537702797e-07,1.2229414124590947e-05
3.237911898041863e-07,2.7318278486501445e-07,2.621066103718213e-07,1.2287145770717635e-05
3.2299990530020573e-07,2.736657217924533e-07,2.615223922550858e-07,1.2344152655120516e-05
3.222007868569039e-07,2.7413207546068925e-07,2.609903061681413e-07,1.2400178915879955e-05
3.2140311851467065e-07,2.745836885147472e-07,2.605047389177228e-07,1.2454927303872035e-05
3.206158013735525e-07,2.750232933263681e-07,2.600614313291457e-07,1.2508037117632265e-05
3.198472985171057e-07,2.754543877907108e-07,2.596586456842725e-07,1.2559075192020419e-05
3.1910453634431845e-07,2.7587921896351245e-07,2.5929675501911037e-07,1.2607556306335827e-05
3.183920540246893e-07,2.7629742797928125e-07,2.589768013190521e-07,1.2652971396157268e-05
3.177126009645277e-07,2.767064065532324e-07,2.587003176457087e-07,1.2694794692211348e-05
3.170684198496901e-07,2.771026785985873e-07,2.584709519617179e-07,1.2732479901886796e-05
3.1646206613587943e-07,2.7748402823211325e-07,2.5829557002459424e-07,1.2765468751338913e-05
3.158967588700528e-07,2.778516649271574e-07,2.5818345797597904e-07,1.2793213975173268e-05
3.153766700426257e-07,2.782105859925475e-07,2.581447808728215e-07,1.281520762837507e-05
3.1490677386163283e-07,2.78568545698817e-07,2.5818952014630516e-07,1.2831004920680294e-05
3.144929236623767e-07,2.789356181723284e-07,2.5832724719260066e-07,1.2840241195531745e-05
3.1414264433511693e-07,2.7932382996783764e-07,2.585671158703074e-07,1.2842643504095904e-05
3.1386463582687733e-07,2.797453791350169e-07,2.589176704958432e-07,1.2838020613408698e-05
3.13666770990378e-07,2.80209952998568e-07,2.593872675672932e-07,1.2826220371420814e-05
3.135550751751823e-07,2.8072292959533374e-07,2.599847637327518e-07,1.2807085946701366e-05
3.135340658189299e-07,2.8128531261202e-07,2.6071898507066933e-07,1.2780452917303976e-05
3.136074587781614e-07,2.818947794492189e-07,2.615967193548018e-07,1.2746189969520015e-05
3.137786636223849e-07,2.825470037523514e-07,2.6262088284934913e-07,1.2704254648725335e-05
3.140502414792144e-07,2.8323665681830676e-07,2.6379046654064213e-07,1.2654718724345993e-05
3.1442329354365784e-07,2.839579867412003e-07,2.65101433287842e-07,1.259772736145719e-05
3.1489835251378287e-07,2.8470529927585264e-07,2.665473401913461e-07,1.2533428311395675e-05
3.1547630551282144e-07,2.8547328116708256e-07,2.681203003067922e-07,1.2461938613366173e-05
3.1615782819122875e-07,2.862570843249152e-07,2.698126471541638e-07,1.238336045261666e-05
3.169434016302928e-07,2.870522667006495e-07,2.716180725564705e-07,1.2297836945381795e-05
3.1783518290197657e-07,2.878547097115164e-07,2.7353114827358214e-07,1.2205633696220195e-05
3.1883811565360133e-07,2.8866152159274514e-07,2.755456954642696e-07,1.210717912404853e-05
3.1995878802333307e-07,2.894733922876385e-07,2.776535212098552e-07,1.2003010998749041e-05
3.2120389964713857e-07,2.9029575206814485e-07,2.798441769755961e-07,1.1893677484618887e-05
3.225793926004435e-07,2.911363357700371e-07,2.821053237854785e-07,1.1779671288073245e-05
3.2408909073036397e-07,2.9200196258013894e-07,2.8442412948907836e-07,1.1661423149651875e-05
3.257328891954177e-07,2.9289837303875087e-07,2.8678965914123176e-07,1.1539351286353273e-05
3.27506001799952e-07,2.9383174779451237e-07,2.891942956999341e-07,1.1413941616616865e-05
3.2939946326976685e-07,2.9480858846562946e-07,2.9163278322412074e-07,1.128579691347923e-05
3.3140111047710525e-07,2.9583381540093695e-07,2.9409970747355337e-07,1.1155621973289957e-05
3.33496199860507e-07,2.969091435634018e-07,2.9658779335772946e-07,1.102418594797038e-05
3.356676871610413e-07,2.980335511482429e-07,2.990886750592095e-07,1.0892307412497176e-05
3.3789756441488783e-07,2.9920554891294406e-07,3.015947772005249e-07,1.0760854147092474e-05
3.401687799694585e-07,3.004242805012976e-07,3.040994213837423e-07,1.0630722565178467e-05
3.424654529214951e-07,3.016879091177087e-07,3.06595126493332e-07,1.050278314557038e-05
3.4477170016228353e-07,3.029917159133669e-07,3.0907272247910404e-07,1.0377836516657381e-05
3.470709787524097e-07,3.0432826368348324e-07,3.115214468346412e-07,1.0256663846626338e-05
3.493462499638507e-07,3.056890477447607e-07,3.139285723937436e-07,1.014014312095026e-05
3.515808574921567e-07,3.070656013181901e-07,3.1627938482385417e-07,1.002926677389836e-05
3.537600759723272e-07,3.084492934508867e-07,3.185581033047038e-07,9.92501221112142e-06
3.5587197340769494e-07,3.098309583256945e-07,3.207483513913939e-07,9.828191017779061e-06
3.5790667234502273e-07,3.112014844077756e-07,3.228328923236421e-07,9.739386664861333e-06
3.598554400485e-07,3.1255314266859677e-07,3.247941449877217e-07,9.65903944063346e-06
3.617106039438461e-07,3.138802408100322e-07,3.2661603519798226e-07,9.587679448398816e-06
3.63465484664657e-07,3.1517897213803463e-07,3.282852965757529e-07,9.526141318295306e-06
3.651144146715048e-07,3.164477819572369e-07,3.297908114108373e-07,9.475565882931856e-06
3.666531257691046e-07,3.1768734458317385e-07,3.3112261881932225e-07,9.437233709617617e-06
3.6807814917708394e-07,3.188985735257744e-07,3.322722242265602e-07,9.41239244687598e-06
3.6938503292051076e-07,3.200809616403417e-07,3.332337437141385e-07,9.402126268492335e-06
3.705679694515089e-07,3.212340357726479e-07,3.340043499676293e-07,9.407261635867803e-06
3.716223449560667e-07,3.223594193833119e-07,3.3458296975389923e-07,9.428314254598567e-06
3.7254707883828884e-07,3.2346004475995056e-07,3.349685078804195e-07,9.465470016116783e-06
3.733433409538754e-07,3.245379018282155e-07,3.351593616744821e-07,9.51859512793481e-06
3.740119156798505e-07,3.2559303531993963e-07,3.351540869742535e-07,9.587265047969896e-06
3.745531540405196e-07,3.266238581114446e-07,3.3495209310541557e-07,9.670795919789427e-06
3.7496977046614424e-07,3.276275975527946e-07,3.3455335601636826e-07,9.768278277711613e-06
3.752693639437872e-07,3.2860117418454216e-07,3.339575454341985e-07,9.87861309869032e-06
3.7546310696414424e-07,3.2954272980761005e-07,3.331645210938417e-07,1.0000542930698693e-05
3.7556211189178656e-07,3.3045177358147374e-07,3.321766642114442e-07,1.013268475188554e-05
3.755760044886418e-07,3.31327505854781e-07,3.310002035796755e-07,1.0273590338891333e-05
3.75513642427034e-07,3.321677784224152e-07,3.296434518535703e-07,1.0421833234522736e-05
3.753832787014154e-07,3.329700870679412e-07,3.281144599389987e-07,1.0576064476763364e-05
3.751918472502827e-07,3.3373323538068344e-07,3.2642107329949413e-07,1.0735003666271788e-05
3.749445767858454e-07,3.3445767405238123e-07,3.245719695985277e-07,1.089740197584116e-05
3.7464528843488423e-07,3.351450781102576e-07,3.225760932997152e-07,1.1062009098637147e-05
3.7429664855149275e-07,3.3579877405810125e-07,3.2044136107015136e-07,1.1227555155893384e-05
3.739000978338532e-07,3.364242587522018e-07,3.1817451414899464e-07,1.1392754327434367e-05
3.734555162796392e-07,3.3702844172727064e-07,3.15781719409316e-07,1.1556311837753737e-05
3.729604556082888e-07,3.376177269735765e-07,3.132688361839722e-07,1.1716931971727228e-05
3.724097947339658e-07,3.381959616544406e-07,3.106415966166677e-07,1.1873363231957195e-05
3.717966751980869e-07,3.387632499433391e-07,3.0790642752860734e-07,1.2024475997764666e-05
3.7111404874539816e-07,3.393160563274622e-07,3.050710775349713e-07,1.2169299246994775e-05
3.7035607472354776e-07,3.398487503429069e-07,3.02144194152958e-07,1.2306980969840942e-05
3.695187202720825e-07,3.4035537200365966e-07,2.991350193777051e-07,1.2436729164748959e-05
3.6859911335971744e-07,3.40829819266091e-07,2.960536537421553e-07,1.2557786895610795e-05
3.6759467600994633e-07,3.412652876121623e-07,2.929109690447759e-07,1.266944158224815e-05
3.665028632533089e-07,3.4165429388482925e-07,2.8971852409732924e-07,1.2771047720701465e-05
3.653210882417899e-07,3.419884500811788e-07,2.864889390885371e-07,1.286203947277428e-05
3.64047129635112e-07,3.422577427263915e-07,2.8323625949565173e-07,1.2941936233851344e-05
3.6268015185510955e-07,3.424506611150276e-07,2.79976774820687e-07,1.301035887850035e-05
3.612208134981932e-07,3.42556013404128e-07,2.7672963608651575e-07,1.3067043259969736e-05
3.5966999799024725e-07,3.425657026551962e-07,2.7351567455441997e-07,1.3111845949092015e-05
3.5802806600171906e-07,3.424761575152283e-07,2.703561066762371e-07,1.314478157532562e-05
3.562963178691168e-07,3.422872400543085e-07,2.672719493821844e-07,1.3166091719392095e-05
3.544793034574572e-07,3.4200081559374533e-07,2.642825166928683e-07,1.3176264448184873e-05
3.5258448081876385e-07,3.416207406807106e-07,2.614043885399849e-07,1.3175958737788593e-05
3.506193533170109e-07,3.411527723201521e-07,2.586520037902172e-07,1.3165884851154249e-05
3.485899781271877e-07,3.406034553449247e-07,2.560382595660068e-07,1.314670389270798e-05
3.465017843111527e-07,3.39979166277905e-07,2.535749855841812e-07,1.3118969031711866e-05
3.44360755556498e-07,3.3928664874226215e-07,2.512734105532073e-07,1.3083106811127553e-05
3.421747616183293e-07,3.385355636034688e-07,2.491435097146786e-07,1.303942571450544e-05
3.399552925031577e-07,3.377401164403886e-07,2.4719289058733337e-07,1.298816158378274e-05
3.377176761874409e-07,3.36916713556062e-07,2.454267175165244e-07,1.2929613814476836e-05
3.3547867032390945e-07,3.36080794441608e-07,2.438483795395746e-07,1.2864345494836044e-05
3.3325374217231325e-07,3.3524666013374565e-07,2.424597689839305e-07,1.27932623562735e-05
3.3105603757343545e-07,3.344286079153769e-07,2.412610799223719e-07,1.2717473298956815e-05
3.2889592771053616e-07,3.336403752874512e-07,2.4025058210560276e-07,1.263807795201594e-05
3.267804134821396e-07,3.328930146407208e-07,2.394244591516984e-07,1.2556044926334667e-05
3.2471364520645516e-07,3.3219359877041695e-07,2.3877773682555597e-07,1.2472244989325976e-05
3.226980094207623e-07,3.31546558470896e-07,2.3830635676015295e-07,1.2387659565501406e-05
3.207341729818768e-07,3.3095584495137693e-07,2.3800765222999412e-07,1.2303644834816905e-05
3.188209115419829e-07,3.3042507802347114e-07,2.3787844501576906e-07,1.2222023046782186e-05
3.169554642180257e-07,3.299568960514052e-07,2.3791316893740921e-07,1.214494563905768e-05
3.151338513028145e-07,3.2955352772591355e-07,2.3810321927887763e-07,1.207467907825277e-05
3.133513074425076e-07,3.292175305476392e-07,2.384369941838616e-07,1.2013434474271844e-05
3.116028648218635e-07,3.289513602896224e-07,2.389003078398234e-07,1.1963250929918895e-05
3.098841156935096e-07,3.287570757235963e-07,2.3947698236619805e-07,1.1925909063299424e-05
3.0819213119086554e-07,3.2863759851037396e-07,2.401491890232377e-07,1.19028615899785e-05
3.065252630060188e-07,3.2859718856995125e-07,2.408975714080587e-07,1.1895179690253791e-05
3.048817306719984e-07,3.286396457014868e-07,2.41701995763531e-07,1.1903522588869005e-05
3.0325870160937575e-07,3.287669001587213e-07,2.4254338651530186e-07,1.1928142222892529e-05
3.0165263202563013e-07,3.289789244123012e-07,2.434053102020082e-07,1.1968933905539058e-05
3.0006027769469984e-07,3.292736302332112e-07,2.4427372991983837e-07,1.2025524334014018e-05
2.984796046918832e-07,3.296469124777868e-07,2.451359434122908e-07,1.209735859928826e-05
2.96911180682192e-07,3.3009301434558906e-07,2.459805834281602e-07,1.2183756925212233e-05
2.953602366533217e-07,3.3060491587565736e-07,2.467978285473637e-07,1.2283956368157445e-05
2.938363912316897e-07,3.311753891556347e-07,2.475783500310832e-07,1.239716549715454e-05
2.9235020508615717e-07,3.3179812909112156e-07,2.483121296535788e-07,1.252261620234686e-05
2.9091073323685303e-07,3.3246734249027877e-07,2.489885586482645e-07,1.2659574430343573e-05
2.895256277463245e-07,3.331768312115648e-07,2.4959763577317073e-07,1.2807323201240927e-05
2.882013612410925e-07,3.3392105040552397e-07,2.501314727376732e-07,1.2965153956031187e-05
2.869430033070367e-07,3.346976018826613e-07,2.5058468665970194e-07,1.3132352926180145e-05
2.8575427698061764e-07,3.355071753142057e-07,2.509531922236599e-07,1.3308163359891886e-05
2.846379933352709e-07,3.363501038999745e-07,2.512330920601699e-07,1.3491746933401455e-05
2.8359693388359424e-07,3.3722416526105123e-07,2.5142073409383624e-07,1.3682157824818199e-05
2.826339097032055e-07,3.3812540364658363e-07,2.515128147087112e-07,1.387832886736757e-05
2.8175065947310586e-07,3.390491781738585e-07,2.515059866440377e-07,1.4079110676254565e-05
2.809476578813621e-07,3.399899574918353e-07,2.513972733069246e-07,1.4283365217470309e-05
2.802246288424377e-07,3.409404198975802e-07,2.511850073978649e-07,1.4490021106414527e-05
2.795800166929656e-07,3.418909568405085e-07,2.5086887264944097e-07,1.469805631590287e-05
2.790104154721501e-07,3.428300540114486e-07,2.504498697842163e-07,1.4906474414900906e-05
2.785113009579689e-07,3.437446280595507e-07,2.499307363152557e-07,1.5114311452610169e-05
2.780780642657377e-07,3.44619963381921e-07,2.4931602238524946e-07,1.5320642208362768e-05
2.7770633245462513e-07,3.454403664383169e-07,2.4861213811183045e-07,1.5524543130808607e-05
2.773915856570665e-07,3.461906117778138e-07,2.478275022322876e-07,1.5725024265403627e-05
2.7712838727473717e-07,3.46856946419544e-07,2.4697217651490265e-07,1.5920988316985004e-05
2.769101373652568e-07,3.474279830494935e-07,2.4605724774578693e-07,1.6111243836825773e-05
2.76729630385252e-07,3.4789693991797513e-07,2.450940863473526e-07,1.6294566108712937e-05
2.765795095792416e-07,3.482640770660489e-07,2.440930102439249e-07,1.6469810136785128e-05
2.764526415372942e-07,3.485360922594304e-07,2.4306189954474697e-07,1.6636045182179363e-05
2.763429194668627e-07,3.4872275913760793e-07,2.420057243326637e-07,1.6792609645955068e-05
2.7624525998365e-07,3.488344466843666e-07,2.409269540260452e-07,1.6939030364802525e-05
2.761541762655313e-07,3.488813603652766e-07,2.398265396512726e-07,1.7074888716243906e-05
2.760627260791158e-07,3.488725619351257e-07,2.387053433136984e-07,1.7199758526819683e-05
2.759625075485753e-07,3.488143377097667e-07,2.3756558562308488e-07,1.731323649760327e-05
2.758438173565079e-07,3.487094804077666e-07,2.3641192426816468e-07,1.7414989165183553e-05
2.75696284598878e-07,3.485585349893653e-07,2.3525166074293514e-07,1.7504762731348387e-05
2.755104847786193e-07,3.483618837639639e-07,2.3409342279260092e-07,1.7582368928255897e-05
2.7527991814871747e-07,3.481208249032608e-07,2.3294559789862236e-07,1.764772740910589e-05
2.750025930831516e-07,3.478371084896381e-07,2.3181684852725463e-07,1.7701021809904653e-05
2.746812736846293e-07,3.475118677233012e-07,2.307181350512877e-07,1.7742840505749263e-05
2.743218116513048e-07,3.471451371396501e-07,2.2966360287656946e-07,1.7774134223095755e-05
2.739315226428689e-07,3.467358494902069e-07,2.2866917613546357e-07,1.7796036043814194e-05
2.735196198299785e-07,3.462822742064948e-07,2.2774974379345108e-07,1.7809674354030375e-05
2.7309755797977774e-07,3.4578378890222677e-07,2.269169348410776e-07,1.7816055286422034e-05
2.726768379792404e-07,3.45242414554298e-07,2.2617897216098518e-07,1.781611040574154e-05
2.7226615139123764e-07,3.4466156553127773e-07,2.255417126893137e-07,1.7810888566232997e-05
2.7187066229856803e-07,3.4404385298934645e-07,2.2500896107668247e-07,1.7801668497028845e-05
2.7149317445785215e-07,3.433908236388202e-07,2.2458195919763328e-07,1.7789877529153687e-05
2.711350083951724e-07,3.42703383165842e-07,2.242594743930292e-07,1.7776924340961307e-05
2.7079587868712725e-07,3.4198127699513625e-07,2.2403919185854536e-07,1.7764053476228648e-05
2.7047406182023354e-07,3.412224146297305e-07,2.2391897363346051e-07,1.7752250874521625e-05
2.701671734483468e-07,3.4042273649045966e-07,2.2389669146204414e-07,1.774219546878165e-05
2.6987290892553647e-07,3.395768348040409e-07,2.239697981806251e-07,1.773424534294517e-05
2.695895051432829e-07,3.386790812201264e-07,2.241352464986549e-07,1.7728457635027652e-05
2.6931535017116466e-07,3.3772454565166914e-07,2.2438922713539892e-07,1.772463199580632e-05
2.6904781461609413e-07,3.367099301172355e-07,2.2472715352947675e-07,1.7722352688059893e-05
2.6878279999505703e-07,3.3563417820838187e-07,2.2514379118512898e-07,1.7721017384128044e-05
2.685159178022692e-07,3.3449786098941284e-07,2.256334503327581e-07,1.7719861802122894e-05
2.682437601500945e-07,3.333027780837207e-07,2.261909361705862e-07,1.771799098862998e-05
2.6796354859084246e-07,3.320529098033781e-07,2.2681232088001837e-07,1.7714418313116768e-05
2.676723033216228e-07,3.307551467994407e-07,2.2749425325407587e-07,1.7708114102117685e-05
2.6736690085628013e-07,3.2941894064174897e-07,2.282330174401947e-07,1.76980602752747e-05
2.670440281940633e-07,3.2805568472123945e-07,2.2902488129237753e-07,1.7683287109564787e-05
2.666992033131588e-07,3.266781520381121e-07,2.298668681993138e-07,1.7662876185479732e-05
2.663260696717961e-07,3.2530007216821797e-07,2.3075701870915712e-07,1.7635945291083914e-05
2.659171592166288e-07,3.239357214961961e-07,2.3169448762477288e-07,1.760163887294415e-05
2.65465478551294e-07,3.225984421721104e-07,2.3267894082858238e-07,1.7559135563205168e-05
2.6496535925808556e-07,3.212986500138688e-07,2.3370903251695014e-07,1.7507668890144252e-05
2.644117972745911e-07,3.2004349844151225e-07,2.3478166903098397e-07,1.7446543387046854e-05
2.63799191069209e-07,3.188377100908705e-07,2.3589319174905248e-07,1.7375137712352073e-05
2.63121237500176e-07,3.1768366857568826e-07,2.370409817999206e-07,1.729291951471638e-05
2.6237219582326934e-07,3.1658110581995625e-07,2.3822304010481118e-07,1.7199506190476907e-05
2.615477448633561e-07,3.15527424151556e-07,2.394360543195461e-07,1.7094742786110027e-05
2.6064468078388015e-07,3.1451828245113674e-07,2.406748304120731e-07,1.6978710189830324e-05
2.5966069215415566e-07,3.1354790937874764e-07,2.419332401191428e-07,1.6851643807335512e-05
2.585945309962772e-07,3.1260947314759357e-07,2.432049439240167e-07,1.6713843266180066e-05
2.574457768653113e-07,3.116957954147523e-07,2.444839653793669e-07,1.6565635667094196e-05
2.562145148027771e-07,3.107999343731867e-07,2.457652308037094e-07,1.6407386509219586e-05
2.549017036164277e-07,3.099148519436111e-07,2.470441007424443e-07,1.6239554778365752e-05
2.535102073947584e-07,3.090328121007019e-07,2.483150399789552e-07,1.6062777960742802e-05
2.5204565001585665e-07,3.081464811876543e-07,2.4957063634963213e-07,1.5877913046788272e-05
2.505160280726947e-07,3.0725097057493513e-07,2.508014214777269e-07,1.5686011474854817e-05
2.4893026859525014e-07,3.0634375439547845e-07,2.519961642382738e-07,1.5488289261780488e-05
2.472968888168053e-07,3.054228107872303e-07,2.531427039999473e-07,1.5286102466675545e-05
2.456231733529695e-07,3.04485908023664e-07,2.542295242087952e-07,1.5080892125987548e-05
2.4391468376274805e-07,3.035314497689026e-07,2.55246858586015e-07,1.4874099133234475e-05
2.421753276110441e-07,3.025597496407205e-07,2.561860818750987e-07,1.4667075691358526e-05
2.4040801917003496e-07,3.015750476603462e-07,2.570388439770824e-07,1.4461038338743485e-05
2.3861529840975064e-07,3.005880239486273e-07,2.577975755330508e-07,1.4257107552878312e-05
2.367999210841107e-07,2.996160554819335e-07,2.5845592592182626e-07,1.4056396402326065e-05
2.3496573947912826e-07,2.986801027056148e-07,2.590078030998114e-07,1.3860045822729349e-05
2.3311846421273685e-07,2.97801532263948e-07,2.594464410440497e-07,1.3669171202891472e-05
2.31266910579872e-07,2.9700141539577103e-07,2.597647109188371e-07,1.3484774041342666e-05
2.294248234635281e-07,2.9630031372026626e-07,2.599562262257079e-07,1.3307694769412205e-05
2.2761034176033945e-07,2.957164526258368e-07,2.6001694087367413e-07,1.3138638282959493e-05
2.2584297885275804e-07,2.952637195618542e-07,2.599469354635168e-07,1.2978208747182919e-05
2.241419852939795e-07,2.949515086331126e-07,2.597515017521474e-07,1.2826894129051234e-05
2.2252607469786072e-07,2.9478647122560174e-07,2.594413540904745e-07,1.2685026344247706e-05
2.210124344974985e-07,2.947742686057923e-07,2.5903180597652564e-07,1.2552757947128142e-05
2.1961606955028209e-07,2.9491903968660735e-07,2.585400883587303e-07,1.2430081087825636e-05
2.1834984068170667e-07,2.952212854622416e-07,2.57982060305244e-07,1.2316874694478108e-05
2.1722378492940388e-07,2.956768981144795e-07,2.573708630134997e-07,1.221293011182332e-05
2.162442703321833e-07,2.9627811599680637e-07,2.567179190977988e-07,1.2117944640800376e-05
2.1541451824150577e-07,2.970147942313844e-07,2.560349673890141e-07,1.2031505804668064e-05
2.147356322561217e-07,2.978747526391977e-07,2.553355164255638e-07,1.1953083366287386e-05
2.1420647844694246e-07,2.988438143820781e-07,2.5463504985431446e-07,1.188203918185672e-05
2.138229491476669e-07,2.9990680529041636e-07,2.539502345883088e-07,1.1817654250187725e-05
2.1357773739633212e-07,3.010497000967487e-07,2.5329698424137807e-07,1.1759159568655185e-05
2.1346069329578108e-07,3.022609804769192e-07,2.526886493824447e-07,1.1705766610315308e-05
2.134599216077877e-07,3.035311467156304e-07,2.5213641210255196e-07,1.1656704443037324e-05
2.135638380685944e-07,3.0485198015369377e-07,2.516505430738152e-07,1.1611251256934425e-05
2.1376268421172173e-07,3.062163017841733e-07,2.5123988113608205e-07,1.1568737132295607e-05
2.140478781407624e-07,3.076175643425471e-07,2.5091069463194237e-07,1.1528513586165131e-05
2.14410603227744e-07,3.090490454786477e-07,2.5066777474184853e-07,1.1489916774803055e-05
2.1484130791379705e-07,3.105034262375357e-07,2.505165827931704e-07,1.1452262912217255e-05
2.153296896441081e-07,3.1197403031664253e-07,2.504630066451664e-07,1.1414876284340974e-05
2.1586576229388858e-07,3.134571183744248e-07,2.505112504193069e-07,1.1377118324188776e-05
2.16442442540454e-07,3.1495242513639804e-07,2.506625195515066e-07,1.1338405011769255e-05
2.170564310374576e-07,3.164606589812615e-07,2.5091495668491486e-07,1.1298217292210625e-05
2.177058146992503e-07,3.179806294801621e-07,2.5126458382706805e-07,1.1256096882947605e-05
2.1838814370199462e-07,3.195096069269907e-07,2.517067732514248e-07,1.1211618882007795e-05
2.191008599375556e-07,3.2104682551746e-07,2.522370844562067e-07,1.1164360557306297e-05
2.198417320493888e-07,3.2259592112407536e-07,2.52852002076196e-07,1.1113898171120852e-05
2.206082067892225e-07,3.241633155223936e-07,2.535501522464641e-07,1.1059831090275493e-05
2.213965500663407e-07,3.257548672947119e-07,2.5433175129114553e-07,1.1001796391936383e-05
2.2220199740238036e-07,3.2737407798501373e-07,2.551961414185772e-07,1.093945562044444e-05
2.2302024865310305e-07,3.290219275106475e-07,2.561408594234995e-07,1.0872489291433523e-05
2.238483664431413e-07,3.306973786180181e-07,2.571624225911046e-07,1.0800634017408186e-05
2.2468390186406703e-07,3.323975365812509e-07,2.58256340456923e-07,1.0723723455307653e-05
2.2552366728891477e-07,3.3411701266239066e-07,2.5941671040198067e-07,1.0641676652753143e-05
2.2636320394932432e-07,3.3584782865290924e-07,2.606367519273293e-07,1.0554455427354286e-05
2.2719668820944809e-07,3.375801587286325e-07,2.619096509296937e-07,1.0462039971125367e-05
2.2801739439444384e-07,3.393029137304325e-07,2.632286527744877e-07,1.0364435061103155e-05
2.2881952154854213e-07,3.410042864365809e-07,2.6458640092040573e-07,1.0261713251778483e-05
2.2960001811850327e-07,3.426719674587021e-07,2.659741962457654e-07,1.0154066443716968e-05
2.3035762467947198e-07,3.4429239074109e-07,2.6738180540171044e-07,1.0041799124547413e-05
2.310902847677237e-07,3.458503381891692e-07,2.6879779891228977e-07,9.925292319682545e-06
2.3179397680024127e-07,3.4733066217328425e-07,2.702097892897997e-07,9.805033539285734e-06
2.324630966752529e-07,3.487212841889988e-07,2.7160439949093807e-07,9.681711390280913e-06
2.3309133387307712e-07,3.5001459888403484e-07,2.729676208850257e-07,9.55632232720404e-06
2.336724629358559e-07,3.512060457185035e-07,2.742857052809531e-07,9.430270879607378e-06
2.3420075126522962e-07,3.522921319727094e-07,2.755459867275289e-07,9.305413395123146e-06
2.3467160243095012e-07,3.532699948432621e-07,2.7673766871758534e-07,9.183971398705726e-06
2.3508310995584308e-07,3.5413760354424356e-07,2.778526351028509e-07,9.068331468717258e-06
2.354374904387033e-07,3.54893883879531e-07,2.788853629135136e-07,8.960825940625974e-06
2.357403846826538e-07,3.555394249685537e-07,2.798319025497761e-07,8.863560945308925e-06
2.359985084650993e-07,3.560779985910145e-07,2.806890231493548e-07,8.778308059794548e-06
2.3621832397189769e-07,3.5651746515216977e-07,2.8145369931909546e-07,8.706459301606469e-06
2.3640615187741408e-07,3.568687591780047e-07,2.821230842403354e-07,8.649035867332716e-06
2.3656801142552052e-07,3.5714472912389226e-07,2.8269522999101263e-07,8.606740470715184e-06
2.367089356656128e-07,3.573595508975203e-07,2.831691263130758e-07,8.58006502203521e-06
2.3683290444025997e-07,3.5752681439127716e-07,2.8354338037399897e-07,8.569398338861381e-06
2.3694319383922877e-07,3.5765687003805647e-07,2.8381523249785693e-07,8.575012638768887e-06
2.3704227078159908e-07,3.577554198724093e-07,2.83980666737707e-07,8.596964570559214e-06
2.3713189447863608e-07,3.5782347304549844e-07,2.8403497002844174e-07,8.635068542088263e-06
2.372142379733872e-07,3.57858286488103e-07,2.8397340800204267e-07,8.688996999247656e-06
2.372929969819469e-07,3.578551987280339e-07,2.837915439854993e-07,8.758502857233926e-06
2.3737277970631556e-07,3.57809488780805e-07,2.834853778541868e-07,8.843719853215497e-06
2.3745740026049442e-07,3.577175083618136e-07,2.8305263085656804e-07,8.945349230457475e-06
2.3754934485421161e-07,3.5757701419898077e-07,2.8249526578931016e-07,9.064575952667239e-06
2.3765020731262713e-07,3.573867022547224e-07,2.8182083470905263e-07,9.202808232034884e-06
2.3776054157320748e-07,3.571454318474827e-07,2.810406600020904e-07,9.361420732641844e-06
2.3787979013209237e-07,3.5685230247452274e-07,2.8016655006798364e-07,9.541569996255376e-06
2.3800699423368392e-07,3.565079875350961e-07,2.7920869607702606e-07,9.744070482881184e-06
2.3814121381981078e-07,3.5611483767285926e-07,2.781750400844073e-07,9.96931640163062e-06
2.3828096612567353e-07,3.5567439105729215e-07,2.770717963600262e-07,1.0217245828633195e-05
2.384232011796978e-07,3.5518532374130674e-07,2.7590470058601337e-07,1.0487342939054207e-05
2.385628316705773e-07,3.5464359811864187e-07,2.74679773997558e-07,1.077867022705735e-05
2.3869333739452985e-07,3.54043604512156e-07,2.734029384838741e-07,1.108991072918892e-05
2.388078193278911e-07,3.5337937523793453e-07,2.720791277037421e-07,1.1419407036361956e-05
2.388999534677713e-07,3.526456846108721e-07,2.707120981445968e-07,1.1765216037143498e-05
2.3896483306251603e-07,3.518391953929287e-07,2.693053094756899e-07,1.2125188949886587e-05
2.3899941163116585e-07,3.509601337356877e-07,2.6786297564713906e-07,1.249706204042022e-05
2.390022151417719e-07,3.500141508993669e-07,2.663903869274372e-07,1.2878552986114415e-05
2.389726127625401e-07,3.490119662743397e-07,2.6489360955221905e-07,1.3267447686798467e-05
2.389108309309645e-07,3.4796685893093463e-07,2.6337935349570184e-07,1.3661642159298896e-05
2.388195148574647e-07,3.468935048783103e-07,2.6185518758901824e-07,1.405913775213068e-05
2.387052136950061e-07,3.4580764656857874e-07,2.603292795572104e-07,1.4458026916475184e-05
2.3857714052847816e-07,3.4472503458737857e-07,2.5880982395282256e-07,1.4856485028542786e-05
2.384441573377481e-07,3.436615612885867e-07,2.573050389803791e-07,1.5252753627226233e-05
2.3831386608345494e-07,3.426341922875081e-07,2.558233536678549e-07,1.5645113931338868e-05
2.3819419766372403e-07,3.416604733112465e-07,2.543740511729167e-07,1.6031872833080615e-05
2.380938196895212e-07,3.4075681689039e-07,2.529686925353089e-07,1.6411368976568184e-05
2.3802017825255451e-07,3.399373606926847e-07,2.5162089410146733e-07,1.678197182438675e-05
2.3797805879158026e-07,3.39214047800697e-07,2.5034359476776386e-07,1.7142064319697236e-05
2.3796967727413398e-07,3.385962936281245e-07,2.491468417143929e-07,1.7490031159929082e-05
2.3799477710628947e-07,3.380900098253084e-07,2.4803756413796737e-07,1.7824253536587657e-05
2.3805086086986788e-07,3.3769763758311004e-07,2.4701994399995045e-07,1.8143107198910158e-05
2.3813439995039283e-07,3.3741942332351744e-07,2.46095539497914e-07,1.8444980310589576e-05
2.382430550760456e-07,3.3725600061484844e-07,2.4526381190698427e-07,1.872831488345733e-05
2.383782548511923e-07,3.3721175270733947e-07,2.445236535899063e-07,1.8991665603488e-05
2.385464424978057e-07,3.372960646071333e-07,2.4387474978934624e-07,1.9233765495474043e-05
2.387580403019596e-07,3.375207059933627e-07,2.4331733566470773e-07,1.945356069119072e-05
2.3902481554410864e-07,3.37895515883006e-07,2.42850931891672e-07,1.9650189154567955e-05
2.393568443722619e-07,3.3842576625703605e-07,2.4247368608709193e-07,1.98229308132338e-05
2.397605859030409e-07,3.39112411848103e-07,2.42183135395476e-07,1.9971171895500423e-05
2.4023896918469485e-07,3.399542447322931e-07,2.419771416650892e-07,2.009442705682312e-05
2.407927432487024e-07,3.4095025755195136e-07,2.4185355952869325e-07,2.019241451048959e-05
2.4142151813752205e-07,3.42101490309285e-07,2.418095359136481e-07,2.0265080245121755e-05
2.42123533520268e-07,3.434126972640689e-07,2.418414981216227e-07,2.0312526402757638e-05
2.4289477119244506e-07,3.448936922926068e-07,2.419457907932548e-07,2.033494887208308e-05
2.437285872871772e-07,3.4655925985487045e-07,2.421191024581303e-07,2.0332646300990466e-05
2.4461625947437547e-07,3.484261540956294e-07,2.4235744532405205e-07,2.0306050414372955e-05
2.455485698859429e-07,3.505080470021632e-07,2.4265485286966793e-07,2.025574789042073e-05
2.465176075517729e-07,3.528121387778285e-07,2.430035634163293e-07,2.018249605224521e-05
2.475178083646815e-07,3.553389435415181e-07,2.43395026038035e-07,2.0087219396210888e-05
2.485473115675277e-07,3.580837740735156e-07,2.438213473772909e-07,1.9971002034066602e-05
2.4960930896496413e-07,3.61038792277611e-07,2.442771208314273e-07,1.983510201152165e-05
2.507108706505574e-07,3.641944505955827e-07,2.447599586180094e-07,1.9680939338967373e-05
2.5185985482853844e-07,3.675399715410883e-07,2.452689290160109e-07,1.9510008115416567e-05
2.5306228735586014e-07,3.710636915716874e-07,2.4580256377953646e-07,1.932376224374534e-05
2.5432102821703984e-07,3.747530485005874e-07,2.4635826172977106e-07,1.9123555128999355e-05
2.556362012185435e-07,3.78594061709661e-07,2.469325820782504e-07,1.8910703643048155e-05
2.570071988292435e-07,3.8257068059891365e-07,2.4752119863044073e-07,1.868669482352002e-05
2.584342709581992e-07,3.86663995869951e-07,2.4811933642861307e-07,1.845338438656792e-05
2.599177499155072e-07,3.908515274157017e-07,2.487229662591224e-07,1.8212996988302883e-05
2.614559322026565e-07,3.9510685450695183e-07,2.493289036770981e-07,1.7967956249363997e-05
2.63044133788322e-07,3.9939966796258153e-07,2.4993400866279867e-07,1.7720698732125304e-05
2.646755623249452e-07,4.0369660189966265e-07,2.5053555717776013e-07,1.7473530962168733e-05
2.6634334681251816e-07,4.079630663434942e-07,2.511320426496328e-07,1.72285160108945e-05
2.6804255052078264e-07,4.12165052833795e-07,2.5172261669533183e-07,1.6987393538483497e-05
2.697703833290967e-07,4.16270547190628e-07,2.5230597230653557e-07,1.6751549322199452e-05
2.715243143235925e-07,4.2025186673742684e-07,2.5287989978181875e-07,1.6522028462288182e-05
2.732999554084452e-07,4.240877793035689e-07,2.534413008179625e-07,1.629956682394807e-05
2.7509023346164165e-07,4.27762634837267e-07,2.5398634769525105e-07,1.6084626529423723e-05
2.7688582587022014e-07,4.3126317136612684e-07,2.5451088743911036e-07,1.5877438973532573e-05
2.7867610579586894e-07,4.3457633680634965e-07,2.550104998648777e-07,1.5678057203161144e-05
2.8045051030841173e-07,4.3769123843613254e-07,2.554797390206276e-07,1.548641175967429e-05
2.822003884879237e-07,4.40604397231858e-07,2.5591169188529725e-07,1.5302371599203838e-05
2.839199897290481e-07,4.433218387168357e-07,2.5629873271158364e-07,1.5125817155686212e-05
2.856062653417937e-07,4.4585504661474636e-07,2.5663389033740913e-07,1.4956709484224036e-05
2.8725855633481174e-07,4.482166421743436e-07,2.569114016515932e-07,1.4795122123018707e-05
2.888782681610331e-07,4.5041903493746395e-07,2.57125977095268e-07,1.4641233926270316e-05
2.9046804788607094e-07,4.524729833807992e-07,2.572727025277481e-07,1.4495313719379458e-05
2.920299734038502e-07,4.5438656161651955e-07,2.573483143555708e-07,1.4357705783279693e-05
2.9356365371850126e-07,4.5616639784023285e-07,2.573521935942575e-07,1.4228799403511645e-05
2.950658901514944e-07,4.5781838032651776e-07,2.572866448246593e-07,1.4108974328084726e-05
2.9653129231668656e-07,4.5934627463876e-07,2.571569876368599e-07,1.3998527547106182e-05
2.9795278472605947e-07,4.6075094547134496e-07,2.5697068353548745e-07,1.389761139831867e-05
2.993227327875131e-07,4.620313812499008e-07,2.567351466744289e-07,1.3806238827656339e-05
3.0063459084906714e-07,4.6318522129264706e-07,2.564562508151013e-07,1.3724364042254515e-05
3.018832792849668e-07,4.642079022622021e-07,2.5613864046024854e-07,1.3651948909187536e-05
3.030641323731978e-07,4.650921265440568e-07,2.5578633535382015e-07,1.3588940186534752e-05
3.0417203430821144e-07,4.658280460159651e-07,2.554030868390106e-07,1.3535207200507586e-05
3.052010617061725e-07,4.664037236695539e-07,2.549932627567032e-07,1.3490520462705205e-05
3.061443084497006e-07,4.668063590468045e-07,2.545625519559053e-07,1.345457511421936e-05
3.069944758026902e-07,4.670235623825478e-07,2.5411772353546485e-07,1.3427010650551054e-05
3.07744851596695e-07,4.6704333793510607e-07,2.5366648114218784e-07,1.3407384270958936e-05
3.083893956585965e-07,4.668536635817605e-07,2.5321750276874215e-07,1.339511683888342e-05
3.089221064212069e-07,4.6644296923406285e-07,2.527797369420323e-07,1.3389479714924451e-05
3.0933647874480075e-07,4.658011556042301e-07,2.5236186779732213e-07,1.3389651661807447e-05
3.0962516708726694e-07,4.649201951275465e-07,2.519724686273512e-07,1.3394815454951855e-05
3.097803765177017e-07,4.6379395902192403e-07,2.5161999357825325e-07,1.3404258212640328e-05
3.097953425677045e-07,4.6241825412272777e-07,2.513132166922848e-07,1.3417440953554925e-05
3.0966538692250923e-07,4.6079132300519636e-07,2.510619757554297e-07,1.3433992466788871e-05
3.093873208456966e-07,4.589134390005693e-07,2.508766010896389e-07,1.3453623151962731e-05
3.089581381068948e-07,4.567857682236925e-07,2.50766981669428e-07,1.3476018908409372e-05
3.083740643347383e-07,4.544097518002368e-07,2.507425554420321e-07,1.3500792485367132e-05
3.0763059715807245e-07,4.517872897754416e-07,2.508120067858127e-07,1.3527518480007284e-05
3.067236914128848e-07,4.4892171257354717e-07,2.5098251794668877e-07,1.3555793166040407e-05
3.056513500343187e-07,4.458191595857216e-07,2.5125967053786937e-07,1.3585241944132354e-05
3.0441528176373393e-07,4.424895626095728e-07,2.5164709970529105e-07,1.3615484765244815e-05
3.0302128375122036e-07,4.3894629548064774e-07,2.521450139948142e-07,1.3646174220899396e-05
3.01476985451442e-07,4.3520414474570655e-07,2.527491285333175e-07,1.3677145376558722e-05
2.9978960921878556e-07,4.3127710012521285e-07,2.5345151245192555e-07,1.3708513893865865e-05
2.979661495343968e-07,4.2717745763171577e-07,2.5424304215149396e-07,1.3740593256455187e-05
2.960141311859183e-07,4.229158729477846e-07,2.551154791462999e-07,1.3773715943900253e-05
2.939413357087472e-07,4.185016121340744e-07,2.560619898444521e-07,1.3808100809713044e-05
2.91755379945751e-07,4.1394350907875965e-07,2.5707769042092837e-07,1.3843868635838904e-05
2.894644255748817e-07,4.0925234952446643e-07,2.581605000851619e-07,1.3881238291355557e-05
2.870790618325168e-07,4.044428207828907e-07,2.593110786695562e-07,1.3920746765328266e-05
2.8461392745003984e-07,3.995326880366549e-07,2.605324851993256e-07,1.3963274269095956e-05
2.820876989025676e-07,3.945401619613946e-07,2.6182931693819907e-07,1.4009884300370832e-05
2.795212593656281e-07,3.894818309858258e-07,2.632057250973839e-07,1.4061642344684131e-05
2.7693484840538265e-07,3.8437224727117965e-07,2.6466409241649924e-07,1.4119482158549411e-05
2.7434568575473217e-07,3.7922471172769153e-07,2.662048703181221e-07,1.4184100850897852e-05
2.717672501363701e-07,3.740526157809114e-07,2.6782636579976356e-07,1.4255888510827887e-05
2.692103203479186e-07,3.688706274117706e-07,2.695246656865274e-07,1.4334915793611674e-05
2.6668452925988476e-07,3.6369399325068753e-07,2.7129425205328944e-07,1.442096178648472e-05
2.641986828152033e-07,3.585362320101333e-07,2.7312874835402544e-07,1.4513544605389902e-05
2.6176014129909693e-07,3.5340792664773285e-07,2.7502077052676664e-07,1.4611950128687976e-05
2.593750459094571e-07,3.483172702532887e-07,2.7696116081185327e-07,1.471527222677852e-05
2.5704971639316857e-07,3.432710607649189e-07,2.789389028474128e-07,1.4822457800822309e-05
2.5479198825384284e-07,3.3827551954964257e-07,2.8094140799485713e-07,1.4932335790336526e-05
2.526116585005042e-07,3.3333748265082e-07,2.829542260581161e-07,1.5043638539831916e-05
2.505204318972742e-07,3.28466443864529e-07,2.849608164285905e-07,1.5155052046052468e-05
2.4853164108227034e-07,3.236756707322278e-07,2.8694401210750616e-07,1.5265293673207372e-05
2.466599566938508e-07,3.1898069153993933e-07,2.8889008980847547e-07,1.5373170307980717e-05
2.449214123843912e-07,3.14396810120009e-07,2.90792292994098e-07,1.547759823487876e-05
2.433323568238325e-07,3.09937452683522e-07,2.926496087945559e-07,1.5577615869944784e-05
2.419067239654579e-07,3.0561314332647674e-07,2.944631803720901e-07,1.5672402419851648e-05
2.406539995675104e-07,3.0143174891896045e-07,2.962344902307955e-07,1.5761265400562696e-05
2.3957941885176e-07,2.97401589420418e-07,2.97964290838676e-07,1.5843576278024172e-05
2.386852813083128e-07,2.9353579957489664e-07,2.9965097530823217e-07,1.5918695577349532e-05
2.379719067049668e-07,2.898534109708845e-07,3.012900094984233e-07,1.5985942890061042e-05
2.374382618437841e-07,2.863760782426432e-07,3.028751751636421e-07,1.604463904124934e-05
2.370826600249197e-07,2.831236919883256e-07,3.044000104151859e-07,1.6094208001079968e-05
2.369027029596397e-07,2.801116216247312e-07,3.0585865787623987e-07,1.613426916022929e-05
2.3689470181472397e-07,2.773500107767101e-07,3.072465635122919e-07,1.6164650410284658e-05
2.3705402775281013e-07,2.7484433297785447e-07,3.0856026236951717e-07,1.6185329671895968e-05
2.373762006213057e-07,2.7259667356842464e-07,3.097966986896892e-07,1.619635921496163e-05
2.3785791647866787e-07,2.706071705431972e-07,3.1095389921970957e-07,1.6197811533246525e-05
2.3849722870649496e-07,2.688748296553189e-07,3.120316099980054e-07,1.6189752434126673e-05
2.392919232718523e-07,2.673974068586772e-07,3.1303043349038965e-07,1.6172234015599928e-05
2.4023727543263124e-07,2.661705238346784e-07,3.1395180293223266e-07,1.6145303563876363e-05
2.413252865666947e-07,2.651870804042704e-07,3.147990461054664e-07,1.6109019266606063e-05
2.425450647800259e-07,2.6443750097358945e-07,3.155767068415057e-07,1.6063472829253048e-05
2.4388328773825327e-07,2.63910008087424e-07,3.162883925841272e-07,1.6008830285851966e-05
2.453250485022564e-07,2.6359084694515736e-07,3.1693583195033745e-07,1.5945395708890453e-05
2.4685473150378605e-07,2.634649121795785e-07,3.1752006230024307e-07,1.5873677717159432e-05
2.4845610654975657e-07,2.635164890873538e-07,3.180426726806371e-07,1.57943865888411e-05
2.5011284428826104e-07,2.637297727984555e-07,3.185052642427716e-07,1.5708319635949178e-05
2.518106622942197e-07,2.6408912005957973e-07,3.189086107169569e-07,1.5616229511685255e-05
2.535390798349647e-07,2.6457920080704517e-07,3.192531340893853e-07,1.551879786667816e-05
2.552903391349117e-07,2.651854183269297e-07,3.19540020558051e-07,1.5416690575180813e-05
2.570568217075773e-07,2.658940159534556e-07,3.1977156889464857e-07,1.5310584668556046e-05
2.588297852271229e-07,2.666911357106559e-07,3.1995090015830605e-07,1.5201136846388248e-05
2.605997422397221e-07,2.675618340176279e-07,3.200820978531146e-07,1.508894204622111e-05
2.623569830029557e-07,2.684905336576011e-07,3.201699007893776e-07,1.4974550103809231e-05
2.6409185148952784e-07,2.6946270531764286e-07,3.202181992721947e-07,1.4858576467913944e-05
2.6579571256957737e-07,2.7046613128802906e-07,3.202289858409504e-07,1.4741806388874564e-05
2.674623721620179e-07,2.7149166365760695e-07,3.2020248816496977e-07,1.4625156465295725e-05
2.6908889130478303e-07,2.7253420642344885e-07,3.201375001405642e-07,1.450953165170389e-05
2.70675675914025e-07,2.7359222901129253e-07,3.20032165739529e-07,1.4395703703462448e-05
2.722253634004507e-07,2.7466516548616535e-07,3.1988552444920614e-07,1.4284292509523008e-05
2.737404607339212e-07,2.757509989610304e-07,3.196983057172744e-07,1.4175904100422405e-05
2.752216015441481e-07,2.7684523782918874e-07,3.1947239226886486e-07,1.407134913294958e-05
2.766677799487261e-07,2.7794103213165057e-07,3.1920978740768927e-07,1.3971731189303146e-05
2.7807775863036513e-07,2.790303975680449e-07,3.189113251462361e-07,1.387833978093654e-05
2.794506442936347e-07,2.8010561393136287e-07,3.185755593412168e-07,1.3792481750830933e-05
2.807851219913137e-07,2.811595165685677e-07,3.181986189691093e-07,1.3715342675184025e-05
2.8207910376240893e-07,2.82185413367618e-07,3.1777494433036234e-07,1.3647876653203157e-05
2.833305730126779e-07,2.831774872811436e-07,3.17298377884122e-07,1.3590730604480091e-05
2.845378418321053e-07,2.8413138537376397e-07,3.167635802764705e-07,1.354422125272507e-05
2.856980914349844e-07,2.8504489150492547e-07,3.1616717908050237e-07,1.3508356714934426e-05
2.868061308737062e-07,2.859175414746848e-07,3.155072452509767e-07,1.3482872525843538e-05
2.878546973410175e-07,2.8674856331486287e-07,3.147817225333711e-07,1.3467267603084094e-05
2.88834995197057e-07,2.875359311509593e-07,3.1398806793823123e-07,1.3460849737997942e-05
2.897374412912641e-07,2.882788759957057e-07,3.131241447529874e-07,1.3462794381306924e-05
2.9055405607452e-07,2.8898114757145593e-07,3.1218838116803185e-07,1.3472207964049953e-05
2.912807386387029e-07,2.8965152936900804e-07,3.111786681923051e-07,1.3488184372648825e-05
2.919165970235269e-07,2.9030262430994893e-07,3.100917609335278e-07,1.3509846735317121e-05
2.9246224392996785e-07,2.9094992231740646e-07,3.089243969057976e-07,1.3536383541063506e-05
2.9291948896707737e-07,2.9161089028437183e-07,3.076749980113143e-07,1.356708465483689e-05
2.932911442121793e-07,2.923029525580705e-07,3.063445228498455e-07,1.3601356722086373e-05
2.9358013202687425e-07,2.9304089631877053e-07,3.049363018620692e-07,1.363871630781598e-05
2.9378884648009693e-07,2.938358607246059e-07,3.0345525415014875e-07,1.367878022935046e-05
2.939195679340878e-07,2.946956396727469e-07,3.0190735032018423e-07,1.372123932555847e-05
2.9397572018589157e-07,2.956252675654693e-07,3.002999728021842e-07,1.3765802921931424e-05
2.939624322706524e-07,2.966287630014462e-07,2.9864233487911895e-07,1.3812139458992181e-05
2.9388540999622913e-07,2.977109679623357e-07,2.9694465257809056e-07,1.3859835146951651e-05
2.9374922003224265e-07,2.9887742613100976e-07,2.95216717289383e-07,1.3908392198557254e-05
2.935569442936897e-07,3.001329697903103e-07,2.934677486357773e-07,1.3957292529707138e-05
2.9331206654020336e-07,3.0148104047635734e-07,2.917072376397309e-07,1.4006083614661701e-05
2.930205670277885e-07,3.029248579792219e-07,2.8994482338764054e-07,1.4054401949275104e-05
2.926901004757493e-07,3.0446939872251573e-07,2.881888995622303e-07,1.4101943156561606e-05
2.9232717657180446e-07,3.061220902601264e-07,2.8644525804040387e-07,1.4148456823761347e-05
2.919361793338956e-07,3.078926521344807e-07,2.847166027641704e-07,1.4193770904278933e-05
2.91521198983597e-07,3.0979462704043076e-07,2.830029730112548e-07,1.4237772326645267e-05
2.910874867199512e-07,3.118472404652553e-07,2.813026524474908e-07,1.4280318729076334e-05
2.906401553063983e-07,3.140735830867537e-07,2.796127167638759e-07,1.4321156162059006e-05
2.901826508329945e-07,3.1649639118009556e-07,2.779289641288609e-07,1.4359907404775767e-05
2.897172212853515e-07,3.1913460405429613e-07,2.7624603516342486e-07,1.4396106370340784e-05
2.8924549914428127e-07,3.220007438558238e-07,2.745583454382101e-07,1.4429229908999252e-05
2.88768062155382e-07,3.250994689698995e-07,2.7286104900047144e-07,1.4458721411796914e-05
2.882843400782868e-07,3.2842783113909266e-07,2.7114996368749907e-07,1.4484039535775546e-05
2.877941054157178e-07,3.319771210910974e-07,2.694214823822121e-07,1.4504725648330673e-05
2.873000118313689e-07,3.357365761693708e-07,2.676735613274773e-07,1.4520428554000973e-05
2.8680854006610987e-07,3.3969715284767785e-07,2.659059135014143e-07,1.4530895116368088e-05
2.863283418956433e-07,3.438521865825574e-07,2.6411899568338377e-07,1.4535992835154888e-05
2.8586857303953644e-07,3.48195295360777e-07,2.6231481273114524e-07,1.4535736360738297e-05
2.854384682969977e-07,3.52717913262248e-07,2.604988235334588e-07,1.4530242083597016e-05
2.850472379943977e-07,3.5740748951258656e-07,2.586792514467565e-07,1.4519656738911149e-05
2.847041160162856e-07,3.62247501393273e-07,2.568649091873632e-07,1.450416804259129e-05
2.844185605653717e-07,3.6722084719393685e-07,2.550649219398785e-07,1.4484105864426133e-05
2.842006227538825e-07,3.723171961613187e-07,2.532906783863115e-07,1.4460067100913968e-05
2.8406110926931033e-07,3.7753986399363525e-07,2.515575540634376e-07,1.4432979007595893e-05
2.8401149216294624e-07,3.829056718090724e-07,2.49883593785206e-07,1.4404041870277405e-05
2.8406462847181093e-07,3.884386814964065e-07,2.4828597789129383e-07,1.4374595990758356e-05
2.842357431774817e-07,3.9416277813509397e-07,2.4677856991039963e-07,1.4346006384196014e-05
2.845419884374058e-07,4.000961135553818e-07,2.4537147246675817e-07,1.4319612547970688e-05
2.849997235815891e-07,4.062484551591675e-07,2.440719328604998e-07,1.429676017515746e-05
2.8562071824905e-07,4.12620472416599e-07,2.4288603831828354e-07,1.4278869418874853e-05
2.864109006498977e-07,4.192048659677696e-07,2.418196650577112e-07,1.4267408514511746e-05
2.873726955420293e-07,4.2598943847446634e-07,2.408779295444356e-07,1.4263729781821176e-05
2.8850737904436785e-07,4.3295977747868327e-07,2.4006458574309677e-07,1.426889226756226e-05
2.898155149105105e-07,4.4009976162597186e-07,2.39382011653828e-07,1.4283593229462204e-05
2.912974034017209e-07,4.4739042039485857e-07,2.3883161724419443e-07,1.4308261811577634e-05
2.929534706534044e-07,4.548084391358516e-07,2.3841474236933998e-07,1.4343319283799355e-05
2.947826114440597e-07,4.6232571666272325e-07,2.381325817386741e-07,1.4389468495781458e-05
2.967798780450596e-07,4.699108382460024e-07,2.3798453782820326e-07,1.4447798378174695e-05
2.989360221067713e-07,4.775313675778938e-07,2.3796712426211453e-07,1.4519674931574126e-05
3.0123860426203386e-07,4.851556161590467e-07,2.3807467606890217e-07,1.4606571464612063e-05
3.0367279231668845e-07,4.927541900795035e-07,2.383006276007551e-07,1.4709931471241276e-05
3.062218461942166e-07,5.003011706958726e-07,2.38637771692564e-07,1.4831055021954975e-05
3.0886928796728674e-07,5.077734015733977e-07,2.390776419172813e-07,1.4970997234518012e-05
3.116016662780207e-07,5.151479092214947e-07,2.3961015995042794e-07,1.513048215053894e-05
3.1440848071309783e-07,5.224002443070616e-07,2.4022358406004293e-07,1.530983751062978e-05
3.172795599208065e-07,5.295043569780803e-07,2.409047054004824e-07,1.5508958981204953e-05
3.202034376663681e-07,5.364318698173899e-07,2.416400650346845e-07,1.5727305926068465e-05
3.2316810959323125e-07,5.431511917584073e-07,2.424171413235216e-07,1.59639401778382e-05
3.261615876067587e-07,5.49628019822356e-07,2.432238398928791e-07,1.6217624920866557e-05
3.291710679066821e-07,5.558268805770013e-07,2.440475558938192e-07,1.648695481718146e-05
3.321838387811946e-07,5.617130408746429e-07,2.448754903067243e-07,1.6770457683836363e-05
3.351907038064232e-07,5.672540530665861e-07,2.4569552699502893e-07,1.706665262984244e-05
3.381875998504257e-07,5.724197282273993e-07,2.4649650085353287e-07,1.737409327083676e-05
3.4117332977498605e-07,5.771809781837161e-07,2.4726769429507204e-07,1.769139222791904e-05
3.4414637115708685e-07,5.815100557860923e-07,2.4799795538764573e-07,1.8017183935417845e-05
3.471032028929487e-07,5.853834890371987e-07,2.4867553124762353e-07,1.8350027357340865e-05
3.50037858600144e-07,5.887866583080537e-07,2.492893611500801e-07,1.8688312087782705e-05
3.529420468779986e-07,5.917170913727321e-07,2.498301958548337e-07,1.9030216955601886e-05
3.558054145478588e-07,5.941824254216451e-07,2.502902527673615e-07,1.9373717861349688e-05
3.586160949413528e-07,5.961938659199942e-07,2.506628424780425e-07,1.97166215225976e-05
3.613619295059549e-07,5.977614308471557e-07,2.509425973276675e-07,2.005661330103783e-05
3.6403097672246903e-07,5.988931189907998e-07,2.511251141269268e-07,2.0391327581150755e-05
3.666106849754165e-07,5.995953363164105e-07,2.512061400387143e-07,2.071844795431996e-05
3.690877950358811e-07,5.998737557832957e-07,2.511817707141345e-07,2.1035792405866632e-05
3.7144907840943725e-07,5.997345056039661e-07,2.510496531261867e-07,2.1341320574302565e-05
3.7368122479896286e-07,5.991849872872032e-07,2.5081002957414324e-07,2.1633080376496607e-05
3.757706569479662e-07,5.982348461624186e-07,2.504664966361191e-07,2.1909165780524247e-05
3.777039522481577e-07,5.96896877370795e-07,2.500261965235721e-07,2.216771678243005e-05
3.79468052097668e-07,5.951871251995935e-07,2.494987893828528e-07,2.2406944570628506e-05
3.810509671549044e-07,5.931251950002759e-07,2.488954291706349e-07,2.2625162520132458e-05
3.824427198863805e-07,5.907343680225077e-07,2.482285976102494e-07,2.2820812113949675e-05
3.836346301714808e-07,5.880395055516947e-07,2.4751150567571823e-07,2.299247123219844e-05
3.846181053486168e-07,5.850646291544056e-07,2.467573097014737e-07,2.3138853484540052e-05
3.8538480894942906e-07,5.818337634907852e-07,2.4597902229320737e-07,2.3258826091534052e-05
3.8592717592647144e-07,5.78373523709172e-07,2.4518865290060547e-07,2.335146151515527e-05
3.862387349332255e-07,5.747131110193889e-07,2.443954785616461e-07,2.341611026891651e-05
3.863148487976968e-07,5.708816136397057e-07,2.4360542124046864e-07,2.345242763200357e-05
3.861528145657973e-07,5.669058356962253e-07,2.428216138610889e-07,2.346030409747044e-05
3.857507544372692e-07,5.62809436815133e-07,2.420453173373276e-07,2.3439768461613086e-05
3.851068588047546e-07,5.586120960042828e-07,2.412772990833884e-07,2.3390953034295207e-05
3.8421935845119426e-07,5.543285767761042e-07,2.405192883376286e-07,2.331411162907761e-05
3.830864103075071e-07,5.499686609405413e-07,2.397746778992361e-07,2.320963813121373e-05
3.817063546838407e-07,5.455385125911481e-07,2.390482501286861e-07,2.3078059843685666e-05
3.800789600194319e-07,5.410427505864973e-07,2.3834517126594557e-07,2.292002642483973e-05
3.782072522015006e-07,5.364859017286057e-07,2.376703765324593e-07,2.273638482049868e-05
3.7609928951009595e-07,5.318724204780639e-07,2.3702948507607532e-07,2.252837279033024e-05
3.737687882757365e-07,5.272058112020731e-07,2.3643037949530692e-07,2.2297760110529545e-05
3.7123346330801097e-07,5.224882233906052e-07,2.3588378594778872e-07,2.204677387869244e-05
3.6851276139784176e-07,5.177206357319904e-07,2.3540218378006963e-07,2.177787894783373e-05
3.6562765545994883e-07,5.129034838907751e-07,2.3499729167383495e-07,2.149355652015201e-05
3.626009610134572e-07,5.080383512657653e-07,2.3467782745287327e-07,2.119617207296676e-05
3.59455446823489e-07,5.031292305744868e-07,2.344493187656364e-07,2.088803090786314e-05
3.5621104389482287e-07,4.981812413239441e-07,2.343150757414398e-07,2.057157899686376e-05
3.5288387266564564e-07,4.931984855827353e-07,2.342764107400516e-07,2.024951327931452e-05
3.494872846726035e-07,4.881836508395516e-07,2.343320599733016e-07,1.992468775793402e-05
3.4603295460808247e-07,4.831388045962106e-07,2.3447818213325587e-07,1.9599919560989227e-05
3.425310409040711e-07,4.780659555906912e-07,2.3470982316574183e-07,1.927780828579938e-05
3.3899050605410405e-07,4.729669698858526e-07,2.35022546935114e-07,1.8960619281008606e-05
3.354198640973144e-07,4.678429560096736e-07,2.3541259910847355e-07,1.865023341027604e-05
3.318277213613632e-07,4.626942822097355e-07,2.3587644425164532e-07,1.8348134204230527e-05
3.282230424020225e-07,4.575219011038786e-07,2.3641041740919896e-07,1.8055422392873668e-05
3.246147263038012e-07,4.5232894247224925e-07,2.3701022221638369e-07,1.7772859189977965e-05
3.210104987431961e-07,4.471219570702446e-07,2.376708778052581e-07,1.7500916156151196e-05
3.174163651425634e-07,4.419110244511314e-07,2.3838696411464912e-07,1.7239807357052536e-05
3.138375487964173e-07,4.3670795251283253e-07,2.391528487243132e-07,1.6989509060681767e-05
3.1027969990839854e-07,4.315251543015152e-07,2.399634721614504e-07,1.6749790046048698e-05
3.067487554796425e-07,4.2637721702319923e-07,2.408148311448278e-07,1.6520263270915134e-05
3.032502881729907e-07,4.212824664076112e-07,2.417032229912488e-07,1.6300448841204417e-05
2.9978942783341853e-07,4.162622174353513e-07,2.4262463631005733e-07,1.6089828169651805e-05
2.963705378201039e-07,4.1133862813523726e-07,2.4357546793657405e-07,1.5887868803104833e-05
2.929961393835677e-07,4.0653275123860786e-07,2.4455339796589215e-07,1.5694015169485198e-05
2.896663043442489e-07,4.0186391519231855e-07,2.455575370786001e-07,1.5507665866777568e-05
2.8637952836187946e-07,3.9734995779945066e-07,2.465883152175344e-07,1.5328162589493267e-05
2.831341788681417e-07,3.9300636223292324e-07,2.4764663023417976e-07,1.5154803294117816e-05
2.79929041408078e-07,3.888446201156458e-07,2.487322272474513e-07,1.4986875855545864e-05
2.767627477595319e-07,3.8487196492618077e-07,2.4984315152564304e-07,1.4823691046741028e-05
2.7363296725567696e-07,3.8109211391311017e-07,2.5097716046889384e-07,1.4664600306624414e-05
2.705364850797277e-07,3.7750569195893705e-07,2.521333647300386e-07,1.4509017768929279e-05
2.6747021647765e-07,3.741109001814803e-07,2.5331158603541457e-07,1.4356479108740189e-05
2.644316549398034e-07,3.709044623991573e-07,2.5451004751840987e-07,1.4206711286818637e-05
2.614184270044861e-07,3.6788155096302796e-07,2.5572450584587214e-07,1.4059628582308414e-05
2.584283928550846e-07,3.650348753810769e-07,2.569490193367489e-07,1.3915232803040493e-05
2.554601496923262e-07,3.6235453097062075e-07,2.581767207651719e-07,1.3773497772244491e-05
2.5251282253092517e-07,3.598291366257389e-07,2.5940077136298924e-07,1.3634310902064564e-05
2.4958572530355337e-07,3.574469691795705e-07,2.6061529079866983e-07,1.34974879579765e-05
2.4667876625398305e-07,3.5519572051842227e-07,2.618150724272296e-07,1.3362870984218935e-05
2.4379350139449674e-07,3.530618263947861e-07,2.6299436417338124e-07,1.3230469074763973e-05
2.409340567772856e-07,3.510314087305903e-07,2.6414590826348693e-07,1.3100526500100094e-05
2.3810680475651594e-07,3.4909210223825746e-07,2.652606378227097e-07,1.2973491371807647e-05
2.3531891654848947e-07,3.472331756501114e-07,2.663278691302614e-07,1.2849965953048683e-05
2.325770330581601e-07,3.45444161670958e-07,2.673360950540105e-07,1.2730663076198422e-05
2.29886572917828e-07,3.437143832578784e-07,2.682744686943656e-07,1.2616340143740875e-05
2.272514489668827e-07,3.420337609060021e-07,2.691339241183136e-07,1.2507709186088283e-05
2.2467418373554345e-07,3.4039397519620556e-07,2.6990675676016405e-07,1.2405352233371989e-05
2.221563769969111e-07,3.387903375410208e-07,2.705856989403496e-07,1.2309702688920543e-05
2.1969904331096878e-07,3.372241178546263e-07,2.711640868093009e-07,1.2221128021338485e-05
2.173030217316216e-07,3.35702697252565e-07,2.7163624712004125e-07,1.2140040743074005e-05
2.1496994388903843e-07,3.34236648482798e-07,2.719968203592795e-07,1.2066927053038215e-05
2.127031999069643e-07,3.328370425907103e-07,2.722400558895462e-07,1.200227315286564e-05
2.105092088668864e-07,3.315151894380374e-07,2.723600935893283e-07,1.1946458057491248e-05
2.083991693561679e-07,3.302826233646913e-07,2.723517360443007e-07,1.1899709790815112e-05
2.0638854670508055e-07,3.291493578186794e-07,2.722117136042128e-07,1.1862150683629426e-05
2.0449413684702802e-07,3.281219880316586e-07,2.7194046109708016e-07,1.1833829516031814e-05
2.0273248947779998e-07,3.272036263281539e-07,2.715433313072059e-07,1.181468371598096e-05
2.0111958785104976e-07,3.263955560702085e-07,2.7103088042012525e-07,1.18045003578779e-05
1.9966969693317614e-07,3.256987555851921e-07,2.704181231492282e-07,1.1802913712880134e-05
1.983946353276369e-07,3.25113374052096e-07,2.697219335405762e-07,1.1809429135540947e-05
1.9730395177266828e-07,3.246369005742693e-07,2.689577752544609e-07,1.1823459942137902e-05
1.9640443165727329e-07,3.242633847959103e-07,2.6813826651652924e-07,1.1844346588292327e-05
1.9569932102060626e-07,3.239843381143913e-07,2.6727403952189297e-07,1.1871351251307668e-05
1.9518878765998442e-07,3.237898298871389e-07,2.663757435893809e-07,1.1903653282259482e-05
1.9487086335475408e-07,3.236686359453641e-07,2.654556171660815e-07,1.1940356515501073e-05
1.9474134820902e-07,3.236081302993025e-07,2.645278328736405e-07,1.1980498047543117e-05
1.9479319589219416e-07,3.235952710623357e-07,2.6360775622108214e-07,1.2023061346041435e-05
1.950163442801929e-07,3.236188391583564e-07,2.62710047249191e-07,1.2067004686328407e-05
1.9539797867869345e-07,3.2367080206318504e-07,2.618469606489993e-07,1.2111299985825688e-05
1.9592349118306199e-07,3.237455192824682e-07,2.6102874914319147e-07,1.2154970878211567e-05
1.9657850033362859e-07,3.238385373465023e-07,2.6026477184381287e-07,1.2197116714825869e-05
1.9735042832789878e-07,3.239461366516894e-07,2.595629609485511e-07,1.2236908770914004e-05
1.9822790472719387e-07,3.2406501386631177e-07,2.589288782529483e-07,1.227355700034348e-05
1.9919936801775245e-07,3.241916961855208e-07,2.583669462766731e-07,1.2306273183889493e-05
2.0025260206227762e-07,3.243224270774286e-07,2.578825888342121e-07,1.2334268271948566e-05
2.013747846337688e-07,3.244546407782865e-07,2.574819400816165e-07,1.2356784362280992e-05
2.025535964914012e-07,3.2458926272174464e-07,2.57169652405972e-07,1.2373128960339931e-05
2.0377982829720507e-07,3.247311037723412e-07,2.569474627979625e-07,1.238269451495074e-05
2.0504824570777518e-07,3.248861444030404e-07,2.568140712425957e-07,1.2384966806216279e-05
2.0635512340360648e-07,3.250583452620301e-07,2.567661282890392e-07,1.2379518930373656e-05
2.076962590970131e-07,3.25249641187165e-07,2.5679976363522247e-07,1.2365983546964888e-05
2.0906732767444133e-07,3.254631843471703e-07,2.5691141883474996e-07,1.2344020586547951e-05
2.104641870551767e-07,3.257057936221858e-07,2.570985902181546e-07,1.2313312400399805e-05
2.118821934208109e-07,3.2598667466325737e-07,2.5736110721658766e-07,1.2273587484500176e-05
2.1331548375783075e-07,3.263145054161933e-07,2.577006030436708e-07,1.2224637144194153e-05
2.147572511966713e-07,3.266959818287479e-07,2.5811800025558143e-07,1.2166305772861727e-05
2.1620123893901e-07,3.271359184764267e-07,2.586125536383594e-07,1.2098486429568988e-05
2.176426220659225e-07,3.27637814196718e-07,2.591826435707233e-07,1.2021153653068954e-05
2.1907715534397265e-07,3.2820379480760524e-07,2.598257435152833e-07,1.1934396438389196e-05
2.2049997090468198e-07,3.288336525452518e-07,2.605379537711336e-07,1.1838398346815895e-05
2.2190507904288392e-07,3.295243912886875e-07,2.613144964271819e-07,1.173338891825311e-05
2.2328531036167946e-07,3.3027064464482396e-07,2.621504788091206e-07,1.1619616418653e-05
2.24632749040492e-07,3.31065091417648e-07,2.630409287438436e-07,1.149735202019492e-05
2.2594045192378611e-07,3.318989543665114e-07,2.639801862697502e-07,1.1366929484693005e-05
2.2720420158195014e-07,3.327622582726318e-07,2.6496120217269485e-07,1.1228792358276613e-05
2.284216138680123e-07,3.3364322335876235e-07,2.659753129880998e-07,1.1083485663932556e-05
2.2958966925316692e-07,3.345281012573311e-07,2.6701257992485684e-07,1.0931625906972884e-05
2.307035810084908e-07,3.3540316743829106e-07,2.6806204832451224e-07,1.0773941458457886e-05
2.3175710062042728e-07,3.362579338787255e-07,2.691117161017273e-07,1.0611371935204958e-05
2.327432759745728e-07,3.3708661290022805e-07,2.7014889893387213e-07,1.0445171761500933e-05
2.3365523046311275e-07,3.378865467720469e-07,2.711611195193916e-07,1.0277003565268649e-05
2.3448669179018731e-07,3.386559672188019e-07,2.7213692086660444e-07,1.010897255904616e-05
2.3523272151081166e-07,3.393934246765889e-07,2.7306662847570127e-07,9.943529095470967e-06
2.358912668361061e-07,3.4009799472750263e-07,2.7394309623338964e-07,9.783261519125124e-06
2.3646460323454245e-07,3.407691905345069e-07,2.747615665371349e-07,9.63067704139848e-06
2.3695865837547803e-07,3.414072642953917e-07,2.755186106836914e-07,9.488034342118506e-06
2.373806414004943e-07,3.4201455751818685e-07,2.7621123008576486e-07,9.357241481301047e-06
2.377376508328539e-07,3.4259657293272226e-07,2.768363519475081e-07,9.239819519620337e-06
2.38036715404422e-07,3.431612597829021e-07,2.773908637217577e-07,9.136918684627119e-06
2.3828461784495314e-07,3.437181132701393e-07,2.7787240654361874e-07,9.049371730871576e-06
2.384872624822351e-07,3.442777017681373e-07,2.7827947941806877e-07,8.977800140081537e-06
2.3864961507394054e-07,3.448497678394083e-07,2.78610106203015e-07,8.922723802207274e-06
2.387759817063661e-07,3.45440629165342e-07,2.788607857887386e-07,8.884549102299232e-06
2.3886987402425965e-07,3.4605186084352287e-07,2.7902663791564305e-07,8.863463747776374e-06
2.3893415565317614e-07,3.4668020498374897e-07,2.791020675060981e-07,8.85939890189818e-06
2.389722228176437e-07,3.473183060020369e-07,2.7908145503766853e-07,8.87212362112589e-06
2.389891414632221e-07,3.479564653449616e-07,2.789593936649989e-07,8.901469182644853e-06
2.3899101503328964e-07,3.485847386056804e-07,2.7873074361312517e-07,8.947634656085072e-06
2.389832289077221e-07,3.491943719431807e-07,2.783918952001744e-07,9.011380722532157e-06
2.3896987168932736e-07,3.497782055936228e-07,2.779433272037207e-07,9.093953806418464e-06
2.3895412759264587e-07,3.503301762890297e-07,2.773910065161849e-07,9.196830556431596e-06
2.389380872235117e-07,3.508446080813037e-07,2.767446341415615e-07,9.321461417827913e-06
2.3892266496153825e-07,3.5131637318882717e-07,2.760144459472931e-07,9.46908409973071e-06
2.389083258243148e-07,3.5174225589626825e-07,2.7520916194745004e-07,9.640597360407056e-06
2.388954906662884e-07,3.521210583512584e-07,2.743353562568555e-07,9.83647973428891e-06
2.3888392811454785e-07,3.524510313711804e-07,2.733979728514085e-07,1.0056748581368286e-05
2.388717260906673e-07,3.527276907762397e-07,2.724015685977174e-07,1.0300956523790843e-05
2.388548732932207e-07,3.5294394060288156e-07,2.713510478450748e-07,1.0568219962909475e-05
2.38827908275784e-07,3.53091283352471e-07,2.702512257211209e-07,1.0857261055397713e-05
2.387849726935293e-07,3.5316104827436526e-07,2.691059130207692e-07,1.1166449967487047e-05
2.387207352834226e-07,3.531454542258997e-07,2.6791777864924717e-07,1.149386447739832e-05
2.386312143544513e-07,3.530387544618656e-07,2.6668931342625256e-07,1.1837372760836028e-05
2.385142287713841e-07,3.528389619311781e-07,2.6542391957298283e-07,1.2194723940566091e-05
2.3836912299167523e-07,3.525497708281839e-07,2.641262212538824e-07,1.2563643441969875e-05
2.3819603146400995e-07,3.521802356435404e-07,2.628017216564285e-07,1.2941918618747053e-05
2.3799587844190925e-07,3.517422818912664e-07,2.6145664374814356e-07,1.3327438638354925e-05
2.3777193872283143e-07,3.512495304375144e-07,2.60098176820072e-07,1.3718187067691898e-05
2.3753132836706248e-07,3.5071686851103385e-07,2.587342439588481e-07,1.4112225601333169e-05
2.3728376097077856e-07,3.501592459343845e-07,2.573728876709968e-07,1.4507685071784628e-05
2.3703853143131328e-07,3.495917460109612e-07,2.5602220159115136e-07,1.490274861323504e-05
2.368036181320681e-07,3.4903058009283336e-07,2.546904909237743e-07,1.529562564212066e-05
2.3658728402761888e-07,3.484927037944261e-07,2.5338691727891864e-07,1.568453965378339e-05
2.363984877074995e-07,3.4799416702582176e-07,2.5212293022331896e-07,1.6067737691629235e-05
2.362449204034669e-07,3.47548969522688e-07,2.509120625058158e-07,1.6443493144722877e-05
2.3613156480578307e-07,3.471690995220919e-07,2.497672103586968e-07,1.6810091376141408e-05
2.360607850702106e-07,3.4686414915127764e-07,2.4869841046646644e-07,1.7165819802688878e-05
2.3603241138629288e-07,3.466403281425895e-07,2.4771259949046457e-07,1.750896301083128e-05
2.360439632008331e-07,3.465005436042541e-07,2.468139831483125e-07,1.7837800475875823e-05
2.360918862290936e-07,3.4644571409424226e-07,2.460041735571644e-07,1.815062455358088e-05
2.361738221329013e-07,3.464773332686371e-07,2.4528272904900407e-07,1.8445782754512022e-05
2.3629119665777059e-07,3.466007620384298e-07,2.4464867376573416e-07,1.872173784830418e-05
2.3645042784888908e-07,3.468263620691412e-07,2.441018351196632e-07,1.8977135138250374e-05
2.3666185119109073e-07,3.4716676496919e-07,2.436425749036149e-07,1.9210838653566407e-05
2.369370664159151e-07,3.4763255791987684e-07,2.432705169666928e-07,1.942191009041058e-05
2.3728590765429735e-07,3.482297338769891e-07,2.4298390603568804e-07,1.9609557694744604e-05
2.377145468850061e-07,3.489600079416073e-07,2.4278038564269035e-07,1.977309875286809e-05
2.3822560355368608e-07,3.4982301832615145e-07,2.426579315421896e-07,1.991198003886124e-05
2.388194946141881e-07,3.508186933835841e-07,2.426145103191421e-07,2.002585176100444e-05
2.394954717756405e-07,3.5194903560902184e-07,2.4264736773467397e-07,2.011459153605177e-05
2.402513862158124e-07,3.5321972368593886e-07,2.4275299783382537e-07,2.0178233816072107e-05
2.4108278746128497e-07,3.546414348353824e-07,2.429277507970887e-07,2.0216909367439183e-05
2.419825599342133e-07,3.5622976875467805e-07,2.431682518809897e-07,2.0230855982260144e-05
2.4294150042771804e-07,3.5800227696946134e-07,2.434704193883338e-07,2.0220449766459146e-05
2.439499153998889e-07,3.5997346423838417e-07,2.438282108239885e-07,2.018622728927901e-05
2.449994085165246e-07,3.62151448127273e-07,2.442338222204472e-07,2.012890091876804e-05
2.4608389065756694e-07,3.64537682591176e-07,2.4467868997332895e-07,2.004935421808296e-05
2.4720091386078825e-07,3.67128294828391e-07,2.451549330309165e-07,1.994863240585253e-05
2.483530350242209e-07,3.6991608493962133e-07,2.45657155852691e-07,1.982795521110161e-05
2.495466843354239e-07,3.7289204387720325e-07,2.461829445189348e-07,1.968870590589346e-05
2.507891149532207e-07,3.76045886977169e-07,2.467313045681983e-07,1.9532346086366984e-05
2.5208580378356556e-07,3.7936637274642773e-07,2.473006962855995e-07,1.9360302327819213e-05
2.5343911819070137e-07,3.8284126933075726e-07,2.478884604769489e-07,1.91739031726561e-05
2.54848737333428e-07,3.864568575708345e-07,2.484911298346614e-07,1.8974439071580134e-05
2.563136485070311e-07,3.901973291178628e-07,2.491043949005768e-07,1.8763367491423854e-05
2.578337223611481e-07,3.940440765988754e-07,2.4972353553344685e-07,1.8542512592706284e-05
2.594089208785652e-07,3.979750540310056e-07,2.503446052807923e-07,1.831406761150032e-05
2.610371740888961e-07,4.01964413084111e-07,2.50964529635816e-07,1.808042700107742e-05
2.627134489255137e-07,4.0598250905560203e-07,2.515803113426157e-07,1.7844002047362053e-05
2.644306313303951e-07,4.0999668946502093e-07,2.5218940685431754e-07,1.760707897141901e-05
2.661815495332559e-07,4.139731010300728e-07,2.5279052091370657e-07,1.7371705739773015e-05
2.679609858586914e-07,4.178784894314549e-07,2.5338301525437965e-07,1.7139610231003247e-05
2.6976589733116543e-07,4.216816535939487e-07,2.539657532890493e-07,1.6912166485141066e-05
2.7159352754998e-07,4.253558572906957e-07,2.545366454990893e-07,1.669040661197041e-05
2.7343928395693805e-07,4.288809834797901e-07,2.550926804866791e-07,1.6475054061868742e-05
2.752959074141139e-07,4.3224262894657543e-07,2.556301141265301e-07,1.6266561467149053e-05
2.771539049772401e-07,4.3542882714036893e-07,2.561449022671437e-07,1.6065154808696332e-05
2.7900249648140805e-07,4.384277893167885e-07,2.566327673033044e-07,1.5870886607894546e-05
2.8083099061838016e-07,4.4122982369975645e-07,2.570884292123671e-07,1.5683692487086867e-05
2.826306361255013e-07,4.438326067636192e-07,2.5750514416451174e-07,1.5503452080115094e-05
2.8439560586159056e-07,4.4624329429079476e-07,2.5787543716824345e-07,1.5330061609469246e-05
2.861227983997942e-07,4.4847447122132903e-07,2.5819246058438395e-07,1.5163502397789623e-05
2.8781153518831294e-07,4.5053979347398005e-07,2.58450551779692e-07,1.5003871665604193e-05
2.894632407794767e-07,4.5245259540489207e-07,2.586445046783052e-07,1.4851373719335813e-05
2.910806111728277e-07,4.542244503389929e-07,2.587694766065703e-07,1.4706302965846615e-05
2.9266579153143765e-07,4.5586415980370113e-07,2.58822261659719e-07,1.456902841325656e-05
2.942184753448521e-07,4.573789952583548e-07,2.588022783244705e-07,1.443996264334378e-05
2.95735570439082e-07,4.58775402553169e-07,2.58711858672627e-07,1.4319506650092651e-05
2.972118144040192e-07,4.6005762471731034e-07,2.5855636440960285e-07,1.4207976220264422e-05
2.986402738846209e-07,4.612269246031397e-07,2.583433254110721e-07,1.4105540482249466e-05
3.000134635777328e-07,4.622826027691854e-07,2.5808024735145026e-07,1.4012228821503753e-05
3.0132499419688e-07,4.632225158733082e-07,2.577731102024721e-07,1.3928013580200806e-05
3.02569954034378e-07,4.640422180762741e-07,2.574266617002828e-07,1.3852877250356887e-05
3.037438558074092e-07,4.6473443021109113e-07,2.5704500045366784e-07,1.3786788929767645e-05
3.048417660818732e-07,4.6528923686706113e-07,2.566319216286296e-07,1.37296407207651e-05
3.0585794458194924e-07,4.6569458533897723e-07,2.561918098654561e-07,1.3681225347008713e-05
3.0678567129006964e-07,4.659375567570818e-07,2.557303630177162e-07,1.3641258955236515e-05
3.076178395721593e-07,4.660056620520874e-07,2.5525436265227123e-07,1.3609400400110096e-05
3.083479349873825e-07,4.6588682641864357e-07,2.547715270433269e-07,1.3585224411156065e-05
3.089701178657386e-07,4.655689647352611e-07,2.542905496964673e-07,1.3568167955555855e-05
3.0947858894943627e-07,4.6504043831982777e-07,2.5382039883956015e-07,1.3557518152440483e-05
3.098670489414954e-07,4.64291038608593e-07,2.53369782446095e-07,1.3552470368776914e-05
3.101283617053658e-07,4.6331257272261646e-07,2.529472997791095e-07,1.3552225385653795e-05
3.1025494074654534e-07,4.620987049574172e-07,2.525614365984785e-07,1.3556089515497779e-05
3.102402230672185e-07,4.606450248024356e-07,2.522210055137733e-07,1.356354358954984e-05
3.1007972393025625e-07,4.589495796922789e-07,2.5193588551411927e-07,1.3574236304205749e-05
3.097704493016828e-07,4.570124839837637e-07,2.5171645388612556e-07,1.3587897792927365e-05
3.093095986421975e-07,4.548347681884509e-07,2.515726621966133e-07,1.3604233658129546e-05
3.0869360840271287e-07,4.52417729832707e-07,2.5151402890633897e-07,1.362287683039185e-05
3.0791817711914484e-07,4.497630768761321e-07,2.5154933209911287e-07,1.364342306571062e-05
3.0697944633398103e-07,4.4687387245335686e-07,2.516858586513502e-07,1.3665490898674816e-05
3.0587559530553716e-07,4.437559355932045e-07,2.5192930402925146e-07,1.368872873073341e-05
3.0460849687482555e-07,4.4041888331619406e-07,2.522834196521349e-07,1.371277952973788e-05
3.031840950320045e-07,4.3687581550817825e-07,2.527485255891412e-07,1.3737318134586592e-05
3.016101477229856e-07,4.331412760357605e-07,2.533204406266364e-07,1.3762200605966784e-05
2.9989398796891064e-07,4.292290148816192e-07,2.539913278367986e-07,1.3787562312785131e-05
2.9804270378067284e-07,4.251510665146801e-07,2.5475214570249967e-07,1.3813735320463672e-05
2.960638994266964e-07,4.209177897406186e-07,2.555947234240196e-07,1.3841069707542835e-05
2.939654224271421e-07,4.1653811724707644e-07,2.5651228233348236e-07,1.3869800935516324e-05
2.917549376363897e-07,4.1202051948256503e-07,2.5749998925413305e-07,1.3900064903756408e-05
2.894406371004316e-07,4.0737538926685317e-07,2.585558164863033e-07,1.3932093252627005e-05
2.8703313023506215e-07,4.026169894143604e-07,2.596804782463002e-07,1.3966432954017459e-05
2.8454707461642856e-07,3.977626529865268e-07,2.608770808760083e-07,1.4003971627887823e-05
2.82001174037828e-07,3.9283019668385795e-07,2.621502525317009e-07,1.4045778092828546e-05
2.794163522596675e-07,3.878358760271038e-07,2.6350415644879536e-07,1.4092921624471906e-05
2.76812896263699e-07,3.827939533677201e-07,2.6494116890822985e-07,1.4146338942102795e-05
2.742080699605477e-07,3.777174410186674e-07,2.6646171685031424e-07,1.4206729891260947e-05
2.716153879387475e-07,3.726194023150153e-07,2.6806407120263964e-07,1.4274486835338172e-05
2.6904565594636853e-07,3.675141205643278e-07,2.6974427984183004e-07,1.4349681277391625e-05
2.6650852557006606e-07,3.624164127347418e-07,2.7149678798187764e-07,1.443209119001248e-05
2.6401281383333376e-07,3.5733935628097135e-07,2.733151879549204e-07,1.4521231863989768e-05
2.615658835382818e-07,3.5229311565935677e-07,2.751920724863316e-07,1.4616385141519195e-05
2.591738661674252e-07,3.472854934547156e-07,2.771182670449745e-07,1.4716640146673648e-05
2.568430572746691e-07,3.423229088367805e-07,2.7908274259450704e-07,1.4820938857833032e-05
2.545812593961929e-07,3.3741120980807297e-07,2.8107290012461575e-07,1.4928105609679501e-05
2.523982381015744e-07,3.325568686198289e-07,2.8307427842042265e-07,1.5036868805701386e-05
2.5030567251875034e-07,3.2776902933476627e-07,2.8507032228148647e-07,1.5145911398499535e-05
2.4831687129788854e-07,3.2306063290296147e-07,2.87043843267513e-07,1.5253948785422955e-05
2.46446476195896e-07,3.1844691113960327e-07,2.889810860155933e-07,1.5359786995245536e-05
2.447104814547873e-07,3.139428953087381e-07,2.908752546715393e-07,1.5462342379979716e-05
2.431251827381656e-07,3.0956176212332785e-07,2.927252995669602e-07,1.556065403908655e-05
2.417044500836309e-07,3.053138239668296e-07,2.945323315211596e-07,1.5653902093203533e-05
2.4045769898929556e-07,3.0120677387095234e-07,2.962977974365739e-07,1.574139465759359e-05
2.3939008882261693e-07,2.972487769820469e-07,2.980224083076137e-07,1.582250292480671e-05
2.385038385057554e-07,2.934528244701231e-07,2.997045174049738e-07,1.589658623380534e-05
2.3779918616590735e-07,2.898378214994194e-07,3.013395572915695e-07,1.5962962617265505e-05
2.3727501750286122e-07,2.8642531640369924e-07,3.02921279371164e-07,1.6020951441607363e-05
2.3692956387785893e-07,2.832351099402152e-07,3.044431915627201e-07,1.606997541343716e-05
2.3676034487617632e-07,2.80282498051129e-07,3.0589940878996736e-07,1.610965274408705e-05
2.367635935216931e-07,2.7757757316745144e-07,3.072853536887042e-07,1.6139809957739756e-05
2.3693460897032728e-07,2.7512577544344586e-07,3.085975409466191e-07,1.6160423008349066e-05
2.372688418164272e-07,2.729291575840833e-07,3.098328941995414e-07,1.6171541254831426e-05
2.3776291666380571e-07,2.7098781557647854e-07,3.109894149560225e-07,1.6173233166966165e-05
2.3841481140571127e-07,2.6930070733872697e-07,3.120668167608869e-07,1.6165559397789302e-05
2.3922223413851545e-07,2.6786554249434304e-07,3.130656665505829e-07,1.614856602471883e-05
2.4018038292415967e-07,2.666779038596841e-07,3.139873667251285e-07,1.6122293967736464e-05
2.4128118565382517e-07,2.657306669101637e-07,3.148352224187716e-07,1.6086795092720773e-05
2.4251368333793807e-07,2.6501425118869944e-07,3.1561376227915733e-07,1.6042154930028008e-05
2.438644943890962e-07,2.6451689049523807e-07,3.163265831096137e-07,1.5988533443604017e-05
2.453186590269903e-07,2.642248544434328e-07,3.16975402574167e-07,1.5926228588544926e-05
2.468605116618166e-07,2.64123082166124e-07,3.175612416394795e-07,1.5855742549871607e-05
2.4847377285520594e-07,2.641959292117432e-07,3.180856642923265e-07,1.577777857978839e-05
2.5014206561245746e-07,2.644276818837773e-07,3.185502395162809e-07,1.5693126267565675e-05
2.518510632665662e-07,2.648028002395561e-07,3.189557068748702e-07,1.5602530069740404e-05
2.5359024623179557e-07,2.6530606098561075e-07,3.193024550084034e-07,1.5506663416449536e-05
2.5535182496466906e-07,2.659229697995116e-07,3.195916370047149e-07,1.540618425211192e-05
2.5712815555164773e-07,2.666398678298288e-07,3.198255179000315e-07,1.5301761965415678e-05
2.589104731476556e-07,2.674429969894667e-07,3.2000718372441076e-07,1.5194045746177344e-05
2.6068926796644355e-07,2.683175166345173e-07,3.2014068089398805e-07,1.5083623026813653e-05
2.624548083244629e-07,2.69247951631114e-07,3.202307097061164e-07,1.4971036013789562e-05
2.6419741810919885e-07,2.7021987687895515e-07,3.202811223632031e-07,1.4856892284709415e-05
2.659084447131686e-07,2.712211886977953e-07,3.202938747521804e-07,1.4741969010028564e-05
2.6758168029621327e-07,2.722428662957025e-07,3.2026915993151645e-07,1.4627174672302923e-05
2.692141787739839e-07,2.7327995122575197e-07,3.202057414334993e-07,1.4513406260829145e-05
2.7080634722224674e-07,2.743310543946303e-07,3.2010173877617824e-07,1.4401427815408846e-05
2.723608298859009e-07,2.753957458287253e-07,3.1995617094793293e-07,1.4291851631921685e-05
2.73880143160962e-07,2.7647212733422065e-07,3.197697493780359e-07,1.4185275979588485e-05
2.7536493263390807e-07,2.775558014693627e-07,3.1954434386803343e-07,1.4082503454121066e-05
2.7681420699877245e-07,2.786399961355207e-07,3.192819523615297e-07,1.3984629430121505e-05
2.782267443155809e-07,2.7971680737336024e-07,3.189834101525968e-07,1.3892935340851902e-05
2.7960166629110267e-07,2.8077860741862346e-07,3.186472770592645e-07,1.3808720347853845e-05
2.8093767308693147e-07,2.818183302626217e-07,3.182696913495713e-07,1.3733162964598175e-05
2.822326921934162e-07,2.828293791144639e-07,3.178451048822804e-07,1.366721096121692e-05
2.834847219955609e-07,2.838060261201236e-07,3.1736737412174594e-07,1.3611505595371961e-05
2.84692087446182e-07,2.847440038331862e-07,3.1683117742947264e-07,1.3566358403055528e-05
2.858519790834937e-07,2.856411788616213e-07,3.162331633644052e-07,1.353177262905786e-05
2.8695921243739444e-07,2.864971656245413e-07,3.155714251977524e-07,1.3507479253928094e-05
2.8800653120343424e-07,2.8731126846177414e-07,3.148439297692417e-07,1.3492973138183505e-05
2.8898514866967285e-07,2.8808153889098585e-07,3.140481573221282e-07,1.3487558651724784e-05
2.8988549205674074e-07,2.888072805767575e-07,3.131819917619547e-07,1.3490408383984938e-05
2.906995904828561e-07,2.894922980185766e-07,3.1224387786042854e-07,1.3500626373479614e-05
2.914233491392825e-07,2.9014540640217807e-07,3.112317207013607e-07,1.3517304660600326e-05
2.920558818792565e-07,2.9077922512923516e-07,3.101422876299128e-07,1.353956526267461e-05
2.9259780974777906e-07,2.9140925935866673e-07,3.089723258087385e-07,1.3566596495894955e-05
2.930509547485496e-07,2.9205300128019856e-07,3.077202648235009e-07,1.3597689097712511e-05
2.93418145218065e-07,2.927279143326041e-07,3.063870704604848e-07,1.3632251575135394e-05
2.937023229381193e-07,2.934488354255729e-07,3.04976081156063e-07,1.3669803183591451e-05
2.939059042599625e-07,2.942269551564452e-07,3.034922261293988e-07,1.3709964079024465e-05
2.940311945823865e-07,2.9507011083644327e-07,3.019414885605383e-07,1.3752428910805859e-05
2.9408164569612517e-07,2.959833710307666e-07,3.0033126501144656e-07,1.3796911108599444e-05
2.9406241758874196e-07,2.9697078489878304e-07,2.9867078276038237e-07,1.3843083331547427e-05
2.9397924900037245e-07,2.980372240712248e-07,2.9697026937335657e-07,1.3890536001082764e-05
2.938367395525188e-07,2.9918825917684307e-07,2.952395234902477e-07,1.3938775567161807e-05
2.936380020922305e-07,3.004287457092496e-07,2.934877670896964e-07,1.3987288375390592e-05
2.933865488277348e-07,3.017621470253535e-07,2.917244889783681e-07,1.4035626659141562e-05
2.930883866279517e-07,3.031917075707234e-07,2.8995932312683404e-07,1.4083432015506067e-05
2.9275119481024124e-07,3.04722435249367e-07,2.882006583564356e-07,1.413040543996636e-05
2.9238150545775946e-07,3.0636179819656e-07,2.8645428509867405e-07,1.4176302061821088e-05
2.919834254633746e-07,3.0811905857607924e-07,2.8472285751869827e-07,1.4220962959128101e-05
2.915596496191695e-07,3.1000487741462396e-07,2.830060214596673e-07,1.4264326109576764e-05
