5.099331003950537e-07,3.775477953594893e-07,2.879644315558301e-07,2.28749037824518e-05
5.188154420018156e-07,3.765471846475593e-07,2.89655916832638e-07,2.285283895125335e-05
5.279001329367929e-07,3.755289095137072e-07,2.913446617997393e-07,2.282024427615849e-05
5.371448490003173e-07,3.744950484492901e-07,2.9302277327300355e-07,2.277676703131825e-05
5.46502748233177e-07,3.7344720278697e-07,2.946840313142863e-07,2.272209327545724e-05
5.559227724984833e-07,3.7238819683733297e-07,2.963238939912229e-07,2.265601434629306e-05
5.65350913646161e-07,3.7132183751088534e-07,2.979395490639713e-07,2.257847990792168e-05
5.747348678722265e-07,3.702510863480565e-07,2.995292814564812e-07,2.248963419566992e-05
5.840282946519728e-07,3.691770380144148e-07,3.010910513289178e-07,2.2389814792250118e-05
5.931898748473195e-07,3.6810107683667003e-07,3.0262162232684466e-07,2.22795074679684e-05
6.021798082400764e-07,3.670283642305845e-07,3.041167700125711e-07,2.215929156664896e-05
6.10958791249906e-07,3.659691749750738e-07,3.055722888880487e-07,2.2029815015927385e-05
6.194897412241917e-07,3.649389209411671e-07,3.069850852131121e-07,2.1891787495657687e-05
6.277395345367359e-07,3.6395797972620985e-07,3.083539113612118e-07,2.1745960043840035e-05
6.356791075132882e-07,3.630500448790263e-07,3.096791048781836e-07,2.1593089205738565e-05
6.432823411488127e-07,3.622401766430023e-07,3.109608551609113e-07,2.1433890038007155e-05
6.505240583172696e-07,3.615535480692166e-07,3.121978623464212e-07,2.126900697768656e-05
6.5737757180354e-07,3.610130161800247e-07,3.133878860731515e-07,2.1099055398521832e-05
6.63813957791385e-07,3.606359504387214e-07,3.145284282815937e-07,2.092469453111421e-05
6.698046002919565e-07,3.604327472964594e-07,3.156161368941486e-07,2.0746635876099138e-05
6.753253482257491e-07,3.604070521631957e-07,3.166462780066225e-07,2.0565592634273846e-05
6.803586008528426e-07,3.6055702546227406e-07,3.1761322842311695e-07,2.0382240716121727e-05
6.848916447799177e-07,3.608781365877192e-07,3.185108953755912e-07,2.0197216147187632e-05
6.889139371996784e-07,3.613659941099454e-07,3.193327397216465e-07,2.0011120153536123e-05
6.924170674799435e-07,3.620166994994512e-07,3.200726088476513e-07,1.9824512893930576e-05
6.953961168245104e-07,3.6282614107975223e-07,3.2072601676142093e-07,1.963792943590204e-05
6.97848238237061e-07,3.637911397787135e-07,3.212899331537189e-07,1.9451924810447936e-05
6.997696100714561e-07,3.6491084211096797e-07,3.2176132120581764e-07,1.9267099094264614e-05
7.011542459415965e-07,3.6618589559752813e-07,3.221368597434304e-07,1.908408479433374e-05
7.019943364273966e-07,3.6761774714286157e-07,3.2241469167290156e-07,1.890351396240995e-05
7.022810611629261e-07,3.6920936324685783e-07,3.225959247167393e-07,1.8725977792943826e-05
7.020054284285215e-07,3.709653000905782e-07,3.226837421641406e-07,1.8551986199599875e-05
7.011587222684696e-07,3.728915970819836e-07,3.2268132869466117e-07,1.838193130167877e-05
6.997341920820659e-07,3.749952899355665e-07,3.225910740801209e-07,1.8216073581955538e-05
6.977325197593408e-07,3.772813623644989e-07,3.2241517936409603e-07,1.805458987028871e-05
6.951686420040446e-07,3.79749184355843e-07,3.22155777818771e-07,1.7897674622332974e-05
6.920721643111283e-07,3.8239159523959654e-07,3.218140883774004e-07,1.774561671650422e-05
6.88479688367404e-07,3.8519579241703685e-07,3.2138991715311863e-07,1.7598805735808223e-05
6.844279210503435e-07,3.881445005417857e-07,3.208822056203423e-07,1.745767880531113e-05
6.799538701669369e-07,3.912182431537642e-07,3.2029028110828965e-07,1.7322644802637853e-05
6.750978683184015e-07,3.943980996525512e-07,3.196150796656085e-07,1.719405399978328e-05
6.69902927668635e-07,3.9766553783712213e-07,3.1885967259152695e-07,1.7072230088441486e-05
6.64410286799091e-07,4.0100002529564953e-07,3.1802847197136013e-07,1.6957506065430403e-05
6.58655711759081e-07,4.043787766132261e-07,3.17125384480837e-07,1.685021203270688e-05
6.526694279959623e-07,4.0777848539057396e-07,3.1615272471630677e-07,1.6750603009860236e-05
6.464790063758596e-07,4.1117657876567997e-07,3.1511201305533663e-07,1.6658772958749224e-05
6.401137923545444e-07,4.1455245361849326e-07,3.140051351377076e-07,1.6574608020133865e-05
6.336090470179692e-07,4.178886980045567e-07,3.128340632648113e-07,1.6497782709129902e-05
6.270073924533522e-07,4.211706659800691e-07,3.1159999672545693e-07,1.642779145838276e-05
6.203581667535565e-07,4.2438501758025577e-07,3.103033675760106e-07,1.6364010957828697e-05
6.137175116544201e-07,4.27519650402747e-07,3.089448154218124e-07,1.6305772263032976e-05
6.071484058379767e-07,4.305646601939018e-07,3.0752643043054496e-07,1.6252412755189686e-05
6.007174288133535e-07,4.335113521450161e-07,3.060524597668919e-07,1.6203295767358993e-05
5.944884865910468e-07,4.363494383776324e-07,3.045296776299569e-07,1.6157800949589145e-05
5.885171848059761e-07,4.3906550675017206e-07,3.0296695371400497e-07,1.61152868321604e-05
5.82849106866812e-07,4.4164340998091726e-07,3.013736825830791e-07,1.6075050975150266e-05
5.775213316254946e-07,4.4406483435198023e-07,2.997591306546704e-07,1.603633738853658e-05
5.725631906104175e-07,4.4630946053968755e-07,2.981324616848107e-07,1.5998385964192598e-05
5.679954417725581e-07,4.48355468996004e-07,2.965014400733764e-07,1.5960454539115768e-05
5.638306645986513e-07,4.5018026651343546e-07,2.94871462859275e-07,1.5921791351560905e-05
5.60074193457825e-07,4.517609206287485e-07,2.9324619616464497e-07,1.5881604359363098e-05
5.567240862968069e-07,4.530748837296669e-07,2.916279263534027e-07,1.583905589580396e-05
5.537733165939105e-07,4.541018060100557e-07,2.900171143694041e-07,1.5793277348248794e-05
5.512149436641626e-07,4.5482655861873815e-07,2.884128581932715e-07,1.5743400367211326e-05
5.490454843719874e-07,4.552415683368306e-07,2.868151445842662e-07,1.5688593971916278e-05
5.472644039730046e-07,4.5534612151528426e-07,2.852270344337565e-07,1.5628082232274694e-05
5.45871904214331e-07,4.5514489786799877e-07,2.8365385174313734e-07,1.5561147401155852e-05
5.448666222733958e-07,4.5464842563927314e-07,2.821001910703402e-07,1.5487154019783244e-05
5.442438164364864e-07,4.538724560606474e-07,2.8056848972942385e-07,1.540558858384157e-05
5.439944371320941e-07,4.5283454212915757e-07,2.7905993336449647e-07,1.531607212018351e-05
5.441048396630199e-07,4.5155127899123403e-07,2.775757678054834e-07,1.5218335523611198e-05
5.445573225655089e-07,4.500377389021471e-07,2.761179419421592e-07,1.5112182978728312e-05
5.453324678208706e-07,4.48307361016719e-07,2.7468924167719467e-07,1.4997477760126773e-05
5.464121252379936e-07,4.463715407907875e-07,2.732934028136009e-07,1.4874167662980796e-05
5.477802173788949e-07,4.4423980659509724e-07,2.7193478304514343e-07,1.4742313884023013e-05
5.494219210511198e-07,4.4192095710791767e-07,2.706171934214491e-07,1.4602089781632233e-05
5.513228120542486e-07,4.3942345106725243e-07,2.693429824702975e-07,1.4453761522874216e-05
5.534673142253169e-07,4.3675415563641823e-07,2.681129092568044e-07,1.4297654330795635e-05
5.55838219724489e-07,4.339174765196166e-07,2.669259773201693e-07,1.4134130986262173e-05
5.584184546667097e-07,4.3091668366165246e-07,2.6577906478985254e-07,1.3963637687063681e-05
5.611917831949266e-07,4.277569422297826e-07,2.6466689578455105e-07,1.3786785985797158e-05
5.64141471997587e-07,4.2444765327332115e-07,2.635826388732577e-07,1.360437415969125e-05
5.67248409780171e-07,4.2100226561645007e-07,2.625191042792892e-07,1.3417322983577789e-05
5.704895064359706e-07,4.1743612542337776e-07,2.6146967474112075e-07,1.3226576895691706e-05
5.738385775585097e-07,4.137637602265879e-07,2.6042815109641e-07,1.3033030612979386e-05
5.7726955429645e-07,4.099970082304821e-07,2.593881806396503e-07,1.2837539990760686e-05
5.807579904327592e-07,4.0614498517742427e-07,2.583429986042744e-07,1.2641024653983388e-05
5.842797799011521e-07,4.022158192597249e-07,2.572854576688123e-07,1.2444568474310236e-05
5.878093371857054e-07,3.982193928140906e-07,2.5620857759553565e-07,1.2249421956157985e-05
5.913183399844717e-07,3.9416887020269776e-07,2.551064130843552e-07,1.2056910107311792e-05
5.947753208449411e-07,3.9007908476023565e-07,2.5397452918042946e-07,1.186830435075325e-05
5.981464402322873e-07,3.859637849557906e-07,2.528105696515747e-07,1.16847142677197e-05
6.013968089393976e-07,3.8183469039022934e-07,2.516153141949817e-07,1.1507038385510128e-05
6.044910892218555e-07,3.7770189802464273e-07,2.503931309719883e-07,1.1335983611842724e-05
6.073937937434593e-07,3.735743518721965e-07,2.491516015338597e-07,1.1172119288563879e-05
6.100719550972745e-07,3.694606536857093e-07,2.4790118098655694e-07,1.1015932940135307e-05
6.125002345785468e-07,3.6536978961257616e-07,2.466547507231956e-07,1.0867919529473519e-05
6.146641755167998e-07,3.6131045860351295e-07,2.4542711242540933e-07,1.072867886792434e-05
6.165585789269258e-07,3.572898476729436e-07,2.442348079797615e-07,1.05988985210765e-05
6.181824130500008e-07,3.533140435711888e-07,2.430947854943823e-07,1.0479224827085403e-05
6.195352835268165e-07,3.493895611718928e-07,2.420216593419812e-07,1.037014746252468e-05
6.206194915088966e-07,3.455240162393039e-07,2.410264466626518e-07,1.0271988381305623e-05
6.214449368774063e-07,3.4172607929709977e-07,2.401175521217974e-07,1.018505614302882e-05
6.220313224245011e-07,3.3800549463149293e-07,2.393017428438845e-07,1.01099036244835e-05
6.224054378572818e-07,3.343740143151354e-07,2.385844798390249e-07,1.004746350681155e-05
6.225947133103285e-07,3.308476235744277e-07,2.379710355571529e-07,9.998955697057665e-06
6.226214728985235e-07,3.2744635706819484e-07,2.374682301690876e-07,9.965690139916806e-06
6.225019789956347e-07,3.241896556927676e-07,2.370841670150333e-07,9.94888966737194e-06
6.222495127536555e-07,3.210925821846858e-07,2.3682594833783737e-07,9.949563166238907e-06
6.218774269083306e-07,3.181663058558518e-07,2.366988220740468e-07,9.968424655135588e-06
6.213986326986993e-07,3.1541994123089536e-07,2.3670716061887523e-07,1.0005841173242304e-05
6.208227047061573e-07,3.128619226492753e-07,2.368555185691381e-07,1.0061805275206267e-05
6.201563096346899e-07,3.105012877872134e-07,2.371494086523212e-07,1.0135945894820593e-05
6.194087005050422e-07,3.083478273225541e-07,2.375949866732189e-07,1.0227569782191893e-05
6.185958403688099e-07,3.06411178601427e-07,2.3819782026430592e-07,1.0335705008994933e-05
6.177388145096883e-07,3.0470122424241534e-07,2.389620594799173e-07,1.0459136082341092e-05
6.16861955286625e-07,3.0322966568811914e-07,2.398898703664472e-07,1.059643700692688e-05
6.159947063841561e-07,3.020095542680951e-07,2.409809730407182e-07,1.074601157004771e-05
6.1517334616977e-07,3.01052880431234e-07,2.4223276572452714e-07,1.090616319816105e-05
6.144409627345507e-07,3.0037106094357407e-07,2.436403917877627e-07,1.1075201552474136e-05
6.13846913973036e-07,2.999783837474179e-07,2.451958858573329e-07,1.1251541884640974e-05
6.13444001993437e-07,2.998921781272082e-07,2.468880556622029e-07,1.1433751561437505e-05
6.132831905061727e-07,3.001294629906962e-07,2.487053277055982e-07,1.1620552060768845e-05
6.134089866362289e-07,3.007059324364471e-07,2.5063877572794306e-07,1.1810798603884738e-05
6.138571496503386e-07,3.016373076079671e-07,2.526808874404961e-07,1.2003435943051167e-05
6.14653960320041e-07,3.02939176187248e-07,2.54821994723422e-07,1.2197444486297588e-05
6.15816109322157e-07,3.0462621751607e-07,2.570488111936103e-07,1.2391809788623092e-05
6.173510866790906e-07,3.067128676429325e-07,2.59345254176994e-07,1.258551913526302e-05
6.192578324763186e-07,3.092146865648835e-07,2.616938380440689e-07,1.2777565380488325e-05
6.21527821647e-07,3.121485832824054e-07,2.6407716411709627e-07,1.2966948415408448e-05
6.241467189824039e-07,3.155294560029148e-07,2.6647931784426664e-07,1.3152672836507718e-05
6.270953534731914e-07,3.1936496139049417e-07,2.688866638759822e-07,1.3333734202349773e-05
6.303512277107933e-07,3.236536126821855e-07,2.712879010211172e-07,1.3509099475761792e-05
6.338935242616585e-07,3.283858683374847e-07,2.7367317039422364e-07,1.3677707385769382e-05
6.377092451440579e-07,3.335448475598282e-07,2.7603216409285676e-07,1.3838489630259582e-05
6.417950816390975e-07,3.391065614055345e-07,2.7835255354396344e-07,1.3990394639383785e-05
6.461534970659536e-07,3.4504034866904567e-07,2.806204205083124e-07,1.413242446829971e-05
6.507857892250668e-07,3.513098287787992e-07,2.8282249956606693e-07,1.4263692357941904e-05
6.556867786170043e-07,3.578746898273468e-07,2.849475193516596e-07,1.4383467363041613e-05
6.60843695716515e-07,3.646929045234806e-07,2.8698520030574926e-07,1.4491207406170886e-05
6.662372861812974e-07,3.717226568993629e-07,2.8892507700609087e-07,1.4586630166008014e-05
6.718448293857176e-07,3.789227851509753e-07,2.907563362133372e-07,1.4669785297609382e-05
6.776472624202521e-07,3.862513645151088e-07,2.924678462033178e-07,1.4741031879774924e-05
6.836349865999507e-07,3.936643254405817e-07,2.940487102005735e-07,1.4800918212495496e-05
6.898056267795189e-07,4.0111538063364613e-07,2.954894989378378e-07,1.4850031634961622e-05
6.961585399281213e-07,4.085566353833735e-07,2.967829198396785e-07,1.4888885428906576e-05
7.026921547619917e-07,4.15939997020296e-07,2.979235149232527e-07,1.4917892303281046e-05
7.094024580823205e-07,4.2321944707541564e-07,2.9890742876110125e-07,1.4937406471178665e-05
7.162807027089108e-07,4.3035229382945965e-07,2.9973318400635207e-07,1.4947771085047748e-05
7.233107592249905e-07,4.372988132412761e-07,3.004026912979357e-07,1.4949347403927984e-05
7.304674345317654e-07,4.440224884290994e-07,3.009206110886121e-07,1.4942526266575095e-05
7.377182276873206e-07,4.504912894330415e-07,3.0129288391159337e-07,1.49277270675323e-05
7.450282028495357e-07,4.566789951507386e-07,3.0152672423051345e-07,1.4905427831351311e-05
7.523643294560495e-07,4.6256673089604216e-07,3.016309962374624e-07,1.48762065673675e-05
7.596968257352086e-07,4.681425710539278e-07,3.0161559674629324e-07,1.4840688400647935e-05
7.669988793682864e-07,4.733975457219757e-07,3.0149122251197617e-07,1.4799443343243334e-05
7.74250537606516e-07,4.783215149947057e-07,3.0126965471805075e-07,1.475302904882034e-05
7.814480720492188e-07,4.829020165965254e-07,3.009628678567185e-07,1.4702217547796256e-05
7.886107422879232e-07,4.871252373198841e-07,3.005813119312953e-07,1.4648206272619022e-05
7.957798154497354e-07,4.909769403602561e-07,3.0013394479392085e-07,1.4592621394730447e-05
8.030103541743417e-07,4.94442960885283e-07,2.996305316631706e-07,1.4537339108340964e-05
8.103588200313393e-07,4.975107228316491e-07,2.9908273742039963e-07,1.448427602327863e-05
8.1787602965886e-07,5.001716059264393e-07,2.9850209385887304e-07,1.4435238422702716e-05
8.256111269264214e-07,5.024217627994672e-07,2.978984374210308e-07,1.4391831299391556e-05
8.336187964428413e-07,5.042602741732882e-07,2.9728123594036656e-07,1.4355402449297755e-05
8.419613405655376e-07,5.056865022292123e-07,2.966604466888196e-07,1.4327005358192944e-05
8.507057367576454e-07,5.066986808608414e-07,2.9604490391921465e-07,1.4307368035473102e-05
8.599178256057415e-07,5.072939783664881e-07,2.9544127259980077e-07,1.4296869865460058e-05
8.696554526243648e-07,5.074696989050776e-07,2.948550358987543e-07,1.4295548458817251e-05
8.799651138315792e-07,5.072243337187155e-07,2.942919575244713e-07,1.4303140374785287e-05
8.908855516264508e-07,5.065570145394091e-07,2.9375962232266694e-07,1.4319136214579754e-05
9.024584279957949e-07,5.054666301922975e-07,2.932680601254899e-07,1.434283738204604e-05
9.147476875567301e-07,5.039523381656602e-07,2.928276161591228e-07,1.4373419778214553e-05
9.278656133781132e-07,5.020149316792819e-07,2.924456069498282e-07,1.4410020980871665e-05
9.41995808561334e-07,4.996588739082888e-07,2.921250306467722e-07,1.4451843032603605e-05
9.574064657694636e-07,4.968961007349257e-07,2.918659432508493e-07,1.4498217779993624e-05
9.744460462514014e-07,4.937509061483512e-07,2.916671529170275e-07,1.4548601064637505e-05
9.935076734803531e-07,4.902617412984978e-07,2.9152635746158514e-07,1.4602533787961378e-05
1.0149709565823594e-06,4.864768880081529e-07,2.914393776243989e-07,1.4659620731164153e-05
1.039157315097311e-06,4.82448213193741e-07,2.913997260264427e-07,1.4719529518383511e-05
1.0663215165048668e-06,4.782281967870491e-07,2.913994821972345e-07,1.4781980004964093e-05
1.096668290554433e-06,4.7386925174594574e-07,2.9143141149903057e-07,1.4846707383143467e-05
1.1303715964893795e-06,4.6942330187036456e-07,2.914902767141288e-07,1.4913419311707888e-05
1.167587941269805e-06,4.649404390915253e-07,2.915719629744742e-07,1.4981767312716117e-05
1.2084664680613657e-06,4.6046609065385723e-07,2.916715573783945e-07,1.5051329613707028e-05
1.2531556350194576e-06,4.560389068079832e-07,2.917824613130908e-07,1.5121629326451074e-05
1.3018038760582609e-06,4.5169040829973927e-07,2.918980558402604e-07,1.5192205478074115e-05
1.3545562059966094e-06,4.474449081842266e-07,2.920152900328408e-07,1.526267596138278e-05
1.4115497429284025e-06,4.433194438837469e-07,2.9213623445434177e-07,1.5332736507836647e-05
1.4729079215225881e-06,4.3932456825211067e-07,2.922654882206027e-07,1.5402108666679807e-05
1.5387335893983947e-06,4.354665070894365e-07,2.924073232259735e-07,1.54704714131425e-05
1.6091033675948204e-06,4.317498778451933e-07,2.925650778623325e-07,1.5537442261374804e-05
1.6840638739065368e-06,4.281794413834901e-07,2.927410420798754e-07,1.5602648364402302e-05
1.7636242667655773e-06,4.24761111375209e-07,2.9293719415466717e-07,1.5665794735655635e-05
1.8477400832870528e-06,4.215027732755322e-07,2.9315713212930396e-07,1.5726631620758295e-05
1.9362934599645453e-06,4.1841425602537635e-07,2.934066498346761e-07,1.5784867823423637e-05
2e-07,4.155062268750875e-07,2.936923721095992e-07,1.58401238512306e-05
2e-07,4.127885252149922e-07,2.940200146265964e-07,1.5891970156350736e-05
2e-07,4.102697223841971e-07,2.943941771620825e-07,1.594005193690668e-05
2e-07,4.0795900944333033e-07,2.9482064767186013e-07,1.598422143559805e-05
2e-07,4.058670555367968e-07,2.9530774152531424e-07,1.6024560006550156e-05
2e-07,4.0400288602120754e-07,2.958636167301199e-07,1.6061277585949985e-05
2e-07,4.023698188433868e-07,2.964928835120964e-07,1.6094568488489528e-05
2e-07,4.009643040436751e-07,2.971959773255699e-07,1.6124500525156112e-05
2e-07,3.997778663565442e-07,2.979702577947046e-07,1.6150994074669182e-05
2e-07,3.9880050241321456e-07,2.988111416456904e-07,1.6173873137142455e-05
2e-07,3.9802274813087954e-07,2.997132346951819e-07,1.619292459378331e-05
2e-07,3.974345555295492e-07,3.0067168211000837e-07,1.620798557145806e-05
2e-07,3.9702352311713546e-07,3.016826856919046e-07,1.6219110078418726e-05
2e-07,3.9677634660352544e-07,3.0274221343400767e-07,1.622672046767347e-05
2e-07,3.966823908546929e-07,3.038443156606621e-07,1.6231572146183774e-05
2e-07,3.9673475200594867e-07,3.049812384356865e-07,1.6234543586225227e-05
2e-07,3.969277140817754e-07,3.061451225996884e-07,1.623642124525513e-05
2e-07,3.9725389740756593e-07,3.073293121983819e-07,1.6237793220986898e-05
2e-07,3.9770330177828577e-07,3.0852926843877833e-07,1.623911829460678e-05
2e-07,3.9826344340471273e-07,3.097438502310257e-07,1.6240977987701348e-05
2e-07,3.989191836647313e-07,3.109749673732397e-07,1.6244327923949682e-05
2e-07,3.996520889108648e-07,3.122250846940673e-07,1.6250539954399516e-05
2e-07,4.004403208083382e-07,3.134952020346895e-07,1.6261263513292247e-05
2e-07,4.0125936607902067e-07,3.1478409860947727e-07,1.627825143880268e-05
2e-07,4.0208301478591464e-07,3.160885314669992e-07,1.6303218537460233e-05
2e-07,4.028844581028006e-07,3.174043852725305e-07,1.6337743267893772e-05
2e-07,4.0363748181271657e-07,3.18727624158878e-07,1.6383195394523128e-05
2e-07,4.043173457128218e-07,3.200548218449125e-07,1.6440664787612815e-05
2e-07,4.049015895678696e-07,3.213837929126535e-07,1.6510896914870895e-05
2e-07,4.0537194913244817e-07,3.2271363727856285e-07,1.6594250211108665e-05
2e-07,4.0571630108643594e-07,3.24044061757436e-07,1.6690680384046285e-05
2e-07,4.059282093790424e-07,3.2537471774717e-07,1.6799769556024895e-05
2e-07,4.060054226116932e-07,3.267049488372194e-07,1.6920806143558873e-05
2e-07,4.059486186293024e-07,3.280338211974156e-07,1.705286900292412e-05
2e-07,4.057592460426003e-07,3.293605518394646e-07,1.7194877019598605e-05
2e-07,4.054383814460285e-07,3.306854444593051e-07,1.734563193319551e-05
2e-07,4.049881791271581e-07,3.320097936639201e-07,1.750389332307493e-05
2e-07,4.044125606157661e-07,3.333347493589644e-07,1.7668472285714305e-05
2e-07,4.037155413584846e-07,3.346612674259728e-07,1.783830584815531e-05
2e-07,4.02899852662464e-07,3.359905493489192e-07,1.8012500747086692e-05
2e-07,4.019669839293183e-07,3.373245672465475e-07,1.819034214773052e-05
2e-07,4.00917302463196e-07,3.386676350651699e-07,1.837125276845179e-05
2e-07,3.997496416204392e-07,3.4002653227470605e-07,1.8554716366854626e-05
2e-07,3.984610694908725e-07,3.4140775367208617e-07,1.874019359458804e-05
2e-07,3.970481176294709e-07,3.428147164031425e-07,1.89270418810823e-05
2e-07,3.9551086608558976e-07,3.442466403700277e-07,1.911447687551159e-05
2e-07,3.938585265025299e-07,3.456991009478491e-07,1.9301615878110182e-05
2e-07,3.921110569984325e-07,3.471656214791017e-07,1.9487555164821607e-05
2e-07,3.9029539482543627e-07,3.4863843929583487e-07,1.967139960351477e-05
2e-07,3.8844215480802897e-07,3.501084422669089e-07,1.9852241701866115e-05
2e-07,3.865843431995112e-07,3.515661802164953e-07,2.002913566415369e-05
2e-07,3.84754638598577e-07,3.5300295615605997e-07,2.020109485649252e-05
2e-07,3.829825208254075e-07,3.5441030367685704e-07,2.0367105164900354e-05
2e-07,3.8129329539672496e-07,3.5577976562604387e-07,2.0526123429090045e-05
2e-07,3.797077706393901e-07,3.5710416224900476e-07,2.0677066405632727e-05
2e-07,3.782419627642151e-07,3.583781406007647e-07,2.0818837038446767e-05
2e-07,3.7690687751391146e-07,3.595968278173172e-07,2.0950381097958906e-05
2e-07,3.757087570764005e-07,3.607541846498611e-07,2.107070928220676e-05
2e-07,3.746504820414714e-07,3.6184251285157645e-07,2.117887224177714e-05
2e-07,3.737337540165138e-07,3.6285285911283203e-07,2.1273927387987192e-05
2e-07,3.729605593341293e-07,3.6377566836066753e-07,2.135492245127736e-05
2e-07,3.7233265500360534e-07,3.6460126696696403e-07,2.142091387784968e-05
2e-07,3.7185069760854656e-07,3.6531987498789427e-07,2.147101939612392e-05
2e-07,3.715155334899785e-07,3.6592170776334226e-07,2.1504467612744946e-05
2e-07,3.713296803199971e-07,3.66397391198425e-07,2.1520626725962493e-05
2e-07,3.7129628390690617e-07,3.667387366127801e-07,2.15190401441177e-05
2e-07,3.7141755783649676e-07,3.669410550864242e-07,2.1499472254212626e-05
2e-07,3.7169431230301925e-07,3.670056946468969e-07,2.1461922000565227e-05
2e-07,3.7212534009314045e-07,3.6693899831384884e-07,2.1406620407410106e-05
2e-07,3.727066410005992e-07,3.6674807316648186e-07,2.133406693361149e-05
2e-07,3.734313425270907e-07,3.664377662083161e-07,2.124504030152577e-05
1.987808226612587e-06,3.742900377438953e-07,3.660105275736744e-07,2.114051900856079e-05
1.9045670447847252e-06,3.752710721775036e-07,3.654675763715353e-07,2.1021600969206163e-05
1.8236220442544567e-06,3.763619655238384e-07,3.648100164557406e-07,2.08894652382258e-05
1.7450873202089897e-06,3.77552685335676e-07,3.640391720758749e-07,2.0745314290797386e-05
1.6690720403816885e-06,3.7883773942545006e-07,3.6315605243489954e-07,2.0590299125554253e-05
1.595677084423671e-06,3.802143509390926e-07,3.621610136274692e-07,2.0425469715416494e-05
1.5249919746562374e-06,3.816789103774524e-07,3.610547094059282e-07,2.0251757251188106e-05
1.4570965512855141e-06,3.832249815638157e-07,3.598393469984908e-07,2.006997017734139e-05
1.3920677636864832e-06,3.848429533435724e-07,3.5851852007495547e-07,1.988078563752989e-05
1.329987369879478e-06,3.865206945063882e-07,3.5709620115683617e-07,1.9684744680308703e-05
1.27094449534592e-06,3.8824529145521564e-07,3.5557613804348564e-07,1.948227993789956e-05
1.2150300476577989e-06,3.900045110493618e-07,3.5396214772193066e-07,1.927378462634994e-05
1.1623253301759851e-06,3.917870479891272e-07,3.522598125351425e-07,1.9059686656793428e-05
1.1128924449398918e-06,3.9358244119130077e-07,3.504781846909582e-07,1.8840475244523526e-05
1.0667742606611034e-06,3.9538044219738313e-07,3.486289797934569e-07,1.8616670347642903e-05
1.0240031271263456e-06,3.9716987256757064e-07,3.4672428930840545e-07,1.838877822341948e-05
9.846099117877084e-07,3.989387908362689e-07,3.4477630593895565e-07,1.8157284889479506e-05
9.486281618568727e-07,4.0067565858853743e-07,3.427987988663452e-07,1.7922693179270025e-05
9.160945075892588e-07,4.023693455138979e-07,3.408067853660517e-07,1.768554711672638e-05
8.870469906080506e-07,4.0400816664315216e-07,3.3881494916375265e-07,1.7446397102301724e-05
8.615210980990904e-07,4.0557936980872323e-07,3.3683817667833574e-07,1.7205732120385555e-05
8.395428152508887e-07,4.0706942609243897e-07,3.348927919216503e-07,1.6963930557684115e-05
8.211194107576529e-07,4.0846555139104685e-07,3.329963586877963e-07,1.67212472009672e-05
8.062307333834246e-07,4.0975766269282994e-07,3.3116776525305185e-07,1.6477826628373358e-05
7.948241488557786e-07,4.1093842333931827e-07,3.294269533133057e-07,1.62337320975679e-05
7.868155598428661e-07,4.1200168006662347e-07,3.277920807432643e-07,1.5988979629635187e-05
7.82096527897153e-07,4.129414642525414e-07,3.2627627567094175e-07,1.574355839729927e-05
7.805421146211375e-07,4.137520367395426e-07,3.2488711892450514e-07,1.549743155720838e-05
7.820136365244447e-07,4.1442910685401406e-07,3.2362905656306236e-07,1.5250535414620896e-05
7.863584394787405e-07,4.1497233692812907e-07,3.225069373206647e-07,1.5002790444246664e-05
7.934126798364103e-07,4.153874094909168e-07,3.215276661120654e-07,1.4754143503903213e-05
8.030069704688773e-07,4.156860495579974e-07,3.2069856780839384e-07,1.4504652119300424e-05
8.149690988936464e-07,4.158842707191032e-07,3.200244952648658e-07,1.425453847887737e-05
8.291217479400688e-07,4.159998771917061e-07,3.195058402201792e-07,1.4004133353401504e-05
8.452803849916074e-07,4.160503067260009e-07,3.191379056039821e-07,1.3753765644202425e-05
8.632550881994291e-07,4.160510432871685e-07,3.189116769031301e-07,1.3503704823367026e-05
8.828540201579607e-07,4.1601497194318507e-07,3.188153649444003e-07,1.325418104304284e-05
9.038859620736919e-07,4.159534173760549e-07,3.188354481382195e-07,1.300545264632784e-05
9.261602771699963e-07,4.158770361585168e-07,3.1895716077660265e-07,1.275785896990886e-05
9.49484632451844e-07,4.1579478390260157e-07,3.191650903800997e-07,1.2511794362410146e-05
9.73665556544986e-07,4.1571244723501135e-07,3.194436455995507e-07,1.2267652147529199e-05
9.98514550486942e-07,4.1563215289985243e-07,3.197773677650198e-07,1.2025847113903415e-05
1.0238563192091194e-06,4.15552628954144e-07,3.201511996406018e-07,1.1786880225754907e-05
1.0495346391907707e-06,4.1546950981878564e-07,3.2055008477140607e-07,1.1551326970927886e-05
1.0754117987897982e-06,4.1537551459737537e-07,3.2095815242138317e-07,1.1319766411585247e-05
1.1013617566034495e-06,4.1526199302552296e-07,3.2135854752149345e-07,1.1092728755736985e-05
1.1272636697511414e-06,4.151222566270804e-07,3.217338796304184e-07,1.087066782961558e-05
1.152999126437879e-06,4.1495383552171786e-07,3.220668587056182e-07,1.0653975003382284e-05
1.1784493883417795e-06,4.1475809050630616e-07,3.223411285428455e-07,1.0443045547999339e-05
1.2034919637685335e-06,4.145387244074897e-07,3.225419722895103e-07,1.0238315499580438e-05
1.22800120403886e-06,4.143000241921504e-07,3.22656375049465e-07,1.0040213526771507e-05
1.2518538782226663e-06,4.1404513422881775e-07,3.226727806995485e-07,9.849102334820868e-06
1.2749343930435913e-06,4.137754115636418e-07,3.225814021013186e-07,9.665307994472577e-06
1.297135738673968e-06,4.134908224934242e-07,3.223745742443911e-07,9.48925792018979e-06
1.318358656359255e-06,4.1319020078345507e-07,3.220461801610023e-07,9.32164806662073e-06
1.338512430465365e-06,4.1287069926760175e-07,3.2159062035560665e-07,9.163486854237331e-06
1.357516285968333e-06,4.125271380578364e-07,3.210022010862717e-07,9.01595283488735e-06
1.3753002624862603e-06,4.12152257264687e-07,3.202757975996749e-07,8.880215051808915e-06
1.3918066515732523e-06,4.11737707608319e-07,3.194084254312781e-07,8.757404801046654e-06
1.4069916827098197e-06,4.1127508741190856e-07,3.183997219831029e-07,8.648693810078909e-06
1.4208246302058263e-06,4.107560472666924e-07,3.172516831835177e-07,8.55529361682258e-06
1.4332828904473557e-06,4.101714550060537e-07,3.159699385965573e-07,8.478354749447975e-06
1.4443476266282357e-06,4.095117678805652e-07,3.145657886379899e-07,8.41886407754291e-06
1.45400414177344e-06,4.0876873129167545e-07,3.130560536970177e-07,8.377586317579982e-06
1.4622428833661575e-06,4.0793568254438743e-07,3.114604952703332e-07,8.355052004389903e-06
1.4690573460324781e-06,4.070065167095626e-07,3.097996912537027e-07,8.351570299949941e-06
1.474441843341276e-06,4.05975691784437e-07,3.080947735484921e-07,8.367236794463028e-06
1.4783923070413245e-06,4.048387106692455e-07,3.063667206219286e-07,8.401931393143105e-06
1.4809098518618216e-06,4.035912856364254e-07,3.0463391392915396e-07,8.455323200701578e-06
1.482004612140443e-06,4.022291675108189e-07,3.0291035282864297e-07,8.526887508454374e-06
1.4816978440788797e-06,4.0075183430829677e-07,3.01206091216515e-07,8.615913244908415e-06
1.4800236677181791e-06,3.991677452321838e-07,2.995293972270511e-07,8.721488374552636e-06
1.477031305498719e-06,3.9749523583115466e-07,2.9788960425191715e-07,8.842489569975653e-06
1.4727842404728541e-06,3.957582579455482e-07,2.9629865455710867e-07,8.97761623795624e-06
1.4673549239758042e-06,3.9398131786612634e-07,2.947706401804074e-07,9.125478614983859e-06
1.4608198808186562e-06,3.921860776050298e-07,2.9332046340650447e-07,9.284703312034957e-06
1.453258586714414e-06,3.903895966822215e-07,2.9196214541533146e-07,9.454000241408054e-06
1.4447526728559636e-06,3.8860406932127427e-07,2.907073734312345e-07,9.632165258409157e-06
1.4353819531177894e-06,3.868374085009099e-07,2.895654778487514e-07,9.818041113759627e-06
1.4252200776904492e-06,3.850939281085053e-07,2.885449381726716e-07,1.0010485221158543e-05
1.4143325307378212e-06,3.8337483819603783e-07,2.8765444376753285e-07,1.0208381273775757e-05
1.4027763087357463e-06,3.816784298632749e-07,2.869016364667696e-07,1.0410677908012628e-05
1.3906021578418586e-06,3.8000050751312594e-07,2.86291258101984e-07,1.0616396008746294e-05
1.3778589093785722e-06,3.783357590890757e-07,2.8582532486377693e-07,1.0824580856503287e-05
1.36459553946987e-06,3.7667949258834646e-07,2.855039816485951e-07,1.1034239004825193e-05
1.3508592070383403e-06,3.750291221694779e-07,2.853248534843913e-07,1.1244306555841324e-05
1.336692191027547e-06,3.7338648229160817e-07,2.8528240761283307e-07,1.1453666544448015e-05
1.3221307132745466e-06,3.717619524507532e-07,2.853694634022436e-07,1.1661219201480073e-05
1.3072072868823952e-06,3.7017825832962047e-07,2.8557911744033804e-07,1.1865972472716267e-05
1.291956114110678e-06,3.686707806781236e-07,2.859048839088779e-07,1.206708908406874e-05
1.276417089805115e-06,3.6728377270639256e-07,2.8634026871866577e-07,1.2263863696683274e-05
1.2606340028902206e-06,3.660635936821236e-07,2.868784767185979e-07,1.2455645198188782e-05
1.2446487888027218e-06,3.650517301077056e-07,2.875117754841085e-07,1.2641758675123375e-05
1.2284977334819045e-06,3.642808590884167e-07,2.882318505444404e-07,1.2821505434309552e-05
1.2122119431709878e-06,3.637740470177613e-07,2.890314913567323e-07,1.2994229674844376e-05
1.1958191022057622e-06,3.635452933958261e-07,2.8990620799922427e-07,1.3159363045728587e-05
1.1793431017795598e-06,3.6360049174361756e-07,2.908548372804165e-07,1.3316412063880851e-05
1.162802049871575e-06,3.639382728216643e-07,2.918779328384605e-07,1.3464911046344144e-05
1.1462080033410678e-06,3.645502936881256e-07,2.9297461775350016e-07,1.3604387072041835e-05
1.1295695035144086e-06,3.654216642561028e-07,2.941410705862568e-07,1.3734387546884281e-05
1.112893591465679e-06,3.665324530415256e-07,2.9537163099995444e-07,1.3854556169884603e-05
1.096184930227239e-06,3.6786005199657454e-07,2.9666086274427966e-07,1.3964672923746457e-05
1.0794452327680524e-06,3.693818710425268e-07,2.980046307926022e-07,1.4064611224892924e-05
1.0626755835880122e-06,3.710772396880656e-07,2.993992558333413e-07,1.415428527802814e-05
1.04587929247305e-06,3.729271485292568e-07,3.008397039828643e-07,1.4233669962937574e-05
1.0290638188750634e-06,3.749131433487105e-07,3.023189746991284e-07,1.4302838779951059e-05
1.0122424387024616e-06,3.7701777393015594e-07,3.0383026151524637e-07,1.4361933404114057e-05
9.954349354154735e-07,3.792260858005378e-07,3.053694639597407e-07,1.441110107591738e-05
9.786674266467235e-07,3.8152684410388424e-07,3.069343001244247e-07,1.4450498217454794e-05
9.619734933666157e-07,3.839137621253528e-07,3.085218553594246e-07,1.4480403634635849e-05
9.45396478267354e-07,3.863861031725073e-07,3.101276064371872e-07,1.4501389141207682e-05
9.28988713048098e-07,3.889476767527811e-07,3.117450478198598e-07,1.4514410025096555e-05
9.128047542454287e-07,3.9160447710722535e-07,3.133658123311421e-07,1.4520724223908534e-05
8.968930132137405e-07,3.94361436731273e-07,3.149815659455212e-07,1.4521717050600381e-05
8.812922869781677e-07,3.972203370460913e-07,3.1658576029796817e-07,1.4518748160309015e-05
8.66032745154743e-07,4.001799733279113e-07,3.1817273861304807e-07,1.4513064050429553e-05
8.511381475907477e-07,4.0323582426892046e-07,3.197360056055182e-07,1.450583317405264e-05
8.366294640618873e-07,4.063785612667985e-07,3.212678321022144e-07,1.4498314729152973e-05
8.225293053210045e-07,4.095946367854846e-07,3.227597489563751e-07,1.4491987012954502e-05
8.088648800153795e-07,4.1287009362344387e-07,3.242037753573129e-07,1.4488471909252905e-05
7.95669349330586e-07,4.161945282186324e-07,3.255939782531048e-07,1.4489323669295008e-05
7.829829086509395e-07,4.195622996128364e-07,3.26927546690753e-07,1.4495836941682256e-05
7.708530932737942e-07,4.2297156112172105e-07,3.282052127572338e-07,1.4508949205650738e-05
7.593320663864189e-07,4.264219583715167e-07,3.294305511000542e-07,1.452923838212951e-05
7.484717322968161e-07,4.2991189014161045e-07,3.3060876091927186e-07,1.45569650444529e-05
7.383204493792881e-07,4.334396080257082e-07,3.3174573295362005e-07,1.4592108160953686e-05
7.289216053091985e-07,4.3701011460646676e-07,3.328468041188477e-07,1.4634390341072171e-05
7.203114662648541e-07,4.406421323325714e-07,3.339153159643793e-07,1.4683307988628528e-05
7.125174738789354e-07,4.44368576362992e-07,3.349516504901446e-07,1.4738166593947864e-05
7.055603185024935e-07,4.4823050816486604e-07,3.359531247351239e-07,1.4798117000192346e-05
6.994587527228162e-07,4.52269789876163e-07,3.3691471617657325e-07,1.4862194135880136e-05
6.942330001851185e-07,4.5652470501125276e-07,3.3782990910975735e-07,1.492936102162034e-05
6.899050541405349e-07,4.610273870285843e-07,3.3869136050269307e-07,1.4998565231233954e-05
6.86498237489371e-07,4.6580063492972e-07,3.394913644563865e-07,1.5068807659202554e-05
6.840373032796735e-07,4.708557704005495e-07,3.402218816780442e-07,1.513919886091198e-05
6.825457050307482e-07,4.761929429923321e-07,3.408751494476382e-07,1.5208970493174082e-05
6.820386186677644e-07,4.818022051802779e-07,3.414467487239437e-07,1.5277442359563388e-05
6.825159434888085e-07,4.876648375679283e-07,3.419400132057251e-07,1.5343972084969433e-05
6.839594051627299e-07,4.937564000469099e-07,3.423674122327469e-07,1.5407902596816766e-05
6.863334901650156e-07,5.000507931095949e-07,3.4274713255930517e-07,1.546853099189066e-05
6.895876514369076e-07,5.065212157408884e-07,3.4309805804891085e-07,1.552513387293814e-05
6.936590757367593e-07,5.13137350408502e-07,3.434364356368114e-07,1.55770453581752e-05
6.984761984181186e-07,5.198641569722368e-07,3.4377436967429443e-07,1.5623754529372463e-05
7.03961597913536e-07,5.266653127030348e-07,3.4411937704776964e-07,1.5664998950133887e-05
7.100337293360016e-07,5.335076890299388e-07,3.4447462733933386e-07,1.5700821862642942e-05
7.16607922852546e-07,5.403621292604546e-07,3.448396030753592e-07,1.573154628804856e-05
7.235965061931825e-07,5.472014607850489e-07,3.452112402102255e-07,1.575767820225415e-05
7.309088153032963e-07,5.540004186595921e-07,3.4558492710619504e-07,1.5779821480574868e-05
7.384520962468224e-07,5.60737074658461e-07,3.459548044876659e-07,1.5798655004120807e-05
7.46133478000166e-07,5.6739137488746e-07,3.46314042159622e-07,1.5814928672935093e-05
7.538622646319823e-07,5.73941751211803e-07,3.4665526887345746e-07,1.5829396054845912e-05
7.615509072508877e-07,5.803643870659993e-07,3.46970288806975e-07,1.584268317584923e-05
7.691146790220222e-07,5.866356010393578e-07,3.472492138677868e-07,1.585519760062966e-05
7.764718054230417e-07,5.927348067666837e-07,3.47480931818437e-07,1.5867153696001102e-05
7.835442754169834e-07,5.986457690436326e-07,3.476556908740568e-07,1.5878682704227663e-05
7.902588571291982e-07,6.043548916810008e-07,3.4776720915389237e-07,1.5889963794177577e-05
7.965486330096331e-07,6.09848018425358e-07,3.4781186070633825e-07,1.5901343518714158e-05
8.023549201806469e-07,6.151083334776922e-07,3.477867225716321e-07,1.5913392533143876e-05
8.076318437105938e-07,6.201156288521786e-07,3.4768962218018023e-07,1.5926844123363893e-05
8.123562367220708e-07,6.248463256373507e-07,3.475206486276092e-07,1.5942457286546785e-05
8.165378063982693e-07,6.292743091441927e-07,3.472823900961668e-07,1.596089225203399e-05
8.202231025722071e-07,6.333719397489532e-07,3.4697866735600444e-07,1.5982628546167503e-05
8.234946625564889e-07,6.371104506489436e-07,3.4661343296089685e-07,1.600792355977551e-05
8.264677314587854e-07,6.404602048643878e-07,3.461902849868431e-07,1.6036805745458155e-05
8.292822981175926e-07,6.433916202642516e-07,3.457126802811191e-07,1.6069105668583192e-05
8.320889585063523e-07,6.458766675333201e-07,3.451847383132429e-07,1.6104571587106853e-05
8.350324161214205e-07,6.478910740245533e-07,3.446115686365528e-07,1.6143093731769573e-05
8.382385029116321e-07,6.494178920306714e-07,3.439994075763949e-07,1.6184897825649533e-05
8.418076588738295e-07,6.504505387695742e-07,3.433562216677213e-07,1.6230523718701817e-05
8.458154429720891e-07,6.509924008778599e-07,3.4269085038915353e-07,1.6280627206795012e-05
8.50319154098893e-07,6.510541588448907e-07,3.4201016140720355e-07,1.6335766323648847e-05
8.553661092720835e-07,6.50651167951682e-07,3.413170583418346e-07,1.639627315128969e-05
8.609987738919048e-07,6.498005699074004e-07,3.406104759419834e-07,1.6462315308012914e-05
8.672572571696445e-07,6.485182710208578e-07,3.3988624603187e-07,1.6534156621653907e-05
8.741829789137219e-07,6.468172006379372e-07,3.391382677268021e-07,1.6612390020838393e-05
8.818237417349315e-07,6.447070064094619e-07,3.383603324429343e-07,1.6697943039176642e-05
8.902369715685849e-07,6.421945558371964e-07,3.375482672361049e-07,1.6791918518959692e-05
8.994910509994509e-07,6.392847312648774e-07,3.3670029283111137e-07,1.6895411659014185e-05
9.096663597176669e-07,6.359809904907454e-07,3.3581503201107694e-07,1.700936352475116e-05
9.208529403887682e-07,6.322857956173369e-07,3.3489032220649425e-07,1.7134471643509813e-05
9.331419581484749e-07,6.282011807146093e-07,3.33924799476824e-07,1.7271151086605677e-05
9.466152863814728e-07,6.237294364377661e-07,3.32919340148212e-07,1.7419522436267367e-05
9.613392599364794e-07,6.188738362772548e-07,3.318763605814477e-07,1.7579417230829112e-05
9.773632816602235e-07,6.136387174370541e-07,3.3079930592869576e-07,1.775039071456875e-05
9.947201722698193e-07,6.080291422734528e-07,3.296929299993441e-07,1.793172663797515e-05
1.0134264014535635e-06,6.020521827622226e-07,3.2856282833506216e-07,1.812243760499855e-05
1.0334828982268644e-06,5.957197889809984e-07,3.2741500691320924e-07,1.8321275053456285e-05
1.0548754815311728e-06,5.890499282238142e-07,3.262565262666686e-07,1.8526761977454158e-05
1.0775714135235892e-06,5.820655013518397e-07,3.2509677432258463e-07,1.8737262656713118e-05
1.1015128848742016e-06,5.747952556646035e-07,3.239481692624765e-07,1.8951086503969242e-05
1.1266145938901855e-06,5.672774958714163e-07,3.2282440442391036e-07,1.9166595525813666e-05
1.1527707249879308e-06,5.59561838811252e-07,3.2173743777716717e-07,1.9382272382428046e-05
1.179866012954197e-06,5.517063643310615e-07,3.206969816408669e-07,1.959673031425808e-05
1.207780922916863e-06,5.43772212210512e-07,3.197114775901761e-07,1.980868886923261e-05
1.2363911770066462e-06,5.358188373553013e-07,3.187873113342724e-07,2.001694476372652e-05
1.265567430491389e-06,5.279012196600804e-07,3.179276076900429e-07,2.022035156282928e-05
1.295175112680087e-06,5.200692554247312e-07,3.1713247288635645e-07,2.0417816005105772e-05
1.3250750426789794e-06,5.123688829533873e-07,3.163997873109205e-07,2.0608300174202585e-05
1.3551297420258708e-06,5.048428956701284e-07,3.157259484034439e-07,2.0790802314715826e-05
1.3852163703231994e-06,4.975311988062054e-07,3.1510650452776065e-07,2.0964318582366784e-05
1.4152403356864915e-06,4.904708215845069e-07,3.145370064397462e-07,2.1127829237459616e-05
1.4451438233003998e-06,4.836942983608461e-07,3.1401418571949676e-07,2.1280320281182102e-05
1.4749104406095683e-06,4.772275079274953e-07,3.1353574396904715e-07,2.1420807527389824e-05
1.5045695058814915e-06,4.7108894174437477e-07,3.130986042654035e-07,2.154836846191395e-05
1.534195778304022e-06,4.652903061123421e-07,3.126981703883524e-07,2.166220478415045e-05
1.5638989555011918e-06,4.598385689439175e-07,3.1232893661774536e-07,2.176171122822489e-05
1.5938066895021666e-06,4.5473922144715175e-07,3.119844741372878e-07,2.1846494314205813e-05
1.6240449687631825e-06,4.499991589381839e-07,3.116573229733771e-07,2.1916306493022115e-05
1.6547157414386462e-06,4.4562756340245077e-07,3.113414384076397e-07,2.197094054676344e-05
1.6858787904416616e-06,4.416340955444511e-07,3.1103570282865057e-07,2.2010183719490312e-05
1.7175466548428252e-06,4.38025880426171e-07,3.1074358719898146e-07,2.20338804161115e-05
1.7496900813062266e-06,4.348055734496793e-07,3.104694306656911e-07,2.204203134846175e-05
1.7822459529748402e-06,4.319706158256957e-07,3.102162081619351e-07,2.20348075052498e-05
1.815124600386451e-06,4.295131500603601e-07,3.0998621760911217e-07,2.2012468585995515e-05
1.848216784565055e-06,4.274210968638066e-07,3.0978360955787297e-07,2.1975272574985487e-05
1.8814010833196288e-06,4.2567986836764e-07,3.096166937157288e-07,2.1923438406871946e-05
1.914552974514133e-06,4.242735709403211e-07,3.094966690797912e-07,2.185719629519912e-05
1.947555835186834e-06,4.231867085853692e-07,3.0943369278940605e-07,2.177688891947345e-05
1.9803119069599027e-06,4.2240677447916567e-07,3.0943537618651857e-07,2.1682997398292003e-05
2e-07,4.219249042615558e-07,3.095089915582421e-07,2.1576058561159395e-05
2e-07,4.2173339331449495e-07,3.096636182748799e-07,2.1456583775790802e-05
2e-07,4.21822542618336e-07,3.099095162872975e-07,2.132509779800998e-05
2e-07,4.221798583554008e-07,3.102564452869975e-07,2.1182337974814708e-05
2e-07,4.227925448691701e-07,3.107129376947752e-07,2.1029483131657973e-05
2e-07,4.236505772348837e-07,3.1128574440675194e-07,2.0868188572685032e-05
2e-07,4.2474781172708884e-07,3.119793874499137e-07,2.0700386792600053e-05
2e-07,4.260819254622496e-07,3.1279632531727054e-07,2.0528028385618438e-05
2e-07,4.2765282301226786e-07,3.1373655924033005e-07,2.0352968010619536e-05
2e-07,4.294585271603153e-07,3.147964856886196e-07,2.017702658703535e-05
2e-07,4.314914533103872e-07,3.159682365387717e-07,2.0002048398767195e-05
2e-07,4.337376027538224e-07,3.172403157639113e-07,1.9829845795719225e-05
2e-07,4.361776327447814e-07,3.1859954166900783e-07,1.9662101837045608e-05
2e-07,4.3878838159799137e-07,3.200328166110101e-07,1.950029004236756e-05
2e-07,4.4154394455607547e-07,3.215274616707509e-07,1.934562554723291e-05
2e-07,4.4441586980885723e-07,3.230711142964072e-07,1.9199056811922154e-05
2e-07,4.4737326821316607e-07,3.246518541591487e-07,1.9061284046842324e-05
2e-07,4.50383841257977e-07,3.262581459845045e-07,1.8932776494224616e-05
2e-07,4.5341514956856787e-07,3.278787991372598e-07,1.8813775806432464e-05
2e-07,4.564350110367405e-07,3.2950264522923924e-07,1.8704299784383192e-05
2e-07,4.5941247154732254e-07,3.3111780657287607e-07,1.8604159435863265e-05
2e-07,4.6232034041957924e-07,3.327118848547781e-07,1.8512972345254428e-05
2e-07,4.6513700483377676e-07,3.3427373384395835e-07,1.843016085383156e-05
2e-07,4.6784615037776204e-07,3.357950604039978e-07,1.8354966832252703e-05
2e-07,4.7043562370383957e-07,3.372701375693894e-07,1.8286519323288783e-05
2e-07,4.7289636831771175e-07,3.3869485715984805e-07,1.8223942178917887e-05
2e-07,4.7522144762471247e-07,3.400664546102264e-07,1.816644026070069e-05
2e-07,4.7740538628979e-07,3.413830156063564e-07,1.8113314757161945e-05
2e-07,4.794449878918441e-07,3.4264256148629387e-07,1.806392014662871e-05
2e-07,4.813436970621311e-07,3.4384296213534987e-07,1.801760995455851e-05
2e-07,4.831189969577992e-07,3.44982301648782e-07,1.7973709472662726e-05
2e-07,4.848069975121104e-07,3.46058537638764e-07,1.7931516074102193e-05
2e-07,4.864585251015542e-07,3.470692631544552e-07,1.7890295311009827e-05
2e-07,4.881286153972883e-07,3.480119538757431e-07,1.7849264122195416e-05
2e-07,4.8986673608062e-07,3.48883708006653e-07,1.780758194164744e-05
2e-07,4.917126386963437e-07,3.4968032241617603e-07,1.7764378992535347e-05
2e-07,4.936978898347387e-07,3.503956367702083e-07,1.77188582794106e-05
2e-07,4.958499515965163e-07,3.51022158855403e-07,1.767044497439543e-05
2e-07,4.981952799062927e-07,3.5155209117049985e-07,1.7618868543398362e-05
2e-07,5.007608042266965e-07,3.5197745145521173e-07,1.756411154237829e-05
2e-07,5.035746976131343e-07,3.522907586985256e-07,1.7506278167579318e-05
2e-07,5.066657465844224e-07,3.5248687981822076e-07,1.744545840040506e-05
2e-07,5.100611965204611e-07,3.525633496586775e-07,1.738164200493447e-05
2e-07,5.137858990307545e-07,3.525186788990964e-07,1.7314715029674376e-05
2e-07,5.178639612328376e-07,3.523512112569164e-07,1.724449443653251e-05
2e-07,5.223198791545796e-07,3.5205933023793504e-07,1.7170746675313654e-05
2e-07,5.271772761472025e-07,3.516423264754429e-07,1.7093250463882216e-05
2e-07,5.324564827161221e-07,3.511014941146852e-07,1.7011964780735926e-05
2e-07,5.381716507641616e-07,3.504406491592812e-07,1.6927194894263653e-05
2e-07,5.443277697711787e-07,3.496654040640268e-07,1.683960393761756e-05
2e-07,5.509196551721688e-07,3.4878172347948553e-07,1.6750079938207126e-05
2e-07,5.579337371217871e-07,3.477951964282691e-07,1.66595706301056e-05
2e-07,5.653512552543265e-07,3.4671127866959055e-07,1.6568945055452458e-05
2e-07,5.731521184725901e-07,3.455350310470944e-07,1.647889842090297e-05
2e-07,5.813186620334755e-07,3.4427059633483106e-07,1.6389925381610283e-05
2e-07,5.898383630959222e-07,3.4292288201393854e-07,1.6302354676520552e-05
2e-07,5.987055516584885e-07,3.41501142921816e-07,1.6216391019833278e-05
1.974199084524427e-06,6.079219175264515e-07,3.400204784470792e-07,1.6132129886399356e-05
1.945218010001453e-06,6.174951191962175e-07,3.3849903704351676e-07,1.6049581671278592e-05
1.9168688301225708e-06,6.274351380400548e-07,3.369535013692727e-07,1.5968772677257175e-05
1.88923648975002e-06,6.377491698035246e-07,3.35396903891293e-07,1.5889873334927315e-05
1.8624136026872128e-06,6.48436385352469e-07,3.338395382952177e-07,1.5813194600859653e-05
1.8364892481849133e-06,6.594835966270431e-07,3.322902573882e-07,1.5739066215543414e-05
1.8115416841014552e-06,6.708633200673219e-07,3.3075699826537235e-07,1.566781939683117e-05
1.7876347947766064e-06,6.825346351175437e-07,3.292487109021088e-07,1.5599939817813942e-05
1.7648142155427548e-06,6.94445741347962e-07,3.2777773878337195e-07,1.5536184750824545e-05
1.7431038503069595e-06,7.065375766576261e-07,3.263584007841784e-07,1.5477526151643055e-05
1.7225054825455227e-06,7.187476604650474e-07,3.250031619806079e-07,1.54250109761028e-05
1.7030010366727976e-06,7.310140341554898e-07,3.237212631104787e-07,1.5379646940093994e-05
1.6845561764450629e-06,7.432789075168439e-07,3.2251987823068443e-07,1.5342325054824874e-05
1.6671267895339287e-06,7.554882650686707e-07,3.214062333232936e-07,1.5313766115994026e-05
1.6506686796507376e-06,7.675869946429402e-07,3.203906269747469e-07,1.529449180403218e-05
1.635147153646756e-06,7.795155968024253e-07,3.1948788319945414e-07,1.528482297801841e-05
1.620543137184582e-06,7.912114265332345e-07,3.18714772339196e-07,1.528489375863105e-05
1.6068534323713228e-06,8.026122440267777e-07,3.180860179641907e-07,1.5294660097233062e-05
1.5940845838812255e-06,8.136595965167785e-07,3.1761269416863434e-07,1.5313898428590062e-05
1.582242480366416e-06,8.242993762917995e-07,3.173031026711955e-07,1.5342201591777386e-05
1.5713216811537372e-06,8.344790770498915e-07,3.171648406284812e-07,1.5378972844620194e-05
1.5612994153050302e-06,8.441452185696965e-07,3.1720742810141346e-07,1.5423436741907706e-05
1.5521363041043796e-06,8.532439527481707e-07,3.1744338214429386e-07,1.5474692716699545e-05
1.543780562839828e-06,8.617248560827858e-07,3.17886106202622e-07,1.553179707055522e-05
1.5361720545139657e-06,8.695448369613989e-07,3.1854701425496896e-07,1.5593836048100563e-05
1.5292480817232325e-06,8.766689903070921e-07,3.1943431124622694e-07,1.5659965489729425e-05
1.522952161290231e-06,8.830691226530126e-07,3.205525277330544e-07,1.572941131872565e-05
1.5172392932252114e-06,8.887218224977098e-07,3.219026384942112e-07,1.5801450078785158e-05
1.5120741631096957e-06,8.93607050301385e-07,3.234839950000381e-07,1.5875404895181906e-05
1.507426845864687e-06,8.977078381854157e-07,3.252959935830761e-07,1.5950671972350283e-05
1.5032679107170466e-06,9.010100159069843e-07,3.273367932464736e-07,1.6026751782565696e-05
1.4995620307869573e-06,9.035011992339716e-07,3.296008792421761e-07,1.610324685596334e-05
1.4962638212083529e-06,9.051697666627504e-07,3.320778770063817e-07,1.6179826647687617e-05
1.493319003178139e-06,9.060042028245916e-07,3.3475278342309506e-07,1.6256187351534218e-05
1.4906672060733656e-06,9.059929619223078e-07,3.3760688202834287e-07,1.63320107792623e-05
1.4882435511304716e-06,9.051248438281044e-07,3.406185572037002e-07,1.6406936388975814e-05
1.4859819591497513e-06,9.033906982026676e-07,3.4376407931911164e-07,1.6480578438008553e-05
1.4838220756605644e-06,9.007878471219795e-07,3.4701809412423947e-07,1.6552556324522345e-05
1.4817158363397697e-06,8.973239460309286e-07,3.503532833417955e-07,1.6622478604330786e-05
1.47962766418628e-06,8.930150548549601e-07,3.537400620511721e-07,1.6689892769469323e-05
1.4775281120150731e-06,8.878809808739069e-07,3.5714738294454753e-07,1.675425591219461e-05
1.4753879631463384e-06,8.819448081678759e-07,3.605442809578711e-07,1.6814954686886513e-05
1.4731781520837583e-06,8.752353957682884e-07,3.6390104095768386e-07,1.6871366649279143e-05
1.4708726190009547e-06,8.677869957760191e-07,3.671895954889125e-07,1.6922916874121224e-05
1.468448802960676e-06,8.596362202337816e-07,3.703834395963981e-07,1.6969095271204066e-05
1.4658864873496025e-06,8.508212559724951e-07,3.7345752693011093e-07,1.7009478872174047e-05
1.463169343961682e-06,8.413833641219837e-07,3.7638811426967357e-07,1.7043780207274634e-05
1.460289720688804e-06,8.313660888795402e-07,3.7915220620409006e-07,1.7071859013358665e-05
1.4572521381150326e-06,8.208118267672749e-07,3.8172736131997657e-07,1.7093677142635753e-05
1.454071180322257e-06,8.09760012399696e-07,3.840924217714379e-07,1.7109232486340406e-05
1.4507644741843066e-06,7.982487777737022e-07,3.862281739007511e-07,1.711849243061588e-05
1.4473461301782366e-06,7.863175185117044e-07,3.881171548336017e-07,1.7121361961095385e-05
1.443826198925487e-06,7.740070124220774e-07,3.8974318253400657e-07,1.711771681699429e-05
1.4402154496250055e-06,7.613575962034091e-07,3.910911640226082e-07,1.7107457479947033e-05
1.4365291766122914e-06,7.484090608011351e-07,3.9214721066617433e-07,1.709052290020036e-05
1.4327860773520985e-06,7.352023107098916e-07,3.928999460820426e-07,1.7066861520052562e-05
1.4290035003918944e-06,7.217794427873617e-07,3.9334273011810313e-07,1.7036393720762167e-05
1.4251932153177328e-06,7.081830762109606e-07,3.934738509215398e-07,1.699902122989524e-05
1.4213599440043131e-06,6.944587666623719e-07,3.932939844316968e-07,1.6954737677275283e-05
1.4175008361253885e-06,6.806591704943198e-07,3.928041281231634e-07,1.6903787176313615e-05
1.413604753714597e-06,6.668445512349384e-07,3.9200618840711105e-07,1.684671426824259e-05
1.4096522696728487e-06,6.530785257234374e-07,3.909054773726843e-07,1.6784289765956927e-05
1.4056164647762902e-06,6.394229570192235e-07,3.8951327762396346e-07,1.6717471758111125e-05
1.401465197879833e-06,6.259351289274109e-07,3.878481090564798e-07,1.664742185412197e-05
1.397165273301704e-06,6.126666490585298e-07,3.859354427804771e-07,1.6575458896227587e-05
1.3926852618407438e-06,5.996626956017168e-07,3.8380576268296926e-07,1.6502951564366073e-05
1.3879950881757166e-06,5.869621978690703e-07,3.8149083296106477e-07,1.6431224072140233e-05
1.3830646452957194e-06,5.745982687471546e-07,3.7901981151865867e-07,1.6361491615707434e-05
1.377862411693354e-06,5.62597642821934e-07,3.764178048394099e-07,1.6294808722381726e-05
1.3723541928137355e-06,5.509809981428745e-07,3.737074528900963e-07,1.623202962747111e-05
1.366503455192128e-06,5.397649658243276e-07,3.7091218849116976e-07,1.6173803432165038e-05
1.3602731371830423e-06,5.289633958677214e-07,3.680585303311488e-07,1.6120602568755578e-05
1.3536271463939991e-06,5.185869546766615e-07,3.651748244338685e-07,1.6072745872494367e-05
1.3465322193781945e-06,5.086428494072004e-07,3.622877667021747e-07,1.6030403270945074e-05
1.3389621807999045e-06,4.99135240359203e-07,3.594204097973822e-07,1.599360915233297e-05
1.3309033547276093e-06,4.900651809849079e-07,3.5659199314548296e-07,1.5962296164708715e-05
1.3223588560938124e-06,4.814304988197505e-07,3.538179110601224e-07,1.5936324200749303e-05
1.313350009177002e-06,4.732270237777546e-07,3.5110987538536674e-07,1.591547337403224e-05
1.30391177423411e-06,4.654512495177495e-07,3.484766707918413e-07,1.5899412594505902e-05
1.2940825110520675e-06,4.581027717934821e-07,3.459254879576729e-07,1.588769670326347e-05
1.2838944012768936e-06,4.511850553945651e-07,3.434633735854764e-07,1.587980947852539e-05
1.2733693138095942e-06,4.4470665479079764e-07,3.4109742768111506e-07,1.587521918115794e-05
1.2625199887840584e-06,4.3868539050669535e-07,3.388343587766749e-07,1.5873419510912064e-05
1.251355380974285e-06,4.331514385785658e-07,3.366810090592691e-07,1.5873944911638045e-05
1.239886569639204e-06,4.281430499297639e-07,3.34644986600526e-07,1.5876369350843616e-05
1.2281284524803609e-06,4.236971705434721e-07,3.327351194367966e-07,1.5880322976837312e-05
1.2160993560627536e-06,4.1984315542847277e-07,3.30962290158003e-07,1.5885533842285632e-05
1.2038233255384036e-06,4.166030941076299e-07,3.293395044765732e-07,1.5891851005922446e-05
1.1913341440649159e-06,4.139964563991589e-07,3.2788109312473697e-07,1.5899211208540947e-05
1.1786784153871224e-06,4.1204402780294364e-07,3.266016236141736e-07,1.5907554908312217e-05
1.1659153840200692e-06,4.107671294979285e-07,3.2551415488685264e-07,1.591673229860931e-05
1.1531108220762231e-06,4.1018442924013856e-07,3.24628978141349e-07,1.592645977736206e-05
1.140328625085617e-06,4.103099559698692e-07,3.239539792440166e-07,1.59363531071431e-05
1.1276285582972445e-06,4.111512456788372e-07,3.2349523972264885e-07,1.5945983739187418e-05
1.115068758796888e-06,4.127080786504168e-07,3.232561569291452e-07,1.595490866260261e-05
1.1027038799236058e-06,4.149732489773929e-07,3.232355887832889e-07,1.5962701059238406e-05
1.090580535091568e-06,4.1793225087554005e-07,3.234271585695796e-07,1.5968980644861742e-05
1.0787377137347666e-06,4.2156121609561243e-07,3.238203381004015e-07,1.5973394114675412e-05
1.0672090649001984e-06,4.2582723465406907e-07,3.2440219378817346e-07,1.597558427885872e-05
1.0560206736323095e-06,4.306911450495895e-07,3.251590722343839e-07,1.597520284563399e-05
1.0451868080594928e-06,4.361089811281925e-07,3.260774210523944e-07,1.5971910550480454e-05
1.0347086187394491e-06,4.4203210266931686e-07,3.2714335351890714e-07,1.5965350658123835e-05
1.0245757730616543e-06,4.4840844609441273e-07,3.283421679269148e-07,1.5955193655902856e-05
1.0147685685588312e-06,4.551839748378951e-07,3.296583285630853e-07,1.594125072707052e-05
1.0052597979072156e-06,4.6230257017478896e-07,3.310751948755682e-07,1.5923525285133983e-05
9.960173038189702e-07,4.6970555513630206e-07,3.3257507527260014e-07,1.5902149637242634e-05
9.870068152681049e-07,4.77332474319104e-07,3.341403842462766e-07,1.5877265865067382e-05
9.781939762750769e-07,4.851222269751643e-07,3.3575457455559924e-07,1.5848925693124847e-05
9.695462709877701e-07,4.930131744885172e-07,3.374019774945597e-07,1.581706643044077e-05
9.610350023152944e-07,5.009430582457361e-07,3.390684507119927e-07,1.5781566198690553e-05
9.526362137073481e-07,5.088504131340004e-07,3.407431147228032e-07,1.5742315033351073e-05
9.443301707804071e-07,5.166775685547907e-07,3.4241822050874945e-07,1.569923835393478e-05
9.360992444473492e-07,5.2437264184202e-07,3.44086989492662e-07,1.565226600005367e-05
9.279254474489729e-07,5.318889309245543e-07,3.4574238565607577e-07,1.560129655929663e-05
9.197917822752131e-07,5.391840714130806e-07,3.473776827847927e-07,1.5546228595207274e-05
9.11688449492651e-07,5.462200586340907e-07,3.4898766149569256e-07,1.5487066314553132e-05
9.036169167389843e-07,5.529634409609438e-07,3.505688817930346e-07,1.5423986056193397e-05
8.955862142153267e-07,5.59386182480381e-07,3.5211820239187243e-07,1.5357283970058394e-05
8.876066674454761e-07,5.654657049566539e-07,3.536314148964939e-07,1.5287340291429293e-05
8.796894520007435e-07,5.711835888283761e-07,3.5510377493074995e-07,1.5214759007836869e-05
8.718520098028045e-07,5.76527380992481e-07,3.565315504418879e-07,1.5140554299965515e-05
8.64122713679566e-07,5.814967588201185e-07,3.5791374566383405e-07,1.5066145285619707e-05
8.565414257845979e-07,5.861085381290861e-07,3.592527970823574e-07,1.4993174865005848e-05
8.491573298558208e-07,5.903966448193838e-07,3.605531739319013e-07,1.4923315892060955e-05
8.420234649808286e-07,5.944075831843332e-07,3.6182065549031856e-07,1.4858126453419632e-05
8.351877045698582e-07,5.981928830604451e-07,3.630638067939862e-07,1.4798944607789105e-05
8.286852155506873e-07,6.018019877827962e-07,3.642939801342835e-07,1.4746817336372808e-05
8.225365971322928e-07,6.052801910785458e-07,3.65522613473332e-07,1.4702462656007275e-05
8.167501266123294e-07,6.086717881987241e-07,3.66759228534265e-07,1.4666266092113245e-05
8.113245329222385e-07,6.120245877153867e-07,3.680116665591054e-07,1.4638306404132534e-05
8.062509500905089e-07,6.153926268580635e-07,3.692868892409929e-07,1.4618393299372199e-05
8.015154072752353e-07,6.188356698892824e-07,3.7059076623137823e-07,1.460610660493377e-05
7.971038120077816e-07,6.224156333981933e-07,3.719270076476319e-07,1.4600841612864898e-05
7.930077095214966e-07,6.261916573487027e-07,3.73296295700157e-07,1.4601862343553681e-05
7.89224710667705e-07,6.302152489267542e-07,3.7469633026971606e-07,1.4608366739655078e-05
7.857528442471645e-07,6.345258253567929e-07,3.76123659388189e-07,1.4619579464097821e-05
7.825873944196443e-07,6.391481934542176e-07,3.77577496131502e-07,1.4634854086285959e-05
7.797254035850128e-07,6.440937270753567e-07,3.7906252895243843e-07,1.4653723099873803e-05
7.771731820162413e-07,6.49364301571704e-07,3.805877286607311e-07,1.4675877302604287e-05
7.749514636341262e-07,6.549568508586335e-07,3.8216402270397904e-07,1.4701122380951891e-05
7.730972665733333e-07,6.608659574395931e-07,3.838053294759292e-07,1.4729345074272988e-05
7.716627547477193e-07,6.670840764818203e-07,3.855312361092722e-07,1.4760487970259995e-05
7.707112354459163e-07,6.736033633278025e-07,3.873671827567826e-07,1.4794539750042036e-05
7.703102703651764e-07,6.804195084575368e-07,3.8934194993816035e-07,1.483153210372908e-05
7.705235437412559e-07,6.875325509821961e-07,3.9148422617167456e-07,1.4871503422966285e-05
7.714050528818413e-07,6.949429914144418e-07,3.9381943062398573e-07,1.4914418016943812e-05
7.729959407443369e-07,7.026469319730359e-07,3.9636785752906975e-07,1.4960085771067277e-05
7.753216165172905e-07,7.106337344751013e-07,3.991450444787834e-07,1.5008144120017057e-05
7.783895708689321e-07,7.188856123323639e-07,4.0216337686276496e-07,1.505812569530063e-05
7.821898901069994e-07,7.273776819121027e-07,4.054321468321411e-07,1.5109555179401438e-05
7.866984602192518e-07,7.36078391937297e-07,4.089552200482096e-07,1.5161985790294515e-05
7.918806881713006e-07,7.44949708736112e-07,4.1272877357381613e-07,1.5214960449039385e-05
7.976939791019262e-07,7.539480623255037e-07,4.1674117982377173e-07,1.5267959995449025e-05
8.040901190266598e-07,7.630285575549889e-07,4.2097444791219284e-07,1.532038920287466e-05
8.110186722332139e-07,7.721514325325474e-07,4.2540658195558883e-07,1.537160075087011e-05
8.184295115855738e-07,7.812874525826755e-07,4.300149226093121e-07,1.5420921792115736e-05
8.262730440987931e-07,7.904206067912647e-07,4.347792457246193e-07,1.546765684723595e-05
8.344994958531757e-07,7.995479042637471e-07,4.3968251837966527e-07,1.5511072351299927e-05
8.430600766285996e-07,8.086766277480708e-07,4.447089387262669e-07,1.555037722081415e-05
8.519097498984786e-07,8.178189972590782e-07,4.498420826173544e-07,1.558471915803925e-05
8.610068985001509e-07,8.269844996009653e-07,4.5506473441102323e-07,1.5613208033365234e-05
8.70309069158691e-07,8.361739207576322e-07,4.6035841565204363e-07,1.563496057537995e-05
8.797694519320525e-07,8.453799348690477e-07,4.657019559976777e-07,1.5649153369811733e-05
8.893361798847582e-07,8.545932684498089e-07,4.71070907236158e-07,1.5655059313089195e-05
8.989526832213185e-07,8.638088944201862e-07,4.764390738603356e-07,1.5652068372778348e-05
9.085574573282896e-07,8.730267343663342e-07,4.817808879151021e-07,1.5639720113746977e-05
9.180836136797182e-07,8.82246482796381e-07,4.870728320363871e-07,1.5617729658569754e-05
9.274612919012234e-07,8.914634951538873e-07,4.922944621865086e-07,1.5585969978421298e-05
9.366268098477909e-07,9.006694054703632e-07,4.974296747467173e-07,1.5544419328805032e-05
9.45534031932551e-07,9.098520079028738e-07,5.024679444214146e-07,1.549310606612766e-05
9.541559059948204e-07,9.189915967409279e-07,5.074053629263176e-07,1.54320968080386e-05
9.624753120795342e-07,9.28058750559611e-07,5.122447835156485e-07,1.5361545971892466e-05
9.704756588004672e-07,9.370161724346442e-07,5.16993694452124e-07,1.5281744501862627e-05
9.781360572883603e-07,9.45820483170614e-07,5.216596506223065e-07,1.5193112014156485e-05
9.854297501339744e-07,9.544218079919217e-07,5.262463519935903e-07,1.5096142094247222e-05
9.923247779764805e-07,9.627648085309208e-07,5.307528344504251e-07,1.4991334546300809e-05
9.987863824773859e-07,9.707930468804785e-07,5.351741122975761e-07,1.4879145223536939e-05
1.0047796931163828e-06,9.78453784802022e-07,5.395019586980902e-07,1.4759962236706165e-05
1.0102708787040082e-06,9.857007112482112e-07,5.437259613461836e-07,1.4634098911251174e-05
1.015226719183366e-06,9.924944748551288e-07,5.478337563274067e-07,1.4501792011986137e-05
1.0196146588560852e-06,9.988013056794507e-07,5.518104661610938e-07,1.4363204799481232e-05
1.0234040556042083e-06,1.0045907418185354e-06,5.556385444143901e-07,1.4218445348601287e-05
1.0265668135932465e-06,1.0098347486244915e-06,5.592983408496719e-07,1.406759771419956e-05
1.0290780748340383e-06,1.0145088296267558e-06,5.627700468135009e-07,1.3910745884608081e-05
1.0309230619520486e-06,1.018592835097118e-06,5.66036731598313e-07,1.3747978675373673e-05
1.0321155797141952e-06,1.0220695982110378e-06,5.690863487518647e-07,1.357939300114822e-05
1.0327164735834223e-06,1.0249225365430895e-06,5.719118912125255e-07,1.340511498550968e-05
1.0328324167925231e-06,1.0271356023960051e-06,5.745106630047005e-07,1.322533387545796e-05
1.0326000149574474e-06,1.02869697085783e-06,5.76883408287215e-07,1.3040339348664426e-05
1.0321714929008015e-06,1.0296025655481177e-06,5.790330633685574e-07,1.2850548358518316e-05
1.0317038272465669e-06,1.0298559014234886e-06,5.80962595303326e-07,1.2656501811734732e-05
1.0313477299310398e-06,1.0294668497641016e-06,5.826735898023601e-07,1.2458829970234007e-05
1.0312359761311658e-06,1.0284522061539015e-06,5.84168270879096e-07,1.2258195222819623e-05
1.0314747947409413e-06,1.0268369681170336e-06,5.854531711579868e-07,1.2055227137410741e-05
1.0321421928689355e-06,1.0246556577656795e-06,5.865404002698729e-07,1.1850484528109942e-05
1.0332918899981847e-06,1.021953101988115e-06,5.874459161805653e-07,1.164446361064438e-05
1.0349597102764343e-06,1.0187812803429242e-06,5.881857532558108e-07,1.1437629231932425e-05
1.0371703510206358e-06,1.0151910801375004e-06,5.887719516838018e-07,1.123043872413665e-05
1.039943148802971e-06,1.0112245005779171e-06,5.892110654414285e-07,1.1023355289548544e-05
1.0432947641846471e-06,1.0069129193009356e-06,5.895046491976054e-07,1.0816860536450025e-05
1.0472380522961256e-06,1.002279904799654e-06,5.896493540827027e-07,1.0611452429831567e-05
1.0517819685688663e-06,9.973450588186607e-07,5.896373949191369e-07,1.0407617635122204e-05
1.056937297919337e-06,9.921290561235871e-07,5.894588317038913e-07,1.020581562845054e-05
1.0627251379384505e-06,9.866606275454994e-07,5.89104514706648e-07,1.000651477436168e-05
1.0691822046669492e-06,9.809835757617658e-07,5.885668562535478e-07,9.810260514046497e-06
1.0763604151497949e-06,9.751597877452852e-07,5.878380694139199e-07,9.61770906102606e-06
1.0843199908311621e-06,9.69266037618712e-07,5.869088180827316e-07,9.429586480410718e-06
1.09311779337822e-06,9.633871588426607e-07,5.857686581160569e-07,9.246612611973424e-06
1.1027950914306006e-06,9.576094083120766e-07,5.844073092082525e-07,9.069445959202888e-06
1.11336849389786e-06,9.520144798144106e-07,5.828157822578436e-07,8.898671218573658e-06
1.1248285687976893e-06,9.466736251931065e-07,5.809864101991252e-07,8.734851936481975e-06
1.137147925504226e-06,9.416438023032942e-07,5.789123036228111e-07,8.57862334617267e-06
1.1502922112160705e-06,9.369672043305368e-07,5.765885295652546e-07,8.43073176401278e-06
1.1642265213225702e-06,9.32673891731445e-07,5.74014870146704e-07,8.291986046797364e-06
1.1789171836837388e-06,9.287870834361151e-07,5.711964791277853e-07,8.163167440031981e-06
1.194332850016659e-06,9.25329280530176e-07,5.681410741119904e-07,8.044933438093421e-06
1.2104457599210416e-06,9.223270720130207e-07,5.648558096646447e-07,7.937769181309238e-06
1.2272296968577285e-06,9.198135897015484e-07,5.613463595223965e-07,7.842067207388923e-06
1.2446537541088923e-06,9.178283447927393e-07,5.576177538568945e-07,7.758291362838534e-06
1.2626763971449492e-06,9.164157906712527e-07,5.536751933550748e-07,7.687051583055459e-06
1.2812413210958549e-06,9.156244875530257e-07,5.495239108909834e-07,7.629020877519968e-06
1.3002740118209756e-06,9.155054614904885e-07,5.451692118469932e-07,7.584800805402068e-06
1.3196818847479394e-06,9.161067376652964e-07,5.406171482703618e-07,7.554846543279158e-06
1.3393584289917411e-06,9.174653968284405e-07,5.358744269338851e-07,7.539446345199592e-06
1.3591866347435345e-06,9.196018739907787e-07,5.309473963593342e-07,7.538690941151527e-06
1.3790407929690542e-06,9.225188386950319e-07,5.25841545881226e-07,7.552439457736563e-06
1.3987902685644377e-06,9.262035947560132e-07,5.205624157397874e-07,7.580370405037973e-06
1.4183066001822803e-06,9.306331875863692e-07,5.151170735864618e-07,7.622163846422865e-06
1.437471743186492e-06,9.357819909767513e-07,5.095144818369925e-07,7.677697175775301e-06
1.4561854169103666e-06,9.416293843785106e-07,5.03764974176276e-07,7.747074668707744e-06
1.4743699846071075e-06,9.4816445977763e-07,4.978800652906045e-07,7.830496191076038e-06
1.4919688796263791e-06,9.553864450965146e-07,4.918720483598431e-07,7.928099680668107e-06
1.5089371283014127e-06,9.633023082250466e-07,4.857533152060247e-07,8.039854979109661e-06
1.5252303311085359e-06,9.719243420075189e-07,4.795369076464992e-07,8.165592476542662e-06
1.5407990378073369e-06,9.81266284086353e-07,4.732375413986476e-07,8.30521825502928e-06
1.5555892450882028e-06,9.913348507179643e-07,4.6687145831516936e-07,8.458950614712367e-06
1.569544858051423e-06,1.002120540620377e-06,4.604557528213528e-07,8.627355199417604e-06
1.5826078807359396e-06,1.0135939943067582e-06,4.5400772172610684e-07,8.811184187384292e-06
1.5947171324075925e-06,1.0257082220187357e-06,4.4754400224104425e-07,9.011162752989682e-06
1.6058084723461281e-06,1.03840433238534e-06,4.410798403009035e-07,9.227803595542157e-06
1.6158163115101322e-06,1.0516182818627085e-06,4.3462915895565813e-07,9.461272544014377e-06
1.624674680892397e-06,1.0652843180540929e-06,4.2820552309619616e-07,9.711324474082872e-06
1.632318536750143e-06,1.0793333675513738e-06,4.218227796301228e-07,9.977324974143266e-06
1.6386875751150504e-06,1.0936898055662072e-06,4.154941310986349e-07,1.0258329250650756e-05
1.6437305115554517e-06,1.108269230928992e-06,4.092308437399291e-07,1.0553150234090288e-05
1.6474051429030181e-06,1.1229772486638222e-06,4.030426284048254e-07,1.086039722802502e-05
1.6496752357199004e-06,1.1377102588109778e-06,3.969383851254626e-07,1.117851567110776e-05
1.6505084335445152e-06,1.1523583034779259e-06,3.909256475995635e-07,1.1505823413076207e-05
1.6498759001149812e-06,1.1668079059669093e-06,3.850104831211881e-07,1.1840522618774686e-05
1.6477525197175669e-06,1.1809452187430678e-06,3.7919846031663593e-07,1.2180704114035652e-05
1.6441174895086216e-06,1.1946601946675088e-06,3.734949646622832e-07,1.2524367256807113e-05
1.6389563727516209e-06,1.2078488859545372e-06,3.6790455362834366e-07,1.2869446194977787e-05
1.6322644890378847e-06,1.2204130219071557e-06,3.6243020541990843e-07,1.3213826394652084e-05
1.6240489129944338e-06,1.2322606401780637e-06,3.5707313313226085e-07,1.3555364510577495e-05
1.61432753913226e-06,1.2433096177227794e-06,3.5183311894921077e-07,1.3891928620197187e-05
1.6031266984811497e-06,1.2534907093324111e-06,3.467091707305229e-07,1.422143686577411e-05
1.5904787019750582e-06,1.2627457786869105e-06,3.417011705630761e-07,1.454186600370056e-05
1.5764203912006848e-06,1.2710225943081116e-06,3.368117710174216e-07,1.4851244456133591e-05
1.560996046245714e-06,1.2782713775288594e-06,3.320466212754405e-07,1.514766236855767e-05
1.5442643166930675e-06,1.28444434161329e-06,3.274131865942361e-07,1.5429314942920238e-05
1.5263003979436415e-06,1.2894971962223437e-06,3.2291967970057125e-07,1.5694580154374234e-05
1.5071897269226837e-06,1.29339248057737e-06,3.185751964239413e-07,1.5942100714433647e-05
1.4870225357706024e-06,1.2961022619801152e-06,3.1439097267843096e-07,1.61708116032352e-05
1.4658954622348283e-06,1.2976074904439528e-06,3.10381314602383e-07,1.637989222015187e-05
1.4439139700936125e-06,1.2978958031722291e-06,3.0656305187510644e-07,1.6568682058485945e-05
1.4211891199776159e-06,1.2969628316421469e-06,3.0295331406114376e-07,1.6736609659917006e-05
1.3978305362047637e-06,1.2948179637844636e-06,2.995670902370825e-07,1.688316845789955e-05
1.3739416310746003e-06,1.2914887867445185e-06,2.964165333635457e-07,1.700793222766865e-05
1.3496212817084835e-06,1.2870211977091509e-06,2.9351168124998414e-07,1.7110571206930616e-05
1.3249705137393101e-06,1.281477027375837e-06,2.908620600556157e-07,1.7190860120787758e-05
1.3000967748562112e-06,1.274929725322727e-06,2.8847900744880565e-07,1.7248691970886476e-05
1.2751108657475212e-06,1.267460217591285e-06,2.8637697365522136e-07,1.728408342988263e-05
1.2501214088280597e-06,1.2591545505256621e-06,2.845736404962632e-07,1.7297162014604922e-05
1.2252330826472408e-06,1.2500991406027696e-06,2.8308916853015483e-07,1.72881887894857e-05
1.2005506938590949e-06,1.2403736146388418e-06,2.819428459762336e-07,1.7257638650423078e-05
1.1761896130594754e-06,1.2300477526291736e-06,2.811491127898657e-07,1.7206235347596006e-05
1.152284641718795e-06,1.2191838376115775e-06,2.80717568101296e-07,1.7134872797662366e-05
1.1289858470868977e-06,1.2078410347064044e-06,2.806564143282955e-07,1.7044499709299972e-05
1.1064447977238785e-06,1.1960794127553013e-06,2.8097435429915226e-07,1.6936054082794566e-05
1.0848026450331655e-06,1.1839633362160618e-06,2.8167841439163424e-07,1.6810444221945856e-05
1.0641829883390027e-06,1.1715660453893013e-06,2.827706390689256e-07,1.6668539703315036e-05
1.0446875483941868e-06,1.1589740619822686e-06,2.8424724192970264e-07,1.651117750894344e-05
1.0263947873927288e-06,1.1462870811423373e-06,2.861007144898613e-07,1.6339230718431706e-05
1.0093625584115955e-06,1.133612580591387e-06,2.8832305033197146e-07,1.6153778115357235e-05
9.93634317851338e-07,1.1210578510136288e-06,2.9090636331046356e-07,1.5956305461547005e-05
9.792469019336455e-07,1.1087221903797514e-06,2.938401620386128e-07,1.5748761851870038e-05
9.66237289098653e-07,1.0966911252084937e-06,2.971098296979402e-07,1.553340332367214e-05
9.546451123261931e-07,1.0850349199197538e-06,3.006984012606354e-07,1.5312542527717987e-05
9.445091281230742e-07,1.0738112414617227e-06,3.045886346107155e-07,1.5088346700783729e-05
9.358619640711771e-07,1.063068699175672e-06,3.0876304569995177e-07,1.4862786843771008e-05
9.287289487873285e-07,1.052850629022705e-06,3.1320248136897213e-07,1.4637779829739057e-05
9.231292135573843e-07,1.0431984867056223e-06,3.1788502664438837e-07,1.4415389557259768e-05
9.190741145442557e-07,1.0341525914667783e-06,3.227859951570394e-07,1.4197880839386639e-05
9.165634789697372e-07,1.0257516351608962e-06,3.2787802115493214e-07,1.3987613523641391e-05
9.155844171705313e-07,1.0180321424173807e-06,3.3313091611922905e-07,1.3786903942636324e-05
9.161151026212817e-07,1.011026472242066e-06,3.385119289625419e-07,1.3597918508477808e-05
9.181314109859119e-07,1.004761207315648e-06,3.4398658992116327e-07,1.3422609400091991e-05
9.216132134057716e-07,9.992589353641745e-07,3.495203423880202e-07,1.3262685614251566e-05
9.265464659343284e-07,9.94541110991968e-07,3.5508080082677114e-07,1.3119582072806205e-05
9.329172059959896e-07,9.906267509100758e-07,3.6063985509731385e-07,1.2994397742786153e-05
9.406997920889104e-07,9.875258768538852e-07,3.6617474383192575e-07,1.2887834014231699e-05
9.49848151924588e-07,9.852333239073245e-07,3.7166704895909147e-07,1.2800195853463499e-05
9.602957555296032e-07,9.837291877392259e-07,3.7709989977039045e-07,1.273146693984068e-05
9.719612483118142e-07,9.829859580058217e-07,3.824553527308757e-07,1.2681409788198606e-05
9.847532676529655e-07,9.82977680782907e-07,3.8771359534629437e-07,1.2649643880666633e-05
9.98573700697882e-07,9.836863828537732e-07,3.9285479150335324e-07,1.263568613017484e-05
1.0133220799279543e-06,9.851038934302624e-07,3.978626323591748e-07,1.2638956910691873e-05
1.0288982058624265e-06,9.872296828742406e-07,4.027265707103828e-07,1.2658759974601006e-05
1.0452000254721425e-06,9.900656964082643e-07,4.074416166612628e-07,1.2694246903834704e-05
1.062120787867029e-06,9.936102662710407e-07,4.120069018503324e-07,1.274439414307751e-05
1.0795478998578222e-06,9.978528063785165e-07,4.1642324788770106e-07,1.2808024842086135e-05
1.097362434618333e-06,1.0027693930820116e-06,4.206905704384353e-07,1.288385975150826e-05
1.1154411489102874e-06,1.008320821193082e-06,4.248066553809426e-07,1.2970551279285467e-05
1.133661653095991e-06,1.0144540597127286e-06,4.2876722639883594e-07,1.306669510447004e-05
1.1519075576025182e-06,1.0211052305329675e-06,4.3256668779356443e-07,1.3170860029189414e-05
1.1700717790156704e-06,1.0282037389610006e-06,4.361988427679598e-07,1.328167806506551e-05
1.1880580441617883e-06,1.0356759862704807e-06,4.396569261282325e-07,1.3397991653325396e-05
1.205780316896908e-06,1.0434449482455936e-06,4.429331628656714e-07,1.3518987431535965e-05
1.2231596856950166e-06,1.051428605948507e-06,4.4601846026129933e-07,1.3644218421789646e-05
1.2401189855435422e-06,1.0595432652253892e-06,4.489024788159664e-07,1.3773492291551513e-05
1.2565776631126452e-06,1.0677115026981044e-06,4.51573873768746e-07,1.390671228580499e-05
1.272450545681237e-06,1.0758708138133209e-06,4.540211129297105e-07,1.4043753268431164e-05
1.2876516595275042e-06,1.0839794168419628e-06,4.562340666393297e-07,1.41843859919745e-05
1.3020994071492684e-06,1.092016880401753e-06,4.582047763774289e-07,1.4328271120410254e-05
1.3157179145747169e-06,1.0999787613462073e-06,4.59926442195197e-07,1.447506441068803e-05
1.328435453394465e-06,1.1078664215157548e-06,4.613923441161212e-07,1.4624570460240075e-05
1.3401844599259929e-06,1.115676143389621e-06,4.625972798763109e-07,1.4776810430249331e-05
1.3509033974964005e-06,1.1233927082342865e-06,4.635411025606778e-07,1.493198523997916e-05
1.36053998749196e-06,1.130989430405823e-06,4.6423006109661684e-07,1.5090401812129633e-05
1.3690556791229794e-06,1.1384318366404923e-06,4.646746193254254e-07,1.525239053431605e-05
1.376426604013136e-06,1.1456811437343572e-06,4.6488794195554456e-07,1.541823651162646e-05
1.3826389569388297e-06,1.152696320710916e-06,4.648867875820335e-07,1.5588144153523035e-05
1.387684245287685e-06,1.159434695245572e-06,4.6469316353461093e-07,1.576219531470033e-05
1.3915579682017331e-06,1.1658520153990982e-06,4.6433691865348595e-07,1.594027205624089e-05
1.3942601811412277e-06,1.1719043490856682e-06,4.638580566931315e-07,1.612200850472665e-05
1.3957951601505295e-06,1.1775524155162986e-06,4.633044404266141e-07,1.630682808831423e-05
1.3961697790315679e-06,1.1827662705504441e-06,4.6272421289444856e-07,1.6494015342696638e-05
1.3953948422780252e-06,1.1875277980096044e-06,4.621582653858779e-07,1.6682750449599954e-05
1.3934899856570645e-06,1.1918297047815822e-06,4.616376048472225e-07,1.6872110005922425e-05
1.3904858006119879e-06,1.1956717723261908e-06,4.611850807335897e-07,1.7061083032418846e-05
1.3864208273722414e-06,1.1990556494428759e-06,4.6081794673760395e-07,1.7248615756066756e-05
1.3813364130441449e-06,1.2019795545968658e-06,4.605486776083705e-07,1.743366372248848e-05
1.3752721275662674e-06,1.2044358979867779e-06,4.6038418719312075e-07,1.7615227882003852e-05
1.3682649494802686e-06,1.2064125418924092e-06,4.603253921922781e-07,1.779236074145875e-05
1.3603519426946279e-06,1.2078938622057431e-06,4.603676341464382e-07,1.796416216732794e-05
1.3515704680465734e-06,1.2088609565938923e-06,4.605009599538203e-07,1.8129775021413944e-05
1.3419547115536188e-06,1.2092931286005341e-06,4.6071030446068173e-07,1.828835913176969e-05
1.331533497710145e-06,1.2091690919353918e-06,4.6097646386460287e-07,1.8439048681172145e-05
1.3203312481929244e-06,1.2084674210676608e-06,4.6127847697056523e-07,1.8580934838354166e-05
1.3083703068696291e-06,1.207167454199137e-06,4.615979341563122e-07,1.8713102346382886e-05
1.295672939358435e-06,1.205249467179805e-06,4.6192405680522975e-07,1.8834684599516826e-05
1.2822630517385726e-06,1.2026955957185128e-06,4.6225529780940065e-07,1.894487463175587e-05
1.2681691416197687e-06,1.1994941627673806e-06,4.625950877768032e-07,1.9042888065667792e-05
1.2534285499987959e-06,1.1956434077183105e-06,4.629458066770165e-07,1.9127925892626388e-05
1.2380898994025814e-06,1.191149777500313e-06,4.633059251842439e-07,1.9199170455419396e-05
1.2222100408576176e-06,1.186023686649858e-06,4.636705838151385e-07,1.925580766668993e-05
1.205847400948742e-06,1.1802771060454763e-06,4.640331766429932e-07,1.9297059702968987e-05
1.1890578534003701e-06,1.1739222731140647e-06,4.6438563643702325e-07,1.9322230711788252e-05
1.1718942282055772e-06,1.1669707582655105e-06,4.6471762372883284e-07,1.9330748202334798e-05
1.1544060861714822e-06,1.159433766934705e-06,4.6501651695542535e-07,1.9322155782549725e-05
1.13663903604893e-06,1.1513224180887277e-06,4.6526870055260867e-07,1.929606940567135e-05
1.1186351616975203e-06,1.1426474863921773e-06,4.654613337463092e-07,1.925215458625888e-05
1.100435606051399e-06,1.1334217807318702e-06,4.655830919615872e-07,1.919013444161053e-05
1.0820850921224142e-06,1.1236654227437808e-06,4.6562341455485524e-07,1.910981259175648e-05
1.0636360075169905e-06,1.11340868350914e-06,4.655717619725421e-07,1.9011102186095592e-05
1.0451493159963238e-06,1.1026897401543363e-06,4.654176687704043e-07,1.8894039778930715e-05
1.0266913331572763e-06,1.091550244870274e-06,4.651512627725258e-07,1.875877258129687e-05
1.0083270278521686e-06,1.0800319315155802e-06,4.6476349412090216e-07,1.8605532846731462e-05
9.901137051842518e-07,1.068174786383768e-06,4.6424523196199417e-07,1.8434618379578243e-05
9.720995761964372e-07,1.0560160477112066e-06,4.6358620357499e-07,1.824638076039489e-05
9.543271553267799e-07,1.0435904565775472e-06,4.627751484922285e-07,1.804121260565936e-05
9.368396476602484e-07,1.030932216942903e-06,4.61801005777351e-07,1.7819548330224352e-05
9.19687062268182e-07,1.0180785181766682e-06,4.60654535174848e-07,1.7581907093237132e-05
9.029255379888227e-07,1.0050741976905036e-06,4.5932893623330917e-07,1.7328970022343575e-05
8.86610008382873e-07,9.919746772639792e-07,4.5781860105551614e-07,1.7061628549145293e-05
8.707895472013275e-07,9.788427720856024e-07,4.561178559315404e-07,1.6780955527216353e-05
8.555087290854531e-07,9.65740147908539e-07,4.5422073519983166e-07,1.6488125672431475e-05
8.408095071658481e-07,9.527213997312455e-07,4.521210296737779e-07,1.6184339938510005e-05
8.267307923651051e-07,9.398364158421369e-07,4.498128797018664e-07,1.5870792256969574e-05
8.133061267347279e-07,9.271381352075126e-07,4.4729215593574325e-07,1.554868504228222e-05
8.005610717557663e-07,9.146905439696631e-07,4.445585180801727e-07,1.5219246784818527e-05
7.885150226714711e-07,9.025739386690071e-07,4.4161753568341854e-07,1.4883702124598187e-05
7.771883881826859e-07,8.908837804261169e-07,4.384810339934621e-07,1.4543218848376376e-05
7.666080572920417e-07,8.797218504243622e-07,4.351660468607379e-07,1.4198900307651166e-05
7.568051294319144e-07,8.691862070326373e-07,4.31693710747999e-07,1.3851846885433078e-05
7.478081769075281e-07,8.593660777656759e-07,4.2808700198572347e-07,1.350326478567983e-05
7.39640656132787e-07,8.50340307256062e-07,4.243680076075122e-07,1.31545840306261e-05
7.323244458461091e-07,8.421762831113837e-07,4.2055730223325345e-07,1.2807507012744286e-05
7.258821269438649e-07,8.349275834693839e-07,4.166743301319418e-07,1.2463924875946381e-05
7.20332988621505e-07,8.286301615868407e-07,4.1273672883201883e-07,1.2125741668731042e-05
7.156873004091475e-07,8.232994024843312e-07,4.0875977545578816e-07,1.1794700298407594e-05
7.11945818558858e-07,8.189304062769394e-07,4.0475630249838906e-07,1.1472278771752879e-05
7.091030814898565e-07,8.155031298255568e-07,4.0073640546538437e-07,1.1159672080838737e-05
7.071482140902702e-07,8.129922340615024e-07,3.9670872923001657e-07,1.085782821902144e-05
7.060627352658374e-07,8.113774014919102e-07,3.926831882208785e-07,1.0567517569578472e-05
7.058182719436957e-07,8.106487683587421e-07,3.886719538781583e-07,1.0289463091993593e-05
7.063757876134583e-07,8.1080598813174e-07,3.8468918872811143e-07,1.002451855525728e-05
7.076863967880776e-07,8.118539082417998e-07,3.807523209937915e-07,9.773753553230141e-06
7.096927132681834e-07,8.137981032667305e-07,3.768833849547061e-07,9.53834060125195e-06
7.123311359496406e-07,8.166414046537574e-07,3.7310776857613883e-07,9.3193521206987e-06
7.15536692300041e-07,8.203825423310677e-07,3.694516803764793e-07,9.11762665791958e-06
7.192496208619883e-07,8.250167320311567e-07,3.6594027349273796e-07,8.933775459371188e-06
7.234185285650902e-07,8.305347714673574e-07,3.6259720401909705e-07,8.768372244175735e-06
7.27996699771258e-07,8.369185333679991e-07,3.5944567038387006e-07,8.622250465463705e-06
7.32936192783807e-07,8.441357794055718e-07,3.5650849728524365e-07,8.496671170000909e-06
7.381847681737112e-07,8.521397554756675e-07,3.538062879796543e-07,8.39324324071324e-06
7.436851014775623e-07,8.608762602577818e-07,3.513558484839389e-07,8.313717802440804e-06
7.493762745406705e-07,8.702935565252787e-07,3.491693034269586e-07,8.259790513330958e-06
7.551979564885678e-07,8.803468488423309e-07,3.472539324112725e-07,8.232942591163197e-06
7.610932225976628e-07,8.909961965517984e-07,3.4561444432292423e-07,8.234326541540297e-06
7.670072815595255e-07,9.02204057737373e-07,3.4425716791810174e-07,8.26470014212771e-06
7.728864550000531e-07,9.139346852400791e-07,3.431924979695972e-07,8.324395956999019e-06
7.786821996860669e-07,9.261522080571352e-07,3.424329457369559e-07,8.413321392888567e-06
7.843592716897509e-07,9.388166662022891e-07,3.419889627145154e-07,8.530982799469641e-06
7.899041469181359e-07,9.518800429069826e-07,3.418664187950344e-07,8.676510910992268e-06
7.953305232671391e-07,9.65283405280203e-07,3.420662640754035e-07,8.848693574905611e-06
8.006800137618619e-07,9.789558823988252e-07,3.425857645829241e-07,9.046036948677022e-06
8.060169097269985e-07,9.928165977682138e-07,3.434208610919903e-07,9.266836382608314e-06
8.114181686243612e-07,1.0067796619360676e-06,3.4456766416549744e-07,9.509233209214335e-06
8.169620520457011e-07,1.0207608985958812e-06,3.460218737064053e-07,9.771268077406856e-06
8.227176398224895e-07,1.0346832668056294e-06,3.477771301062465e-07,1.0050949660468828e-05
8.287375412003899e-07,1.0484765126144884e-06,3.498241001419701e-07,1.0346339434929202e-05
8.35057797339918e-07,1.0620711590900007e-06,3.5215153155880646e-07,1.0655642889681619e-05
8.417047952617116e-07,1.0753944403062143e-06,3.547480707789175e-07,1.0977285980719667e-05
8.487040203531935e-07,1.088372853565551e-06,3.576026508180922e-07,1.1309938627465875e-05
8.560860548826414e-07,1.100935678531732e-06,3.607037856916671e-07,1.1652476941786332e-05
8.638869764992913e-07,1.1130138170167592e-06,3.6403881471947546e-07,1.2003907191857995e-05
8.721435252980697e-07,1.1245378793668314e-06,3.6759319710783405e-07,1.2363248917192756e-05
8.808873582235761e-07,1.1354404308619137e-06,3.713504591582434e-07,1.2729400407849534e-05
8.901425442013226e-07,1.1456598796774956e-06,3.7529196946271e-07,1.3101076310301848e-05
8.999277022603081e-07,1.1551418701690915e-06,3.7939562132014867e-07,1.3476839999903485e-05
9.102599873686764e-07,1.1638380326696158e-06,3.8363606838062796e-07,1.3855146707954543e-05
9.211551100289257e-07,1.1717042181410674e-06,3.8798814711012823e-07,1.4234359621535565e-05
9.326213910609823e-07,1.1786999227120123e-06,3.924307095861111e-07,1.4612773684438212e-05
9.446533985041529e-07,1.1847906237306551e-06,3.969472949639609e-07,1.4988658373755261e-05
9.572322519017135e-07,1.1899535132525048e-06,4.0152343032570726e-07,1.5360293628035513e-05
9.703324600471845e-07,1.1941809578331363e-06,4.061443869443325e-07,1.5725969611754964e-05
9.83928265952654e-07,1.1974758297242859e-06,4.1079544106656343e-07,1.608395714247664e-05
9.97993194996752e-07,1.1998444725151029e-06,4.1546216230434534e-07,1.6432490758998372e-05
1.0124929424574428e-06,1.201297012033951e-06,4.201294849803721e-07,1.6769787045487632e-05
1.0273788170281209e-06,1.2018537714844808e-06,4.2478133663326814e-07,1.7094088109927004e-05
1.04258864155257e-06,1.2015489264133458e-06,4.294010197977912e-07,1.7403705935461043e-05
1.0580531212329442e-06,1.2004259554842718e-06,4.3397064334448567e-07,1.7697050921230398e-05
1.0737003398048099e-06,1.1985282575184385e-06,4.3847018442254753e-07,1.7972643474344856e-05
1.0894555459462198e-06,1.1958946128181728e-06,4.4287861986692533e-07,1.8229112930545894e-05
1.1052392310011678e-06,1.1925639432601835e-06,4.471769609397213e-07,1.846521727980629e-05
1.1209665799269907e-06,1.188582119770087e-06,4.513496124542018e-07,1.867991243378069e-05
1.1365488551552744e-06,1.1840015300693166e-06,4.5538219822563494e-07,1.887242238595121e-05
1.1518973029941351e-06,1.1788738505244447e-06,4.5925907206745846e-07,1.9042246666752482e-05
1.1669295684891248e-06,1.1732435493039944e-06,4.629634633811698e-07,1.9189102087500975e-05
1.1815745957597076e-06,1.167147252209735e-06,4.6647868917073896e-07,1.9312849213638108e-05
1.195773741008197e-06,1.1606189119167294e-06,4.697884920273962e-07,1.9413523013451028e-05
1.2094824623911293e-06,1.153695892369073e-06,4.7287694404538843e-07,1.9491538713007173e-05
1.2226744247862926e-06,1.1464195909734082e-06,4.757285825377746e-07,1.9547896116537905e-05
1.2353410438930668e-06,1.138830475109687e-06,4.783287448552538e-07,1.9584148442046508e-05
1.2474824942304893e-06,1.1309627764872268e-06,4.806634515285861e-07,1.9602175853584383e-05
1.2591006006952313e-06,1.122841862016892e-06,4.82718991077188e-07,1.9603952747066145e-05
1.2702034991007984e-06,1.1144846766813459e-06,4.844827273474468e-07,1.959140188651604e-05
1.28081562346646e-06,1.1059036691685e-06,4.859442270336797e-07,1.956637915213033e-05
