1.3008895059478985e-06,1.1941685280626437e-06,3.532353775539206e-07,2.151609018638964e-05
1.3069887044647226e-06,1.180231593324007e-06,3.498904003299012e-07,2.1976156664984728e-05
1.3132633410649658e-06,1.1652375670106257e-06,3.4655208988715356e-07,2.241862444336273e-05
1.3196788617819968e-06,1.1492613094232032e-06,3.432290222935048e-07,2.2842645118359807e-05
1.3261981181620635e-06,1.1323827901833678e-06,3.399301229393661e-07,2.324769924607184e-05
1.332790071149656e-06,1.1146843293326016e-06,3.366637452384072e-07,2.363341662295957e-05
1.3394316483242606e-06,1.0962492668442765e-06,3.334370518152159e-07,2.399941528289448e-05
1.3461039056798759e-06,1.077164164457267e-06,3.302563593515263e-07,2.4345201253212285e-05
1.3527880328540457e-06,1.0575215004657765e-06,3.27129667751343e-07,2.4670166571613625e-05
1.3594653034293207e-06,1.0374184317308142e-06,3.2406924642607587e-07,2.497367607203909e-05
1.3661197915404594e-06,1.0169526215779436e-06,3.2109147058093576e-07,2.525519693098483e-05
1.3727404977798768e-06,9.962193921732294e-07,3.182156152179102e-07,2.5514423426216822e-05
1.3793221649564101e-06,9.753111835044408e-07,3.154629112914544e-07,2.575135325841357e-05
1.3858641980461708e-06,9.543164634220562e-07,3.1285452081276076e-07,2.596630559312256e-05
1.3923657487095301e-06,9.333167981564188e-07,3.1040988889751e-07,2.6159895878253782e-05
1.3988184367285286e-06,9.123842146235691e-07,3.081466558841511e-07,2.633294269947677e-05
1.405202257250358e-06,8.915823860923869e-07,3.0608088047733484e-07,2.64862938187508e-05
1.4114884782327963e-06,8.709746312797201e-07,3.042288129351239e-07,2.662069423833233e-05
1.4176467628521975e-06,8.50635345463298e-07,3.0260970605632136e-07,2.673682413658017e-05
1.4236507969832162e-06,8.306553097476526e-07,3.012448257862861e-07,2.68354189112939e-05
1.4294816140578888e-06,8.111376031726056e-07,3.0015277571620866e-07,2.691729701554e-05
1.4351313441188214e-06,7.921903031434845e-07,2.993465117296513e-07,2.698327980301488e-05
1.4406070766784946e-06,7.73921555079908e-07,2.9883364771310945e-07,2.7034107639652812e-05
1.4459310957808397e-06,7.564369067161329e-07,2.986174151225833e-07,2.7070408748846246e-05
1.451136127923016e-06,7.398360887726695e-07,2.986969480766655e-07,2.7092700712891245e-05
1.4562596837508432e-06,7.242083704041757e-07,2.9906813057440235e-07,2.7101391720316225e-05
1.4613403837972185e-06,7.096281484847105e-07,2.997259424268016e-07,2.7096775518180465e-05
1.4664141815585654e-06,6.961528395189749e-07,3.006675866391367e-07,2.7079038478181087e-05
1.4715083858684411e-06,6.83824605686472e-07,3.018938936606634e-07,2.7048283128666056e-05
1.4766343601889748e-06,6.726735116325202e-07,3.0340752123934514e-07,2.700454028885785e-05
1.4817828025176926e-06,6.6271787841709e-07,3.0521221791379964e-07,2.694775116969687e-05
1.4869249641939096e-06,6.539633350070889e-07,3.073168827422676e-07,2.6877743893643235e-05
1.4920178169812982e-06,6.464036238382535e-07,3.097384728265672e-07,2.6794238055658835e-05
1.4970096522521156e-06,6.400218790366272e-07,3.124971514033444e-07,2.6696873318258604e-05
1.5018464711270891e-06,6.347910036007089e-07,3.156082862355597e-07,2.6585241135713966e-05
1.5064805867720366e-06,6.306745406920168e-07,3.190786333817148e-07,2.645892332912196e-05
1.5108794240916633e-06,6.2762980080094e-07,3.229066283746043e-07,2.6317530314992744e-05
1.5150299767309911e-06,6.256117137486955e-07,3.2708469700484416e-07,2.616070887032756e-05
1.5189360160611998e-06,6.245739245546707e-07,3.316025246399005e-07,2.598813547944167e-05
1.5226079577932269e-06,6.244674793950044e-07,3.3644823527815236e-07,2.579953695710867e-05
1.5260499267633725e-06,6.252399314463929e-07,3.41606438763395e-07,2.55947400705454e-05
1.5292528172299298e-06,6.268358169169652e-07,3.4705632836985604e-07,2.5373731552757464e-05
1.5321959854397537e-06,6.291984540793286e-07,3.527716473915846e-07,2.513670397724036e-05
1.5348523009451362e-06,6.322719708002552e-07,3.5872139881757077e-07,2.488406842769777e-05
1.5371922686959187e-06,6.360019672280639e-07,3.6487042578837773e-07,2.4616448362398488e-05
1.5391855919875175e-06,6.403350610338949e-07,3.711803284892555e-07,2.433466362919833e-05
1.5408014431600303e-06,6.452180687427859e-07,3.776114463426381e-07,2.403968520374164e-05
1.5420089459048044e-06,6.505967924212214e-07,3.841259858121397e-07,2.37325583803082e-05
1.5427754516428091e-06,6.564141072656832e-07,3.906904980607758e-07,2.341431792248625e-05
1.543063172266911e-06,6.626079172219706e-07,3.972749169515953e-07,2.3085932499370723e-05
1.5428295866067475e-06,6.691114034674145e-07,4.038496995092426e-07,2.274830304669953e-05
1.5420345290555059e-06,6.758567271823789e-07,4.10385582096298e-07,2.2402283533463604e-05
1.540653092598714e-06,6.827785184614859e-07,4.168554700589653e-07,2.2048695033754667e-05
1.5386876532299696e-06,6.89813335613788e-07,4.2323473464744025e-07,2.168834591154256e-05
1.5361684974064231e-06,6.968972819126318e-07,4.2949921801669846e-07,2.132204750304397e-05
1.5331417472958001e-06,7.039657665545999e-07,4.3562330235849753e-07,2.0950607697133447e-05
1.5296555713427826e-06,7.109565982090839e-07,4.415801887820304e-07,2.0574824825085426e-05
1.5257553875956949e-06,7.17815505196587e-07,4.4734349155522527e-07,2.01954981105724e-05
1.5214876257480748e-06,7.245003235888853e-07,4.528890823814181e-07,1.981343597271271e-05
1.5169029921903532e-06,7.309804300119584e-07,4.581976754187767e-07,1.9429462184928824e-05
1.512053266736841e-06,7.372334905857024e-07,4.632559464706452e-07,1.9044436788965063e-05
1.5069862987638717e-06,7.432427489201524e-07,4.68053954616764e-07,1.8659269522932336e-05
1.5017491705457143e-06,7.489935908779727e-07,4.725815329687311e-07,1.8274893470338487e-05
1.4964002348052725e-06,7.544693769877419e-07,4.7682677233030474e-07,1.7892201810676745e-05
1.491018488762434e-06,7.596499566321731e-07,4.807767454794567e-07,1.7511982924284902e-05
1.48569985782829e-06,7.645126513039731e-07,4.844197773739599e-07,1.7134905080945976e-05
1.4805412637826558e-06,7.690342425140119e-07,4.877472642379297e-07,1.6761578975816262e-05
1.475625011796617e-06,7.731942355813002e-07,4.907530336297763e-07,1.6392650183456192e-05
1.4710152758356952e-06,7.769770275681294e-07,4.934318742752471e-07,1.6028822865218177e-05
1.4667636896276046e-06,7.803710829478689e-07,4.957789198304412e-07,1.5670788455793257e-05
1.4629124120341394e-06,7.833666601558229e-07,4.977891543518365e-07,1.531913430079667e-05
1.4594896321965263e-06,7.859544415587331e-07,4.99458382122588e-07,1.4974314689031421e-05
1.4565032645451785e-06,7.881268838835509e-07,5.007871693022138e-07,1.463674440106339e-05
1.4539395202816922e-06,7.89880117032593e-07,5.017837811623452e-07,1.4307000802607464e-05
1.451765712741183e-06,7.912130176567484e-07,5.024618596354177e-07,1.3985958602873398e-05
1.4499350658304344e-06,7.92125762700701e-07,5.028355148955175e-07,1.3674725276395715e-05
1.4483935341748266e-06,7.926203143667306e-07,5.029164470068945e-07,1.3374490899116274e-05
1.447087970386053e-06,7.927005918358685e-07,5.027139166489994e-07,1.3086417963399664e-05
1.44597494557965e-06,7.923728427537332e-07,5.02236332932389e-07,1.2811550643711902e-05
1.4450285654249853e-06,7.9164953328227e-07,5.014928305554446e-07,1.255072506025506e-05
1.4442437539481156e-06,7.90554213596709e-07,5.004946282935828e-07,1.2304517648342156e-05
1.4436319844372522e-06,7.891224533767749e-07,4.992559615633543e-07,1.207324714510654e-05
1.4432104558663863e-06,7.873996867342499e-07,4.977926159598632e-07,1.1857002448700453e-05
1.4429949144671738e-06,7.85439215091098e-07,4.961198387121239e-07,1.1655681230672714e-05
1.443003453915226e-06,7.832998671071859e-07,4.942532375941352e-07,1.1469047673616804e-05
1.4432616362259242e-06,7.810421954504398e-07,4.922107752311325e-07,1.1296796871717645e-05
1.4437986963183628e-06,7.787255643624806e-07,4.900128350757037e-07,1.1138605034416047e-05
1.4446372840471984e-06,7.764066527374993e-07,4.876810125873468e-07,1.0994168450518588e-05
1.4457837071097419e-06,7.741368514307366e-07,4.852369519151597e-07,1.086324410543777e-05
1.4472238485428469e-06,7.719595195192488e-07,4.827016395669818e-07,1.0745699216924672e-05
1.448926026670066e-06,7.699105370516102e-07,4.800946600127582e-07,1.0641559313562508e-05
1.45084789633823e-06,7.680221192217849e-07,4.774328514743422e-07,1.0551005463493449e-05
1.4529436154802495e-06,7.663268787546302e-07,4.747292546972083e-07,1.0474286463577819e-05
1.4551682321687129e-06,7.648596125363382e-07,4.7199338740337746e-07,1.0411601297428536e-05
1.4574763332948812e-06,7.636559140544829e-07,4.692331896638684e-07,1.0363029792455936e-05
1.4598162925266669e-06,7.627496902571419e-07,4.6645743556939934e-07,1.0328520877367463e-05
1.462126940590139e-06,7.621713280391866e-07,4.636756086435894e-07,1.03079022197513e-05
1.4643407456003863e-06,7.619440738765843e-07,4.6089538641868743e-07,1.0300881834069787e-05
1.4663909659205186e-06,7.620788649697337e-07,4.581214989663543e-07,1.0307034171675661e-05
1.4682173253679374e-06,7.625722260385484e-07,4.553574450507515e-07,1.0325778245059764e-05
1.469767148467469e-06,7.634078207396379e-07,4.5260865646866245e-07,1.0356367010544208e-05
1.4709938445263269e-06,7.645588714317903e-07,4.498851995888337e-07,1.0397898957065069e-05
1.4718557205451325e-06,7.659911553923045e-07,4.472017894391232e-07,1.044933933144626e-05
1.4723150882511488e-06,7.676671665158527e-07,4.4457466483360043e-07,1.050954332728736e-05
1.4723362488053052e-06,7.695497356322588e-07,4.4201850726026365e-07,1.0577288838689813e-05
1.4718832490462503e-06,7.71603200979388e-07,4.3954559242610685e-07,1.0651317261050524e-05
1.470919116054128e-06,7.737922245104434e-07,4.3716562010227053e-07,1.0730366103891212e-05
1.4694061862860969e-06,7.760795581019245e-07,4.3488536666996544e-07,1.0813196375126082e-05
1.4673084555167866e-06,7.784248464257411e-07,4.3270899897881315e-07,1.0898651396301094e-05
1.4645975303565133e-06,7.807865603062247e-07,4.3063904075723725e-07,1.0985747318770027e-05
1.4612589166534583e-06,7.831260168673756e-07,4.2867770408878714e-07,1.1073730797904952e-05
1.4572927855017344e-06,7.85409232858543e-07,4.2682851587059886e-07,1.1162061649042031e-05
1.452707594367303e-06,7.876054608166309e-07,4.250969372226388e-07,1.1250328664348462e-05
1.4475123488132558e-06,7.896862002055447e-07,4.2348877882317203e-07,1.133814437289758e-05
1.4417134982453977e-06,7.916274957875389e-07,4.2200836909608796e-07,1.1425106329110476e-05
1.435315533580728e-06,7.934145848384888e-07,4.206592980657111e-07,1.1510857355170565e-05
1.4283234667624732e-06,7.950458190658391e-07,4.194466285034989e-07,1.1595186235779118e-05
1.4207465497707047e-06,7.965331988713587e-07,4.1837716483237536e-07,1.1678111418351468e-05
1.4125994336984903e-06,7.979005759223031e-07,4.174575735244733e-07,1.1759925904354691e-05
1.4038985254120359e-06,7.991828355352344e-07,4.1669340852669603e-07,1.1841217836248272e-05
1.3946570775236972e-06,8.004251837407066e-07,4.160901560019782e-07,1.1922860266671665e-05
1.3848832171525835e-06,8.016780062979928e-07,4.1565372885683753e-07,1.2005906880874525e-05
1.3745811484780298e-06,8.029875846483119e-07,4.15388477203054e-07,1.2091399774656853e-05
1.3637536177709492e-06,8.043892576908023e-07,4.152943570663104e-07,1.2180193408757316e-05
1.3524040385241935e-06,8.059061801776231e-07,4.1536593201477115e-07,1.2272877821927314e-05
1.3405364318927374e-06,8.075495533600501e-07,4.155932966772258e-07,1.2369806204924342e-05
1.3281534607541109e-06,8.093180447046638e-07,4.1596292343631243e-07,1.2471151480754296e-05
1.315256408412992e-06,8.111987203610355e-07,4.164576989506804e-07,1.2576920535069017e-05
1.301848918152505e-06,8.131693038990156e-07,4.1705748253320716e-07,1.2686973494024216e-05
1.287941034441788e-06,8.152002294744759e-07,4.177418201751187e-07,1.2801122990728408e-05
1.2735488880100503e-06,8.172584645915296e-07,4.184945202610775e-07,1.2919226543974595e-05
1.2586910735681474e-06,8.193140467422619e-07,4.193062433717981e-07,1.3041133353460816e-05
1.2433887288476392e-06,8.213467246423325e-07,4.2017168639749325e-07,1.3166562924158133e-05
1.2276706154008271e-06,8.233507291104652e-07,4.2108424747942743e-07,1.3295104079513185e-05
1.2115745799249263e-06,8.253363278633217e-07,4.220333813252572e-07,1.3426368634123352e-05
1.1951412484589478e-06,8.273262466382005e-07,4.230052888636875e-07,1.3560245254767999e-05
1.1784071378802377e-06,8.293471408265191e-07,4.239844683261199e-07,1.3697200000409285e-05
1.1614035883215842e-06,8.314201438175473e-07,4.2495412653273935e-07,1.3838455413791465e-05
1.1441592094468841e-06,8.335560304238017e-07,4.258956799691739e-07,1.3985886895617249e-05
1.1267015064553377e-06,8.357561966102909e-07,4.2678949059363703e-07,1.4141721668339093e-05
1.1090586049329122e-06,8.380142848723838e-07,4.276170348383108e-07,1.4308232352157714e-05
1.0912622630798454e-06,8.403152656874963e-07,4.28362161941859e-07,1.4487512775729391e-05
1.0733488173599724e-06,8.42636386124212e-07,4.2901126216276117e-07,1.4681344135063198e-05
1.0553574804894038e-06,8.449537090349122e-07,4.295544196485606e-07,1.4891128187357285e-05
1.0373286673540184e-06,8.472498491030172e-07,4.2998673193384287e-07,1.511786072188833e-05
1.0193021944591586e-06,8.495169198273244e-07,4.3030695256409424e-07,1.5362133078277066e-05
1.0013159653094623e-06,8.51755655015924e-07,4.305141055096689e-07,1.5624135329984572e-05
9.834077798066158e-07,8.539746834183902e-07,4.30605378966883e-07,1.5903637494737005e-05
9.656202944269584e-07,8.56190327877163e-07,4.305762453815872e-07,1.619996917242578e-05
9.480063083600166e-07,8.584253986575288e-07,4.304210753924704e-07,1.6512032118398748e-05
9.306308322050737e-07,8.607055421326937e-07,4.301331465622838e-07,1.6838361458718974e-05
9.135672471505281e-07,8.630532279759606e-07,4.297045678353312e-07,1.71772500217149e-05
8.968881927032485e-07,8.654840732798733e-07,4.2912693017426577e-07,1.7526933870190252e-05
8.806565394120516e-07,8.68008812098983e-07,4.28392368024356e-07,1.7885782382479467e-05
8.649223061808607e-07,8.70636058789912e-07,4.2749389634639457e-07,1.8252412900937746e-05
8.497264944242214e-07,8.733706344977684e-07,4.2642564445055256e-07,1.8625710002146626e-05
8.351079467968659e-07,8.762100248101198e-07,4.251843538696438e-07,1.900480288960272e-05
8.211086291296433e-07,8.791450502318949e-07,4.237706963541546e-07,1.9389026290653252e-05
8.077758715062278e-07,8.821653959367306e-07,4.221892481246463e-07,1.9777832879179972e-05
7.951621906962128e-07,8.852645912867519e-07,4.20448439300478e-07,2.0170670204977367e-05
7.833231231383601e-07,8.884417912219755e-07,4.1856031822907207e-07,2.056688267831296e-05
7.723145628370066e-07,8.917026055011894e-07,4.1653990519063003e-07,2.09656488938845e-05
7.621914881723056e-07,8.950591877220041e-07,4.1440549619594173e-07,2.136592538357936e-05
7.530066246164133e-07,8.985273661980526e-07,4.121798869349558e-07,2.1766408232101858e-05
7.448062160607561e-07,9.021208008398858e-07,4.0989164599395384e-07,2.2165535083188602e-05
7.37625680122449e-07,9.058445354419088e-07,4.0757507888164074e-07,2.2561509132206405e-05
7.31489026362082e-07,9.096908643114063e-07,4.0526732874371464e-07,2.295233288641869e-05
7.264084898084877e-07,9.136392522107899e-07,4.030036882326102e-07,2.333586358788772e-05
7.223821183045863e-07,9.176599248843357e-07,4.0081388418828686e-07,2.3709881717218368e-05
7.19393364149184e-07,9.217188273831279e-07,3.9872039643288214e-07,2.407214524948827e-05
7.174140419385289e-07,9.25780754507396e-07,3.9673834886814814e-07,2.442043245356537e-05
7.164123588943592e-07,9.298100254255828e-07,3.948771779933136e-07,2.4752585994698677e-05
7.163710204139331e-07,9.337710860121711e-07,3.931439823380779e-07,2.5066536204186355e-05
7.173070025313812e-07,9.376303782080601e-07,3.9154705055756704e-07,2.536030602583724e-05
7.192715715266648e-07,9.413588514243336e-07,3.900978355282716e-07,2.5632027890323397e-05
7.223270064085636e-07,9.449330009564085e-07,3.888098420631438e-07,2.587995443896781e-05
7.26520828204484e-07,9.483329107923941e-07,3.876958275005648e-07,2.6102445449782944e-05
7.318740693811949e-07,9.515403962806969e-07,3.867670846165179e-07,2.6297976118802672e-05
7.383829295902236e-07,9.545401273734478e-07,3.860343182768399e-07,2.646520751456411e-05
7.460262985024157e-07,9.57320360712095e-07,3.855073512940583e-07,2.6603085418255042e-05
7.547730214059784e-07,9.598700979712115e-07,3.8519442552058744e-07,2.671088100614866e-05
7.645862776863487e-07,9.621748866324484e-07,3.851020648014141e-07,2.6788126990644707e-05
7.754256219830575e-07,9.642146468742022e-07,3.852346719693615e-07,2.68345103069279e-05
7.872486255716319e-07,9.65965827122335e-07,3.8559387758457167e-07,2.684982529433417e-05
8.00012586742895e-07,9.674084317905545e-07,3.861775435729268e-07,2.683403933435621e-05
8.136749147646616e-07,9.685329714306574e-07,3.8697876789200025e-07,2.6787460440075186e-05
8.281923821576771e-07,9.693407533577214e-07,3.879865537050091e-07,2.671089513958972e-05
8.435213805018805e-07,9.69838821036225e-07,3.8918770656824687e-07,2.660562577269973e-05
8.596206725157173e-07,9.7003519709204e-07,3.905684673283363e-07,2.6473205483486216e-05
8.76456528801062e-07,9.699361148256322e-07,3.921158087748604e-07,2.6315241027704653e-05
8.940061661641985e-07,9.695454600995206e-07,3.938175325113125e-07,2.613328027642176e-05
9.122528782693949e-07,9.68867698720841e-07,3.956607663240568e-07,2.592885657250057e-05
9.311741597115246e-07,9.679136463850434e-07,3.976313476694271e-07,2.570369921861917e-05
9.507338648640043e-07,9.667062523669624e-07,3.997151207262118e-07,2.5459941117455506e-05
9.708852967146977e-07,9.652836595655173e-07,4.0189843586039966e-07,2.5200100328450157e-05
9.915821028915609e-07,9.63697904766125e-07,4.041666835575528e-07,2.492686463841433e-05
1.0127908860527924e-06,9.62009971890993e-07,4.065035200249222e-07,2.464287391814015e-05
1.0344980983226923e-06,9.602846609829978e-07,4.0889249614653157e-07,2.4350598804232465e-05
1.0567049738779472e-06,9.58587713373348e-07,4.113186228238986e-07,2.405230347103237e-05
1.0794148044802231e-06,9.569834081587169e-07,4.137671762833779e-07,2.3750047138299318e-05
1.1026238025191454e-06,9.55529933005194e-07,4.162215329052792e-07,2.344569147760688e-05
1.1263190010624076e-06,9.542735966808926e-07,4.186629574667081e-07,2.3140909438244532e-05
1.1504772914636636e-06,9.532458848701151e-07,4.210711955083661e-07,2.2837198388615728e-05
1.1750610468346929e-06,9.524646679913708e-07,4.234241810957611e-07,2.2535876183914966e-05
1.2000143465321992e-06,9.519359104950732e-07,4.256985946755715e-07,2.2238036359800133e-05
1.2252689552275587e-06,9.516534704925044e-07,4.278723914635307e-07,2.1944509776761675e-05
1.2507590816102439e-06,9.515994069549593e-07,4.2992786275802144e-07,2.1655898557264604e-05
1.2764298653341714e-06,9.517477819910186e-07,4.3185380591700393e-07,2.137266295425392e-05
1.3022318110622394e-06,9.520724569222012e-07,4.3364563838845204e-07,2.109521895120473e-05
1.3281103240510752e-06,9.5255629440895e-07,4.353033407765257e-07,2.082403442825527e-05
1.3539997672690028e-06,9.531973639881477e-07,4.3682876683565856e-07,2.055968971786572e-05
1.379822708958457e-06,9.540097836079783e-07,4.382231474381772e-07,2.030287798645048e-05
1.4054926236992218e-06,9.550200336991062e-07,4.394850592198123e-07,2.0054371682785398e-05
1.4309187364399592e-06,9.562608389537717e-07,4.406096928542928e-07,1.9814970765803908e-05
1.456010585024107e-06,9.577644067042573e-07,4.4158976416879595e-07,1.958542140376272e-05
1.4806791090553218e-06,9.595562198868522e-07,4.4241748766643774e-07,1.93663160443172e-05
1.50483303694761e-06,9.616512449814514e-07,4.430858301895671e-07,1.9158016508164002e-05
1.5283751053581768e-06,9.640548915751413e-07,4.435879658065851e-07,1.8960655915642928e-05
1.5512047571349311e-06,9.667676722287381e-07,4.4391648567998283e-07,1.8774252865507545e-05
1.5732266143260903e-06,9.69787675499484e-07,4.440634275506039e-07,1.85988788609298e-05
1.5943582839633572e-06,9.73107370430095e-07,4.4402038918457717e-07,1.8434750653469932e-05
1.6145347178738936e-06,9.76709339311263e-07,4.4377850538304005e-07,1.828219507606269e-05
1.6337099410847896e-06,9.805659993225133e-07,4.433287575456743e-07,1.8141546726993374e-05
1.6518554053778916e-06,9.846418289258485e-07,4.4266294931182726e-07,1.8013041493884617e-05
1.668954927223439e-06,9.88895114183804e-07,4.417750931991844e-07,1.7896732130591144e-05
1.6849998384298809e-06,9.932791475438042e-07,4.40662900125422e-07,1.779245388005266e-05
1.699985805073443e-06,9.977432820820033e-07,4.3932919275973385e-07,1.7699858246405948e-05
1.713907924931115e-06,1.002233143032377e-06,4.377816721986355e-07,1.761848503418051e-05
1.7267547206274689e-06,1.0066914756319456e-06,4.3603051781258877e-07,1.7547835219406274e-05
1.73850742011429e-06,1.0110632692161094e-06,4.340863584351589e-07,1.748745214684114e-05
1.7491450766580825e-06,1.015302899266831e-06,4.319600881811329e-07,1.7437019651182878e-05
1.7586487795626518e-06,1.019376053654314e-06,4.2966373004069223e-07,1.7396459944717835e-05
1.7670023377325885e-06,1.0232559233777448e-06,4.272108599870623e-07,1.7365985614586153e-05
1.774192483299358e-06,1.026919733724769e-06,4.246151413520161e-07,1.7346043437020558e-05
1.780209956069169e-06,1.0303484762488274e-06,4.218882635261004e-07,1.733716409716536e-05
1.7850502050777042e-06,1.0335268010631506e-06,4.1904042615376505e-07,1.733978902608235e-05
1.7887129414990413e-06,1.0364417943857002e-06,4.160829138836466e-07,1.7354117797554104e-05
1.7912003234775833e-06,1.0390861649032513e-06,4.130288675347541e-07,1.738002844283504e-05
1.792513801762101e-06,1.041467958326195e-06,4.098910449526381e-07,1.7417101006127727e-05
1.7926510760138373e-06,1.0436188375507485e-06,4.0667985318004213e-07,1.7464697168885607e-05
1.7916046700140473e-06,1.0455934567253086e-06,4.034046607262533e-07,1.7522041199637383e-05
1.7893620720343936e-06,1.0474598098844243e-06,4.0007676161266314e-07,1.758828323764114e-05
1.785908067797494e-06,1.049284445019247e-06,3.967101745441921e-07,1.766253783106721e-05
1.7812298612208041e-06,1.0511195458015897e-06,3.933200518469762e-07,1.774387522444504e-05
1.7753211551494617e-06,1.0529981978478512e-06,3.899207481598181e-07,1.7831281171819557e-05
1.7681819842943591e-06,1.0549367988916285e-06,3.8652431092158986e-07,1.7923669639307788e-05
1.7598177184350736e-06,1.0569402304608264e-06,3.8314003555868493e-07,1.801998334057955e-05
1.7502396271031795e-06,1.0590071342607565e-06,3.7977528276266954e-07,1.8119365021401872e-05
1.7394645794127632e-06,1.0611331817413972e-06,3.764363247490179e-07,1.8221374130020442e-05
1.7275127597905875e-06,1.0633125340894672e-06,3.7312811552534974e-07,1.832611599351064e-05
1.7144052461191125e-06,1.065538477496822e-06,3.698533619860032e-07,1.8434142345534008e-05
1.700164243113721e-06,1.067801774938142e-06,3.666123241798077e-07,1.8546197071996964e-05
1.6848156071550603e-06,1.070088796618692e-06,3.634042066171919e-07,1.8662986669808507e-05
1.6683888107513496e-06,1.072387576566383e-06,3.602292094570545e-07,1.878504631968252e-05
1.6509131749483161e-06,1.074704550567185e-06,3.57088974466906e-07,1.8912682136544988e-05
1.6324149780743843e-06,1.077081096799014e-06,3.539855310186157e-07,1.9045950799003157e-05
1.612917378025747e-06,1.0795973695029028e-06,3.509222915875191e-07,1.918463887830489e-05
1.5924414963372855e-06,1.0823641706472018e-06,3.479075055712052e-07,1.9328234426771786e-05
1.5710078776397409e-06,1.0855101003730221e-06,3.4495603203731947e-07,1.9475922194319957e-05
1.5486389400758752e-06,1.0891664378893857e-06,3.420877996145956e-07,1.9626638754139125e-05
1.525364197971274e-06,1.0934529397274485e-06,3.3932448414002604e-07,1.977917981089499e-05
1.5012267278381624e-06,1.098469186555431e-06,3.366861188619779e-07,1.9932299328727225e-05
1.4762837188894106e-06,1.1042897270337018e-06,3.341895995162116e-07,2.0084751944313608e-05
1.4505995820290224e-06,1.1109611534925025e-06,3.318492118639049e-07,2.0235296681509186e-05
1.4242395127718215e-06,1.118503092665485e-06,3.29677057307301e-07,2.038270267008469e-05
1.3972673200426606e-06,1.1269128773916712e-06,3.2768235013178073e-07,2.0525764081761428e-05
1.3697448900724207e-06,1.1361727418398958e-06,3.258707175399523e-07,2.0663313434047022e-05
1.3417343329373578e-06,1.1462585893730587e-06,3.242446813954218e-07,2.079423799812181e-05
1.3133041754157816e-06,1.1571476641458339e-06,3.2280458475119573e-07,2.0917513244944445e-05
1.2845329755519716e-06,1.1688223187867034e-06,3.215486695787677e-07,2.103224028937578e-05
1.255505269122219e-06,1.1812686401822857e-06,3.204726821521122e-07,2.1137659275001332e-05
1.2263063254724229e-06,1.194470573944959e-06,3.195699889986269e-07,2.1233138667872213e-05
1.197022762855537e-06,1.20840214414704e-06,3.188320227320912e-07,2.1318152140175405e-05
1.167745577778545e-06,1.2230212636047103e-06,3.182481732834112e-07,2.1392239739561998e-05
1.1385690078024378e-06,1.2382674754470286e-06,3.178056583690177e-07,2.145495859601688e-05
1.1095850227059291e-06,1.254064586152327e-06,3.174912944975096e-07,2.1505853068161505e-05
1.080878823084963e-06,1.2703257779829923e-06,3.1729407479030753e-07,2.154445075282124e-05
1.0525306935517485e-06,1.2869560311346848e-06,3.17204838334387e-07,2.1570258054841613e-05
1.0246224703921128e-06,1.3038516670632264e-06,3.1721405431057284e-07,2.1582759660132096e-05
9.972405012789032e-07,1.3209007279350542e-06,3.1731174517661484e-07,2.158143459683623e-05
9.704729448917848e-07,1.3379845597161229e-06,3.174883639945075e-07,2.1565769483156847e-05
9.444067706638631e-07,1.3549795030473079e-06,3.177344974869532e-07,2.153526990205229e-05
9.191265985065271e-07,1.3717593150265516e-06,3.1804162219070805e-07,2.1489501811432723e-05
8.947144761759424e-07,1.3881977463633837e-06,3.1840400909826146e-07,2.142815132957444e-05
8.712504620721941e-07,1.4041694116210348e-06,3.188187865485457e-07,2.135105085248032e-05
8.488113923554416e-07,1.4195510043944769e-06,3.1928448329241763e-07,2.1258177979055043e-05
8.274655705612294e-07,1.4342254996407146e-06,3.198001904665493e-07,2.1149685300263396e-05
8.072670649045189e-07,1.4480859194891217e-06,3.203647022495412e-07,2.102598482297748e-05
7.882532863523077e-07,1.4610352716974484e-06,3.209747704122214e-07,2.0887845942175218e-05
7.704451211635307e-07,1.472984738577216e-06,3.2162434758494447e-07,2.0736410531682687e-05
7.538495717318797e-07,1.4838523910228516e-06,3.2230597587095945e-07,2.0573059202456693e-05
7.384647734503897e-07,1.4935634786567015e-06,3.230125653276803e-07,2.039920350550468e-05
7.242848155942983e-07,1.502053985798824e-06,3.2373868471922245e-07,2.0216171217640845e-05
7.113017246891937e-07,1.5092742376841694e-06,3.2448163681164397e-07,2.002523960948361e-05
6.995038616731836e-07,1.5151866952280857e-06,3.252408737933244e-07,1.9827709109968568e-05
6.888746381327703e-07,1.5197605675275343e-06,3.2601577583687785e-07,1.96249337542602e-05
6.79394512564869e-07,1.5229693486746328e-06,3.2680412160043737e-07,1.941830034197258e-05
6.71042670012034e-07,1.524791097494594e-06,3.276022141347707e-07,1.9209169150746576e-05
6.6379672330115e-07,1.5252103552351209e-06,3.284060410509992e-07,1.8998835446795278e-05
6.576325502931573e-07,1.5242230054672162e-06,3.292125579050473e-07,1.878851360663533e-05
6.525236638703145e-07,1.521841122205724e-06,3.300214572706919e-07,1.857927507957709e-05
6.484394679771425e-07,1.518091548925257e-06,3.308366953023258e-07,1.837198922256837e-05
6.453462740641525e-07,1.513008376837134e-06,3.316645905459909e-07,1.8167349965279965e-05
6.432132285565868e-07,1.506627380625538e-06,3.3250957435771773e-07,1.7965986115192055e-05
6.42016347601649e-07,1.498989086766698e-06,3.3337230472222425e-07,1.7768680389705392e-05
6.417350280999836e-07,1.4901481997851826e-06,3.342505708028297e-07,1.7576644789973458e-05
6.423465658835763e-07,1.480180734171119e-06,3.3514020303952305e-07,1.73916276000539e-05
6.438248699963689e-07,1.4691832951495715e-06,3.3603488162636736e-07,1.721575112124636e-05
6.461419326216759e-07,1.4572668855737025e-06,3.369257398535597e-07,1.7051235596042685e-05
6.492685814999179e-07,1.4445497214436898e-06,3.3780193304671264e-07,1.6900175604487244e-05
6.531735759841622e-07,1.4311496191494702e-06,3.386522447874727e-07,1.6764397985516854e-05
6.578239332299699e-07,1.4171765070177627e-06,3.394667603152193e-07,1.664535934063367e-05
6.631904779437928e-07,1.4027288329573362e-06,3.4023783468465574e-07,1.6544069180731923e-05
6.692563453107206e-07,1.3878942452440654e-06,3.40960106984738e-07,1.6461069823618425e-05
6.760212896621031e-07,1.3727499703964953e-06,3.4162967645792826e-07,1.6396480345006823e-05
6.83498967292001e-07,1.357363153093114e-06,3.4224378177822627e-07,1.6350071419354478e-05
6.917097132403042e-07,1.3417955008679267e-06,3.4280182825510826e-07,1.6321346105631065e-05
7.006726995623212e-07,1.3261095099908991e-06,3.433060787812867e-07,1.6309615845019087e-05
7.104015054112444e-07,1.3103710373530347e-06,3.437608446928103e-07,1.6314063921453634e-05
7.209032616161323e-07,1.2946505176570871e-06,3.441714650758658e-07,1.6333789586932415e-05
7.321762097014318e-07,1.2790261204540895e-06,3.4454447013271196e-07,1.6367834805802605e-05
7.442037541717043e-07,1.2635867379911242e-06,3.4488796134997e-07,1.6415219970678382e-05
7.569503140472563e-07,1.2484321089570272e-06,3.452106751623465e-07,1.6474993835378985e-05
7.703633931915631e-07,1.233669057605955e-06,3.455219724872769e-07,1.6546255315663753e-05
7.843797650517796e-07,1.2194037618185965e-06,3.458346942964796e-07,1.662812916287727e-05
7.989317188606372e-07,1.2057317817722858e-06,3.461668168313911e-07,1.671972725155928e-05
8.139523161406521e-07,1.192729945002359e-06,3.4653881540547353e-07,1.6820126660467035e-05
8.293793207831319e-07,1.1804548938743402e-06,3.469701079185432e-07,1.6928375824072212e-05
8.45156259774028e-07,1.1689479167108158e-06,3.474775025560895e-07,1.7043519649570782e-05
8.612312831566269e-07,1.1582404601301157e-06,3.480749231068288e-07,1.716460344861127e-05
8.775568873825344e-07,1.148357570389655e-06,3.4877399738996763e-07,1.7290633432456954e-05
8.94090125617033e-07,1.1393207671718182e-06,3.495842428407105e-07,1.7420556566961612e-05
9.107899561435998e-07,1.1311517311976498e-06,3.505111173045829e-07,1.755330205469069e-05
9.2761242685093e-07,1.123875461401887e-06,3.5155486414566125e-07,1.7687810198215946e-05
9.445069728983513e-07,1.1175198608460764e-06,3.527133183401914e-07,1.782300898720913e-05
9.614144285960779e-07,1.1121125392420674e-06,3.539856552634209e-07,1.7957802748758638e-05
9.78266225236361e-07,1.1076807199200388e-06,3.5537281110233494e-07,1.809110910337177e-05
9.949862075567194e-07,1.1042561424449622e-06,3.5687503113923134e-07,1.822189423890425e-05
1.0114960225342848e-06,1.1018782829375022e-06,3.5848993166460597e-07,1.83491492477688e-05
1.0277196732856272e-06,1.1005906359430555e-06,3.602125179560078e-07,1.8471843836644172e-05
1.0435830299272669e-06,1.1004315128659966e-06,3.620362481890886e-07,1.8588930623475602e-05
1.059013559171266e-06,1.1014230902025286e-06,3.639545775019943e-07,1.8699397331264527e-05
1.073948573829828e-06,1.1035651719106778e-06,3.659617238926003e-07,1.8802332525235548e-05
1.0883502132951789e-06,1.1068405831676302e-06,3.680520667777769e-07,1.889699813705355e-05
1.102216371991559e-06,1.1112316090053565e-06,3.702221509645388e-07,1.8982904191162846e-05
1.1155788268872334e-06,1.1167379435899245e-06,3.7247628212599787e-07,1.905984371102255e-05
1.128487678866407e-06,1.1233858317853373e-06,3.7482767047706134e-07,1.912783658595376e-05
1.1409915361074177e-06,1.1312278379333358e-06,3.7729191783553403e-07,1.9186998503750232e-05
1.1531279506968417e-06,1.1403379179932678e-06,3.7988124283963966e-07,1.923740331371714e-05
1.1649258952825635e-06,1.1508002799300694e-06,3.8260353075080274e-07,1.9278997897872727e-05
1.1764077920484477e-06,1.162691367957141e-06,3.8546174438124364e-07,1.931158550544801e-05
1.187585931096018e-06,1.1760630507785415e-06,3.884524019270131e-07,1.9334843397514576e-05
1.1984600953196925e-06,1.1909347200372284e-06,3.9156574802108994e-07,1.9348365749634523e-05
1.209020090604988e-06,1.2072954361464584e-06,3.9478822947308287e-07,1.9351801811741807e-05
1.2192497091622095e-06,1.2251125258823658e-06,3.981049445754622e-07,1.93451013749881e-05
1.2291280047647231e-06,1.2443399923241742e-06,4.0150041443492787e-07,1.932868523901419e-05
1.2386290692928042e-06,1.264923039209678e-06,4.049592088802864e-07,1.930337080172581e-05
1.2477250679438138e-06,1.286802350240349e-06,4.084678218917742e-07,1.927013760560033e-05
1.2563929939452827e-06,1.3099208515154222e-06,4.120169329869318e-07,1.9229912778626085e-05
1.2646216140583406e-06,1.3342277849748787e-06,4.1560178558201545e-07,1.9183486611221653e-05
1.2724161108411036e-06,1.3596758449296213e-06,4.192190484940036e-07,1.913164266676389e-05
1.2797996754847258e-06,1.3862158588642841e-06,4.228628379930517e-07,1.9075451856788825e-05
1.2868099953966863e-06,1.4137947938964569e-06,4.2652346173429423e-07,1.901648842146948e-05
1.293487822736725e-06,1.4423570074314385e-06,4.301874593221882e-07,1.8956821887758192e-05
1.2998630858976966e-06,1.4718464086052925e-06,4.338375875516739e-07,1.8898873614427707e-05
1.305950235041713e-06,1.502207397321995e-06,4.3745556589586716e-07,1.8845241070885998e-05
1.311754626720376e-06,1.5333818906759526e-06,4.4102691480185327e-07,1.87985146679148e-05
1.3172802055168622e-06,1.5653018466449163e-06,4.44542333505074e-07,1.876111792756983e-05
1.3225308554766109e-06,1.5978820096810603e-06,4.479952457428436e-07,1.8735203450542853e-05
1.3275068277672927e-06,1.6310228110189382e-06,4.513792518881103e-07,1.872260542352276e-05
1.3322023081564438e-06,1.6646271481559347e-06,4.546860582803507e-07,1.8724830664502727e-05
1.3366081152505648e-06,1.6986183388812403e-06,4.5790494832765034e-07,1.8743066648850664e-05
1.3407193708944305e-06,1.7329457920501522e-06,4.6102503404797116e-07,1.8778181735519143e-05
1.3445450229828859e-06,1.7675815710257909e-06,4.640374863139432e-07,1.8830696433065708e-05
1.3481129347131168e-06,1.8025171366980026e-06,4.6693624610446384e-07,1.890073985247556e-05
1.3514638723751148e-06,1.8377605384776703e-06,4.697183395189218e-07,1.898805863779277e-05
1.3546373952818385e-06,1.873327946769997e-06,4.7238249263293974e-07,1.90921276664688e-05
1.3576626263260241e-06,1.9092267379716664e-06,4.7492561302140923e-07,1.921231258850938e-05
1.360559661600609e-06,1.945436007678811e-06,4.773410228575615e-07,1.9347992009952546e-05
1.3633439588461422e-06,1.981895031545581e-06,4.796203928560263e-07,1.949860505870681e-05
1.3660260082317938e-06,2.018503941042541e-06,4.817559905904677e-07,1.9663657369484423e-05
1.368606927572314e-06,2.0551312856515004e-06,4.837414887158215e-07,1.9842717524891788e-05
1.3710757779482883e-06,2.0916215448645405e-06,4.855744536623127e-07,2.0035384651066296e-05
1.3734133966197183e-06,2.1278004505284625e-06,4.87260375683269e-07,2.0241214577815048e-05
1.3756017170640857e-06,2.1634797212527162e-06,4.888132872149364e-07,2.0459646744899624e-05
1.3776320449259643e-06,2.198464201503241e-06,4.902518421672738e-07,2.0689964998120672e-05
1.3795075150596992e-06,2.232561653213094e-06,4.91594404471276e-07,2.0931267226098807e-05
1.381241149582298e-06,2.265590126812284e-06,4.928566037906641e-07,2.1182417206857195e-05
1.3828514115303828e-06,2.2973796950611896e-06,4.940515768871834e-07,2.144200980302584e-05
1.384355976534799e-06,2.327771672125009e-06,4.951895388314355e-07,2.17083746436468e-05
1.3857668594954123e-06,2.356619028300984e-06,4.962765235964156e-07,2.19795945578393e-05
1.387089164084067e-06,2.3837888169342867e-06,4.973159563091668e-07,2.225354105248909e-05
1.3883240702975823e-06,2.409165833474709e-06,4.983124286555243e-07,2.2527966529140837e-05
1.3894752692970171e-06,2.432654944066224e-06,4.992749125369666e-07,2.2800649099973653e-05
1.3905531194201162e-06,2.4541799096457263e-06,5.002193108987144e-07,2.306949382892822e-05
1.3915735844759536e-06,2.4736816849978224e-06,5.011694765217373e-07,2.3332507507874782e-05
1.3925565774112706e-06,2.4911194693698717e-06,5.02155281265425e-07,2.3587713726453352e-05
1.3935252454359571e-06,2.5064710596617112e-06,5.03208954093461e-07,2.38331227165068e-05
1.3945036298056587e-06,2.519727590471563e-06,5.043617299413825e-07,2.406677090826936e-05
1.3955122330551802e-06,2.530883759927917e-06,5.056414582748797e-07,2.4286795319918126e-05
1.396562038823352e-06,2.539930687332464e-06,5.070712994493397e-07,2.449152113346785e-05
1.3976493338974753e-06,2.5468565494744125e-06,5.086695624967057e-07,2.467951566383361e-05
1.398754216493796e-06,2.55165189679536e-06,5.104504861860572e-07,2.4849552358222284e-05
1.3998416711517546e-06,2.554313956090846e-06,5.124256784791251e-07,2.5000531254969206e-05
1.4008631957712743e-06,2.554847731865111e-06,5.146042691880127e-07,2.5131480120321122e-05
1.4017592062440974e-06,2.55326404618764e-06,5.169904750167021e-07,2.5241643699192525e-05
1.402461965499662e-06,2.5495749701487315e-06,5.195814604184935e-07,2.5330543016235746e-05
1.4028977605646231e-06,2.543789637329493e-06,5.223685421772054e-07,2.539795480944872e-05
1.4029893212892586e-06,2.5359161637190188e-06,5.253423003993052e-07,2.5443842722736355e-05
1.4026602326796434e-06,2.5259703941487204e-06,5.285001716071628e-07,2.546829170307397e-05
1.401839517549924e-06,2.513983943703692e-06,5.318519179877121e-07,2.547155219310607e-05
1.4004650488981571e-06,2.50000415526901e-06,5.354191686026275e-07,2.5454177571861475e-05
1.398484953204632e-06,2.484086623109504e-06,5.392313839183133e-07,2.541705148019356e-05
1.3958541443065526e-06,2.4662868746669457e-06,5.433214478435172e-07,2.5361258610448472e-05
1.3925288678531782e-06,2.4466568869461035e-06,5.477196504830457e-07,2.528793591673125e-05
1.3884650368711642e-06,2.425247236791611e-06,5.524473627520629e-07,2.519816875063331e-05
1.3836199514211251e-06,2.40211149628403e-06,5.57515634384199e-07,2.509296325012893e-05
1.3779543251813944e-06,2.377308260524724e-06,5.629285750194274e-07,2.4973333580932818e-05
1.3714339015398515e-06,2.3508986791605235e-06,5.686867455576467e-07,2.4840415159137587e-05
1.364032621801697e-06,2.322942701834828e-06,5.747881574873665e-07,2.469546109889497e-05
1.3557380241098852e-06,2.2934986195506044e-06,5.812263746021792e-07,2.4539735839568382e-05
1.346555087064408e-06,2.2626254798866e-06,5.879869666292723e-07,2.4374408122985976e-05
1.336505263725309e-06,2.230383944878373e-06,5.950453089208126e-07,2.4200476474766752e-05
1.3256226811383513e-06,2.196833892006149e-06,6.023664907336777e-07,2.401872511449051e-05
1.3139499252798957e-06,2.1620325202707427e-06,6.099066301791554e-07,2.3829718149599075e-05
1.3015324820026921e-06,2.126036182585188e-06,6.176157298088065e-07,2.363382793963763e-05
1.2884134746408552e-06,2.088904436096188e-06,6.254411199856724e-07,2.343127568429809e-05
1.274632537524957e-06,2.0507031159045627e-06,6.333293463803183e-07,2.322216781384282e-05
1.2602269066117789e-06,2.011507240232284e-06,6.412259358944907e-07,2.300652173554497e-05
1.2452311458945515e-06,1.9714082304317868e-06,6.49074416153473e-07,2.278427607785983e-05
1.2296777673297935e-06,1.9305226290002027e-06,6.568158131498567e-07,2.2555298229653385e-05
1.213601711789562e-06,1.8889926586013768e-06,6.643891098788643e-07,2.231940982916747e-05
1.1970449702084705e-06,1.8469769588886463e-06,6.717330304246663e-07,2.207642794189952e-05
1.1800559361112031e-06,1.8046383738533501e-06,6.787888577279338e-07,2.182620088469628e-05
1.1626863157485068e-06,1.762134492586934e-06,6.85502625841963e-07,2.156861809529976e-05
1.144993000018753e-06,1.719613787613384e-06,6.918255691513718e-07,2.130359098911154e-05
1.1270473347745474e-06,1.677217738077176e-06,6.977143630175494e-07,2.1031031561949468e-05
1.1089471888588128e-06,1.635084808239731e-06,7.031319266366497e-07,2.075086130936374e-05
1.0908214763289014e-06,1.5933515568840746e-06,7.08046603873735e-07,2.0463044579491988e-05
1.0728207511719974e-06,1.5521501231200953e-06,7.124298457795606e-07,2.0167610533728454e-05
1.0551001743863708e-06,1.511602943851282e-06,7.162550393811262e-07,1.986465330160436e-05
1.0378042535871466e-06,1.4718191273988075e-06,7.19497907368145e-07,1.9554336065715955e-05
1.021057693102084e-06,1.432897564468403e-06,7.221379373146954e-07,1.923690583852084e-05
1.0049647117642805e-06,1.3949307406617806e-06,7.241597441526544e-07,1.8912695421168928e-05
9.896158785760131e-07,1.3580015983966006e-06,7.255520261344234e-07,1.8582112496036364e-05
9.750961195753685e-07,1.3221794300159432e-06,7.263047905801289e-07,1.8245623558918475e-05
9.614882994938914e-07,1.2875218850155314e-06,7.264083250802642e-07,1.7903723076075846e-05
9.488728615901191e-07,1.2540799331629536e-06,7.258545378204211e-07,1.7556911294343646e-05
9.373263413369724e-07,1.2219005898161084e-06,7.246384192440515e-07,1.7205713199693133e-05
9.269188850723276e-07,1.191025299548534e-06,7.227584208534104e-07,1.6850716932810854e-05
9.177093637491949e-07,1.1614858212789876e-06,7.202165046834505e-07,1.6492611552619174e-05
9.097404659063446e-07,1.1333033290038749e-06,7.170181276124699e-07,1.6132235452858186e-05
9.030383703054684e-07,1.1064935728093968e-06,7.131713659398627e-07,1.5770609518682166e-05
8.976146300259805e-07,1.0810732151815395e-06,7.086859988096068e-07,1.5408931332049837e-05
8.934654371399063e-07,1.057059950318014e-06,7.035735673603756e-07,1.5048554263886785e-05
8.905712409632488e-07,1.0344663976664015e-06,6.978479132757924e-07,1.4690959555705045e-05
8.889005659099279e-07,1.0132953949612965e-06,6.915261794944446e-07,1.4337729204030372e-05
8.884163020108649e-07,9.935409968044405e-07,6.84629503144994e-07,1.3990511682906207e-05
8.890810126177259e-07,9.751917383349502e-07,6.771819902161779e-07,1.3650933800173347e-05
8.908577548359131e-07,9.582318018390213e-07,6.692090901171883e-07,1.3320527971518233e-05
8.937064436491802e-07,9.426395893754116e-07,6.607370142399546e-07,1.3000807068270293e-05
8.9757965744083e-07,9.283867767642027e-07,6.517925842945584e-07,1.269342392500956e-05
9.024193583602279e-07,9.15443014563043e-07,6.424028228289403e-07,1.2400251972281234e-05
9.081547674864584e-07,9.037858424141499e-07,6.325955154336399e-07,1.2123362050177001e-05
9.147031079623122e-07,8.934069354987765e-07,6.224016502836498e-07,1.186495246556377e-05
9.219726589256348e-07,8.843098879735048e-07,6.118573033148709e-07,1.1627227064040644e-05
9.298652217351705e-07,8.765044108714155e-07,6.01001927168999e-07,1.1412203747986748e-05
9.382780780516195e-07,8.700018849824092e-07,5.898750521432255e-07,1.1221535436329809e-05
9.471082394898434e-07,8.648107142331812e-07,5.785152902831721e-07,1.1056433360309508e-05
9.56258769034124e-07,8.609305619144966e-07,5.66960895800894e-07,1.0917677230554939e-05
9.656448804350392e-07,8.583516124503404e-07,5.55250565027212e-07,1.0805660990337364e-05
9.75199808362313e-07,8.570603468359228e-07,5.434249368354101e-07,1.072043384336476e-05
9.848797429753278e-07,8.570416165706338e-07,5.315272000662961e-07,1.0661758971162121e-05
9.94664518653967e-07,8.582713237340516e-07,5.196028617471543e-07,1.0629268593568224e-05
1.0045536483049938e-06,8.607093651993755e-07,5.077002122102693e-07,1.0622628790152824e-05
1.0145599264855071e-06,8.643032991466554e-07,4.958694265624416e-07,1.0641515217758527e-05
1.0247006003180826e-06,8.689974370000523e-07,4.841600089620855e-07,1.068543992140236e-05
1.0349872614540934e-06,8.747357827565245e-07,4.726200479420723e-07,1.075365039856113e-05
1.045420450757393e-06,8.814597438366164e-07,4.612972122930626e-07,1.084516731257108e-05
1.0559943717010688e-06,8.891074565026155e-07,4.502388369922554e-07,1.095886786785445e-05
1.066708825123708e-06,8.97613816074016e-07,4.3949133034176904e-07,1.1093548373608257e-05
1.0775791136854978e-06,9.069109503892788e-07,4.29099417890562e-07,1.1247955719635768e-05
1.0886377259399654e-06,9.169361307442587e-07,4.1910418422842003e-07,1.1420796328278278e-05
1.0999269741871069e-06,9.276484560124908e-07,4.095405347490298e-07,1.161074859281785e-05
1.11148554254201e-06,9.390427086494232e-07,4.004357149765849e-07,1.1816500576688416e-05
1.1233377052762913e-06,9.511488225594616e-07,3.91809084857726e-07,1.2036799011422446e-05
1.1354932203399968e-06,9.640183899553885e-07,3.836728859648732e-07,1.2270473724755534e-05
1.147952607005489e-06,9.777067855244478e-07,3.760341395675386e-07,1.2516423822234955e-05
1.1607069544709177e-06,9.922560425327221e-07,3.6889732894282345e-07,1.2773585615255729e-05
1.1737347696808382e-06,1.0076828022433218e-06,3.6226731941982006e-07,1.3040915182573297e-05
1.1870046213314609e-06,1.0239767020488016e-06,3.561511795198265e-07,1.3317401940225647e-05
1.2004808615333687e-06,1.0411072755269192e-06,3.505565426788806e-07,1.3602092345225047e-05
1.2141240869180694e-06,1.0590303863996084e-06,3.4548766286356305e-07,1.3894091489003228e-05
1.2278858479173995e-06,1.0776895319945923e-06,3.409441163441499e-07,1.419254371337825e-05
1.2417043591350551e-06,1.0970146626162955e-06,3.369244853671966e-07,1.4496610249442382e-05
1.255506291534264e-06,1.116921682720325e-06,3.3343147794070394e-07,1.4805435709123154e-05
1.2692129935548941e-06,1.137313692740635e-06,3.304725595712276e-07,1.5118099460680894e-05
1.282746421398188e-06,1.1580858151204719e-06,3.2805537660729546e-07,1.543357195441494e-05
1.2960325775213465e-06,1.179135949154155e-06,3.261825495986538e-07,1.5750691369724234e-05
1.309002262713021e-06,1.200378734982327e-06,3.248488112016398e-07,1.606819850076599e-05
1.3215887317064914e-06,1.2217532802918476e-06,3.240406242053737e-07,1.6384854488340353e-05
1.3337234322610095e-06,1.2432179673083129e-06,3.2373728094877144e-07,1.669956375124528e-05
1.3453334539995588e-06,1.264736911861315e-06,3.239120644366615e-07,1.701142110061901e-05
1.356343001108402e-06,1.2862679946437916e-06,3.245329740300906e-07,1.7319716194716036e-05
1.3666765677071942e-06,1.3077569306393022e-06,3.2556372812675423e-07,1.7623965158691823e-05
1.3762597785745838e-06,1.329135167162339e-06,3.2696584253417357e-07,1.7923973449138864e-05
1.385018039485931e-06,1.3503195538960377e-06,3.287011893623785e-07,1.8219852683443523e-05
1.3928764891546076e-06,1.3712146803477868e-06,3.3073366130161773e-07,1.8511933112704254e-05
1.3997629171640872e-06,1.3917185561186383e-06,3.3302968054438703e-07,1.880063431293988e-05
1.4056130521640936e-06,1.4117293789568726e-06,3.355575606454413e-07,1.9086353996106093e-05
1.410375027863865e-06,1.4311500736880887e-06,3.382861379978897e-07,1.936934245456208e-05
1.414008261477326e-06,1.4498918730849957e-06,3.411846788994838e-07,1.9649582519967614e-05
1.4164783784996002e-06,1.467878360665253e-06,3.442249660448097e-07,1.992674513946924e-05
1.4177554342724385e-06,1.485045035529317e-06,3.4738352876314695e-07,2.0200207981636944e-05
1.4178169363891363e-06,1.5013327644894815e-06,3.5064180811870004e-07,2.0469099490858586e-05
1.4166511770531508e-06,1.5166810399417191e-06,3.539845830109769e-07,2.0732382063691103e-05
1.4142590774126434e-06,1.5310255349467663e-06,3.573977753470523e-07,2.098898093139439e-05
1.4106547536330178e-06,1.5443007224172531e-06,3.608659884714664e-07,2.1237904714644066e-05
1.40586305471463e-06,1.5564446082731652e-06,3.643707473272474e-07,2.1478270801213417e-05
1.3999146516614296e-06,1.5674001433148769e-06,3.6789044163388717e-07,2.170922434941265e-05
1.3928426666503627e-06,1.5771145029243122e-06,3.7140174351013134e-07,2.192987127761927e-05
1.3846825557002508e-06,1.5855414250486861e-06,3.748811589833986e-07,2.213935753331416e-05
1.37547398963312e-06,1.592644335766456e-06,3.783053174631316e-07,2.2337112442613353e-05
1.36526340524469e-06,1.5983954611168778e-06,3.8165017244497687e-07,2.25231259683871e-05
1.3541065493669173e-06,1.6027728147436746e-06,3.848904657651349e-07,2.2698051182945786e-05
1.3420702640510206e-06,1.6057614216036125e-06,3.880003119646853e-07,2.2863054144965795e-05
1.3292319202360938e-06,1.6073609735380453e-06,3.90954901600932e-07,2.3019521175813692e-05
1.31567559647539e-06,1.6075924052755129e-06,3.937335282186197e-07,2.31687740972358e-05
1.3014880920804016e-06,1.6064953893968331e-06,3.963230171525023e-07,2.331189520607348e-05
1.2867581813017954e-06,1.6041221171737162e-06,3.9871803289663146e-07,2.3449659967068217e-05
1.2715769114016156e-06,1.6005387466578917e-06,4.0091830037498407e-07,2.3582511472948144e-05
1.2560376650896623e-06,1.5958324279540488e-06,4.029273541096199e-07,2.3710552499366338e-05
1.2402398942341702e-06,1.5901127840885114e-06,4.047523420441131e-07,2.3833563807859053e-05
1.2242972095972436e-06,1.5835061059072186e-06,4.064015874319081e-07,2.3951054294132322e-05
1.2083434965779587e-06,1.5761471292316997e-06,4.0788197276784593e-07,2.406232908589336e-05
1.192529764695007e-06,1.5681696695243103e-06,4.091988053345707e-07,2.416654478450191e-05
1.1770120585688729e-06,1.5596980131257246e-06,4.1035791699228246e-07,2.4262739861984523e-05
1.1619383839012291e-06,1.550843494979296e-06,4.113690882449313e-07,2.434984828730589e-05
1.1474397609166877e-06,1.541705033809455e-06,4.122488069307082e-07,2.4426718486522955e-05
1.1336246999416338e-06,1.5323695790602473e-06,4.1302119459992254e-07,2.449217120410921e-05
1.120577288014043e-06,1.5229147991777408e-06,4.1371742077690295e-07,2.454509393091417e-05
1.1083595653443456e-06,1.5134165678300756e-06,4.143725997220576e-07,2.4584518957169074e-05
1.0970148347548187e-06,1.5039569151351924e-06,4.150205610209813e-07,2.460963967704844e-05
1.0865695615713353e-06,1.4946256839825971e-06,4.1569015547661037e-07,2.4619767034851612e-05
1.0770387843228344e-06,1.4855124389036262e-06,4.164048699214521e-07,2.4614270609857397e-05
1.0684380550090509e-06,1.4766938017096002e-06,4.1718465186591095e-07,2.459254811906073e-05
1.0607929584958736e-06,1.4682283313666646e-06,4.180477239631475e-07,2.4554026222521654e-05
1.0541376148848628e-06,1.4601638470085498e-06,4.190096203730253e-07,2.449818243678769e-05
1.04850668159822e-06,1.452549441633353e-06,4.2008047288864493e-07,2.442458402138555e-05
1.0439290276870363e-06,1.4454443574782482e-06,4.2126413393324387e-07,2.4332929728155662e-05
1.0404255598695256e-06,1.438921846525724e-06,4.225603018533531e-07,2.422307239724578e-05
1.038010566579777e-06,1.4330677470864722e-06,4.239688246462952e-07,2.409499871320108e-05
1.0366932796555455e-06,1.42797696237102e-06,4.2549327800453466e-07,2.3948774204672697e-05
1.0364747399806595e-06,1.4237520644915531e-06,4.271415888302618e-07,2.3784510995535736e-05
1.0373415059731152e-06,1.4205014621904444e-06,4.2892533742958217e-07,2.3602401746721226e-05
1.0392644651878625e-06,1.4183330021316875e-06,4.3085944323579245e-07,2.340281390738623e-05
1.0422061037053707e-06,1.4173440288422364e-06,4.329621415264422e-07,2.318640688145545e-05
1.0461298432890578e-06,1.4176110878547931e-06,4.3525377780632886e-07,2.2954197509307165e-05
1.0510039208635444e-06,1.419184679750679e-06,4.37753461967058e-07,2.270750740897376e-05
1.0567997578644637e-06,1.4220947636285587e-06,4.404771248399751e-07,2.244781116988212e-05
1.0634900569948535e-06,1.4263629607515983e-06,4.4343966547069256e-07,2.217656347067701e-05
1.0710496923070095e-06,1.4320098105841802e-06,4.466566596500348e-07,2.189509327555332e-05
1.0794586221288007e-06,1.4390520581271304e-06,4.5014146382451457e-07,2.1604627054605087e-05
1.0887042987987137e-06,1.447494302287129e-06,4.5390073731443264e-07,2.130637808374071e-05
1.0987789306236638e-06,1.4573216443909124e-06,4.579322638785815e-07,2.1001559812400142e-05
1.1096687130916795e-06,1.468498880937688e-06,4.6222486358585397e-07,2.0691313358794664e-05
1.1213417872812143e-06,1.480977354758054e-06,4.6675959401434184e-07,2.0376670394503365e-05
1.133744898989941e-06,1.4947022383587842e-06,4.7151177483302185e-07,2.005861083987841e-05
1.1468080500551829e-06,1.5096121111999634e-06,4.7645288988801537e-07,1.9738179018440537e-05
1.1604506365973114e-06,1.5256320437490282e-06,4.815522644701968e-07,1.9416595590636883e-05
1.1745879611478822e-06,1.5426667077830975e-06,4.867782191717721e-07,1.9095283464715648e-05
1.1891401146760174e-06,1.5605976518962434e-06,4.920982493815124e-07,1.8775770096912955e-05
1.204042857662172e-06,1.579285863166584e-06,4.974791000682151e-07,1.8459524341533622e-05
1.2192547649079485e-06,1.5985798467258689e-06,5.028868544695289e-07,1.8147816383775304e-05
1.2347528314316852e-06,1.6183282622226636e-06,5.0828608493449e-07,1.784165736255495e-05
1.2505187922152223e-06,1.6383917606408008e-06,5.136388642435086e-07,1.754181658334516e-05
1.2665281307863952e-06,1.6586471184754118e-06,5.189051944317635e-07,1.7248880851192864e-05
1.2827464127919843e-06,1.6789823761980803e-06,5.240442247054771e-07,1.696334882435362e-05
1.2991277218762842e-06,1.6992885738255282e-06,5.290149866472672e-07,1.6685778673462315e-05
1.3156146101977426e-06,1.7194558759435917e-06,5.337771770609904e-07,1.64169407616453e-05
1.332142770395495e-06,1.7393752334962693e-06,5.382920526080701e-07,1.6157840489220578e-05
1.3486463208074301e-06,1.7589391811917718e-06,5.425225081904429e-07,1.59095649842488e-05
1.3650587099500164e-06,1.7780396900391288e-06,5.464331224094184e-07,1.5673076896770666e-05
1.381312735804653e-06,1.7965664524553303e-06,5.499907518943582e-07,1.5449095924339354e-05
1.3973420548041723e-06,1.814406696045451e-06,5.531646371027689e-07,1.5238144304942074e-05
1.413080123149983e-06,1.8314489872009305e-06,5.559266612113054e-07,1.5040765459216128e-05
1.42845955229475e-06,1.847594419667791e-06,5.58254136348717e-07,1.4857775216411453e-05
1.4434217175280456e-06,1.862771464525669e-06,5.6013491966358e-07,1.4690327644485797e-05
1.4579375582845208e-06,1.8769460780411315e-06,5.61570181632986e-07,1.4539764184262711e-05
1.4720291138406087e-06,1.890120264981586e-06,5.625710260051047e-07,1.4407404767012301e-05
1.4857756012697837e-06,1.902318243768956e-06,5.63152052763463e-07,1.4294397867749918e-05
1.4992945112456826e-06,1.91356838479731e-06,5.633277680325321e-07,1.4201651586992605e-05
1.5127095320537718e-06,1.9238929648805143e-06,5.63113310532973e-07,1.4129831804698965e-05
1.526125302430036e-06,1.93331093478972e-06,5.625267779376916e-07,1.4079386713381812e-05
1.5396154829529594e-06,1.9418474843296297e-06,5.615903181417599e-07,1.4050564088687039e-05
1.5532214703068118e-06,1.949539900919579e-06,5.603295945696458e-07,1.4043421265521167e-05
1.566956651953918e-06,1.9564340805940416e-06,5.587723652318468e-07,1.4057823392412884e-05
1.5808089822758947e-06,1.9625739346420448e-06,5.569457496869427e-07,1.4093414401312302e-05
1.5947415124048754e-06,1.9679913125446166e-06,5.548734170864635e-07,1.414957403450598e-05
1.608696854681966e-06,1.972701754417053e-06,5.525764990513424e-07,1.4225395643339668e-05
1.62260606051349e-06,1.97670547187337e-06,5.500783498131849e-07,1.4319714240643466e-05
1.6363985462203803e-06,1.9799918100850157e-06,5.474075612544985e-07,1.4431193381501255e-05
1.6500134777691457e-06,1.982545904050764e-06,5.445955072649961e-07,1.4558437486088001e-05
1.6634119244305118e-06,1.984354719339801e-06,5.416723848014542e-07,1.4700076402880694e-05
1.6765843446202836e-06,1.9854096529047328e-06,5.386670085116528e-07,1.4854805019946653e-05
1.6895499663962419e-06,1.9857043538071965e-06,5.356082928631888e-07,1.5021408237005414e-05
1.7023484874064242e-06,1.9852301790240663e-06,5.325243396789056e-07,1.519879499707228e-05
1.7150252987628569e-06,1.983975427789089e-06,5.294403580989196e-07,1.538602396333569e-05
1.7276149587428562e-06,1.981929054225879e-06,5.263776852713799e-07,1.5582296337192355e-05
1.7401308457732967e-06,1.97908301243999e-06,5.23353948083361e-07,1.5786909154825718e-05
1.7525635601658456e-06,1.9754316797785656e-06,5.203833507809801e-07,1.5999172428497503e-05
1.7648846959012531e-06,1.9709720186174283e-06,5.174761005105777e-07,1.6218304593632753e-05
1.777052968780905e-06,1.965706429992096e-06,5.146378446942904e-07,1.6443340540390278e-05
1.7890187717707118e-06,1.9596463940404808e-06,5.118707750950318e-07,1.6673090092316827e-05
1.800723558245391e-06,1.952814548498697e-06,5.091761505500671e-07,1.6906149477804653e-05
1.8120986106606171e-06,1.9452457023785598e-06,5.065558884430939e-07,1.714094124193243e-05
1.82307203252542e-06,1.9369862946111227e-06,5.040122698469275e-07,1.737578215230162e-05
1.8335850888642377e-06,1.9280893025423274e-06,5.015481154420194e-07,1.7608989573595798e-05
1.8436095614860992e-06,1.918606011575589e-06,4.99167695243134e-07,1.783898129047054e-05
1.8531556169055526e-06,1.9085794966715192e-06,4.968758852381834e-07,1.8064293076695926e-05
1.8622649532436242e-06,1.8980407886822258e-06,4.946764396762715e-07,1.82835293649201e-05
1.870992118628812e-06,1.8870074501854301e-06,4.925713427701393e-07,1.849535526241536e-05
1.879383848559666e-06,1.875486248372161e-06,4.905610801944053e-07,1.8698554985341337e-05
1.8874681260729468e-06,1.8634798648503277e-06,4.886459692414588e-07,1.889205785375397e-05
1.8952556403885883e-06,1.8509929893609955e-06,4.868274727407305e-07,1.907488783320009e-05
1.9027459272532409e-06,1.8380316665513919e-06,4.851075683934739e-07,1.9246098906058123e-05
1.909931919471262e-06,1.824598012697116e-06,4.834874404067503e-07,1.940474464345556e-05
1.91680103417876e-06,1.810689046884224e-06,4.819671399625891e-07,1.954988669507805e-05
1.9233323861027225e-06,1.7963009297481632e-06,4.805451145814716e-07,1.968064165448295e-05
1.929494069235348e-06,1.7814328168166336e-06,4.792171685277528e-07,1.979623606492615e-05
1.9352447169749414e-06,1.7660874862058689e-06,4.77976478599318e-07,1.989601156567648e-05
1.940536388910553e-06,1.7502699334711185e-06,4.76815677052644e-07,1.9979372269443648e-05
1.9453153237435226e-06,1.7339853588820496e-06,4.757295234293884e-07,2.004573168659364e-05
1.949522625487961e-06,1.717237397264089e-06,4.7471538580917046e-07,2.009451407210121e-05
1.95309649892906e-06,1.7000288691415668e-06,4.737711617937109e-07,2.012525067236892e-05
1.95597476835864e-06,1.682365792346757e-06,4.7289304229740933e-07,2.0137766771483645e-05
1.9580964128669294e-06,1.6642602875985329e-06,4.7207498749915456e-07,2.01323055945185e-05
1.959402099183269e-06,1.6457290451341588e-06,4.713108861524182e-07,2.0109456457693092e-05
1.959834198721732e-06,1.6267899554248437e-06,4.7059876192464573e-07,2.0070031460039146e-05
1.959336275361734e-06,1.6074607158566925e-06,4.6994372699402075e-07,2.0015036359210392e-05
1.9578523382270083e-06,1.587759407797125e-06,4.6935836472649e-07,1.994564294662442e-05
1.9553264973789363e-06,1.5677052363624913e-06,4.688616854616519e-07,1.986310533925776e-05
1.951704150128324e-06,1.547318656940301e-06,4.684761477294913e-07,1.97686881904691e-05
1.946936735747801e-06,1.5266203781176856e-06,4.6822327494299173e-07,1.9663638962318438e-05
1.9409873256230167e-06,1.5056296161081188e-06,4.681208540942614e-07,1.954919049795661e-05
1.9338295924436485e-06,1.484362929198635e-06,4.6818288684249146e-07,1.9426571140787805e-05
1.9254410395553022e-06,1.462835124505924e-06,4.684206500220129e-07,1.9297006979411534e-05
1.9157994240056247e-06,1.4410640544624098e-06,4.688434816002129e-07,1.9161726002221087e-05
1.90488580036881e-06,1.4190801880850582e-06,4.6945862629628923e-07,1.9021962450156027e-05
1.892690154445121e-06,1.3969389013182257e-06,4.702692156867402e-07,1.8878919404605445e-05
1.8792136958113233e-06,1.3747297823773555e-06,4.712715377502536e-07,1.8733677689993178e-05
1.8644665312563625e-06,1.3525767891042811e-06,4.724541377377636e-07,1.8587109028087096e-05
1.848465619994664e-06,1.3306258790632496e-06,4.7379911034577465e-07,1.843984991138189e-05
1.8312342651038708e-06,1.3090237971314406e-06,4.7528501339450256e-07,1.829235015877009e-05
1.8128004147460705e-06,1.287901896519657e-06,4.768917322455532e-07,1.814496951940188e-05
1.7931965772668815e-06,1.267375095723796e-06,4.786049194396978e-07,1.7998060318386214e-05
1.772464670656338e-06,1.2475510881445518e-06,4.804155228317853e-07,1.7851987591704097e-05
1.750661854397247e-06,1.228541422903387e-06,4.823154458185561e-07,1.770709135263734e-05
1.7278615173083683e-06,1.210469480974492e-06,4.842938784772853e-07,1.756363212088358e-05
1.7041495119892998e-06,1.1934713144915957e-06,4.863358184014133e-07,1.742176881143765e-05
1.679620337519851e-06,1.177689107283022e-06,4.884227153812982e-07,1.7281594769365258e-05
1.6543741437171226e-06,1.1632610753923091e-06,4.905345066592732e-07,1.714320263259375e-05
1.6285142268953908e-06,1.1503119768743056e-06,4.9265195409805e-07,1.700671637630487e-05
1.6021505733658497e-06,1.13894660317397e-06,4.94759402095637e-07,1.6872263270344267e-05
1.5754095347057648e-06,1.12924613245034e-06,4.9684829295184e-07,1.6739921045378285e-05
1.5484379267421197e-06,1.1212669741408457e-06,4.989200385280454e-07,1.660969048044733e-05
1.5213954682099145e-06,1.1150425583457298e-06,5.009853193930324e-07,1.6481498747267102e-05
1.4944443267524381e-06,1.1105877142265605e-06,5.030591442975104e-07,1.6355214470772984e-05
1.4677444560126014e-06,1.1079032894286656e-06,5.05154515197879e-07,1.6230681273541418e-05
1.4414518007337617e-06,1.106976399689875e-06,5.072780221116346e-07,1.6107762837284622e-05
1.4157137044309231e-06,1.1077768516368055e-06,5.094288199793176e-07,1.5986343299595842e-05
1.3906622872667974e-06,1.1102577678615638e-06,5.115998286175814e-07,1.586627319486192e-05
1.3664096940711113e-06,1.1143615566163642e-06,5.137796730155449e-07,1.5747327697265028e-05
1.3430470837870972e-06,1.120024499774983e-06,5.159559938565064e-07,1.562921589230623e-05
1.3206455936799064e-06,1.1271805444366109e-06,5.181198939697915e-07,1.5511635372675447e-05
1.2992571604545537e-06,1.1357710642586833e-06,5.202678019402132e-07,1.539434748543416e-05
1.2789173874881949e-06,1.1457585751053568e-06,5.22398834880114e-07,1.5277217928952122e-05
1.2596524696469395e-06,1.1571319590792064e-06,5.245107947647479e-07,1.5160185878692255e-05
1.2414867281780635e-06,1.1698982989575328e-06,5.265975866035422e-07,1.504319413694831e-05
1.2244483426444158e-06,1.1840711689276208e-06,5.286483496411053e-07,1.4926158993844424e-05
1.208575078289096e-06,1.1996620002327756e-06,5.306481631934139e-07,1.4809039956372626e-05
1.1939183936980947e-06,1.2166711251614558e-06,5.325793508413135e-07,1.4691978482724137e-05
1.1805408474708612e-06,1.2350811146613931e-06,5.344229440677197e-07,1.4575372362204125e-05
1.1685076958276778e-06,1.2548598087254015e-06,5.361613217313875e-07,1.4459784831158587e-05
1.157879416457294e-06,1.2759654580338085e-06,5.377807858856334e-07,1.434577710034754e-05
1.1487066905787378e-06,1.2983410057658363e-06,5.392713675967509e-07,1.4233844116266852e-05
1.1410240270541571e-06,1.3219038441390773e-06,5.406244943685287e-07,1.4124472552748377e-05
1.1348444536580609e-06,1.3465459037841044e-06,5.418309742334641e-07,1.401818300693862e-05
1.1301624026523797e-06,1.3721432127839792e-06,5.428803374916271e-07,1.3915487537524796e-05
1.1269638684820771e-06,1.3985621865780865e-06,5.437617614419637e-07,1.3816817590493393e-05
1.1252332661958071e-06,1.425658781798705e-06,5.44466583700285e-07,1.3722509834603427e-05
1.1249497893155211e-06,1.4532780691800208e-06,5.449911618043968e-07,1.3632915360545605e-05
1.1260811911734492e-06,1.4812596140069206e-06,5.453379020876622e-07,1.3548558692840175e-05
1.1285873340107862e-06,1.5094478550960687e-06,5.455150090108794e-07,1.3470167357622274e-05
1.132430523518771e-06,1.5377031602660369e-06,5.455373960242321e-07,1.3398556413737548e-05
1.137580656003977e-06,1.565912256032266e-06,5.454268243378064e-07,1.3334500745345393e-05
1.1440112271826266e-06,1.5940007191313234e-06,5.452080711404524e-07,1.32786615182574e-05
1.1516904174805015e-06,1.6219401102801952e-06,5.449048667329848e-07,1.323160334417415e-05
1.1605748953884602e-06,1.6497360939594819e-06,5.445401173178528e-07,1.3193922913192027e-05
1.1706108055994668e-06,1.6774015830277814e-06,5.441372382244767e-07,1.3166364742776425e-05
1.1817375961077223e-06,1.7049352376931724e-06,5.437193250750504e-07,1.3149791135847204e-05
1.1938898852509707e-06,1.7323172391301965e-06,5.433076894249012e-07,1.3145068154339184e-05
1.2069976192993923e-06,1.759517569491109e-06,5.42919896539603e-07,1.31529726968629e-05
1.2209844379087802e-06,1.7865072497453582e-06,5.425668721087527e-07,1.3174117313677223e-05
1.2357639488235726e-06,1.813266670628045e-06,5.422518181267399e-07,1.320887149780092e-05
1.2512370207616112e-06,1.8397872892748333e-06,5.419724794109182e-07,1.3257298214264548e-05
1.2672932522515586e-06,1.8660655682328536e-06,5.41724058883171e-07,1.3319130260304707e-05
1.2838152245540998e-06,1.8920938936035119e-06,5.415002384565055e-07,1.3393801421948724e-05
1.3006817277368907e-06,1.917853496721991e-06,5.412934662096115e-07,1.3480529776649424e-05
1.3177682483581483e-06,1.943308949516093e-06,5.410958017196997e-07,1.3578404059588505e-05
1.3349472343822399e-06,1.968403938520304e-06,5.408989314487925e-07,1.3686415802560735e-05
1.3520917790808892e-06,1.993061567544244e-06,5.406931550973396e-07,1.3803450080382211e-05
1.3690810745659572e-06,2.0171914352275693e-06,5.404671814279229e-07,1.392827918194912e-05
1.3858022524054849e-06,2.040700356264594e-06,5.402084645442597e-07,1.4059572494708471e-05
1.4021493550451522e-06,2.063498743062117e-06,5.399026299732742e-07,1.4195930628648456e-05
1.41802520950441e-06,2.0854984844463785e-06,5.395327406343733e-07,1.4335943422394013e-05
1.4333445228383585e-06,2.1066082424635188e-06,5.390797326016533e-07,1.4478238664172378e-05
1.4480318510804889e-06,2.126735067323361e-06,5.38523510518899e-07,1.4621506930259005e-05
1.4620157543039585e-06,2.145794411846556e-06,5.378437365397818e-07,1.4764530612918027e-05
1.475224626601374e-06,2.1637224966859857e-06,5.370205466358215e-07,1.4906217664867768e-05
1.487586346813907e-06,2.180482866620593e-06,5.360349986446191e-07,1.5045594505504513e-05
1.4990330382876257e-06,2.1960633682476637e-06,5.348691366641903e-07,1.5181746790639484e-05
1.5095105833738302e-06,2.2104652336314527e-06,5.33507202693354e-07,1.531376314199371e-05
1.518986843590095e-06,2.2236891593711403e-06,5.319371548174878e-07,1.544072147972942e-05
1.527451846518703e-06,2.2357241494028737e-06,5.301500083890193e-07,1.5561686913464354e-05
1.5349091104828502e-06,2.246543195628107e-06,5.281383607811123e-07,1.567569908382152e-05
1.5413632174293371e-06,2.256106839775748e-06,5.258968746886115e-07,1.5781778895470504e-05
1.5468114397317086e-06,2.2643723507465322e-06,5.234249024339683e-07,1.5878960377717472e-05
1.5512435078466503e-06,2.27130313431485e-06,5.207290051034417e-07,1.596631504850559e-05
1.554645754414991e-06,2.276873761087017e-06,5.178224714545551e-07,1.6042952867812835e-05
1.5570047996281656e-06,2.2810700265429417e-06,5.147221181209911e-07,1.6108031759240778e-05
1.5583107343987447e-06,2.2838862664026102e-06,5.114463799077586e-07,1.616083910702061e-05
1.5585598924068604e-06,2.2853239345808204e-06,5.080161730943805e-07,1.6200936091333107e-05
1.5577548118738003e-06,2.28539317712711e-06,5.044554551457894e-07,1.6228247545770972e-05
1.555900356597483e-06,2.284112906411261e-06,5.007896040910168e-07,1.6243036007076884e-05
1.5529991747502448e-06,2.2815048127587918e-06,4.970425466995599e-07,1.6245820056657865e-05
1.5490508197550658e-06,2.277584308673515e-06,4.932342710248314e-07,1.6237277254868475e-05
1.544054513882693e-06,2.2723552159390926e-06,4.893804923240843e-07,1.6218127065586405e-05
1.5380123516429992e-06,2.2658108410936702e-06,4.854945344886461e-07,1.618902363090324e-05
1.5309342163126331e-06,2.257941390917329e-06,4.815888477467302e-07,1.6150512597600294e-05
1.5228505176746309e-06,2.2487483451963555e-06,4.776741734846639e-07,1.6103079996300472e-05
1.5138305037560868e-06,2.2382623767459566e-06,4.737579033307924e-07,1.604725676777145e-05
1.503991394020951e-06,2.2265551023634063e-06,4.6984375660374777e-07,1.5983699560772848e-05
1.4934886384059118e-06,2.2137349042449124e-06,4.6593249406873597e-07,1.591321077743391e-05
1.482493416901771e-06,2.199927751466204e-06,4.6202293914756783e-07,1.5836718576131478e-05
1.471169486567964e-06,2.185260009503881e-06,4.5811271534874106e-07,1.575522494166806e-05
1.4596587490750837e-06,2.169859936099155e-06,4.541983338751381e-07,1.5669719530586793e-05
1.448078552415928e-06,2.1538710156070078e-06,4.5027614028148e-07,1.5581116116034853e-05
1.4365246622538514e-06,2.137454529747053e-06,4.463453562156268e-07,1.5490290073132678e-05
1.4250734283674184e-06,2.120773236367068e-06,4.4241185276150723e-07,1.5398189931476082e-05
1.413783264756417e-06,2.1039703222380872e-06,4.384906366649466e-07,1.5305885394426534e-05
1.4026955264679199e-06,2.08715906861458e-06,4.3460517373424274e-07,1.5214478448947086e-05
1.3918344288577891e-06,2.070424473796219e-06,4.3078287405979136e-07,1.5124958088312673e-05
1.3812086792396064e-06,2.0538289245624875e-06,4.270500161109577e-07,1.5038109571442364e-05
1.3708158649787e-06,2.0374167031896196e-06,4.2342934349874367e-07,1.4954506796438851e-05
1.3606486081766988e-06,2.0212191671003217e-06,4.199395323412077e-07,1.4874544206088214e-05
1.3507024961351723e-06,2.005261056704364e-06,4.1659599878463674e-07,1.479846785812743e-05
1.3409851108204318e-06,1.989563673065984e-06,4.1341356601822927e-07,1.4726401432982315e-05
1.3315223305754805e-06,1.974148368540354e-06,4.104088128776804e-07,1.4658360968261664e-05
1.3223567302727514e-06,1.9590459381124743e-06,4.076000710595874e-07,1.4594247313502954e-05
1.3135377135283534e-06,1.9443024556444043e-06,4.0500690057705457e-07,1.4533827535661805e-05
1.3051093659069974e-06,1.9299780391117747e-06,4.026501111799432e-07,1.4476728087145971e-05
1.2971034373411585e-06,1.9161551752119853e-06,4.0055116821900775e-07,1.4422453686653702e-05
1.2895406598117016e-06,1.9029579808705604e-06,3.987322282352154e-07,1.4370429374269116e-05
1.2824358067322044e-06,1.8905585755983849e-06,3.972174785841683e-07,1.432004104955914e-05
1.2758009735475223e-06,1.8791553571886009e-06,3.960330823619724e-07,1.4270653208538196e-05
1.2696490673702628e-06,1.8689350617101169e-06,3.9520418799162003e-07,1.4221611384124401e-05
1.2639984732860714e-06,1.860047572938096e-06,3.947502652862043e-07,1.4172243574889407e-05
1.2588730495535255e-06,1.8526090788367184e-06,3.9468208269718686e-07,1.4121865303548816e-05
1.254296169024933e-06,1.846718491061401e-06,3.950034011733946e-07,1.4069797878812502e-05
1.2502842782434507e-06,1.842467089958492e-06,3.957161726081296e-07,1.4015412205516128e-05
1.2468424188643802e-06,1.8399391444194457e-06,3.96825854435821e-07,1.3958181587536312e-05
1.2439624200736706e-06,1.8392088002582318e-06,3.9834521443089383e-07,1.3897713331782715e-05
1.2416266802293491e-06,1.8403364976491319e-06,4.0029549298477523e-07,1.3833765262736216e-05
1.239817321272647e-06,1.8433654830544238e-06,4.027036293977425e-07,1.3766266039632425e-05
1.238525478912788e-06,1.8483148215598731e-06,4.0559599683398034e-07,1.3695319388279267e-05
1.2377553192559452e-06,1.8551682393470139e-06,4.089914903800165e-07,1.3621157243270432e-05
1.237520984148426e-06,1.863866749772799e-06,4.128970947868471e-07,1.3544050968788636e-05
1.2378380157176222e-06,1.874311774052716e-06,4.1730691770347993e-07,1.3464227642758985e-05
1.2387148308802094e-06,1.8863747210351882e-06,4.22204081400549e-07,1.3381827997542393e-05
1.2401536566404122e-06,1.89990409171679e-06,4.275641172714833e-07,1.3296911179722192e-05
1.242160374029858e-06,1.9147298995699657e-06,4.333578037899933e-07,1.3209487616145627e-05
1.2447473370716245e-06,1.9306736917105136e-06,4.395524330409892e-07,1.3119571672967536e-05
1.2479234184036662e-06,1.9475622811242352e-06,4.461127044631242e-07,1.3027235294263825e-05
1.2516870027348145e-06,1.965230806590857e-06,4.530024945841125e-07,1.2932608774239795e-05
1.2560301022215915e-06,1.9835136543019096e-06,4.6018684645768106e-07,1.2835830261209284e-05
1.2609409021838606e-06,2.002239547966627e-06,4.676326834561101e-07,1.2737021405553194e-05
1.26639733174022e-06,2.021237125872207e-06,4.7530796481021434e-07,1.2636320432752075e-05
1.2723609306416656e-06,2.040341140417413e-06,4.831812215041877e-07,1.2533909242838874e-05
1.2787772791423022e-06,2.0593928321344584e-06,4.912223382312447e-07,1.2429980574926484e-05
1.2855795264205428e-06,2.07823620735016e-06,4.99402174578444e-07,1.2324682567146334e-05
1.292692665083248e-06,2.096717190198729e-06,5.076905020299945e-07,1.2218108551629175e-05
1.300039136480492e-06,2.114692374800881e-06,5.160547792836888e-07,1.2110356189666235e-05
1.3075441925545997e-06,2.13204021036139e-06,5.244605253392011e-07,1.2001641842452795e-05
1.3151367514159162e-06,2.1486600593607216e-06,5.328716493617146e-07,1.1892419263755906e-05
1.3227459831336443e-06,2.1644593103995173e-06,5.412493849251503e-07,1.1783419976859164e-05
1.3303012710126854e-06,2.1793430122475392e-06,5.495508249528094e-07,1.167557878054222e-05
1.337737888658785e-06,2.1932152473920174e-06,5.577292562118984e-07,1.1569891993491569e-05
1.3449996828654669e-06,2.205987434615211e-06,5.65736396640646e-07,1.1467289912504135e-05
1.3520346917207932e-06,2.2175825317609744e-06,5.735244799914401e-07,1.1368570087009094e-05
1.358793734612538e-06,2.22793103944963e-06,5.810471871723255e-07,1.1274365018836486e-05
1.3652392505749678e-06,2.2369684805578567e-06,5.882603306828767e-07,1.1185112884455424e-05
1.3713540984125258e-06,2.244645949195846e-06,5.951224709118576e-07,1.11010626563627e-05
1.3771393059361672e-06,2.2509509498610716e-06,6.015950502935665e-07,1.1022348227577764e-05
1.382606411632045e-06,2.2559241395714773e-06,6.076432661813123e-07,1.0949076399674542e-05
1.3877749503994907e-06,2.259657244537944e-06,6.13238219721318e-07,1.0881327732073237e-05
1.392676772971337e-06,2.262268631737603e-06,6.183579735492119e-07,1.0819093910224806e-05
1.3973614019319887e-06,2.2638743290807104e-06,6.229860112983706e-07,1.0762267851100786e-05
1.4018959328667071e-06,2.2645786016225545e-06,6.2710969873324e-07,1.0710712588348714e-05
1.406358350097019e-06,2.2644846201953328e-06,6.307211466759932e-07,1.0664405677509002e-05
1.4108264315824732e-06,2.263705082063643e-06,6.338181394247244e-07,1.0623672942539776e-05
1.4153663042042181e-06,2.262360066684425e-06,6.364024025470145e-07,1.0589382607526978e-05
1.420030332034402e-06,2.2605652363155317e-06,6.384763841095045e-07,1.0562931298723531e-05
1.4248689731051656e-06,2.2584187720642853e-06,6.40040874169766e-07,1.0546068053761391e-05
1.4299457003295103e-06,2.2559932498730843e-06,6.410942759873374e-07,1.0540717708600991e-05
1.4353402962906387e-06,2.253334969310235e-06,6.416334572863117e-07,1.0548864606931944e-05
1.4411362300597025e-06,2.250468874977629e-06,6.416554812983463e-07,1.0572457303024133e-05
1.4474013937418249e-06,2.247403637989569e-06,6.41158680486183e-07,1.0613296680440657e-05
1.454177089326455e-06,2.2441342163465503e-06,6.401435267351322e-07,1.0672920047244573e-05
1.4614805775318891e-06,2.240644845255549e-06,6.386156985911098e-07,1.0752502910049544e-05
1.469311834812661e-06,2.2369147595069738e-06,6.365893641286297e-07,1.0852784385135573e-05
1.4776539755822677e-06,2.2329229744639402e-06,6.340856024207335e-07,1.0974033574905787e-05
1.486470110909028e-06,2.228648290548629e-06,6.311269676366978e-07,1.1116072811779387e-05
1.4957050398901572e-06,2.224072390556836e-06,6.277340390010412e-07,1.127834119704693e-05
1.5052910380370229e-06,2.2191943577513102e-06,6.23925837969157e-07,1.1459966111406641e-05
1.5151515146730551e-06,2.2140444094294342e-06,6.197214394649862e-07,1.1659831073194361e-05
1.5252013068612272e-06,2.2086794751160332e-06,6.151406275742607e-07,1.1876653241897215e-05
1.5353480845758836e-06,2.2031634740272124e-06,6.102033414321882e-07,1.2109069234304515e-05
1.5454982293786243e-06,2.197550040725454e-06,6.049286080095454e-07,1.2355693857810867e-05
1.5555652550644476e-06,2.191879025675118e-06,5.993347609485578e-07,1.2615137965756716e-05
1.5654751029552789e-06,2.186181710339748e-06,5.934414152009453e-07,1.2886013635932891e-05
1.5751632740391682e-06,2.180483300712011e-06,5.872706615242775e-07,1.3166933770388193e-05
1.5845671781622862e-06,2.174798434902056e-06,5.808469578327924e-07,1.3456493350493919e-05
1.593625071176391e-06,2.1691256408473056e-06,5.741978800155172e-07,1.3753256199476624e-05
1.6022847994882574e-06,2.163447429339162e-06,5.673550946613819e-07,1.4055772802230258e-05
1.6105127492839022e-06,2.1577337510018057e-06,5.60354458638873e-07,1.4362592457382337e-05
1.618295962696713e-06,2.1519463906632823e-06,5.532358009629803e-07,1.4672228137790603e-05
1.625637439333811e-06,2.146046152946658e-06,5.460410863045349e-07,1.4983105302891724e-05
1.632546082182749e-06,2.1399992747310923e-06,5.388113356485258e-07,1.5293545887183053e-05
1.6390254744571483e-06,2.133779958952365e-06,5.315846120431769e-07,1.5601802823372304e-05
1.6450663257010592e-06,2.127372216801328e-06,5.243944353821654e-07,1.5906131348648168e-05
1.650643760141257e-06,2.1207695932103062e-06,5.172688450847185e-07,1.6204845661680628e-05
1.6557197792220219e-06,2.1139688405991213e-06,5.102313819572223e-07,1.649632191470676e-05
1.6602511253270494e-06,2.1069638645664475e-06,5.033020452018689e-07,1.6778993402814833e-05
1.6641979681589857e-06,2.0997478508108987e-06,4.964966786246648e-07,1.7051406428209738e-05
1.6675275322036384e-06,2.0923203726015807e-06,4.898268673021107e-07,1.731231902469938e-05
1.6702149705408043e-06,2.0846939663732138e-06,4.833026307989131e-07,1.7560772469232847e-05
1.6722478173414853e-06,2.0768993698857247e-06,4.769356258636502e-07,1.7796111012295223e-05
1.6736322693677946e-06,2.0689871777613848e-06,4.70738714158776e-07,1.801797030584281e-05
1.6743919877142955e-06,2.061020938567126e-06,4.6472330094011096e-07,1.8226269095839173e-05
1.6745572990782098e-06,2.05306238341319e-06,4.58898237815183e-07,1.8421204106720666e-05
1.6741575702820317e-06,2.0451576122275972e-06,4.53270104736147e-07,1.860318213873833e-05
1.6732245304951142e-06,2.037332678132175e-06,4.4784398192320345e-07,1.8772669787534977e-05
1.6717959415200372e-06,2.029598436427285e-06,4.4262498987597894e-07,1.8930043045084665e-05
1.6699121266134486e-06,2.0219553794266318e-06,4.376192485387072e-07,1.9075518317762533e-05
1.6676108770053908e-06,2.0143937937028734e-06,4.328332184040018e-07,1.9209177040482018e-05
1.6649238280281583e-06,2.00689768703641e-06,4.2827307863247315e-07,1.9331037100593765e-05
1.6618729531807094e-06,1.999456551582059e-06,4.239452492508668e-07,1.94411102396529e-05
1.6584685580888696e-06,1.9920756767202167e-06,4.198576266082792e-07,1.95394224215742e-05
1.654710232882411e-06,1.9847797886203013e-06,4.160212894231002e-07,1.962604972788916e-05
1.6505904523800031e-06,1.9776143349048692e-06,4.12450855012628e-07,1.9701201037123905e-05
1.6460986747326956e-06,1.970644319997427e-06,4.091620439236557e-07,1.976523195288225e-05
1.641222237184328e-06,1.9639469926275927e-06,4.0616926397673224e-07,1.981851872185493e-05
1.635944280607206e-06,1.9576020135679933e-06,4.0348534438069464e-07,1.986134278778944e-05
1.6302418114931375e-06,1.951683194079457e-06,4.0112108968580776e-07,1.989392779155733e-05
1.6240856761550898e-06,1.946249737042673e-06,3.990829908124985e-07,1.991661664394876e-05
1.617444193871871e-06,1.941338474023217e-06,3.973713278437797e-07,1.9930139804025e-05
1.6102915576238938e-06,1.936962421160954e-06,3.959813542245572e-07,1.993584062037709e-05
1.602618120767775e-06,1.933117119618364e-06,3.949062659274816e-07,1.993566388197419e-05
1.5944354323729608e-06,1.929792885857505e-06,3.941381331187581e-07,1.99319284917756e-05
1.5857712618334346e-06,1.926987430601757e-06,3.936671760574817e-07,1.9927070093976885e-05
1.5766581163947883e-06,1.9247133147115934e-06,3.934841180128895e-07,1.992344498580086e-05
1.5671239933041756e-06,1.9230018271208233e-06,3.935847330857577e-07,1.9923200305715383e-05
1.5571900779455471e-06,1.9219066639027147e-06,3.9396923678768935e-07,1.9928192553974152e-05
1.5468724997567958e-06,1.921503523883653e-06,3.946360361908133e-07,1.9939925753434706e-05
1.5361852563005424e-06,1.9218792562127373e-06,3.9557741050460503e-07,1.995951690936694e-05
1.5251433413136362e-06,1.9231145572485475e-06,3.967807139768999e-07,1.9987701934414317e-05
1.5137637199347936e-06,1.9252722409734163e-06,3.9823235348840904e-07,2.0024849133837398e-05
1.5020637897821532e-06,1.928393547717864e-06,3.999206317794179e-07,2.007095588207894e-05
1.4900594484359876e-06,1.932496068381976e-06,4.0183518792951534e-07,2.0125659012905042e-05
1.477765276103296e-06,1.9375770033305872e-06,4.0396415415515717e-07,2.0188294661058364e-05
1.4651991978997372e-06,1.9436287938562504e-06,4.0629284048198986e-07,2.0258007556761194e-05
1.4523896498583657e-06,1.9506573057933643e-06,4.088049272016515e-07,2.0333881405984203e-05
1.4393778543972236e-06,1.9586874894650984e-06,4.1148289904521066e-07,2.041504783432093e-05
1.4262105876574553e-06,1.9677550196520896e-06,4.1430671013458023e-07,2.0500737199447907e-05
1.4129288950289325e-06,1.977893662226201e-06,4.172539485146758e-07,2.059027232010501e-05
1.39956180155126e-06,1.9891299032662202e-06,4.2030302816064477e-07,2.0683051039542067e-05
1.386128599432382e-06,2.001486714027418e-06,4.234356071128744e-07,2.0778546567447446e-05
1.3726502386346192e-06,2.0149860430920484e-06,4.266349127638576e-07,2.0876304060880405e-05
1.359163583823677e-06,2.029643508974521e-06,4.298828548426985e-07,2.097591344273805e-05
1.345723987838384e-06,2.045461820796884e-06,4.3315986631216567e-07,2.1076953682099115e-05
1.332395596897864e-06,2.062429905810313e-06,4.3644680641772565e-07,2.117891268138541e-05
1.3192453736535826e-06,2.0805247304359373e-06,4.3972599815583926e-07,2.128114183906056e-05
1.3063451583291684e-06,2.0997082431423896e-06,4.429802485419244e-07,2.138290966199744e-05
1.2937731403833959e-06,2.1199187629677185e-06,4.4619176105093107e-07,2.1483494574268164e-05
1.2816113174240575e-06,2.1410685914822915e-06,4.4934270976316774e-07,2.158219584433446e-05
1.269939671361531e-06,2.163061103681717e-06,4.524158441629017e-07,2.167825613728785e-05
1.2588281967285872e-06,2.18582373625631e-06,4.5539350759790867e-07,2.1770787492886828e-05
1.2483301178588478e-06,2.20933399461913e-06,4.5825633649468357e-07,2.1858755538515865e-05
1.2384782308721508e-06,2.233616722641217e-06,4.6098295799393855e-07,2.1941019733549568e-05
1.2292848100995238e-06,2.2587157874439684e-06,4.63550802052015e-07,2.201642829716666e-05
1.220747249564783e-06,2.2846615187228163e-06,4.659378301371561e-07,2.208394474536546e-05
1.212858548636052e-06,2.3114490066647727e-06,4.6812384262909005e-07,2.21427433325255e-05
1.2056157965893423e-06,2.339033228686048e-06,4.7009058733059157e-07,2.219224807927069e-05
1.1990222684532725e-06,2.3673404936761047e-06,4.7182328532588693e-07,2.2232141064319493e-05
1.1930857932589484e-06,2.396284212522121e-06,4.733139192225068e-07,2.226236556710841e-05
1.1878167540562998e-06,2.4257717423733682e-06,4.7456114676966963e-07,2.2283120688861692e-05
1.1832257301478942e-06,2.4556999507685834e-06,4.755658780022383e-07,2.229480093415909e-05
1.1793209527671095e-06,2.4859458047806204e-06,4.7632750923674777e-07,2.2297856919128907e-05
1.1761072572912606e-06,2.516363047858715e-06,4.768427615505371e-07,2.229264659519679e-05
1.1735860210551479e-06,2.546789726999366e-06,4.771064172829426e-07,2.227937759716396e-05
1.1717548850577758e-06,2.577057475735661e-06,4.771141692479703e-07,2.2258155658347722e-05
1.1706082471148263e-06,2.60699522451544e-06,4.76865937529551e-07,2.2229063863348712e-05
1.1701373150502498e-06,2.636432179645522e-06,4.7636775625600526e-07,2.2192211685948352e-05
1.1703269207046832e-06,2.6652068482021853e-06,4.756335101672346e-07,2.214773664850261e-05
1.1711522348805808e-06,2.6931801771513765e-06,4.7468638429311113e-07,2.2095777336418163e-05
1.172582609787047e-06,2.7202425769144048e-06,4.735570108082536e-07,2.2036475945257066e-05
1.174593241593582e-06,2.746309099816701e-06,4.722792952880449e-07,2.196999396311212e-05
1.1771771058739514e-06,2.771308417693969e-06,4.708888446465577e-07,2.1896471030155844e-05
1.180349906537765e-06,2.7951730081786184e-06,4.694239267711389e-07,2.1815986450768235e-05
1.184144006983173e-06,2.8178344700423854e-06,4.6792364617038747e-07,2.172861871374306e-05
1.1885922792648149e-06,2.839226218660301e-06,4.664226410759414e-07,2.163459227286789e-05
1.1937125200240657e-06,2.859291493404844e-06,4.6494801218827296e-07,2.1534475906678124e-05
1.1995025473671205e-06,2.8779878733496202e-06,4.6352217554635564e-07,2.14293424933851e-05
1.2059429327238024e-06,2.8952818785699208e-06,4.621683332190466e-07,2.1320725299862422e-05
1.2129998073168622e-06,2.9111447777354208e-06,4.6091284647970564e-07,2.1210368540187868e-05
1.2206264413305556e-06,2.9255638254280332e-06,4.597835284379346e-07,2.1099972117584563e-05
1.2287659374188686e-06,2.938557323027285e-06,4.5880660711398146e-07,2.0991048549679277e-05
1.2373547003978027e-06,2.950173263686718e-06,4.5800424242750863e-07,2.0884851687364167e-05
1.2463230459000971e-06,2.960472779085645e-06,4.5739416129994347e-07,2.0782335592786144e-05
1.255592625266498e-06,2.9695101371173923e-06,4.569919744648656e-07,2.0684138569558026e-05
1.265074688006158e-06,2.977317822714492e-06,4.5681289807038214e-07,2.059058082595476e-05
1.2746709387330391e-06,2.9839037220483623e-06,4.568699970147751e-07,2.050167544697176e-05
1.2842762588566908e-06,2.9892582531556025e-06,4.571709301608612e-07,2.041717654058914e-05
1.29378362285093e-06,2.993359665585645e-06,4.577164980190008e-07,2.033666543577328e-05
1.3030897870840894e-06,2.9961720923705377e-06,4.5850201057564155e-07,2.025962891748025e-05
1.3120973917567448e-06,2.9976431234179715e-06,4.59520136975371e-07,2.018549737178305e-05
1.3207132557999297e-06,2.9977079019431617e-06,4.6076317774391186e-07,2.011366392951785e-05
1.328847907028166e-06,2.9962956646877437e-06,4.6222324408540536e-07,2.004351863834176e-05
1.3364190129268795e-06,2.993332223428135e-06,4.638901684994961e-07,1.9974503479944035e-05
1.3433555369726814e-06,2.988742756632553e-06,4.6574995341728743e-07,1.9906154313718022e-05
1.3495976139025959e-06,2.9824609300907314e-06,4.6778646500322044e-07,1.9838097809425136e-05
1.3550932880618884e-06,2.9744388554689105e-06,4.6998521218854025e-07,1.9770023686758605e-05
1.3597983970692935e-06,2.964648153998515e-06,4.7233561801249283e-07,1.970165949467098e-05
1.3636797065601038e-06,2.953072576901446e-06,4.7482885278752395e-07,1.9632737047208802e-05
1.3667153645711512e-06,2.939704105511777e-06,4.774534765429431e-07,1.9562951119657127e-05
1.3688908256015564e-06,2.9245494055808525e-06,4.801939521259765e-07,1.949193573138652e-05
1.3701931163756405e-06,2.90763575986924e-06,4.830316357333203e-07,1.9419255767687243e-05
1.3706066509241748e-06,2.889004871946464e-06,4.859450031726221e-07,1.9344406352759987e-05
1.370113106203688e-06,2.868701957077275e-06,4.889095156514082e-07,1.9266849291496923e-05
1.3686950629818857e-06,2.8467728633735537e-06,4.918987170627801e-07,1.9186082263887758e-05
1.366339636496127e-06,2.823267972826283e-06,4.948872365827605e-07,1.910166631732319e-05
1.363040019097676e-06,2.798243447232869e-06,4.978553701111201e-07,1.901317899193561e-05
1.3587978395040605e-06,2.7717571423268544e-06,5.0079165924216e-07,1.8920154518925133e-05
1.353627538018504e-06,2.7438671691840597e-06,5.036903648041904e-07,1.8822067058959704e-05
1.3475571956610972e-06,2.7146397634647443e-06,5.065460034352161e-07,1.871835180412631e-05
1.3406234577719208e-06,2.6841600840003576e-06,5.093493774515783e-07,1.8608455856071412e-05
1.332865975594653e-06,2.652537020127929e-06,5.120878110160035e-07,1.849191565590325e-05
1.3243240514378335e-06,2.61990347939165e-06,5.147480795455768e-07,1.8368420606951545e-05
1.3150353896422943e-06,2.5864149696599275e-06,5.173172760027399e-07,1.823784731361245e-05
1.305037180336832e-06,2.552242169081752e-06,5.197815428854652e-07,1.8100301807566792e-05
1.294365942859067e-06,2.5175560070477168e-06,5.221281915788045e-07,1.7956174945008884e-05
1.2830552911127307e-06,2.4825157128740433e-06,5.24351002885975e-07,1.7806173315970122e-05
1.2711365577440873e-06,2.447268657306107e-06,5.264516832081225e-07,1.7651278881316265e-05
1.2586432188383593e-06,2.4119535660354054e-06,5.284358256018725e-07,1.749261033792302e-05
1.2456134039510651e-06,2.3766982877953757e-06,5.303090350447694e-07,1.733125324739183e-05
1.2320865773348795e-06,2.341619677095032e-06,5.320760336087008e-07,1.71681869589506e-05
1.2180987455929189e-06,2.3068314835369486e-06,5.337402806099128e-07,1.700432540211977e-05
1.203681624680075e-06,2.2724511961853345e-06,5.353026670165657e-07,1.6840566303162236e-05
1.1888667520169092e-06,2.2385969503575963e-06,5.367599858557545e-07,1.667779095016072e-05
1.1736961434611692e-06,2.2053802116861784e-06,5.381043028120181e-07,1.65168265454927e-05
1.1582377526728412e-06,2.172907787741671e-06,5.393239909295743e-07,1.6358411398213823e-05
1.1425971754300421e-06,2.141295100757234e-06,5.404050270520583e-07,1.6203250462577958e-05
1.1269182007044493e-06,2.110676178221477e-06,5.413318553254411e-07,1.6052129491625547e-05
1.1113687849708557e-06,2.081197845345563e-06,5.420903397382848e-07,1.5905902335682442e-05
1.0961175469398895e-06,2.0530029420155663e-06,5.426724466991089e-07,1.576533796266414e-05
1.08131726107561e-06,2.0262147466132947e-06,5.430777033474396e-07,1.5631009283498486e-05
1.0671041421278451e-06,2.0009272331092518e-06,5.433098571724626e-07,1.550332836028475e-05
1.053601621926326e-06,1.9772029473070567e-06,5.433727467781292e-07,1.5382722718720688e-05
1.040916369157039e-06,1.9550788712417494e-06,5.432695234058567e-07,1.5269853925629455e-05
1.029131287842495e-06,1.93457288021334e-06,5.430054080738297e-07,1.5165694586068793e-05
1.0183055827378015e-06,1.915684073083462e-06,5.425904616859796e-07,1.5071398365526523e-05
1.0084799545383569e-06,1.8983895725170943e-06,5.420402256853246e-07,1.4988095293365105e-05
9.99680703934628e-07,1.8826475378352765e-06,5.413755628031117e-07,1.4916750182544473e-05
9.919237049801285e-07,1.8684132615639657e-06,5.406216556591957e-07,1.4858103646628805e-05
9.852190608532288e-07,1.8556605751456413e-06,5.398042403160061e-07,1.48126569365927e-05
9.795737217514e-07,1.8443935951743512e-06,5.389444737580874e-07,1.4780677259852796e-05
9.749925619196709e-07,1.8346431161419048e-06,5.380565117352928e-07,1.4762214889068952e-05
9.714806406415423e-07,1.826451436953584e-06,5.371486483332664e-07,1.4757127547306295e-05
9.690452769842278e-07,1.8198524941983207e-06,5.36224993549813e-07,1.4765113302839613e-05
9.676931776114843e-07,1.814857013901933e-06,5.35286017113594e-07,1.4785734285628837e-05
9.674220633868342e-07,1.8114532003247929e-06,5.343290514541074e-07,1.481840012213114e-05
9.682135572167164e-07,1.8096245850648774e-06,5.333490122063586e-07,1.486232979781839e-05
9.700339687754108e-07,1.8093716235018008e-06,5.323386492872345e-07,1.4916562046410727e-05
9.728411167235778e-07,1.8107197509400208e-06,5.312893586379225e-07,1.4980044582926916e-05
9.76590581444512e-07,1.8137086892660644e-06,5.301943864133931e-07,1.5051752702570173e-05
9.81238692222849e-07,1.8183712519928417e-06,5.290539118820616e-07,1.5130766657887757e-05
9.867430049653365e-07,1.8247168704096885e-06,5.278784581616106e-07,1.5216281593677405e-05
9.930605712061906e-07,1.8327301809189889e-06,5.266869920727039e-07,1.5307572144418314e-05
1.0001440441701728e-06,1.842377910997679e-06,5.255002241960573e-07,1.5403944041779907e-05
1.0079370200694907e-06,1.8536100694783489e-06,5.243341281197004e-07,1.5504692045033552e-05
1.0163711585710706e-06,1.8663537792310951e-06,5.231978596278264e-07,1.5609067713016254e-05
