1.063936065088035e-06,3.4250971626409245e-06,8.877433449958899e-07,2.2494292677955065e-05
1.064316034774464e-06,3.452648194150097e-06,8.949089194969938e-07,2.2540981419477178e-05
1.0650585358686708e-06,3.479440256174981e-06,9.018597912585348e-07,2.2575924553041127e-05
1.0660980949511696e-06,3.50533290433656e-06,9.085363899293907e-07,2.2598143019877743e-05
1.0673718557839347e-06,3.5301658343752966e-06,9.148791329577755e-07,2.260669088858874e-05
1.0688285306258987e-06,3.553758068405786e-06,9.208292360054771e-07,2.260072977281481e-05
1.0704332381251782e-06,3.5759157030662437e-06,9.263295962024122e-07,2.2579608450157362e-05
1.0721647894461743e-06,3.5964430261215903e-06,9.313264908554741e-07,2.2542926605787052e-05
1.0740087225901366e-06,3.6151501020806703e-06,9.357701147681236e-07,2.2490573875473424e-05
1.0759523228786237e-06,3.6318540394548513e-06,9.396142958663324e-07,2.2422741932950626e-05
1.0779832808891174e-06,3.646381707683474e-06,9.428182555293451e-07,2.2339919279859765e-05
1.0800878546104736e-06,3.6585851979796563e-06,9.453509026015816e-07,2.2242863956375484e-05
1.082246497004795e-06,3.6683697867475097e-06,9.47194615340736e-07,2.2132532711702174e-05
1.0844305206745964e-06,3.67571924327029e-06,9.48344876090548e-07,2.20099813360867e-05
1.0866028521674464e-06,3.6806982031783615e-06,9.488068707182423e-07,2.1876270794768813e-05
1.0887228556192686e-06,3.6834244431092194e-06,9.485924663682925e-07,2.173239069365687e-05
1.0907519983694694e-06,3.684032360114474e-06,9.477179458845314e-07,2.1579236779900853e-05
1.0926551349113929e-06,3.682659198061055e-06,9.462045256728642e-07,2.1417666120015685e-05
1.0943984929609069e-06,3.679458296965915e-06,9.440837436643469e-07,2.1248562608433112e-05
1.095952443564005e-06,3.674616436133295e-06,9.414024514708729e-07,2.1072854029109507e-05
1.0973001716629769e-06,3.66835327400654e-06,9.382216782707235e-07,2.0891489737079744e-05
1.0984436683495808e-06,3.660897081526319e-06,9.346099755960841e-07,2.0705389938435107e-05
1.099401198388425e-06,3.6524520401378113e-06,9.3063512038004e-07,2.0515384940885028e-05
1.100197187489946e-06,3.6431800822736785e-06,9.263597213369721e-07,2.032218226123909e-05
1.10085109996761e-06,3.633201800002594e-06,9.218418317889151e-07,2.0126361125322584e-05
1.1013731462556663e-06,3.622602827887889e-06,9.171341911993143e-07,1.9928367240148013e-05
1.1017663462572334e-06,3.611436779208976e-06,9.12280971627905e-07,1.972851153654266e-05
1.1020292550080177e-06,3.5997329296455843e-06,9.073188247608828e-07,1.9526984003147585e-05
1.1021576604218742e-06,3.58751965709254e-06,9.022821466518804e-07,1.9323887285494892e-05
1.102145957301979e-06,3.5748546218949885e-06,8.972044051381363e-07,1.911929017351225e-05
1.101987419985597e-06,3.5618382256354814e-06,8.921141439488117e-07,1.891327171524289e-05
1.1016726124740487e-06,3.5485994073465905e-06,8.870320649643076e-07,1.8705943886540272e-05
1.1011876038506324e-06,3.535274160431366e-06,8.819710786460169e-07,1.8497489168019973e-05
1.100514224213148e-06,3.522012736740058e-06,8.769369774558838e-07,1.8288218610188252e-05
1.09963285943074e-06,3.5090162706355417e-06,8.719307073549255e-07,1.8078586592574165e-05
1.0985266736634352e-06,3.496562878573072e-06,8.669554451916519e-07,1.786911449421911e-05
1.097183827324096e-06,3.4850004565818918e-06,8.620284113618913e-07,1.766027077545802e-05
1.0955950328123104e-06,3.4747162084453994e-06,8.571915519564373e-07,1.7452411127563568e-05
1.0937496229333295e-06,3.4660941266271278e-06,8.525122624437805e-07,1.7245846075880175e-05
1.0916345691061087e-06,3.4594697921293815e-06,8.480709794865575e-07,1.704098987733768e-05
1.0892346798944636e-06,3.4550993605686517e-06,8.439439609996673e-07,1.6838432898771538e-05
1.0865321853677064e-06,3.453152388017038e-06,8.401919686354796e-07,1.6638853412330047e-05
1.0835109297122423e-06,3.4537185012290887e-06,8.36856991701778e-07,1.6442868548119578e-05
1.080165995565842e-06,3.456817826389166e-06,8.339639905339976e-07,1.625094722105374e-05
1.07650797874784e-06,3.462418760896624e-06,8.315259265933999e-07,1.60634178801314e-05
1.0725560313282322e-06,3.4704583731026466e-06,8.295512736905301e-07,1.5880534812826312e-05
1.0683281018519563e-06,3.480848219266743e-06,8.280509680896255e-07,1.570253922573113e-05
1.063836897418768e-06,3.493465683083442e-06,8.270400861208769e-07,1.5529682662289246e-05
1.0590913248666886e-06,3.508155810914654e-06,8.265330437215774e-07,1.5362217643499265e-05
1.0540999699480952e-06,3.5247606626998114e-06,8.265364838952826e-07,1.5200379418993e-05
1.048875476567597e-06,3.5431618427156442e-06,8.270457175803717e-07,1.5044383139762994e-05
1.0434406836587955e-06,3.5633099187946287e-06,8.280473271601402e-07,1.4894421405559589e-05
1.0378335806760575e-06,3.5852277124087274e-06,8.2952586327194e-07,1.4750628790777292e-05
1.0321046130122442e-06,3.608989700128447e-06,8.314701351173155e-07,1.461302550916048e-05
1.0263061835687224e-06,3.6346866017645913e-06,8.338738573451666e-07,1.4481489710194172e-05
1.0204826989840788e-06,3.6623866622349267e-06,8.367295534764313e-07,1.4355780215484766e-05
1.0146671590278758e-06,3.692105686867458e-06,8.400225427414276e-07,1.4235578179585633e-05
1.0088823296872715e-06,3.7237908924750968e-06,8.437311551942502e-07,1.4120503571374268e-05
1.0031436946983637e-06,3.757315965490132e-06,8.47831312166629e-07,1.4010105745549573e-05
9.974646218433762e-07,3.792487272214711e-06,8.523017234835876e-07,1.3903858345542111e-05
9.9186238419636e-07,3.829064107296368e-06,8.571277350019501e-07,1.3801169668265747e-05
9.863599829461664e-07,3.8667878533164005e-06,8.623023628300535e-07,1.3701403586302732e-05
9.809822330216572e-07,3.905405900499781e-06,8.678243886570164e-07,1.3603902679513755e-05
9.75750478244313e-07,3.944682193702989e-06,8.73693374511223e-07,1.350800859476437e-05
9.706791856814275e-07,3.984399166541629e-06,8.799030478139484e-07,1.3413081913300948e-05
9.657746008855064e-07,4.0243571955695515e-06,8.864370182507353e-07,1.3318510389160154e-05
9.610356289292672e-07,4.064372547730786e-06,8.932675709436753e-07,1.322370136683284e-05
9.56457506915165e-07,4.104274379059072e-06,9.003561234442939e-07,1.3128082797427167e-05
9.520371385821191e-07,4.1438995766391766e-06,9.076558787602016e-07,1.3031127195295045e-05
9.477767342745079e-07,4.183081358587612e-06,9.15115946976045e-07,1.2932379922177405e-05
9.43683313910042e-07,4.221636600643236e-06,9.226858018140356e-07,1.2831465958558079e-05
9.397656688263477e-07,4.259364076994725e-06,9.303198691357741e-07,1.272808079708895e-05
9.360340001523673e-07,4.296053115410128e-06,9.37978417869496e-07,1.262199171352973e-05
9.325031711967268e-07,4.3314912648603615e-06,9.456227217169355e-07,1.2513045023222023e-05
9.291923504469648e-07,4.3654663323739864e-06,9.532099546902643e-07,1.2401159865084946e-05
9.26118326913508e-07,4.3977673807456485e-06,9.606916429476216e-07,1.2286304884846745e-05
9.232906307678814e-07,4.4281888416083745e-06,9.680138101111595e-07,1.216846180931883e-05
9.207137600036127e-07,4.4565340915425014e-06,9.751181469808192e-07,1.2047610615436867e-05
9.183910739937596e-07,4.482612752230014e-06,9.819446596459877e-07,1.192377479735408e-05
9.163238361030045e-07,4.506236096595013e-06,9.884338786429435e-07,1.179709506655584e-05
9.145064185481785e-07,4.527218457206186e-06,9.945283720401434e-07,1.1667853695386215e-05
9.129229678307524e-07,4.5453804902783205e-06,1.0001742895092006e-06,1.1536416206430329e-05
9.11548391729833e-07,4.5605488450081635e-06,1.005321019205719e-06,1.1403156138208556e-05
9.103517975657931e-07,4.5725594863666186e-06,1.0099209451313495e-06,1.1268457775452612e-05
9.092989054775881e-07,4.581267678838894e-06,1.0139337578594317e-06,1.11327979050517e-05
9.083535636739573e-07,4.5865535607981815e-06,1.0173311437210302e-06,1.099684767564044e-05
9.07479787483042e-07,4.588317259154453e-06,1.0200952073257478e-06,1.0861553615505247e-05
9.066427291844047e-07,4.586472385758565e-06,1.0222141267833485e-06,1.0728132985138524e-05
9.058086749924177e-07,4.580949456600728e-06,1.0236820092650805e-06,1.0597931606428552e-05
9.049474684740448e-07,4.5717084513163906e-06,1.024501731440311e-06,1.0472228069327703e-05
9.040374911931705e-07,4.558746968989217e-06,1.0246854279370777e-06,1.035213078089227e-05
9.030680394857985e-07,4.542093557843109e-06,1.0242511636687576e-06,1.023859677096993e-05
9.020355849311016e-07,4.52179369097503e-06,1.0232178377163692e-06,1.0132494965716704e-05
9.009370889881329e-07,4.4979085974373565e-06,1.0216023009514126e-06,1.0034641009426536e-05
8.997653865015329e-07,4.4705326206383215e-06,1.0194217965692563e-06,9.945772407340544e-06
8.985078520754221e-07,4.4398108038958514e-06,1.0167002797798156e-06,9.866510204805169e-06
8.971470016815445e-07,4.405940024637632e-06,1.0134744830536136e-06,9.797380135692985e-06
8.956622739532271e-07,4.369151411571658e-06,1.0097949961121295e-06,9.738847069092604e-06
8.940322491961514e-07,4.329683236397042e-06,1.005719951535702e-06,9.691270487861927e-06
8.922365425873449e-07,4.287763052306599e-06,1.0013058741204438e-06,9.654824419655792e-06
8.902579276030845e-07,4.243606437547132e-06,9.966020334794856e-07,9.629492202422026e-06
8.88084166077874e-07,4.19742244066549e-06,9.916492542861086e-07,9.615173466265186e-06
8.857078527484068e-07,4.149422720717998e-06,9.864826052875083e-07,9.61188461046725e-06
8.831249551689542e-07,4.099832400474186e-06,9.811366036383117e-07,9.619964136105627e-06
8.803336404359327e-07,4.0488873027109175e-06,9.756475032267343e-07,9.640112049051507e-06
8.773324259976055e-07,3.9968140611598416e-06,9.700500830378415e-07,9.673213956470558e-06
8.741171448581285e-07,3.943811955213732e-06,9.643730537374277e-07,9.720103529353136e-06
8.706795147882796e-07,3.8900515733731636e-06,9.586380341312375e-07,9.781394717725236e-06
8.670107332934981e-07,3.835689217286165e-06,9.528652138264843e-07,9.857408933808286e-06
8.63111360049098e-07,3.7808845885199915e-06,9.470844035342049e-07,9.948203263260434e-06
8.590017278300739e-07,3.7258056078934335e-06,9.413432243195551e-07,1.0053665369871955e-05
8.547227883883523e-07,3.670616059924452e-06,9.357057031525742e-07,1.0173598823435353e-05
8.503267684187473e-07,3.615460781414994e-06,9.302436024841152e-07,1.0307764111379953e-05
8.458664040214637e-07,3.5604669757138016e-06,9.250259467739124e-07,1.045588918970496e-05
8.413881492033059e-07,3.5057625188230316e-06,9.20111775531626e-07,1.0617656607015636e-05
8.369288446964829e-07,3.4514904993134207e-06,9.155504790067854e-07,1.0792668718611458e-05
8.325149221710133e-07,3.3978011913636318e-06,9.113861861798772e-07,1.0980422397767468e-05
8.281644724375287e-07,3.344829519790952e-06,9.076572378687453e-07,1.1180320371160498e-05
8.238915690025198e-07,3.2926791678700178e-06,9.043898809812388e-07,1.1391699898190551e-05
8.197098348259968e-07,3.2414187076776867e-06,9.01593577765036e-07,1.1613848595482836e-05
8.156318554556767e-07,3.191083109432898e-06,8.992626180111221e-07,1.1845989891581676e-05
8.116655217370806e-07,3.141678005498256e-06,8.973825213261566e-07,1.208723736557603e-05
8.07811888325749e-07,3.0931877198231084e-06,8.959367950190909e-07,1.2336555190115817e-05
8.040658530125673e-07,3.0455842921413904e-06,8.949100113178501e-07,1.2592763164309707e-05
8.00417850364831e-07,2.998831992400623e-06,8.942866482735727e-07,1.2854568560751848e-05
7.968563031565481e-07,2.9528901378830363e-06,8.940485869889565e-07,1.3120580721631454e-05
7.933707347693863e-07,2.90772064418764e-06,8.941731595287822e-07,1.338930933635988e-05
7.899532618289046e-07,2.8632954832191088e-06,8.946314472080967e-07,1.365919518509265e-05
7.865985352032518e-07,2.819595836413632e-06,8.953878165558983e-07,1.3928711052979776e-05
7.833043163397706e-07,2.776605487043124e-06,8.964024455787608e-07,1.419651257060689e-05
7.800721002556185e-07,2.7343088242452275e-06,8.976359005624487e-07,1.4461548709564835e-05
7.769100975225132e-07,2.6926966093682183e-06,8.990533611033434e-07,1.47230465639069e-05
7.738419756386423e-07,2.651769567674618e-06,9.006274912118538e-07,1.4980403187291891e-05
7.709150994538749e-07,2.6115323337619017e-06,9.023393296838514e-07,1.5233085561843231e-05
7.682002715097675e-07,2.5719834202102434e-06,9.041759909057995e-07,1.5480584986094387e-05
7.657837838764403e-07,2.533112338564029e-06,9.061261172404779e-07,1.5722406445228632e-05
7.637556760573243e-07,2.494908024848029e-06,9.081758595141813e-07,1.595804361749186e-05
7.621971816827406e-07,2.4573712226062625e-06,9.103056032009291e-07,1.6186926630544093e-05
7.611725805694615e-07,2.4205222051780297e-06,9.124875214982576e-07,1.6408387857640657e-05
7.607296370153298e-07,2.384400365640496e-06,9.14687406722078e-07,1.6621663395142048e-05
7.609060079074813e-07,2.3490548926870152e-06,9.168718455530043e-07,1.6825909700674205e-05
7.617354946271141e-07,2.314536520486409e-06,9.190164590028937e-07,1.702023371730181e-05
7.632492841041992e-07,2.280905535368029e-06,9.211100930579764e-07,1.7203748530601964e-05
7.654715254896766e-07,2.248251346269005e-06,9.231517254285784e-07,1.7375632592790073e-05
7.684160928871566e-07,2.216703488173763e-06,9.251416790628564e-07,1.7535133573425806e-05
7.720894664363161e-07,2.1864228703763982e-06,9.270751616706198e-07,1.768151501571681e-05
7.764930629497647e-07,2.1575767069181514e-06,9.289436572590931e-07,1.7814013133464073e-05
7.816210093882785e-07,2.1303122537217488e-06,9.30739946733222e-07,1.7931836435029723e-05
7.874612148221107e-07,2.104750642402209e-06,9.324604338009907e-07,1.8034189910890305e-05
7.940025369775948e-07,2.0810079299686007e-06,9.341034116574577e-07,1.8120298723504205e-05
8.012393274392554e-07,2.059221726961805e-06,9.356645913246157e-07,1.8189435773853185e-05
8.091683145910274e-07,2.0395546118532007e-06,9.371326480485865e-07,1.8241020472030992e-05
8.177814473198179e-07,2.0221697015034882e-06,9.384875304091179e-07,1.8274830762520183e-05
8.270596244943163e-07,2.007199279111785e-06,9.397010846951336e-07,1.8291204594517487e-05
8.369708868872198e-07,1.9947298745059102e-06,9.407383141228144e-07,1.829106547913532e-05
8.474725459809972e-07,1.9848049673061253e-06,9.415597261471085e-07,1.8275786916663745e-05
8.585130882992772e-07,1.977430591541692e-06,9.42125665052686e-07,1.824700345528435e-05
8.700326705270098e-07,1.972583988977726e-06,9.424005844460234e-07,1.8206428606793345e-05
8.819628974416084e-07,1.970232780862033e-06,9.423538822272259e-07,1.8155760747909195e-05
8.942264954761766e-07,1.970350605747682e-06,9.419579603405405e-07,1.8096733786051443e-05
9.067394995674862e-07,1.972910920885134e-06,9.411885589465937e-07,1.8031186941146483e-05
9.194168415718901e-07,1.977867400054564e-06,9.400292601022669e-07,1.796100335738551e-05
9.321778797516342e-07,1.9851412774252342e-06,9.384758053242655e-07,1.7887971274416902e-05
9.449477153730631e-07,1.9946208949922107e-06,9.36537355130845e-07,1.7813675127980068e-05
9.57653862192066e-07,2.0061734683319457e-06,9.342354589340528e-07,1.7739428277987626e-05
9.702231083427612e-07,2.0196712226400417e-06,9.31599700300242e-07,1.7666247240452646e-05
9.825829530784958e-07,2.035020537205655e-06,9.28660568272222e-07,1.7594871941921302e-05
9.946663030321132e-07,2.0521762462091308e-06,9.254456444476879e-07,1.7525810153471946e-05
1.0064174100567284e-06,2.0711330398945943e-06,9.219807373780121e-07,1.7459382057608552e-05
1.0177984162345678e-06,2.0918962698180803e-06,9.182892782665994e-07,1.7395746168290392e-05
1.0287922312676216e-06,2.114448080141872e-06,9.143883520265073e-07,1.7334898453496548e-05
1.0393970353689842e-06,2.138730195142361e-06,9.102867635106515e-07,1.7276662299725566e-05
1.0496151295207199e-06,2.164646246195888e-06,9.059866563319784e-07,1.7220696452384178e-05
1.0594452615436356e-06,2.192069645731427e-06,9.014868593594941e-07,1.716652614670184e-05
1.0688858764785449e-06,2.220852049737783e-06,8.96787380181386e-07,1.7113583608166348e-05
1.0779465317386517e-06,2.250839811482933e-06,8.918940548876491e-07,1.7061251182659126e-05
1.0866536997978171e-06,2.281897742798477e-06,8.868215858492617e-07,1.7008911242996662e-05
1.0950415799487623e-06,2.313924808625148e-06,8.815948461912061e-07,1.6956009278787724e-05
1.1031368798645194e-06,2.346845898334811e-06,8.762489749417759e-07,1.6902130471465468e-05
1.1109518018684203e-06,2.380582738187324e-06,8.708260090812606e-07,1.684705727378864e-05
1.118486798404848e-06,2.415026780921009e-06,8.653670220459146e-07,1.6790751047511346e-05
1.1257373471377516e-06,2.450032897933453e-06,8.599055632235998e-07,1.6733248185780162e-05
1.132701660022897e-06,2.485434880876622e-06,8.544708949021337e-07,1.6674535582941908e-05
1.1393864947868423e-06,2.521069354027864e-06,8.491032455920309e-07,1.6614486190569948e-05
1.1458060139591276e-06,2.556787022519262e-06,8.438698599896376e-07,1.655289960950936e-05
1.1519745249746085e-06,2.5924420272769857e-06,8.38865502447678e-07,1.64896452931457e-05
1.1579019141700191e-06,2.6278751996433213e-06,8.341963496904933e-07,1.6424833264667207e-05
1.1635938697389177e-06,2.662914343489406e-06,8.299607158841562e-07,1.635889446211716e-05
1.1690502492684377e-06,2.6973960959058023e-06,8.262368844230349e-07,1.6292552780809715e-05
1.1742609313746865e-06,2.731189707746609e-06,8.230803547439054e-07,1.6226775081166187e-05
1.1792043421969417e-06,2.764200390698149e-06,8.20527832525063e-07,1.6162724753516254e-05
1.18385040615811e-06,2.7963570042762567e-06,8.186016569648501e-07,1.6101674699124113e-05
1.1881656640913638e-06,2.8276101481599637e-06,8.173108004994463e-07,1.6044868934182628e-05
1.1921167698744499e-06,2.8579453527939824e-06,8.166509556607906e-07,1.5993394560919924e-05
1.1956697842290114e-06,2.8873887015802223e-06,8.166060698792903e-07,1.5948160656787374e-05
1.1987872016827815e-06,2.915994501961657e-06,8.171500375181565e-07,1.5909970256180442e-05
1.2014269612121887e-06,2.943823858825348e-06,8.182500683601239e-07,1.587955222614319e-05
1.2035442865980736e-06,2.9709236861599507e-06,8.198749823751547e-07,1.5857509226426513e-05
1.2050949396809138e-06,2.9973201640277636e-06,8.220042902549988e-07,1.5844274672225024e-05
1.2060385048754152e-06,3.0230385876047836e-06,8.246316577636396e-07,1.5840148036832322e-05
1.2063396528070069e-06,3.0481348437805823e-06,8.27763083071549e-07,1.584536445298642e-05
1.205968069673268e-06,3.072706815586194e-06,8.314113477847808e-07,1.5860124043445936e-05
1.204898189082071e-06,3.0968731203374607e-06,8.355885437358148e-07,1.5884583949449582e-05
1.2031078019675208e-06,3.120735983936552e-06,8.403012507224906e-07,1.5918856483384282e-05
1.2005783472241985e-06,3.144354702167729e-06,8.45547963841585e-07,1.5963025257948032e-05
1.1972990167644822e-06,3.1677429384511885e-06,8.513151451216225e-07,1.6017176362658302e-05
1.1932706585225528e-06,3.190883542725815e-06,8.575741839955629e-07,1.608144546194743e-05
1.1885057673140876e-06,3.2137452687913945e-06,8.642823950396949e-07,1.615609594977501e-05
1.183026111972508e-06,3.2362876776997537e-06,8.713858833394787e-07,1.6241650628820574e-05
1.1768643070659442e-06,3.2584516112681098e-06,8.788226960627447e-07,1.6338989271344234e-05
1.1700717346253174e-06,3.2801480019594813e-06,8.865281278799068e-07,1.644925295656601e-05
1.1627257029090857e-06,3.3012588060466918e-06,8.944418414824343e-07,1.6573584544507988e-05
1.1549296642694664e-06,3.3216500999368344e-06,9.025144550486523e-07,1.671288110188121e-05
1.1468050505360642e-06,3.3411875216202486e-06,9.107132524199548e-07,1.6867649139592573e-05
1.1384753190746542e-06,3.359741911855266e-06,9.190252827387199e-07,1.7038005473068466e-05
1.1300522352554728e-06,3.377182179962509e-06,9.274529910911772e-07,1.7223844828180992e-05
1.1216382206690691e-06,3.393370171600658e-06,9.360026557018984e-07,1.742503398886569e-05
1.1133431789693262e-06,3.4081706696399614e-06,9.446755712886059e-07,1.7641451233611073e-05
1.1052993618333785e-06,3.4214683182347618e-06,9.53467693891445e-07,1.7872914612405022e-05
1.0976610995158038e-06,3.433175500810572e-06,9.62370120123044e-07,1.8119148686514226e-05
1.0905893496704643e-06,3.4432302156145965e-06,9.7136513247495e-07,1.8379802318458247e-05
1.0842309084608378e-06,3.45159772822442e-06,9.804226216314143e-07,1.865444567905329e-05
1.0787047770232818e-06,3.458278954115014e-06,9.895005018422324e-07,1.894251883158853e-05
1.0741023358052318e-06,3.4633080189329263e-06,9.98547814647276e-07,1.9243249628828322e-05
1.070497273862042e-06,3.4667325348268548e-06,1.0075085281125843e-06,1.955557006582741e-05
1.0679548710222806e-06,3.46859977344198e-06,1.0163246073417663e-06,1.9878071625256282e-05
1.0665322238192579e-06,3.468970721118727e-06,1.0249373704812102e-06,2.020903450706683e-05
1.0662707850043337e-06,3.467952590983317e-06,1.0332875265253328e-06,2.0546529449441736e-05
1.0671920032117549e-06,3.4657205000254707e-06,1.0413153408533828e-06,2.0888547532962272e-05
1.0693015465250776e-06,3.4625086599396086e-06,1.0489611940188713e-06,2.123309554142229e-05
1.0725943099223186e-06,3.4585755764621667e-06,1.0561655278981636e-06,2.1578236149186027e-05
1.0770533066913166e-06,3.454163622537069e-06,1.062867858570793e-06,2.192209780541241e-05
1.0826456592224511e-06,3.4494722796946188e-06,1.0690066181428931e-06,2.226287011056117e-05
1.0893199685272171e-06,3.4446526705084517e-06,1.0745228337691908e-06,2.2598785498283567e-05
1.0970076386076335e-06,3.439813665282003e-06,1.0793671159535935e-06,2.292809838436885e-05
1.10563081473208e-06,3.4350235276895463e-06,1.083503413613737e-06,2.3249068332653955e-05
1.1151126538095437e-06,3.4303073836146213e-06,1.0869055089963094e-06,2.3559934760253765e-05
1.1253812211532522e-06,3.4256526443794583e-06,1.0895520569285557e-06,2.3858886710482835e-05
1.1363657075550531e-06,3.4210230203286886e-06,1.0914252844697557e-06,2.4144058532266946e-05
1.1479909479483999e-06,3.4163687118697463e-06,1.0925108001043764e-06,2.4413569925411296e-05
1.1601758000626197e-06,3.411628928030877e-06,1.0927979788364546e-06,2.466561095014645e-05
1.172835547162706e-06,3.406741374050767e-06,1.092281436085248e-06,2.4898575674178945e-05
1.1858834172750014e-06,3.4016755624506267e-06,1.0909599109841238e-06,2.5111205172432528e-05
1.1992285980844471e-06,3.3964876045626187e-06,1.088832698646025e-06,2.5302634932868664e-05
1.2127753983798813e-06,3.391363997533123e-06,1.085897982925991e-06,2.5472302426769574e-05
1.2264275416826256e-06,3.386613017095157e-06,1.0821546500476378e-06,2.5619801625956563e-05
1.2400932941198806e-06,3.3825990201517462e-06,1.077605874215708e-06,2.574478677876204e-05
1.2536872067547495e-06,3.3796630275926184e-06,1.072261705739752e-06,2.584694730041307e-05
1.267130278602336e-06,3.378083344225768e-06,1.0661401803965142e-06,2.592600646820719e-05
1.2803488166616832e-06,3.3780911858786065e-06,1.0592668696092892e-06,2.598170510185649e-05
1.2932701192811528e-06,3.3799079566565777e-06,1.0516709932369043e-06,2.601379409352655e-05
1.3058177329394104e-06,3.3837649442765427e-06,1.0433801145266534e-06,2.602207630307737e-05
1.317911813596777e-06,3.389894796222336e-06,1.034418023635988e-06,2.600651905951864e-05
1.329474741536599e-06,3.3985100238825903e-06,1.0248058061278929e-06,2.596738768495325e-05
1.3404356034762934e-06,3.4097917694892514e-06,1.01456300626127e-06,2.5905268155492843e-05
1.3507299717323714e-06,3.423897899855409e-06,1.0037079546097001e-06,2.582094730798119e-05
1.3602974584133995e-06,3.440977125314252e-06,9.922595139653135e-07,2.571526343615303e-05
1.3690792834981929e-06,3.4611690849977426e-06,9.802419880551772e-07,2.5589014191080082e-05
1.3770185808058042e-06,3.4845833594681144e-06,9.676906042547925e-07,2.544294452752553e-05
1.3840662613590515e-06,3.5112695847052214e-06,9.546531762614892e-07,2.5277792698461944e-05
1.3901872024093122e-06,3.541197635251284e-06,9.411863745810536e-07,2.5094320883140162e-05
1.3953596271571657e-06,3.574259437760512e-06,9.273490010199012e-07,2.489328563485469e-05
1.3995714435258916e-06,3.6102948810219063e-06,9.131977865858128e-07,2.4675384362332933e-05
1.4028191349198472e-06,3.6491309460697067e-06,8.987889562454387e-07,2.444126749557386e-05
1.4051056493786518e-06,3.690612057604337e-06,8.841834639734991e-07,2.4191701398617693e-05
1.4064344284028135e-06,3.7346094599672806e-06,8.694539248513279e-07,2.3927816432094612e-05
1.4068046640689186e-06,3.781014672451805e-06,8.546921085751681e-07,2.365122185683469e-05
1.4062133906779932e-06,3.8297254682683015e-06,8.400132925043417e-07,2.336387646527017e-05
1.4046637201687605e-06,3.880627213470937e-06,8.255525430383156e-07,2.3067840961809505e-05
1.4021741197304485e-06,3.9335712677298095e-06,8.114521194644438e-07,2.276513978857746e-05
1.3987830048377027e-06,3.988358479319971e-06,7.978484844658896e-07,2.2457784755796785e-05
1.394544042807722e-06,4.044736589774124e-06,7.848668323751285e-07,2.214777788084228e-05
1.38951488998064e-06,4.1024077347668725e-06,7.726191347211956e-07,2.1837013458706573e-05
1.383750972138485e-06,4.161034836421835e-06,7.612011241115266e-07,2.152719123966605e-05
1.377310488018043e-06,4.220249775982076e-06,7.506915801190038e-07,2.121980498731088e-05
1.3702629651770952e-06,4.279676645832666e-06,7.411548082720109e-07,2.091618196351453e-05
1.3626917068888458e-06,4.338965511161494e-06,7.326414338456251e-07,2.061752968623397e-05
1.3546901371813206e-06,4.3978136596898085e-06,7.251865354820752e-07,2.032495607488057e-05
1.346357321112014e-06,4.455961574419103e-06,7.188090598000834e-07,2.003946385865528e-05
1.337792578986946e-06,4.513173611890083e-06,7.135142619340579e-07,1.9761937364573307e-05
1.3290875695241696e-06,4.569219369812481e-06,7.092983253651707e-07,1.949313629641705e-05
1.3203228547373536e-06,4.62385960047919e-06,7.061534158933335e-07,1.9233699897254133e-05
1.3115752229596714e-06,4.676834795654133e-06,7.040701889538105e-07,1.8984140612513888e-05
1.3029275594404122e-06,4.727861520473803e-06,7.030359005026912e-07,1.8744810955827825e-05
1.29446922346648e-06,4.776639251351965e-06,7.030300708244009e-07,1.8515865117729585e-05
1.2862914979888678e-06,4.822860782403399e-06,7.04021376254008e-07,1.829725574895569e-05
1.2784929117225383e-06,4.866222197908928e-06,7.059666629060469e-07,1.8088780976875408e-05
1.2711908218086328e-06,4.906435300936202e-06,7.088109423721515e-07,1.7890143221985886e-05
1.2645188827384925e-06,4.943242772818602e-06,7.124889295558907e-07,1.7700973241577735e-05
1.2586066369980552e-06,4.976430536796837e-06,7.16929084797475e-07,1.7520821912166692e-05
1.2535587389739759e-06,5.005830581460784e-06,7.220577234798039e-07,1.7349145487213767e-05
1.249447462515352e-06,5.031310808600062e-06,7.277999191852013e-07,1.7185302912177206e-05
1.2463171305687171e-06,5.05275992470869e-06,7.340790896229646e-07,1.7028576389880357e-05
1.2441917419550566e-06,5.070088463703578e-06,7.408183530937719e-07,1.68782004314433e-05
1.2430791176268615e-06,5.08325070060289e-06,7.479431142837695e-07,1.6733377343806142e-05
1.2429706043420254e-06,5.09225898090167e-06,7.553851362387283e-07,1.6593286024495794e-05
1.2438400954263321e-06,5.097169095348075e-06,7.630867951684164e-07,1.6457100489714245e-05
1.2456462796856777e-06,5.098054249727096e-06,7.709997177914189e-07,1.6324043585549586e-05
1.2483371757837516e-06,5.0949944644904225e-06,7.790775990871123e-07,1.61934879253874e-05
1.2518523853585696e-06,5.088079392136527e-06,7.872709855463456e-07,1.606502882055092e-05
1.256122036079871e-06,5.077405045688836e-06,7.955274306163588e-07,1.5938441116718493e-05
1.261065996720134e-06,5.063063302891296e-06,8.037923430131779e-07,1.581356264437271e-05
1.2665951849683208e-06,5.045141239710511e-06,8.120080429055841e-07,1.569021979465682e-05
1.2726139052012754e-06,5.023736210480733e-06,8.201151998693552e-07,1.5568218057269372e-05
1.2790216181442872e-06,4.99897419407143e-06,8.280587748438862e-07,1.5447329822183382e-05
1.285713637413125e-06,4.9710168982868016e-06,8.357924972808349e-07,1.5327264780888595e-05
1.292581931014055e-06,4.940051107830193e-06,8.43276586583232e-07,1.5207683681470864e-05
1.2995158752552499e-06,4.90626422917886e-06,8.504732638211856e-07,1.5088302484081948e-05
1.3064029111062266e-06,4.8698227860972815e-06,8.573460249718866e-07,1.4969078049563794e-05
1.313131912518074e-06,4.830868907360778e-06,8.638605570129915e-07,1.4850388393444608e-05
1.3195993329956984e-06,4.789527026085492e-06,8.699849482238442e-07,1.4733079811956216e-05
1.3257134080812773e-06,4.74590686888978e-06,8.756933410978478e-07,1.461834400694731e-05
1.33139282990484e-06,4.700108999225911e-06,8.809739273793693e-07,1.450751877002663e-05
1.3365616182670178e-06,4.652236095641037e-06,8.858328311182505e-07,1.4401906500874195e-05
1.341147131944809e-06,4.602394189954012e-06,8.902882741348386e-07,1.4302636914309555e-05
1.3450853996824535e-06,4.550683799591973e-06,8.943616340809096e-07,1.4210605393534216e-05
1.348327303092103e-06,4.497197766970336e-06,8.980734521294352e-07,1.4126499737465009e-05
1.3508372906576307e-06,4.442027944985411e-06,9.014424216080722e-07,1.4050845258766965e-05
1.3525868178759103e-06,4.385273386139835e-06,9.044827991770636e-07,1.3984011523452769e-05
1.3535513582791658e-06,4.327043569497258e-06,9.072016717610363e-07,1.3926233570515797e-05
1.3537147859989458e-06,4.2674531153307084e-06,9.095983264778513e-07,1.3877734155113602e-05
1.3530756047695722e-06,4.2066178388017804e-06,9.11665197498475e-07,1.3838887376999896e-05
1.3516468753488512e-06,4.144660406718042e-06,9.133898312971077e-07,1.3810245209380685e-05
1.349448547479054e-06,4.081713789435034e-06,9.147571245704636e-07,1.3792388229693378e-05
1.346498609920864e-06,4.017912933965945e-06,9.157503278700564e-07,1.3785755784303665e-05
1.3428087951946138e-06,3.953384400743644e-06,9.163513116836656e-07,1.3790648820737298e-05
1.3383846855484822e-06,3.888243688923339e-06,9.165420821826164e-07,1.3807447209794745e-05
1.3332281132000112e-06,3.8225961453248045e-06,9.163065556232424e-07,1.3836820993525684e-05
1.3273407255642893e-06,3.7565355351288843e-06,9.156302873528288e-07,1.3879722156569831e-05
1.320727193687651e-06,3.6901447167203033e-06,9.144990494182631e-07,1.3937227550720648e-05
1.313395947918653e-06,3.6235028743640884e-06,9.128979368317059e-07,1.401038667266394e-05
1.305356621416475e-06,3.5566911877790773e-06,9.108113798166471e-07,1.4100101488152289e-05
1.2966165060495272e-06,3.4897893718660286e-06,9.082247982519936e-07,1.420702428021026e-05
1.287179516017187e-06,3.4228713271802462e-06,9.051267472172716e-07,1.433149632427637e-05
1.2770491495683846e-06,3.3560136701376636e-06,9.015090155468369e-07,1.4473551563567472e-05
1.2662343791928664e-06,3.2893158606912114e-06,8.973664120885326e-07,1.4632976106491296e-05
1.2547558996150243e-06,3.2229143796319038e-06,8.927001623381565e-07,1.4809399465186344e-05
1.2426508861010672e-06,3.156977497036955e-06,8.875242086970358e-07,1.5002385157972693e-05
1.2299736079273623e-06,3.091684239054008e-06,8.818690124730133e-07,1.5211456727904642e-05
1.2167888524625022e-06,3.0272032073017202e-06,8.757788336213638e-07,1.543601807230186e-05
1.2031638097731531e-06,2.963683927275195e-06,8.693044799627187e-07,1.5675230065131752e-05
1.1891676018329928e-06,2.9012573777876864e-06,8.62497379691991e-07,1.592795538485972e-05
1.1748741982503969e-06,2.840037065607286e-06,8.55407773261853e-07,1.6192819922998274e-05
1.1603598866517636e-06,2.780124173831572e-06,8.480842114031328e-07,1.6468354487881288e-05
1.1457000762798266e-06,2.7216231019742537e-06,8.405720773953755e-07,1.675314059521135e-05
1.130972784575339e-06,2.6646613802251754e-06,8.329124354791405e-07,1.704589636217818e-05
1.1162646499429643e-06,2.6094012465839424e-06,8.251414297364157e-07,1.7345495059493875e-05
1.1016719894937496e-06,2.5560349453360474e-06,8.172892415219846e-07,1.7650956176541006e-05
1.087294540641502e-06,2.5047640592752945e-06,8.093799699381598e-07,1.7961431960958664e-05
1.0732254969989092e-06,2.4557730291469697e-06,8.014337865053616e-07,1.8276164682606906e-05
1.0595448746331018e-06,2.4092153177201603e-06,7.93469892103582e-07,1.8594404703036286e-05
1.0463191467350245e-06,2.3652237082967773e-06,7.855089030388883e-07,1.8915331158982616e-05
1.033604436680495e-06,2.32393341518262e-06,7.775750123542497e-07,1.9237995216122487e-05
1.02145133945999e-06,2.2854950393379508e-06,7.696972811358922e-07,1.9561274573653247e-05
1.0099088588341405e-06,2.250068004363252e-06,7.61908957543865e-07,1.988386462648696e-05
9.990227583316749e-07,2.2178008166576603e-06,7.542455069552214e-07,2.020432149305757e-05
9.888302610974208e-07,2.1888079127088904e-06,7.467425475103449e-07,2.052111714758477e-05
9.793579036910664e-07,2.1631555434348837e-06,7.39435400783019e-07,2.083267102096172e-05
9.706232083213982e-07,2.140867463790736e-06,7.323606941657525e-07,2.1137352848050705e-05
9.626360423727714e-07,2.121948055512769e-06,7.255566326996656e-07,2.1433480441157967e-05
9.55399756730908e-07,2.106408587479567e-06,7.190596053274546e-07,2.1719328897363086e-05
9.489152838783363e-07,2.0942800891349528e-06,7.128997005262377e-07,2.199313876335169e-05
9.431845461493755e-07,2.085603170827056e-06,7.070991249423512e-07,2.225312800055666e-05
9.38206944808486e-07,2.0804028067649875e-06,7.016737414979497e-07,2.2497519655771232e-05
9.339721866293328e-07,2.078674820748799e-06,6.966351863385586e-07,2.272460580890585e-05
9.304572261476529e-07,2.080396913800003e-06,6.919928913935911e-07,2.293288028348418e-05
9.276293280480116e-07,2.0855411666313667e-06,6.87755753276617e-07,2.31211906747592e-05
9.254518119092695e-07,2.0940668407092533e-06,6.839315642362326e-07,2.3288789717875303e-05
9.238870583386145e-07,2.105904259605477e-06,6.805238294555403e-07,2.343523707135896e-05
9.228944177759807e-07,2.120946771143507e-06,6.775303130708127e-07,2.3560231043224108e-05
9.224273007968781e-07,2.13904926902416e-06,6.749476754730984e-07,2.366350781577172e-05
9.224332256915651e-07,2.1600277772222262e-06,6.727781116865083e-07,2.3744863067693358e-05
9.228549023224505e-07,2.183664790350373e-06,6.710311427724395e-07,2.3804216362118025e-05
9.236306332981213e-07,2.209721922125675e-06,6.697207162486918e-07,2.384162994225273e-05
9.246956398766741e-07,2.2379536051731307e-06,6.688600689680413e-07,2.3857272359480786e-05
9.259864925214924e-07,2.2681229636368323e-06,6.684556811798975e-07,2.3851373752036552e-05
9.274474062875877e-07,2.3000273507125918e-06,6.685034350694684e-07,2.382425477332639e-05
9.290321466255451e-07,2.3335277090759685e-06,6.689888838315744e-07,2.377643535877675e-05
9.306991850273314e-07,2.368558508173807e-06,6.698904277906425e-07,2.370867585218697e-05
9.324073581546186e-07,2.4051021872017934e-06,6.711828964533126e-07,2.3621863643005604e-05
9.341179124215158e-07,2.443148256760573e-06,6.728386726887152e-07,2.351688805099477e-05
9.357997053696207e-07,2.482678968480055e-06,6.748266862407995e-07,2.3394696687674012e-05
9.374321714606243e-07,2.5236903211584418e-06,6.77113435855466e-07,2.325653528189937e-05
9.390041009356217e-07,2.566214725392815e-06,6.796679448446487e-07,2.310415089735269e-05
9.405085028727677e-07,2.610319845937455e-06,6.824664599975035e-07,2.293976920163064e-05
9.419363491335129e-07,2.6560930190237856e-06,6.85491520480618e-07,2.276590693141432e-05
9.432727561818815e-07,2.7036338349054816e-06,6.887267660924396e-07,2.2585165288674025e-05
9.444965973581721e-07,2.753058265432624e-06,6.921530879629353e-07,2.2400047689485308e-05
9.455831379429264e-07,2.8044909688485536e-06,6.957470933854925e-07,2.221280503476276e-05
9.465071024634684e-07,2.8580307713052143e-06,6.994804984405929e-07,2.202532675924675e-05
9.472424249310499e-07,2.9137127468692934e-06,7.033219187916005e-07,2.1839095392555944e-05
9.477600342425535e-07,2.9714944305889303e-06,7.072397182464552e-07,2.1655203155671127e-05
9.480280391789713e-07,3.0312610755089207e-06,7.112020452861961e-07,2.1474402424591187e-05
9.480146958213623e-07,3.092834461887207e-06,7.1517559903584e-07,2.1297154792384107e-05
9.47691239401462e-07,3.155979833470776e-06,7.19126232766189e-07,2.11236625569607e-05
9.47032280124328e-07,3.2204106857252925e-06,7.230201948005373e-07,2.095390340656093e-05
9.460138899972738e-07,3.2857942386446573e-06,7.268244935227619e-07,2.078770631670988e-05
9.446118030042007e-07,3.3517607597156987e-06,7.305068893030633e-07,2.062487948010799e-05
9.428016254966215e-07,3.4179163426077166e-06,7.34035487275072e-07,2.046535592013209e-05
9.405602082881798e-07,3.4838559474861776e-06,7.373788534463766e-07,2.030929579223105e-05
9.378662698810423e-07,3.54917426616098e-06,7.405094280844491e-07,2.0157107341893224e-05
9.347002363075908e-07,3.613474238749752e-06,7.434091345130367e-07,2.0009408746561176e-05
9.310457769893476e-07,3.6763761213468314e-06,7.460718549033151e-07,1.9866981403713503e-05
9.268950317319141e-07,3.737532290907762e-06,7.485003639711569e-07,1.973073665557003e-05
9.222559172229643e-07,3.7966458634066468e-06,7.507003952873977e-07,1.960167824701741e-05
9.171567229602078e-07,3.853480238570844e-06,7.526758800185562e-07,1.9480829705681608e-05
9.116434014439056e-07,3.907853424518929e-06,7.544269674860971e-07,1.9369130725713346e-05
9.057716992372185e-07,3.9596270986819005e-06,7.559494790150819e-07,1.9267338301910293e-05
8.996035351251154e-07,4.008694595630581e-06,7.572345991028415e-07,1.917595753806721e-05
8.93209474218444e-07,4.054962810726502e-06,7.582696926185246e-07,1.9095258403925447e-05
8.86667151807086e-07,4.098338791155648e-06,7.590406459540556e-07,1.9025422242054707e-05
8.800519533482769e-07,4.138733841804329e-06,7.59533772604882e-07,1.8966708887516675e-05
8.734282637858198e-07,4.1760720754522175e-06,7.597364000892197e-07,1.8919501032731146e-05
8.668471782414041e-07,4.210286035171927e-06,7.596383778787967e-07,1.888424353681716e-05
8.603484125077581e-07,4.24130370467542e-06,7.592359405295745e-07,1.886136541452588e-05
8.539627800486972e-07,4.269041960446153e-06,7.585356674765204e-07,1.885121726856604e-05
8.477135489851345e-07,4.293410688791099e-06,7.575552586486591e-07,1.8854045597006127e-05
8.41615966069452e-07,4.314319875603959e-06,7.563226368970456e-07,1.8870002955398842e-05
8.356773160310785e-07,4.33168801657665e-06,7.548789938170145e-07,1.889912584283468e-05
8.299014172515794e-07,4.345455645828854e-06,7.532833380583774e-07,1.894125430245914e-05
8.242963800478721e-07,4.355599378682558e-06,7.5160951639474e-07,1.899597784943305e-05
8.188801373657596e-07,4.3621377953012635e-06,7.49937788394518e-07,1.906269143906029e-05
8.136806219206352e-07,4.3651249101889035e-06,7.483494408634501e-07,1.91407181350952e-05
8.087326099352057e-07,4.364633120425236e-06,7.469231759262105e-07,1.9229360042267842e-05
8.040773558491127e-07,4.360733694946742e-06,7.457289457086652e-07,1.932783339839642e-05
7.997673475730033e-07,4.353484304469586e-06,7.448224162991676e-07,1.943518100719304e-05
7.958695206557537e-07,4.342927520118088e-06,7.442442841649426e-07,1.9550231733071406e-05
7.924625103465456e-07,4.329096119849116e-06,7.440236158701387e-07,1.9671604110185198e-05
7.896293409382913e-07,4.3120194134957036e-06,7.441827281222446e-07,1.9797736435757933e-05
7.874458352231952e-07,4.291730534727839e-06,7.447403282405444e-07,1.9926927028822272e-05
7.859688779011856e-07,4.268274915169432e-06,7.457103496133376e-07,2.005738343056134e-05
7.852314381938327e-07,4.2417154737819665e-06,7.470984370690516e-07,2.0187311398309758e-05
7.85244479603906e-07,4.2121324368402484e-06,7.48899487492865e-07,2.0315085362748108e-05
7.860012351275405e-07,4.179620442925168e-06,7.510983602800094e-07,2.043945190512428e-05
7.874810149583134e-07,4.1442882589042e-06,7.536741335080536e-07,2.055958945300462e-05
7.896523361941431e-07,4.106267801340566e-06,7.566038740511717e-07,2.0674950971346905e-05
7.924749088752931e-07,4.0657327341983915e-06,7.598615885078548e-07,2.0785059817491186e-05
7.959000329163852e-07,4.022911904569416e-06,7.63415306608792e-07,2.0889455482695187e-05
7.998709006532408e-07,3.978079766789781e-06,7.672277821316846e-07,2.0987831456433787e-05
8.043236499371079e-07,3.931537912215513e-06,7.712592627595906e-07,2.10802237831708e-05
8.091895870645431e-07,3.883622650979404e-06,7.754679684463787e-07,2.1167042720076638e-05
8.143998604743845e-07,3.834733513322876e-06,7.79808813724852e-07,2.1248928166385944e-05
8.198922812997771e-07,3.7853454073627953e-06,7.842332541235051e-07,2.1326569060921078e-05
8.256184620556513e-07,3.735991677293268e-06,7.886919963182248e-07,2.140055827908056e-05
8.315483633027936e-07,3.6872267475721764e-06,7.931405975218851e-07,2.1471281638318022e-05
8.37667691942294e-07,3.639577191409021e-06,7.975449420920159e-07,2.153885201506665e-05
8.439684699511605e-07,3.593499763178833e-06,8.018822322460588e-07,2.160309982216084e-05
8.504417451803727e-07,3.5493649148941634e-06,8.061376533667462e-07,2.166359971551709e-05
8.570759148672873e-07,3.5074605263332817e-06,8.103016138206013e-07,2.1719705396138056e-05
8.638541022458481e-07,3.4680018716047766e-06,8.14369318590679e-07,2.1770586932523176e-05
8.707507775779846e-07,3.431147465765814e-06,8.183399463642412e-07,2.1815279951532998e-05
8.777348119099148e-07,3.397020527088105e-06,8.222154556189528e-07,2.185276058996467e-05
8.847784360122946e-07,3.3657243567633517e-06,8.260007686868699e-07,2.18820332323659e-05
8.918632006193359e-07,3.337343017771272e-06,8.297038580776051e-07,2.190218946683872e-05
8.989779076030373e-07,3.311931935195732e-06,8.33334645171581e-07,2.191244033144164e-05
9.061123095652529e-07,3.289509168239356e-06,8.369028837846946e-07,2.191216303624386e-05
9.132512441807828e-07,3.2700530028103414e-06,8.404145341090676e-07,2.1900958709750354e-05
9.203725825719948e-07,3.253504878311976e-06,8.438687259715784e-07,2.18786799861708e-05
9.274506372710559e-07,3.2397757452115942e-06,8.472590543912226e-07,2.184541388962671e-05
9.344594615998665e-07,3.2287543679922483e-06,8.50577224237755e-07,2.180143245581101e-05
9.413714982053324e-07,3.220313533758856e-06,8.538126751237489e-07,2.1747125523126534e-05
9.481571968330456e-07,3.214310721860418e-06,8.569488404947827e-07,2.168292837956601e-05
9.547901095605795e-07,3.2105923621225693e-06,8.599626356377908e-07,2.160924900829457e-05
9.612508989257426e-07,3.209009684203672e-06,8.628275049951144e-07,2.152641108378357e-05
9.675235003051923e-07,3.209428407546608e-06,8.655150206883912e-07,2.143466060279592e-05
9.735886982905206e-07,3.2117150672024208e-06,8.679941517318489e-07,2.133426038392601e-05
9.79423305578913e-07,3.215713334382288e-06,8.702317261916035e-07,2.1225615955088642e-05
9.850031524839208e-07,3.2212323430412173e-06,8.721957247139011e-07,2.1109342409444396e-05
9.903047089596805e-07,3.2280548247854012e-06,8.738582137522457e-07,2.0986241929059446e-05
9.953056773836434e-07,3.2359604938611244e-06,8.751945699469286e-07,2.085722950379411e-05
9.999856311282529e-07,3.2447474482462738e-06,8.761816803577517e-07,2.072323280264908e-05
1.0043248964990752e-06,3.2542334883350837e-06,8.767986929206765e-07,2.058507264815712e-05
1.008301543005642e-06,3.2642458601989637e-06,8.770279316753673e-07,2.044337853183051e-05
1.011889295120293e-06,3.274622698639369e-06,8.768545020759018e-07,2.029859184198248e-05
1.0150576771285209e-06,3.2852247443727973e-06,8.762664512359284e-07,2.0151007386309027e-05
1.017773176898981e-06,3.2959383324382826e-06,8.752546337162514e-07,2.0000798787285918e-05
1.0200019610942695e-06,3.306666699534744e-06,8.738122537743312e-07,1.984808175389257e-05
1.0217164642899477e-06,3.317321248161805e-06,8.719349820707569e-07,1.9693041994623734e-05
1.0229040009808134e-06,3.327819058719925e-06,8.696194954772852e-07,1.953603470177602e-05
1.0235707806489538e-06,3.338082677094352e-06,8.66860840886849e-07,1.9377594096659906e-05
1.0237376539061086e-06,3.348035978442057e-06,8.636514173833481e-07,1.9218390798421687e-05
1.0234322759642624e-06,3.3575963346183983e-06,8.599815957602262e-07,1.9059162833879377e-05
1.022685904466259e-06,3.366672617845045e-06,8.558416771870144e-07,1.8900612961727103e-05
1.021536008836942e-06,3.37517855209532e-06,8.512256326020016e-07,1.874330673735529e-05
1.02002742846763e-06,3.383055821415121e-06,8.461343564480302e-07,1.85876310899608e-05
1.0182073494102536e-06,3.390290981860083e-06,8.405748834152719e-07,1.843382852284837e-05
1.0161177495090958e-06,3.3969191367457198e-06,8.345563234511998e-07,1.8282069938465588e-05
1.013791313070905e-06,3.403018384922778e-06,8.280868521046437e-07,1.8132498761053785e-05
1.011252987975315e-06,3.4086970540671364e-06,8.211738584457694e-07,1.7985222945577406e-05
1.0085251114374435e-06,3.4140719756936697e-06,8.138256662912199e-07,1.7840331322090134e-05
1.005631758680948e-06,3.419241978366484e-06,8.060519925750318e-07,1.7697947880122558e-05
1.0025984519021286e-06,3.424270354875259e-06,7.978629139541649e-07,1.7558213622630622e-05
9.994474994610838e-07,3.4291873583942475e-06,7.892699985678795e-07,1.7421227412417752e-05
9.961944145951022e-07,3.4340068031257605e-06,7.802911296938484e-07,1.7287127844112845e-05
9.928505997544869e-07,3.438743020067476e-06,7.709538738616449e-07,1.715629438249183e-05
9.89430609397013e-07,3.443421157837891e-06,7.612931940848801e-07,1.702943991348255e-05
9.859581810085118e-07,3.4480764126800837e-06,7.513481764981896e-07,1.6907516352239804e-05
9.82466725160807e-07,3.452740088298145e-06,7.411617154447763e-07,1.6791550779219568e-05
9.789933579594546e-07,3.4574241126474075e-06,7.307792884809892e-07,1.6682512189750374e-05
9.755728734936766e-07,3.462118014462754e-06,7.202460651442919e-07,1.658122277011255e-05
9.722379786588291e-07,3.4667920409798447e-06,7.096068722224252e-07,1.6488291378157356e-05
9.690203349676223e-07,3.4713966968669677e-06,6.989089995834235e-07,1.640407856259722e-05
9.659467330647846e-07,3.4758688122256064e-06,6.882029950863476e-07,1.6328731144767553e-05
9.630357699809296e-07,3.4801487231298033e-06,6.775391381434287e-07,1.6262272706887475e-05
9.603019536535456e-07,3.484190057892782e-06,6.669632861892844e-07,1.620468803279736e-05
9.577663916189085e-07,3.4879513010197936e-06,6.565169026285946e-07,1.6155956624787425e-05
9.554652075054122e-07,3.4913797417757757e-06,6.46239447268354e-07,1.6116026198185202e-05
9.534469674286482e-07,3.494400006187825e-06,6.361676318201494e-07,1.608476068439931e-05
9.517617296446287e-07,3.4969133674335837e-06,6.263318504187388e-07,1.606192022383892e-05
9.504547897110559e-07,3.4988104395680107e-06,6.16754251565576e-07,1.6047195137465256e-05
9.495736365942879e-07,3.4999924905061518e-06,6.074495062910397e-07,1.6040264964336542e-05
9.491799004292437e-07,3.500388023884714e-06,5.984263096540655e-07,1.6040824686873677e-05
9.493511688799341e-07,3.499951173523162e-06,5.896892209205437e-07,1.6048539847161453e-05
9.501698962234552e-07,3.498643354833328e-06,5.812430375216521e-07,1.6062962110951803e-05
9.51709603094144e-07,3.4964187499633973e-06,5.730994151140856e-07,1.6083468719536574e-05
9.540301047786122e-07,3.4932334107672913e-06,5.652796961614292e-07,1.6109253583248886e-05
9.571837263479088e-07,3.489072406178335e-06,5.57811951495286e-07,1.6139360758587194e-05
9.612214774120753e-07,3.4839692058475297e-06,5.507307908721104e-07,1.6172728599193247e-05
9.661895788416023e-07,3.478001442966265e-06,5.440846458713306e-07,1.6208214671785253e-05
9.721197540629215e-07,3.471269067453296e-06,5.379408052230248e-07,1.6244619664572142e-05
9.79025081168403e-07,3.4638681723019013e-06,5.323783775125805e-07,1.6280762514535583e-05
9.869089072244301e-07,3.455872249810917e-06,5.274742273294379e-07,1.6315620297116503e-05
9.957794419062915e-07,3.447332100789826e-06,5.232930498663374e-07,1.634847038359941e-05
1.0056544753954186e-06,3.438295966034275e-06,5.198835013652501e-07,1.637893191605492e-05
1.0165511522616355e-06,3.4288323876856096e-06,5.172771562496329e-07,1.640686416538167e-05
1.0284719012622156e-06,3.419032264333725e-06,5.154912781201392e-07,1.6432200170409685e-05
1.0413987157824623e-06,3.408987265857988e-06,5.145349128421803e-07,1.6454823482420144e-05
1.0552946605285572e-06,3.39876651028484e-06,5.144141843298254e-07,1.6474524511443127e-05
1.070104540800349e-06,3.3884069481099887e-06,5.151357872157779e-07,1.6491022115826828e-05
1.0857534823205559e-06,3.3779124814031413e-06,5.167088591405122e-07,1.6504013787312922e-05
1.1021478303036752e-06,3.36725889539031e-06,5.191451724589344e-07,1.6513211659525104e-05
1.1191793677693103e-06,3.3564049585384925e-06,5.224589341593018e-07,1.651839062114387e-05
1.1367311268391036e-06,3.3453023482590405e-06,5.266644840802294e-07,1.6519497877386968e-05
1.1546853123180814e-06,3.3339072193983397e-06,5.317701244758164e-07,1.6516743150408174e-05
1.1729331702125151e-06,3.322204328562585e-06,5.377716735892167e-07,1.6510565576018747e-05
1.1913839776224637e-06,3.310236278249256e-06,5.446491653342231e-07,1.6501524707587e-05
1.209971288173813e-06,3.2981193741975493e-06,5.523669499287051e-07,1.6490201025637722e-05
1.228655266733068e-06,3.286034117223486e-06,5.608763375265522e-07,1.6477116409830392e-05
1.2474198114915136e-06,3.2741903901476573e-06,5.701184884696358e-07,1.64626868529865e-05
1.2662630461698522e-06,3.2627875323161013e-06,5.800262351955261e-07,1.644725117279268e-05
1.285182525987847e-06,3.251997934625833e-06,5.905272041762742e-07,1.643116038114692e-05
1.3041660308609405e-06,3.241980560362905e-06,6.015497796815254e-07,1.6414846981355212e-05
1.3231965650608886e-06,3.2329033923926447e-06,6.130272209504671e-07,1.6398822422936713e-05
1.3422614944016612e-06,3.2249509665953115e-06,6.24895601173729e-07,1.638360392247891e-05
1.3613535694113804e-06,3.218310525126293e-06,6.370910906337739e-07,1.6369647381708908e-05
1.3804668493895105e-06,3.2131477482646184e-06,6.4955232783921e-07,1.6357418908146594e-05
1.3995926927055612e-06,3.209586350711761e-06,6.622221309502353e-07,1.6347549510721554e-05
1.4187155208311604e-06,3.2077031084724124e-06,6.750431249993939e-07,1.6340835735263416e-05
1.4378103129193428e-06,3.2075416282514888e-06,6.879529742606078e-07,1.6338097879824402e-05
1.456843396280431e-06,3.209125759778419e-06,7.008856534273015e-07,1.6340112004049586e-05
1.4757746483129826e-06,3.212454031692855e-06,7.137773690152155e-07,1.6347614406011864e-05
1.4945614665574119e-06,3.217493400821757e-06,7.265724739391555e-07,1.636126626312698e-05
1.5131649243591587e-06,3.2241989113202203e-06,7.392262945425316e-07,1.6381580228422256e-05
1.5315529973053185e-06,3.2325487033861404e-06,7.517045221090906e-07,1.6408848287477876e-05
1.5496960671642117e-06,3.2425625987809882e-06,7.639803917845782e-07,1.6443131712489885e-05
1.5675584483967702e-06,3.2542883211001737e-06,7.760300415142174e-07,1.6484344330039308e-05
1.5850949934942668e-06,3.267765069513335e-06,7.878272739375531e-07,1.6532345753079674e-05
1.6022552887219456e-06,3.2829911598305835e-06,7.993420246206777e-07,1.6586971744901017e-05
1.6189887994243146e-06,3.2999209983771195e-06,8.105454846724987e-07,1.6648022993090698e-05
1.6352472984119342e-06,3.3184913789605577e-06,8.214187460712262e-07,1.6715246679960325e-05
1.6509876372429334e-06,3.3386496121530682e-06,8.319597479404334e-07,1.6788313375099635e-05
1.6661755817859653e-06,3.3603607911866088e-06,8.421851637689054e-07,1.686677852649415e-05
1.6807874480903323e-06,3.383598430282223e-06,8.521239555335412e-07,1.6950034397990622e-05
1.694807241522763e-06,3.4083329144786386e-06,8.618044768161194e-07,1.7037281323249472e-05
1.708219409501778e-06,3.4345197418715493e-06,8.712441965947805e-07,1.712753358464979e-05
1.7210004128444354e-06,3.4620844173385133e-06,8.804464408047666e-07,1.7219644790481806e-05
1.733114797827417e-06,3.490915157048324e-06,8.894010296930265e-07,1.731234353906606e-05
1.7445179103579419e-06,3.5208727372682745e-06,8.980866172628248e-07,1.740428612925829e-05
1.7551621597502389e-06,3.551804797653663e-06,9.064749628788071e-07,1.7494118642741755e-05
1.7650036787784909e-06,3.5835516893854536e-06,9.145361468768532e-07,1.758053732963521e-05
1.7740058060864604e-06,3.6159458912752714e-06,9.222419218161215e-07,1.766234824097731e-05
1.7821356368013348e-06,3.648808467897004e-06,9.295654622620478e-07,1.7738504373800953e-05
1.789356454544276e-06,3.6819416669084297e-06,9.364784158833551e-07,1.780808807130304e-05
1.7956241057698345e-06,3.7151202050694984e-06,9.429485241086788e-07,1.7870258992750152e-05
1.8008923882433834e-06,3.748090011990188e-06,9.489415845895552e-07,1.7924222076766827e-05
1.8051260603194728e-06,3.7805798707681055e-06,9.544263318304328e-07,1.7969238182825846e-05
1.8083127972982124e-06,3.8123192676848677e-06,9.593764969896614e-07,1.800466616600209e-05
1.810464599980837e-06,3.843047639128326e-06,9.637698525776823e-07,1.8030021156927483e-05
1.811609359309084e-06,3.8725086191188385e-06,9.675887452518292e-07,1.804503790445874e-05
1.8117793255979725e-06,3.9004402740139576e-06,9.70821811170905e-07,1.804970326100161e-05
1.8110007151516003e-06,3.926574902341628e-06,9.734646136364643e-07,1.804419709547586e-05
1.8092879655072483e-06,3.950649230250867e-06,9.755192618437815e-07,1.8028755906044814e-05
1.8066443759007487e-06,3.972415991760315e-06,9.769915391657131e-07,1.8003563924134108e-05
1.8030675358584203e-06,3.991647964807968e-06,9.778862105312618e-07,1.796871965261293e-05
1.7985564290829502e-06,4.0081349604156894e-06,9.782044136731498e-07,1.7924250208278965e-05
1.7931144291890236e-06,4.0216839542163525e-06,9.779432774343612e-07,1.787017311375955e-05
1.7867453770862808e-06,4.032125968873986e-06,9.77096341882096e-07,1.7806579757735518e-05
1.7794502720529892e-06,4.0393206670149105e-06,9.756554035444755e-07,1.773364910401377e-05
1.7712323482356087e-06,4.043154561691612e-06,9.736129295783061e-07,1.7651582733617427e-05
1.7621049494691348e-06,4.043540919880072e-06,9.709627419740247e-07,1.7560569971575926e-05
1.7520912998555302e-06,4.040427679824293e-06,9.676999499167221e-07,1.7460841345054446e-05
1.7412177852262111e-06,4.033806548433901e-06,9.638231154339994e-07,1.735276982432423e-05
1.7295119453944473e-06,4.023709595318502e-06,9.593374679536385e-07,1.723695231570103e-05
1.7170067490302775e-06,4.010193116047863e-06,9.542551557167379e-07,1.7114190054949035e-05
1.7037420091686588e-06,3.993324583941021e-06,9.485931371340404e-07,1.6985355272907506e-05
1.6897606044625718e-06,3.9731804607379006e-06,9.423722384117992e-07,1.685125840075141e-05
1.6751059113612625e-06,3.949851991681031e-06,9.356164286870435e-07,1.6712603694148465e-05
1.6598217157633688e-06,3.923458837529258e-06,9.283505868524664e-07,1.6569997137928332e-05
1.6439503659071288e-06,3.894159043430015e-06,9.205989106071221e-07,1.6423962944684293e-05
1.627529636108271e-06,3.862139729865974e-06,9.123855787646765e-07,1.6274985947826695e-05
1.6105930791054237e-06,3.82760493963973e-06,9.03736028844028e-07,1.612359850431184e-05
1.5931760036662256e-06,3.790785556824279e-06,8.946762765331465e-07,1.5970520052333955e-05
1.5753237018105363e-06,3.751959877991667e-06,8.852309503396293e-07,1.5816804222164807e-05
1.5570956293031211e-06,3.711460124075602e-06,8.754232252986489e-07,1.5663855245103482e-05
1.5385632417433262e-06,3.6696610175889976e-06,8.652770801270996e-07,1.551325487855538e-05
1.5198038653548759e-06,3.6269608606285963e-06,8.548187902640022e-07,1.536652268074722e-05
1.5008929663384263e-06,3.5837644865396964e-06,8.440751297269135e-07,1.522495656680326e-05
1.481898098226798e-06,3.5404680141263414e-06,8.330707132989436e-07,1.5089631515578305e-05
1.4628764342866737e-06,3.497440246623657e-06,8.218296143219431e-07,1.4961574062403192e-05
1.4438734689383458e-06,3.455005564804851e-06,8.103806096020534e-07,1.4841991906744669e-05
1.4249227318129406e-06,3.413441517632558e-06,7.987595251188634e-07,1.4732361102445138e-05
1.406048421390263e-06,3.372991749194825e-06,7.870067175192392e-07,1.4634334263816053e-05
1.3872687338297438e-06,3.333879737778823e-06,7.751641514269189e-07,1.4549586625786624e-05
1.3685974049842377e-06,3.2963137618403197e-06,7.6327382271774e-07,1.447968357310495e-05
1.3500441392346778e-06,3.260486456806396e-06,7.513762047976002e-07,1.4425975919280906e-05
1.3316150368280736e-06,3.2265751693319787e-06,7.395102222294981e-07,1.4389507915976016e-05
1.3133135312329256e-06,3.1947423284131237e-06,7.277160677714362e-07,1.4370945641100962e-05
1.2951409276134158e-06,3.165129074893706e-06,7.16038326964283e-07,1.4370545754452818e-05
1.2770955517228972e-06,3.137843089238188e-06,7.045273185364091e-07,1.4388168822057367e-05
1.2591715223128152e-06,3.1129571196492767e-06,6.932388769632298e-07,1.4423331152808956e-05
1.2413580190420236e-06,3.0905251540481685e-06,6.82232341076562e-07,1.4475298608249246e-05
1.2236391388194115e-06,3.070593559240348e-06,6.715667960303584e-07,1.4543214452577381e-05
1.2059949131941095e-06,3.053188571608999e-06,6.612972262982493e-07,1.4626206331836594e-05
1.1884035046658593e-06,3.0382951247509268e-06,6.514745500378105e-07,1.4723433057433242e-05
1.170843357532527e-06,3.0258509454863997e-06,6.421528823685443e-07,1.4834113354840872e-05
1.1532948647563903e-06,3.015762018973638e-06,6.333980647291282e-07,1.4957577614654596e-05
1.135742277976838e-06,3.0079295295773172e-06,6.252872197589177e-07,1.5093300840880442e-05
1.118175350505985e-06,3.0022688061066797e-06,6.17899028950984e-07,1.524086847957141e-05
1.100588888406454e-06,2.998705319395985e-06,6.113020685995486e-07,1.539990416482818e-05
1.0829798518521964e-06,2.99715825506304e-06,6.055469313188574e-07,1.5570003974815335e-05
1.065344833343999e-06,2.9975370261733084e-06,6.00663813575909e-07,1.5750665259648513e-05
1.047680318999161e-06,2.999752355867568e-06,5.966637739003621e-07,1.594119801783603e-05
1.029983869372217e-06,3.0037174882476687e-06,5.93541763503104e-07,1.6140669879552705e-05
1.0122540652814192e-06,3.0093312953281023e-06,5.912810190834169e-07,1.6347940005807708e-05
9.944902599378263e-07,3.016465702270428e-06,5.898577207806661e-07,1.6561770710877194e-05
9.76692525588148e-07,3.0249752630213728e-06,5.892438304810171e-07,1.6780957274777698e-05
9.588609744366713e-07,3.034717101644223e-06,5.894064344177062e-07,1.700441040985541e-05
9.409951917321998e-07,3.045559550847156e-06,5.903046851813511e-07,1.723117144083009e-05
9.230946132836538e-07,3.0573745002142015e-06,5.918886866014365e-07,1.7460405934567026e-05
9.051603776528959e-07,3.0700230434050966e-06,5.941036310839093e-07,1.7691416136155686e-05
8.871981796494963e-07,3.0833458338480264e-06,5.968985107556785e-07,1.792366226858761e-05
8.692198292524952e-07,3.0971655969692563e-06,6.002352464505853e-07,1.8156756864624248e-05
8.512427915225131e-07,3.111300414358308e-06,6.040923808559474e-07,1.8390391591152352e-05
8.332881185378118e-07,3.125579379853261e-06,6.084601968098587e-07,1.8624200237964244e-05
8.153777518065539e-07,3.139855693969259e-06,6.133314974296583e-07,1.8857646450954378e-05
7.975355260386389e-07,3.1540153444987342e-06,6.186966204315937e-07,1.9090018993706102e-05
7.797937832104445e-07,3.1679737040367543e-06,6.245442511537275e-07,1.9320508362449106e-05
7.621989192506045e-07,3.1816553731218632e-06,6.308611583448903e-07,1.954829223663805e-05
7.448094887618668e-07,3.1949702157062336e-06,6.376280406033795e-07,1.9772589614400628e-05
7.27689936758905e-07,3.2078041647460843e-06,6.448156568086386e-07,1.999266316528952e-05
7.109053357024183e-07,3.2200280936989367e-06,6.523843542113731e-07,2.0207773815590145e-05
6.945180698871801e-07,3.231513317734268e-06,6.602857016687522e-07,2.04171184218115e-05
6.785876019846883e-07,3.242143326280993e-06,6.684636193916453e-07,2.0619790024539945e-05
6.631751819562786e-07,3.251822379771178e-06,6.768555265293405e-07,2.0814797638124327e-05
6.483501674695287e-07,3.260483539952537e-06,6.853960642619546e-07,2.1001137589685187e-05
6.341912124257844e-07,3.2680926050826982e-06,6.940228179535568e-07,2.117786038119391e-05
6.207810667616912e-07,3.274645974269123e-06,7.026799773588426e-07,2.134409735210744e-05
6.081993172247082e-07,3.280161642832139e-06,7.11318302002088e-07,2.149908330735181e-05
5.965169678374612e-07,3.2846619001681665e-06,7.198940734192097e-07,2.1642233899467707e-05
5.857953312183065e-07,3.2881543121161684e-06,7.283681051109821e-07,2.1773224889328368e-05
5.760878499509943e-07,3.290620789558505e-06,7.367044522819427e-07,2.1891962983248272e-05
5.674410995899251e-07,3.292016444499175e-06,7.448720821469183e-07,2.1998468051563336e-05
5.598970310191126e-07,3.2922748749335213e-06,7.528502533388834e-07,2.209275673300213e-05
5.5349767021536e-07,3.2913199805853923e-06,7.606309695339601e-07,2.2174786332167143e-05
5.482846383944004e-07,3.2890860570771907e-06,7.682148783819267e-07,2.2244527178058185e-05
5.44291240379104e-07,3.285539339482963e-06,7.756048185987851e-07,2.2302140206379067e-05
5.415362846179144e-07,3.280688866231567e-06,7.828016642439877e-07,2.2348089537471438e-05
5.400251491093183e-07,3.274580904325508e-06,7.898039035982921e-07,2.2383101327680688e-05
5.397536645539733e-07,3.2672784443842203e-06,7.96608378299755e-07,2.2408036317284286e-05
5.407103469894408e-07,3.2588356857157032e-06,8.032087290560312e-07,2.2423733887950694e-05
5.428806993989218e-07,3.2492837592750613e-06,8.095938694287011e-07,2.243086593348768e-05
5.462568147496284e-07,3.23863789488074e-06,8.157497740651187e-07,2.242987020116024e-05
5.508448444026641e-07,3.2269243639179024e-06,8.216617644937603e-07,2.2420997152094167e-05
5.56661826982174e-07,3.2142103030363172e-06,8.273150960801168e-07,2.240442092256416e-05
5.637233649931856e-07,3.2006115322907917e-06,8.326964474338268e-07,2.238031974571104e-05
5.720314294610081e-07,3.1862729808602074e-06,8.377969858910191e-07,2.234887669343541e-05
5.815711823552013e-07,3.171338704243946e-06,8.426144532434864e-07,2.2310234329805053e-05
5.923148702884705e-07,3.1559294095197182e-06,8.471523490246216e-07,2.2264449948299846e-05
6.042232001059845e-07,3.140141371939118e-06,8.514172850275509e-07,2.221146982006353e-05
6.17243224751185e-07,3.1240695021327224e-06,8.554192116272921e-07,2.2151131092685723e-05
6.313083284637988e-07,3.1078355006751007e-06,8.59175426597393e-07,2.208319576102068e-05
6.463399723116264e-07,3.091596310147209e-06,8.627118203773802e-07,2.2007412969306736e-05
6.622487169151824e-07,3.075527109599075e-06,8.660576202835929e-07,2.192358147542555e-05
6.789366943760029e-07,3.0597932767135483e-06,8.69237821423781e-07,2.183157588081723e-05
6.963043071755077e-07,3.044528634980957e-06,8.722685988617962e-07,2.1731338500466947e-05
7.142574241247678e-07,3.0298289576538502e-06,8.751567168812886e-07,2.1622856444872528e-05
7.327079359258688e-07,3.0157570351720503e-06,8.779012692758139e-07,2.1506130240058708e-05
7.515689562213099e-07,3.0023456936433894e-06,8.804960667272497e-07,2.1381153642273367e-05
7.707548055485464e-07,2.9895953714699423e-06,8.82930684859811e-07,2.1247921360914e-05
7.901885947561635e-07,2.977477534290393e-06,8.851896231371468e-07,2.110643776195046e-05
8.098056668935443e-07,2.965947194541516e-06,8.872521332766529e-07,2.095671700520799e-05
8.295452867039271e-07,2.9549565540350987e-06,8.890952910220937e-07,2.0798819471461388e-05
8.493396689258432e-07,2.9444647084500094e-06,8.906995796577497e-07,2.063291553893161e-05
8.691102588035453e-07,2.9344399967140908e-06,8.920532739147707e-07,2.0459301491225586e-05
8.887701481467681e-07,2.9248525986880812e-06,8.931522503448557e-07,2.027835701173672e-05
9.082292671551923e-07,2.9156625442689253e-06,8.939963183030416e-07,2.009049756115749e-05
9.27401975327153e-07,2.906810457926861e-06,8.945894494292276e-07,1.9896153887211253e-05
9.462145633548668e-07,2.8982142873211554e-06,8.949471525136152e-07,1.969576668876521e-05
9.646071677447858e-07,2.8897721714729013e-06,8.951003713818974e-07,1.948976432985941e-05
9.8252755159227e-07,2.881371282140257e-06,8.950878791390898e-07,1.9278545489064818e-05
9.99922087150144e-07,2.87290241145712e-06,8.949460869362602e-07,1.9062530758805566e-05
1.0167316396129722e-06,2.864271756853258e-06,8.947063896394856e-07,1.8842296152518365e-05
1.032892790218699e-06,2.8553984570286734e-06,8.943966585245077e-07,1.861872702263115e-05
1.0483396971470522e-06,2.846202047137652e-06,8.940398355067707e-07,1.8393071551292328e-05
1.063004747416827e-06,2.836594549018302e-06,8.936516264666504e-07,1.8166817868911154e-05
1.0768191952902315e-06,2.826485826677701e-06,8.932413839370281e-07,1.7941473426618952e-05
1.0897144173231933e-06,2.8157998310764288e-06,8.92813982289758e-07,1.771839683202814e-05
1.1016239432729916e-06,2.8044882761921124e-06,8.923701683163065e-07,1.74987849577525e-05
1.1124871890165018e-06,2.7925294133980642e-06,8.919055303600796e-07,1.7283804545950617e-05
1.1222545311496436e-06,2.7799191193354567e-06,8.914092887228649e-07,1.7074730554535855e-05
1.1308902229126426e-06,2.7666702388362146e-06,8.908647059748373e-07,1.6872974814662697e-05
1.1383718468503564e-06,2.75281916693238e-06,8.902510232616914e-07,1.668001806163135e-05
1.1446892935091437e-06,2.7384263923453416e-06,8.895457370443431e-07,1.6497293278910378e-05
1.1498437619196637e-06,2.723564822238208e-06,8.887268617120563e-07,1.6326066703775715e-05
1.1538451239785972e-06,2.7083034918479838e-06,8.87774593995594e-07,1.6167409540779473e-05
1.156708382595345e-06,2.6927012511196168e-06,8.866707452964037e-07,1.6022250407500945e-05
1.1584512902880904e-06,2.676813096611071e-06,8.853956060607075e-07,1.589135571219562e-05
1.1590943001213018e-06,2.6606965036380508e-06,8.839258880576344e-07,1.5775265027028962e-05
1.1586615225546672e-06,2.6444081462633406e-06,8.822363817338245e-07,1.56743966705408e-05
1.1571819600002765e-06,2.6279956871528685e-06,8.803024871281403e-07,1.558931719753281e-05
1.1546920222749568e-06,2.6114991399306197e-06,8.781018200847903e-07,1.5520911053264504e-05
1.151236197323755e-06,2.594963522553069e-06,8.75616724047521e-07,1.547030861705339e-05
1.1468632880294554e-06,2.57844456361614e-06,8.728363948336542e-07,1.5438680344104845e-05
1.1416230870275042e-06,2.5620022016623667e-06,8.697556387780365e-07,1.5427033877707253e-05
1.1355668019375494e-06,2.5456979026870185e-06,8.663716274963909e-07,1.5436057529579244e-05
1.1287480320508508e-06,2.529600415393165e-06,8.626813220779663e-07,1.5466025942225494e-05
1.1212230572625635e-06,2.5137851128604645e-06,8.586801769125506e-07,1.5516800396771483e-05
1.1130530149915448e-06,2.4983196296758944e-06,8.543618731062351e-07,1.5587923551228713e-05
1.1043068377885382e-06,2.483250209550618e-06,8.497187407610656e-07,1.5678737785561595e-05
1.095060276413767e-06,2.468600768049248e-06,8.447437143128982e-07,1.5788456951622955e-05
1.085390449683518e-06,2.454377901320889e-06,8.394337976613891e-07,1.5916178342034162e-05
1.0753702344282829e-06,2.4405778783840227e-06,8.337915662359802e-07,1.6060851910395487e-05
1.065067064121234e-06,2.427199389006485e-06,8.278230336423786e-07,1.6221247913414474e-05
1.0545467964434359e-06,2.414253482857933e-06,8.215350379022268e-07,1.639596689596349e-05
1.0438773280598706e-06,2.401758582274677e-06,8.149341853556622e-07,1.6583486693989364e-05
1.033127052080483e-06,2.3897269265345047e-06,8.080258276002949e-07,1.678221202643687e-05
1.0223617445408435e-06,2.37815579944754e-06,8.008127936884863e-07,1.6990510825535603e-05
1.0116444608163931e-06,2.3670250912093086e-06,7.932965974648149e-07,1.7206739861055946e-05
1.0010349881044719e-06,2.356300456527061e-06,7.854838594714876e-07,1.7429264385850115e-05
9.905877156262863e-07,2.3459451882197202e-06,7.773949420492694e-07,1.765647720035314e-05
9.803542165572023e-07,2.335938374450642e-06,7.690654719326249e-07,1.788682732297044e-05
9.70391762058249e-07,2.3262940847078013e-06,7.605394146942425e-07,1.8118843184617527e-05
9.607702056495229e-07,2.317073558636533e-06,7.518641312882544e-07,1.835110347059874e-05
9.515712775431644e-07,2.3083760532815563e-06,7.430925646137815e-07,1.8582169072307755e-05
9.428815544990692e-07,2.300310923762503e-06,7.342884093174428e-07,1.8810569182968604e-05
9.347825139565326e-07,2.2929789384768816e-06,7.255288864397157e-07,1.9034874873587286e-05
9.273410290368786e-07,2.286476384379448e-06,7.169003251323979e-07,1.9253796479646688e-05
9.206039594258628e-07,2.2809051422374948e-06,7.08486854970267e-07,1.9466251610053118e-05
9.145971190141388e-07,2.2763743673015202e-06,7.003600381195811e-07,1.9671375901781922e-05
9.093269288501551e-07,2.2729944638836947e-06,6.925753880384461e-07,1.986845234308125e-05
9.047841679482844e-07,2.2708646605830825e-06,6.851741936023592e-07,2.005679570176367e-05
9.009484478361937e-07,2.270058892739456e-06,6.781866593983676e-07,2.0235686258447305e-05
8.97791201572089e-07,2.2706242927143304e-06,6.716345959890379e-07,2.040439990260734e-05
8.952767558267217e-07,2.272595248376595e-06,6.655335700728815e-07,2.0562259167056865e-05
8.933636154285089e-07,2.2760034419480026e-06,6.598949546922694e-07,2.0708608060774955e-05
8.920079339820967e-07,2.2808767989662558e-06,6.547302852259719e-07,2.0842744699647297e-05
8.911673560223977e-07,2.287250764088128e-06,6.5005649877092e-07,2.09639069757049e-05
8.908019899013874e-07,2.2951979147759613e-06,6.458946835186158e-07,2.1071343273109508e-05
8.908725332662345e-07,2.304837727501081e-06,6.422636669777205e-07,2.1164445111209327e-05
8.913372368525059e-07,2.316304601440174e-06,6.391770767984522e-07,2.124289952375447e-05
8.921497233476551e-07,2.3297139401385484e-06,6.366448728306906e-07,2.1306829290783443e-05
8.932604062786933e-07,2.3451621833084307e-06,6.346758292397096e-07,2.135686597582395e-05
8.946202106380067e-07,2.3627348429086697e-06,6.332781014384368e-07,2.1394075415186908e-05
8.961819422570431e-07,2.3824949589628712e-06,6.324556855961574e-07,2.141974241548321e-05
8.979000174412831e-07,2.4044744634795416e-06,6.322031240350477e-07,2.1435127699658984e-05
8.997330622123175e-07,2.428688774266784e-06,6.325037866033852e-07,2.1441321700264426e-05
9.016487607056082e-07,2.45514756412517e-06,6.333330346625669e-07,2.1439226886515925e-05
9.036261816685316e-07,2.4838384440082755e-06,6.346615409312684e-07,2.142959018869471e-05
9.05653054867325e-07,2.514710770110997e-06,6.364546945562857e-07,2.141301041315227e-05
9.077193304009941e-07,2.547685957362329e-06,6.386702884739386e-07,2.138993326749065e-05
9.098105207203144e-07,2.5826783736056807e-06,6.412583355740774e-07,2.1360707223105987e-05
9.119036985830244e-07,2.6196053697599154e-06,6.441635304943855e-07,2.1325683599821162e-05
9.139666801756899e-07,2.6583840778300647e-06,6.473296781227684e-07,2.1285231170106285e-05
9.159594451867485e-07,2.698921366927951e-06,6.507063862746078e-07,2.1239651917488066e-05
9.17836412359412e-07,2.741103185176882e-06,6.542562096008918e-07,2.1189112260206217e-05
9.195493374904526e-07,2.7847880826929303e-06,6.579563512988345e-07,2.113366055155998e-05
9.21052540508135e-07,2.8298133901197583e-06,6.617920735259786e-07,2.107337686130996e-05
9.223095990808529e-07,2.876012537307425e-06,6.657475257620636e-07,2.100863821535595e-05
9.232970958336207e-07,2.9232246710020287e-06,6.698009085218424e-07,2.094031285936991e-05
9.240033247068028e-07,2.971287239657153e-06,6.739245440001552e-07,2.0869730167811843e-05
9.244224996854156e-07,3.020020226374746e-06,6.780862617703957e-07,2.0798511924294147e-05
9.245472787001194e-07,3.0692151988712916e-06,6.822499922697329e-07,2.0728408260366064e-05
9.243649241010388e-07,3.118635804206502e-06,6.863765625523365e-07,2.0661169394465835e-05
9.238585347100641e-07,3.168023216905675e-06,6.90425065237783e-07,2.059844224494772e-05
9.230101375147494e-07,3.2171011872922686e-06,6.943540581281792e-07,2.054168436013859e-05
9.218031743465685e-07,3.2655844250641313e-06,6.981224431986701e-07,2.0492084115360388e-05
9.202237209434166e-07,3.3131891421400693e-06,7.016891425893977e-07,2.0450502055998045e-05
9.182602890121059e-07,3.3596387403393035e-06,7.050119493649519e-07,2.041745579218184e-05
9.159022512674644e-07,3.4046633629874563e-06,7.080484112095491e-07,2.0393125092589332e-05
9.131384455382244e-07,3.4480014365464828e-06,7.107599999173679e-07,2.0377352491698487e-05
9.099572299322869e-07,3.4894089236537073e-06,7.131168318644872e-07,2.036965695561265e-05
9.06346734808392e-07,3.5286655631143616e-06,7.150990635061847e-07,2.0369268019859105e-05
9.022960206984423e-07,3.5655673595933136e-06,7.166938396653087e-07,2.0375173152053907e-05
8.977993184383026e-07,3.599915494325428e-06,7.178900381288874e-07,2.0386187094726404e-05
8.928596754194345e-07,3.6315138568452997e-06,7.186744824992794e-07,2.0401045902880662e-05
8.874876791336821e-07,3.6601751785708914e-06,7.190311519366012e-07,2.041850791779433e-05
8.816997138877605e-07,3.685736927579092e-06,7.18942043146079e-07,2.0437447830664043e-05
8.755190630932709e-07,3.70808454469673e-06,7.183884499911302e-07,2.0456949877970678e-05
8.689742098037819e-07,3.727167222053582e-06,7.173522752227727e-07,2.047638614432628e-05
8.620929668121469e-07,3.7429930336318536e-06,7.158177055906101e-07,2.04954366855384e-05
8.54898758100194e-07,3.755604869001794e-06,7.137750812469413e-07,2.0514042058033065e-05
8.474110348929504e-07,3.7650560189001572e-06,7.11227071891674e-07,2.0532301452140647e-05
8.396467871854463e-07,3.7714072092935653e-06,7.081925745406947e-07,2.055032605163756e-05
8.316220978449077e-07,3.7747442949662126e-06,7.047045961061643e-07,2.0568109907081527e-05
8.233534003610411e-07,3.775196109709014e-06,7.008037718602796e-07,2.0585489094127523e-05
8.148573617026647e-07,3.772936950919737e-06,6.9653151618417e-07,2.060216553331453e-05
8.061503357271956e-07,3.768171751479296e-06,6.919262891891307e-07,2.0617731438947465e-05
7.972479428202007e-07,3.7611108441054686e-06,6.870244737704075e-07,2.0631678281639747e-05
7.881649366852673e-07,3.751945246403346e-06,6.818651821688064e-07,2.0643405926654763e-05
7.789175302361849e-07,3.7408331836524123e-06,6.7649652346416e-07,2.0652240528906784e-05
7.695279306647178e-07,3.7279051762641295e-06,6.709786788886553e-07,2.0657448503166347e-05
7.600277981748684e-07,3.7132854465388633e-06,6.653818869152137e-07,2.0658233663220464e-05
7.504592879158434e-07,3.697114826253897e-06,6.597816544710679e-07,2.0653733460882643e-05
7.408736636158741e-07,3.679560833317617e-06,6.54252123154166e-07,2.064303621573869e-05
7.313266909490133e-07,3.660816367797745e-06,6.488611611630965e-07,2.062521994878983e-05
7.218726524632812e-07,3.6410943192535432e-06,6.436722516184946e-07,2.059941478957181e-05
7.125606738085832e-07,3.6206132638189683e-06,6.387483279015843e-07,2.0564884599969557e-05
7.034339081805832e-07,3.5995742579499304e-06,6.341499495527223e-07,2.05210746814466e-05
6.94530112522114e-07,3.578150426697965e-06,6.299299639883529e-07,2.0467583839179424e-05
6.8588284743031e-07,3.5564994803532013e-06,6.261301006598451e-07,2.0404098561955577e-05
6.775246571494958e-07,3.534776035773787e-06,6.227797389063551e-07,2.0330343870769672e-05
6.694932630218667e-07,3.5131232920170686e-06,6.198963592730125e-07,2.0246067879090365e-05
6.618361307827089e-07,3.4916549938675003e-06,6.174903991784135e-07,2.015104429445794e-05
6.546073529567998e-07,3.4704512035217903e-06,6.155734461939711e-07,2.0045064090861973e-05
6.478585070735362e-07,3.449577483993819e-06,6.14162201333434e-07,1.992792348089383e-05
6.416307446701597e-07,3.429116274886495e-06,6.132746895060199e-07,1.9799477448647653e-05
6.359517620105792e-07,3.409182459699394e-06,6.129262467808172e-07,1.9659819734662307e-05
6.308371711602042e-07,3.3899104271489878e-06,6.131348947534295e-07,1.950949018442809e-05
6.262948751481015e-07,3.371445642153221e-06,6.139344339233288e-07,1.9349499447324854e-05
6.223286904006801e-07,3.3539712520732462e-06,6.153819247782773e-07,1.918113941761676e-05
6.18937948574328e-07,3.337750109457503e-06,6.175492022164804e-07,1.9005746803222884e-05
6.161149654956282e-07,3.323148371331372e-06,6.205043263132707e-07,1.8824576588295644e-05
6.13843982302518e-07,3.310622675414217e-06,6.242978860813097e-07,1.8638889251349413e-05
6.121015274759697e-07,3.300667683900616e-06,6.289600447496536e-07,1.845021857320111e-05
6.10856740781015e-07,3.2937460124748797e-06,6.345036601545528e-07,1.8260587296758905e-05
6.100729931080426e-07,3.290243495554296e-06,6.409300028929628e-07,1.8072503199365828e-05
6.097117233555024e-07,3.29047445684952e-06,6.482364179081974e-07,1.7888785504338897e-05
6.097350548158854e-07,3.2947158708886262e-06,6.564217495240709e-07,1.771231790042542e-05
6.101047072362233e-07,3.303233369869814e-06,6.654843058489757e-07,1.7545798888684046e-05
6.107805617629851e-07,3.316285235501439e-06,6.75414172017381e-07,1.739156815234542e-05
6.117213443900674e-07,3.334107562792499e-06,6.861872573842093e-07,1.7251546335345543e-05
6.12885918646918e-07,3.356884483997928e-06,6.977643396963826e-07,1.712725028330816e-05
6.142346158177189e-07,3.3847186480541087e-06,7.100924261360926e-07,1.701982656395017e-05
6.157301507401373e-07,3.417623654397284e-06,7.231065019499342e-07,1.6930087121160267e-05
6.173380815761688e-07,3.455532405949934e-06,7.367332515931114e-07,1.6858539757045788e-05
6.190284068665536e-07,3.498300074721421e-06,7.508970178519567e-07,1.680538489482457e-05
6.207768235585994e-07,3.545709767941864e-06,7.655233393422396e-07,1.6770489019010927e-05
6.225629884057187e-07,3.597501285534102e-06,7.805369946602762e-07,1.67534052046457e-05
6.243688094034336e-07,3.6534088862878234e-06,7.958578247774551e-07,1.6753483449492906e-05
6.261804181702861e-07,3.7131743472064813e-06,8.113981860504496e-07,1.6770027466812296e-05
6.27989869525716e-07,3.7765292757809197e-06,8.270631788389957e-07,1.6802436103234446e-05
6.297929747496234e-07,3.8431670536100955e-06,8.427534074793405e-07,1.6850303849773907e-05
6.315873617781633e-07,3.912724062792512e-06,8.583687871414055e-07,1.6913456021165947e-05
6.333733376929148e-07,3.984784223713211e-06,8.738131540122338e-07,1.6991902627189125e-05
6.351542007207457e-07,4.058910276033712e-06,8.889995919596271e-07,1.7085733813529005e-05
6.36933333430648e-07,4.134688644430951e-06,9.038537588876694e-07,1.7194987755152937e-05
6.387100479905461e-07,4.2117722916443714e-06,9.183152638395336e-07,1.7319521355357145e-05
6.404786533618654e-07,4.2899093322579365e-06,9.323390290281948e-07,1.7458915351456502e-05
6.422320090351962e-07,4.368937916584331e-06,9.458938750729721e-07,1.7612430744921438e-05
6.439659381878972e-07,4.448738855265026e-06,9.589558175439637e-07,1.7779044433981807e-05
6.456813369157276e-07,4.529180276348987e-06,9.715008834750024e-07,1.7957556325517403e-05
6.473849830770553e-07,4.610100217542413e-06,9.83505172329269e-07,1.8146662470614355e-05
6.490907521152508e-07,4.6913235339410926e-06,9.949514857968194e-07,1.8344930850179448e-05
6.508197008373471e-07,4.772677099093005e-06,1.0058337067161145e-06,1.855075397068851e-05
6.525968927919306e-07,4.853989801007981e-06,1.0161551301702722e-06,1.876234873233761e-05
6.544469520114748e-07,4.935084959453182e-06,1.0259238393222331e-06,1.897779314206661e-05
6.563927924032758e-07,5.0157729759511115e-06,1.0351474013329919e-06,1.9195093077455e-05
6.584585579164507e-07,5.095847040888998e-06,1.0438281008293977e-06,1.9412298135160927e-05
6.606737494488136e-07,5.175076069998783e-06,1.0519604265349727e-06,1.962762869796322e-05
6.630758233520101e-07,5.253192400203511e-06,1.0595315012820186e-06,1.983952988312268e-05
6.657109196710901e-07,5.329885803401943e-06,1.0665237191194135e-06,2.0046632647748747e-05
6.686334982892026e-07,5.404812454367166e-06,1.0729173896103008e-06,2.024766910907456e-05
6.71903522768346e-07,5.477610842126679e-06,1.0786907989466294e-06,2.0441393915374562e-05
6.755783457068217e-07,5.5479128240845e-06,1.0838184823728768e-06,2.062655242816969e-05
6.797028207728625e-07,5.615348311022614e-06,1.0882707622020174e-06,2.080189454247209e-05
6.843072046349628e-07,5.679546225022116e-06,1.092014691495443e-06,2.0966195910359508e-05
6.894175142363576e-07,5.740132710837866e-06,1.0950150343249822e-06,2.111828987432704e-05
6.95072206606594e-07,5.79673164711341e-06,1.097235374639513e-06,2.1257148109494792e-05
7.013292773764783e-07,5.848970351088898e-06,1.09863940608531e-06,2.138198813388132e-05
7.082551406491753e-07,5.896485386147343e-06,1.0991920107017526e-06,2.1492341202702248e-05
7.159118788728267e-07,5.938929203476065e-06,1.0988599592275623e-06,2.158804813903044e-05
7.243576646322792e-07,5.97598146403351e-06,1.0976124706231456e-06,2.1669186281631124e-05
7.336475435311623e-07,6e-07,1.0954223765761802e-06,2.173595595691721e-05
7.438266050840228e-07,6e-07,1.0922673472832242e-06,2.1788605331904613e-05
7.549293109709824e-07,6e-07,1.0881298349297337e-06,2.1827480944606924e-05
7.669881810847319e-07,6e-07,1.0829963076310524e-06,2.185314636834057e-05
7.800372257305913e-07,6e-07,1.076857123340672e-06,2.1866395578515687e-05
7.941042746835262e-07,6e-07,1.069707420317506e-06,2.186812916692817e-05
8.092005780519667e-07,6e-07,1.0615490806595694e-06,2.1859215283186415e-05
8.253146597174373e-07,6e-07,1.0523935627160666e-06,2.18404150836814e-05
8.424124197414354e-07,6e-07,1.0422647689551822e-06,2.1812369934031525e-05
8.604447393184253e-07,6e-07,1.0312004079217574e-06,2.177561608627788e-05
8.793612674381005e-07,5.965224513160215e-06,1.0192499932671109e-06,2.173059021143398e-05
8.991249088145828e-07,5.923464457686399e-06,1.0064707766076514e-06,2.167761135440891e-05
9.197182127409327e-07,5.875120278865431e-06,9.929256278597428e-07,2.161686132188493e-05
9.411361248317541e-07,5.820404396735358e-06,9.786829379211097e-07,2.154839788764301e-05
9.633751399170172e-07,5.7595570660678005e-06,9.638155095444175e-07,2.147220404313316e-05
9.86434126160787e-07,5.692827586957374e-06,9.483979314847854e-07,2.1388244845121123e-05
1.01032020917174e-06,5.620465609023324e-06,9.325046717668663e-07,2.1296506826940538e-05
1.0350421055561114e-06,5.542720696150102e-06,9.162099283130293e-07,2.1197027263733653e-05
1.0605934966106154e-06,5.459844711358397e-06,8.995870476724905e-07,2.1089940670541627e-05
1.08694127787627e-06,5.372094723828485e-06,8.827069088437653e-07,2.0975528656201126e-05
1.1140226902752842e-06,5.27973739663667e-06,8.656375292467961e-07,2.085421147701652e-05
1.1417471163845642e-06,5.183058908432917e-06,8.484451137222583e-07,2.0726462992517627e-05
1.1699998433339285e-06,5.082378272644861e-06,8.311947479147166e-07,2.0592712333323494e-05
1.1986462287831138e-06,4.97805308824635e-06,8.139503781292465e-07,2.045329450781798e-05
1.2275355272725529e-06,4.8704710292051734e-06,7.96776332501727e-07,2.03084466400904e-05
1.2565051554326034e-06,4.760035225469391e-06,7.79740422806008e-07,2.0158325278101928e-05
1.2853853598185656e-06,4.647161180391233e-06,7.629137941324748e-07,2.0003046591560564e-05
1.3140036459816591e-06,4.532288071179454e-06,7.463676691264416e-07,1.984274854425345e-05
1.3421888653947004e-06,4.415883617309448e-06,7.301757109557958e-07,1.9677645140910808e-05
1.3697747181845378e-06,4.298428007028736e-06,7.14424042553677e-07,1.95080311009562e-05
1.3966025933493713e-06,4.180391013867486e-06,6.992180107131075e-07,1.933422099617228e-05
1.422523842950113e-06,4.062229715961868e-06,6.846765737517228e-07,1.915646640082252e-05
1.4474015287087778e-06,3.944414844789794e-06,6.709169633804275e-07,1.8974932253905703e-05
1.4711110261823969e-06,3.8274636344919315e-06,6.580399640356349e-07,1.878978386308816e-05
1.493538223124041e-06,3.7119538945846764e-06,6.461239877659739e-07,1.8601325356418595e-05
1.5145760112130754e-06,3.5985111074370314e-06,6.352271712252135e-07,1.841003034325272e-05
1.5341220715190114e-06,3.4877762396712755e-06,6.253916545057127e-07,1.8216412855870672e-05
1.552078968197482e-06,3.3803729822914453e-06,6.166454008990068e-07,1.802088396721772e-05
1.5683552476810715e-06,3.2768841542956313e-06,6.090016519883769e-07,1.782371852969921e-05
1.5828687380474557e-06,3.177829675401581e-06,6.024607564575558e-07,1.7625114001451147e-05
1.595552923032707e-06,3.083647335730352e-06,5.970157927245161e-07,1.7425266718376294e-05
1.606361981892263e-06,2.9946928774127064e-06,5.926585270591071e-07,1.7224395172279925e-05
1.6152717986003109e-06,2.911259454421354e-06,5.893844695453736e-07,1.7022697254740975e-05
1.6222788729986367e-06,2.8335934711387766e-06,5.871957588878017e-07,1.682030860648114e-05
1.62739604481042e-06,2.7618925673619342e-06,5.860980118390513e-07,1.6617329494376953e-05
1.630645153864393e-06,2.696292601539945e-06,5.860917694691704e-07,1.6413924194279266e-05
1.6320535734907885e-06,2.636856883592022e-06,5.871646340822836e-07,1.6210451970198608e-05
1.6316574173892383e-06,2.583575905282146e-06,5.892885568116357e-07,1.600755147576953e-05
1.6295045498992867e-06,2.536376536977647e-06,5.924220203226456e-07,1.580608487933115e-05
1.6256518929525209e-06,2.4951355366304845e-06,5.965140168470755e-07,1.560696585921157e-05
1.6201622725455175e-06,2.4596948792999205e-06,6.015067309431084e-07,1.541103729863565e-05
1.6131085351108571e-06,2.4298756631608348e-06,6.073361733583954e-07,1.5219074837192817e-05
1.6045808617277487e-06,2.4054857090337884e-06,6.139318924614302e-07,1.5031816190971578e-05
1.5946863042322806e-06,2.3863205447978524e-06,6.212169854498683e-07,1.4849941400157215e-05
1.5835387989769634e-06,2.3721625597046464e-06,6.291095367928701e-07,1.4674029408651606e-05
1.571248366888321e-06,2.3627807837693697e-06,6.375245742214643e-07,1.4504531661512353e-05
1.5579157139645315e-06,2.3579290589440844e-06,6.463741721398289e-07,1.4341814808257516e-05
1.543630818033705e-06,2.3573419283405533e-06,6.555667613741621e-07,1.4186281124392707e-05
1.528474570931537e-06,2.360730344550876e-06,6.650084689519976e-07,1.4038446406285391e-05
1.5125245217094304e-06,2.367780268512092e-06,6.74605905336078e-07,1.3898876801033484e-05
1.495860086049972e-06,2.3781580423841925e-06,6.842680750282511e-07,1.3768054567889096e-05
1.47856237293903e-06,2.391521424322718e-06,6.939076284138725e-07,1.3646303584968124e-05
1.4607156210503441e-06,2.4075302410819506e-06,7.034424221591997e-07,1.3533867889624409e-05
1.4424161041011664e-06,2.425853314627207e-06,7.127960464057742e-07,1.3431106628063815e-05
1.4237771739928837e-06,2.4461696526369357e-06,7.218967624604801e-07,1.3338578271710856e-05
1.404921868318236e-06,2.4681656734744386e-06,7.306770264149827e-07,1.3256908946551233e-05
1.38597293879479e-06,2.4915402115177087e-06,7.390739636796141e-07,1.3186655633129868e-05
1.3670482677068984e-06,2.516021333992192e-06,7.470283348458598e-07,1.3128296942758604e-05
1.3482565823471788e-06,2.541377270915982e-06,7.54482837572666e-07,1.3082222776225238e-05
1.3296908586324541e-06,2.567405180269212e-06,7.613834615025047e-07,1.3048654455505949e-05
1.3114247421549592e-06,2.5939066461467413e-06,7.676829923438259e-07,1.3027573316502444e-05
1.2935139113170992e-06,2.6206737057536416e-06,7.733422353193373e-07,1.301869946712396e-05
1.2759999654135125e-06,2.647494820935269e-06,7.78328461015683e-07,1.3021513319195534e-05
1.2589158661337394e-06,2.6741690083296106e-06,7.8261447544688e-07,1.3035334253149256e-05
1.2422898828884434e-06,2.7005177137479026e-06,7.861799201558591e-07,1.305944466468108e-05
1.2261445904187487e-06,2.7263937374916127e-06,7.89012953893271e-07,1.3093183581076711e-05
1.2104951867379808e-06,2.751684796843409e-06,7.911098748053748e-07,1.3135971565791832e-05
1.1953512068609578e-06,2.77630543548898e-06,7.924741738256376e-07,1.3187308466743553e-05
1.1807172259208606e-06,2.8001781628578e-06,7.931202960923757e-07,1.324676478610627e-05
1.1665907594352316e-06,2.823220322598026e-06,7.930809305214651e-07,1.3313947199725222e-05
1.152961142899107e-06,2.8453501872871007e-06,7.924087872558415e-07,1.3388476556509374e-05
1.1398106338093175e-06,2.86650191491676e-06,7.911705252700439e-07,1.3470089585540512e-05
1.127118167814863e-06,2.8866322351800764e-06,7.89438159161044e-07,1.3558887723728987e-05
1.114864313144128e-06,2.9057148933430967e-06,7.872809523662253e-07,1.3655540493197913e-05
1.1030328243953051e-06,2.9237276472575523e-06,7.847605138045369e-07,1.376122552110869e-05
1.0916097694419054e-06,2.9406380313572584e-06,7.819321697619212e-07,1.3877338238561682e-05
1.080583699663965e-06,2.9563936368285888e-06,7.788505133744966e-07,1.400516565768971e-05
1.069944551116887e-06,2.9709212493511368e-06,7.755732161713211e-07,1.414566251241582e-05
1.0596804925898157e-06,2.9841349575409445e-06,7.721590471218379e-07,1.4299395537592496e-05
1.0497764750640086e-06,2.995947757992745e-06,7.686623379883754e-07,1.4466621894668151e-05
1.0402148547782578e-06,3.00627853244466e-06,7.651297640999269e-07,1.4647375697423782e-05
1.0309762282388719e-06,3.015049402346363e-06,7.616020066192566e-07,1.4841515709711267e-05
1.022041194408681e-06,3.0221796682877837e-06,7.581197350396431e-07,1.504878617350307e-05
1.0133927872923019e-06,3.0275938054359767e-06,7.547314821623889e-07,1.5268892221440772e-05
1.005016871312948e-06,3.031255653453597e-06,7.514985884184154e-07,1.5501538985991854e-05
9.969002240910612e-07,3.033218023954343e-06,7.484934796591349e-07,1.5746430232599375e-05
9.890303322461837e-07,3.0336575823733263e-06,7.457908710633961e-07,1.6003257484695087e-05
9.8139917812505e-07,3.0328671532889407e-06,7.434565327598146e-07,1.6271705077825295e-05
9.74005532707506e-07,3.031203042547092e-06,7.415414784795235e-07,1.6551507682604365e-05
9.66850558940426e-07,3.0290221520219606e-06,7.40083315303169e-07,1.684255956272612e-05
9.59931138064045e-07,3.0266524267515988e-06,7.391102261724305e-07,1.7144994977243334e-05
9.532374395376159e-07,3.024399744558966e-06,7.3864509467364e-07,1.7459174476831573e-05
9.467563097224379e-07,3.0225611439163984e-06,7.387097267829025e-07,1.7785610007993045e-05
9.404786164680099e-07,3.0214244634197907e-06,7.393279044889035e-07,1.8124887657611035e-05
9.344036260052027e-07,3.021256324099808e-06,7.405241831993527e-07,1.847755756510649e-05
9.285350601843584e-07,3.0222915561630667e-06,7.423174114395841e-07,1.8843935766483112e-05
9.228760751791796e-07,3.024730608915662e-06,7.447134257936534e-07,1.9223893890148125e-05
9.174312084912871e-07,3.028736396783804e-06,7.477020434269319e-07,1.9616782027010643e-05
9.12209965946825e-07,3.0344258527268325e-06,7.512589415495017e-07,2.0021514190323942e-05
9.072241452399607e-07,3.0418671771430316e-06,7.553505936934484e-07,2.0436722514486207e-05
9.024807985814545e-07,3.0510954807242716e-06,7.599394521244492e-07,2.0860881953269768e-05
8.979782161084205e-07,3.062148487023684e-06,7.649853640662405e-07,2.1292352076828567e-05
8.937071998657446e-07,3.0751087061970864e-06,7.704427736622837e-07,2.1729357560664496e-05
8.89652809539271e-07,3.090124543065204e-06,7.762580722026751e-07,2.2170006548540592e-05
8.857940651830341e-07,3.1073874308896116e-06,7.823696986656101e-07,2.261235746609844e-05
8.821042537420963e-07,3.127078571408612e-06,7.887104274745336e-07,2.305444050435721e-05
8.785523059911999e-07,3.149337512965194e-06,7.95211396624265e-07,2.3494237327328297e-05
8.751047495132622e-07,3.1742815617118513e-06,8.018058160084234e-07,2.392966997178124e-05
8.717310022981262e-07,3.2020395628066017e-06,8.084298223852684e-07,2.435863624998874e-05
8.684119159347538e-07,3.232751985204531e-06,8.150224282937977e-07,2.477918997644772e-05
