7.261676600359879e-07,2.01392348108303e-06,6.411304023832885e-07,1.1410211443675525e-05
7.266974055430581e-07,2.014465541722965e-06,6.488791088231725e-07,1.175177948577444e-05
7.271838748722264e-07,2.0172735629503927e-06,6.569260499307782e-07,1.2108335110570115e-05
7.276200188031153e-07,2.022270346265712e-06,6.652251575521789e-07,1.2479403981121613e-05
7.279971639486984e-07,2.0293476779976018e-06,6.737269559958518e-07,1.2864548161403326e-05
7.283045728872798e-07,2.0383814266268654e-06,6.823792118556832e-07,1.3263241193086514e-05
7.285285185628385e-07,2.049252030806768e-06,6.911278104711819e-07,1.3674763370688491e-05
7.286525440406302e-07,2.061854164870132e-06,6.999174622417671e-07,1.4098121454033689e-05
7.286589785891949e-07,2.0760893918846248e-06,7.086920196126475e-07,1.4532030936912934e-05
7.285302076406706e-07,2.0918529852038002e-06,7.173951082668534e-07,1.4974982784060593e-05
7.282488314200604e-07,2.109023328542508e-06,7.259702198842562e-07,1.5425324120725487e-05
7.277967949006056e-07,2.1274562810873533e-06,7.343605754245721e-07,1.588130969701199e-05
7.271543730470544e-07,2.1469876818905853e-06,7.425092813297744e-07,1.6341170952092605e-05
7.263012895623952e-07,2.1674417338092158e-06,7.503590061395413e-07,1.6803224861966488e-05
7.252215600757291e-07,2.1886393064889868e-06,7.578524959020532e-07,1.7265969766671834e-05
7.239088296325039e-07,2.2104040913356484e-06,7.649348668527639e-07,1.772809655852447e-05
7.223663916235838e-07,2.23256538264562e-06,7.71556011237129e-07,1.8188415347126778e-05
7.20603701637003e-07,2.254955138938155e-06,7.776731152512469e-07,1.8645779032604432e-05
7.186362642686995e-07,2.2774017786145384e-06,7.832539157360964e-07,1.909904528996204e-05
7.164874327531835e-07,2.299726980271264e-06,7.882782080980648e-07,1.954703578387955e-05
7.141868012370553e-07,2.321746713975139e-06,7.927366660267896e-07,1.9988483835558138e-05
7.117659777017456e-07,2.343275799768108e-06,7.966301980282697e-07,2.042205123305397e-05
7.092546011464719e-07,2.3641407748866087e-06,7.999714847888776e-07,2.0846430017104414e-05
7.066777623482159e-07,2.3842002277371965e-06,8.027852334125342e-07,2.126040736915757e-05
7.040554014839631e-07,2.4033578565933124e-06,8.051035169823527e-07,2.166282821555975e-05
7.014049688759335e-07,2.4215552147135026e-06,8.069587525383368e-07,2.2052517901230888e-05
6.987489608605792e-07,2.438750302594068e-06,8.083801488987231e-07,2.2428236233789067e-05
6.961235358749115e-07,2.454905883710832e-06,8.09395832365404e-07,2.2788681957045958e-05
6.935785922768601e-07,2.470001228573038e-06,8.100369133950319e-07,2.3132520509278987e-05
6.911671057906505e-07,2.484050733164912e-06,8.103381321926224e-07,2.345842028310575e-05
6.889360576795821e-07,2.497110164225169e-06,8.103343167577381e-07,2.3765137667046115e-05
6.869295236034571e-07,2.509274554337936e-06,8.100561067803059e-07,2.4051666494431548e-05
6.851959124115223e-07,2.5206751692219297e-06,8.095281997893515e-07,2.431733853267245e-05
6.83785699610143e-07,2.5314675833904763e-06,8.087701652238805e-07,2.4561755137432528e-05
6.827421060759539e-07,2.541806552660888e-06,8.077983503996066e-07,2.478461424189328e-05
6.820967680956189e-07,2.5518261964603357e-06,8.066283006773242e-07,2.498557511314323e-05
6.818737182672269e-07,2.561645398592899e-06,8.052768100462031e-07,2.5164243444930303e-05
6.820951552397704e-07,2.571387353158202e-06,8.037635331759628e-07,2.5320329474470603e-05
6.827818121515604e-07,2.581184844189965e-06,8.021141422744818e-07,2.5453912419529466e-05
6.839478123418954e-07,2.591171780213038e-06,8.003651902625546e-07,2.556558338612972e-05
6.855963246372854e-07,2.6014868326186475e-06,7.98565866959983e-07,2.565634441311951e-05
6.877193854086097e-07,2.612284597056976e-06,7.967729747796984e-07,2.572739085038465e-05
6.902991922099594e-07,2.6237281603938217e-06,7.950432314301511e-07,2.577993735363867e-05
6.933086597982606e-07,2.6359823028408096e-06,7.934283008958811e-07,2.581511416986381e-05
6.96712571523648e-07,2.649245214543249e-06,7.919720774746916e-07,2.5833891154088543e-05
7.004705149506444e-07,2.6637959892372226e-06,7.90707851114146e-07,2.5837020337324124e-05
7.045396662049878e-07,2.6800020355928693e-06,7.896563214321669e-07,2.582502786352754e-05
7.088750067354319e-07,2.698272424924546e-06,7.888264030954919e-07,2.5798256263667306e-05
7.13428515390309e-07,2.7189879916031847e-06,7.882174523644068e-07,2.57569216179788e-05
7.181502349982834e-07,2.7424463870777403e-06,7.87820140636696e-07,2.5701167213634198e-05
7.229911019112498e-07,2.7688433248273226e-06,7.876162484004171e-07,2.5631108744648102e-05
7.279058288878321e-07,2.79828518165409e-06,7.875797627825661e-07,2.554686770708897e-05
7.328535981857569e-07,2.830812165018248e-06,7.876790148949629e-07,2.544860020910667e-05
7.377957546123899e-07,2.866417882155072e-06,7.878785462707807e-07,2.5336526058537164e-05
7.426931457330331e-07,2.9050628386315313e-06,7.881416165336363e-07,2.521095117017301e-05
7.475053152431448e-07,2.946679716684312e-06,7.88432084176202e-07,2.5072261347576206e-05
7.521911965348488e-07,2.9911662970692287e-06,7.887138156686412e-07,2.4920871628049446e-05
7.567102259768288e-07,3.038369431060886e-06,7.889518732952991e-07,2.4757166464133246e-05
7.61024462247432e-07,3.088074065407639e-06,7.891184962790389e-07,2.458148929231612e-05
7.651038432978112e-07,3.1400075421101965e-06,7.891979085032855e-07,2.439418066236839e-05
7.689323452538945e-07,3.193855691852744e-06,7.891839788019594e-07,2.419560642830176e-05
7.725090020928608e-07,3.249281496806988e-06,7.890733405713581e-07,2.398613808081448e-05
7.758424154193165e-07,3.305937893076264e-06,7.888612499627352e-07,2.376610542098909e-05
7.789440931656663e-07,3.363469369687868e-06,7.885429269625772e-07,2.3535782638617936e-05
7.818265688086452e-07,3.4215063978806424e-06,7.881147220248463e-07,2.329545482323663e-05
7.845060635922008e-07,3.4796650438233214e-06,7.875708119381495e-07,2.304551965089432e-05
7.870049138970809e-07,3.537555287955306e-06,7.869000143417041e-07,2.278651663703062e-05
7.893507120891653e-07,3.5947872156792672e-06,7.860873183183041e-07,2.2519061822709877e-05
7.915722165219733e-07,3.6509698562131514e-06,7.85118571972893e-07,2.224376928265081e-05
7.936944043479455e-07,3.705709317216978e-06,7.83984761722434e-07,2.1961216088624745e-05
7.957355192033749e-07,3.7586115176544867e-06,7.826824219641479e-07,2.16719415536526e-05
7.977071724205137e-07,3.8092907306195213e-06,7.81209606156295e-07,2.1376448245373765e-05
7.996165183964609e-07,3.8573849330073175e-06,7.795625198858091e-07,2.107518574858027e-05
8.014676253869559e-07,3.9025742722090125e-06,7.77736166909644e-07,2.076853267991458e-05
8.032604511400823e-07,3.944589743384433e-06,7.757255180660031e-07,2.0456804028058052e-05
8.049905220585666e-07,3.983204085587657e-06,7.735244481904254e-07,2.0140290761206067e-05
8.066515332471298e-07,4.0182200407037435e-06,7.711243869607002e-07,1.981932313757183e-05
8.08237297958273e-07,4.049478522572058e-06,7.685143106679846e-07,1.949435047829632e-05
8.097404418707322e-07,4.076883476611379e-06,7.656811313983881e-07,1.9166002355446946e-05
8.111512197448227e-07,4.100417623601913e-06,7.626100721028457e-07,1.8835065120483176e-05
8.124594020839419e-07,4.120132511332279e-06,7.59286213609942e-07,1.8502381096625028e-05
8.136575055262575e-07,4.136118328566532e-06,7.556967330164738e-07,1.8168771453661748e-05
8.147433399020502e-07,4.148473364277748e-06,7.518319695156475e-07,1.7835036629061083e-05
8.157218564862881e-07,4.157294319109205e-06,7.47685115319563e-07,1.7501980086112224e-05
8.166068589510551e-07,4.162687549886499e-06,7.432509785947835e-07,1.7170395359495356e-05
8.174218389962763e-07,4.164778179235035e-06,7.385246870388393e-07,1.684102838157936e-05
8.181969913500391e-07,4.163703406787508e-06,7.335015408200609e-07,1.6514592269737108e-05
8.189613232908301e-07,4.159598172184098e-06,7.281772208567873e-07,1.61919137176644e-05
8.197344242805403e-07,4.15258523908094e-06,7.225476638784369e-07,1.5874130867447698e-05
8.205245047771166e-07,4.142775186823961e-06,7.166093986103751e-07,1.55627356117086e-05
8.213349911716652e-07,4.130271938875015e-06,7.103600310099529e-07,1.5259422571427158e-05
8.221736315000822e-07,4.115173206175966e-06,7.037985884862532e-07,1.4965882815966758e-05
8.230539834274243e-07,4.097564828792964e-06,6.96926263773159e-07,1.4683652073649805e-05
8.239882312770609e-07,4.077523082328181e-06,6.897468967375919e-07,1.441411735693017e-05
8.2498082037015e-07,4.055133631215298e-06,6.822675750746904e-07,1.4158727888955453e-05
8.260280873596491e-07,4.030513310931752e-06,6.745034474388211e-07,1.3919216424679529e-05
8.271198688892698e-07,4.003813647727773e-06,6.664865026596616e-07,1.3697594269476801e-05
8.282405571212621e-07,3.975202583285025e-06,6.582681075475382e-07,1.3495956165355106e-05
8.293722899061491e-07,3.944842072870716e-06,6.499103039394181e-07,1.3316271706224506e-05
8.305009752777599e-07,3.912878538076057e-06,6.414748687572678e-07,1.316024200967422e-05
8.316221101116878e-07,3.8794423357479034e-06,6.330176382286944e-07,1.302920928564236e-05
8.327425776724166e-07,3.844645418697631e-06,6.245874551086377e-07,1.292408631632478e-05
8.338754979256052e-07,3.808578780727125e-06,6.16228882826376e-07,1.2845318050995642e-05
8.350309215816732e-07,3.7713139554671706e-06,6.079866716579001e-07,1.2792931587201175e-05
8.362101125491104e-07,3.7329058164921793e-06,5.99907774384531e-07,1.2766660283081626e-05
8.374055314500069e-07,3.6933966771958922e-06,5.920403780254136e-07,1.2766039571998638e-05
8.386018704882383e-07,3.6528258983896853e-06,5.844312316048267e-07,1.2790423235771534e-05
8.397764840009474e-07,3.6112420742029976e-06,5.771213669353043e-07,1.2838966817076687e-05
8.409026884920942e-07,3.568707069569548e-06,5.701426990664193e-07,1.2910616802687415e-05
8.419582363961434e-07,3.5252885626860198e-06,5.635181257293325e-07,1.3004102251781474e-05
8.429347045191753e-07,3.4810583638249947e-06,5.572637555251243e-07,1.3117953139908667e-05
8.438402129078421e-07,3.43611438770521e-06,5.513909603762178e-07,1.3250581194873085e-05
8.446938780894433e-07,3.390612250493523e-06,5.459074142831941e-07,1.3400388306999389e-05
8.455169147687649e-07,3.3447749492264646e-06,5.408170089316453e-07,1.3565831834062025e-05
8.463258097696244e-07,3.2988680592322875e-06,5.361193714107505e-07,1.3745437647394495e-05
8.47130597513221e-07,3.2531561442189705e-06,5.318098918805615e-07,1.3937797272416373e-05
8.479371995779601e-07,3.2078720547166164e-06,5.278802950053475e-07,1.4141545427671163e-05
8.487504377340989e-07,3.1632161670425142e-06,5.243189865203944e-07,1.4355292249844415e-05
8.495754939346699e-07,3.1193707364387384e-06,5.211109769928289e-07,1.4577556367316006e-05
8.504164892483809e-07,3.0765107299769538e-06,5.182395474161766e-07,1.4806776151438544e-05
8.512731632111994e-07,3.03480939000536e-06,5.156899532998838e-07,1.5041389997693603e-05
8.52139594677949e-07,2.994438127658404e-06,5.134508909553021e-07,1.5279902615602937e-05
8.530064792106232e-07,2.9555556621296456e-06,5.115122336531164e-07,1.552087089287494e-05
8.538659672782397e-07,2.9182924958769443e-06,5.098622679719589e-07,1.576283058321143e-05
8.547168143993961e-07,2.882749440241996e-06,5.084864519189687e-07,1.60042522101032e-05
8.555644492112194e-07,2.849015286368992e-06,5.073672185304928e-07,1.624355427176144e-05
8.564166953393092e-07,2.8171842239772583e-06,5.064840772962451e-07,1.6479123838822548e-05
8.572836090180987e-07,2.7873549175293965e-06,5.058144315551561e-07,1.670934172537357e-05
8.58181460937448e-07,2.7596128320059544e-06,5.053357173491377e-07,1.6932654694228375e-05
8.591334259548664e-07,2.7340099030985333e-06,5.050281840936647e-07,1.7147670641812432e-05
8.601650291946542e-07,2.710553692055752e-06,5.048761863275002e-07,1.735322098088079e-05
8.612968317591666e-07,2.689207885440774e-06,5.048660998377656e-07,1.754838928122659e-05
8.625379698802109e-07,2.6699018230059445e-06,5.049831793110336e-07,1.7732536819366922e-05
8.638838633454576e-07,2.652547262054984e-06,5.052111354145629e-07,1.790536000848396e-05
8.653179951043422e-07,2.6370548686636227e-06,5.055334811348984e-07,1.8066960992425247e-05
8.668161411574581e-07,2.623340818036661e-06,5.059338379757357e-07,1.821783552075672e-05
8.683507272158255e-07,2.6113229032076574e-06,5.063955146993318e-07,1.8358738682672446e-05
8.698920894474469e-07,2.600913085407465e-06,5.069018343533436e-07,1.8490486573483495e-05
8.71407616146682e-07,2.5920117720228744e-06,5.074360491283301e-07,1.86137748641136e-05
8.728632001097781e-07,2.584503673393991e-06,5.079796157658991e-07,1.8729091090874108e-05
8.742275667758555e-07,2.5782569343962795e-06,5.085115151861878e-07,1.883672983261408e-05
8.754759902182909e-07,2.573130380898404e-06,5.090112044635376e-07,1.8936830307905685e-05
8.765899259893832e-07,2.568984712947915e-06,5.094623565453068e-07,1.9029406130326526e-05
8.775522746279184e-07,2.5656872286342635e-06,5.098532362282137e-07,1.9114452434769466e-05
8.783427849287745e-07,2.563108798593405e-06,5.101747465358536e-07,1.919210517089497e-05
8.789379608683908e-07,2.56112331127812e-06,5.104186919908293e-07,1.9262646558434785e-05
8.793147755681862e-07,2.5596170569543483e-06,5.105764235264987e-07,1.9326339139485417e-05
8.794533504449732e-07,2.5585001093856342e-06,5.106385606539207e-07,1.938332661449112e-05
8.793353551752789e-07,2.557705431894764e-06,5.105957911423323e-07,1.9433712538375493e-05
8.789413717278301e-07,2.5571756545172244e-06,5.104388695689951e-07,1.947775677641268e-05
8.782511651854934e-07,2.556855993534005e-06,5.101578272531711e-07,1.951613580678588e-05
8.772457158061436e-07,2.556705066178174e-06,5.097420601985022e-07,1.9550134470823573e-05
8.759082020386845e-07,2.556711247461463e-06,5.091815654677876e-07,1.9581601521326904e-05
8.74223952395169e-07,2.556897577476927e-06,5.084680711126268e-07,1.9612716363752915e-05
8.72181281966612e-07,2.5573102484447613e-06,5.0759459630599e-07,1.964576227090423e-05
8.697729582647691e-07,2.5579986639179667e-06,5.065537075727621e-07,1.9683001873706696e-05
8.669966609320582e-07,2.558999948684562e-06,5.053370012275848e-07,1.972661811270698e-05
8.638539881045709e-07,2.560331016169539e-06,5.03937542520465e-07,1.9778654426840328e-05
8.603494660642469e-07,2.561988036611996e-06,5.023537263955867e-07,1.9840931801690867e-05
8.564927215825095e-07,2.5639548085963225e-06,5.005912789781751e-07,1.9914963332965494e-05
8.523044732584664e-07,2.56621125834622e-06,4.986616231789877e-07,2.000188354003752e-05
8.478201416415156e-07,2.568731268808976e-06,4.965779981734152e-07,2.010238633286828e-05
8.430853654256601e-07,2.5714723540903604e-06,4.943523735367283e-07,2.021669344388801e-05
8.381504208003491e-07,2.574368192129113e-06,4.919947491211968e-07,2.034460863079454e-05
8.330722994469516e-07,2.577330061509578e-06,4.895138339908608e-07,2.048565500350104e-05
8.279171965513516e-07,2.580253589032344e-06,4.869172053062955e-07,2.0639230190203792e-05
8.22753946981052e-07,2.5830241092817416e-06,4.842112285953714e-07,2.0804737773540264e-05
8.176440590626438e-07,2.585517417320768e-06,4.814034116754592e-07,2.0981683624542708e-05
8.126377322712381e-07,2.5875981961786463e-06,4.785069741135102e-07,2.116971166318049e-05
8.077755482246678e-07,2.589121373219936e-06,4.7554349432068615e-07,2.1368576111608712e-05
8.030906419266606e-07,2.5899378780450803e-06,4.7254217553979607e-07,2.157811095879731e-05
7.986110857357395e-07,2.589899656943879e-06,4.6953736818754155e-07,2.1798242035047048e-05
7.943654079707284e-07,2.5888615535705267e-06,4.6656488567468345e-07,2.2029005483674785e-05
7.903891712956982e-07,2.586685900519225e-06,4.636589512375261e-07,2.2270514592464372e-05
7.867290194008744e-07,2.5832499019112065e-06,4.608524032880537e-07,2.252286069692228e-05
7.834438324447851e-07,2.5784470497368162e-06,4.5817738116868494e-07,2.278596738357747e-05
7.8060123672227e-07,2.5721824569393396e-06,4.556630579811003e-07,2.3059448085766307e-05
7.782682753170812e-07,2.56437065510268e-06,4.5333330294394904e-07,2.334255596950679e-05
7.765011707583235e-07,2.554939611179392e-06,4.512064530960473e-07,2.363425115425535e-05
7.753424765827911e-07,2.5438413314606324e-06,4.4929501297022716e-07,2.393329597014984e-05
7.748294536862798e-07,2.5310665903045748e-06,4.47605046504268e-07,2.4238316899088297e-05
7.750066928594734e-07,2.5166518602455572e-06,4.461374057748661e-07,2.454785557975968e-05
7.759312250273344e-07,2.5006686935969082e-06,4.4489102380196525e-07,2.4860432060691826e-05
7.776670839465238e-07,2.483204273185728e-06,4.438664696498702e-07,2.517459790173814e-05
7.80275358999601e-07,2.4643499942894584e-06,4.430680777822379e-07,2.548893093508808e-05
7.838047664548895e-07,2.4442006053736785e-06,4.4250389226270153e-07,2.5801977007443226e-05
7.882840519821473e-07,2.422853590595108e-06,4.421842627057661e-07,2.6112196561538323e-05
7.937178002651581e-07,2.400409445065994e-06,4.421202705587656e-07,2.6417936736295748e-05
8.000874679767262e-07,2.376984189320279e-06,4.4232205099527407e-07,2.6717439583284885e-05
8.073557784435134e-07,2.352727272539464e-06,4.4279863475500233e-07,2.7008940123348384e-05
8.154698729039186e-07,2.3278207118675966e-06,4.4356062490750906e-07,2.7290844441885806e-05
8.243628098631386e-07,2.302456456368528e-06,4.44622749060981e-07,2.7561856844586876e-05
8.339562025268827e-07,2.276820103577154e-06,4.460041254491376e-07,2.782095419166632e-05
8.441625216629681e-07,2.251098409775698e-06,4.477264216410988e-07,2.8067239711848076e-05
8.548855245762581e-07,2.225492679459853e-06,4.4980949873990314e-07,2.8299790067512872e-05
8.660217535666883e-07,2.2002149371690813e-06,4.522667752162878e-07,2.851759343728854e-05
8.774641927096702e-07,2.175466878509008e-06,4.5510350157242136e-07,2.871957390659456e-05
8.891078077094611e-07,2.15141907555551e-06,4.583176216068671e-07,2.890463853444024e-05
9.008581461109737e-07,2.1282048527198446e-06,4.619014188856866e-07,2.907175344705976e-05
9.12640681474646e-07,2.1059271651625653e-06,4.6584262130271356e-07,2.9220105779773546e-05
9.244062349964993e-07,2.0846735548723013e-06,4.7012466944802217e-07,2.9349304780229357e-05
9.361292664943293e-07,2.06454040549094e-06,4.7472668065057116e-07,2.9459449976658497e-05
9.477974423158337e-07,2.04565625965482e-06,4.796233504738695e-07,2.9550976306272704e-05
9.59397308470774e-07,2.028181474661656e-06,4.847851253841809e-07,2.962439408632519e-05
9.709063691244743e-07,2.012280265345172e-06,4.901795124166992e-07,2.968013046254228e-05
9.822952348811764e-07,1.998093925375827e-06,4.957735428204127e-07,2.9718618679227948e-05
9.935338239163538e-07,1.9857406081313653e-06,5.015358522578324e-07,2.9740606098971088e-05
1.0045953052772774e-06,1.975327498621049e-06,5.074381304696196e-07,2.9747436992829548e-05
1.0154556780882564e-06,1.966948656666892e-06,5.13456872476351e-07,2.9741076311939964e-05
1.0260899521338795e-06,1.960671876491669e-06,5.195732379936911e-07,2.9723915585973662e-05
1.0364690863685712e-06,1.9565325941474016e-06,5.25769773206446e-07,2.969856174164759e-05
1.0465607672779426e-06,1.954534190554669e-06,5.320275802868058e-07,2.9667711021361413e-05
1.0563319779941285e-06,1.954645895279649e-06,5.383256061771791e-07,2.963408414734941e-05
1.0657505617848854e-06,1.9568000129119357e-06,5.446427282458503e-07,2.9600354832555504e-05
1.074786306772815e-06,1.960892076926812e-06,5.50964970699613e-07,2.9569045132330145e-05
1.0834127878533516e-06,1.9667842893440347e-06,5.572938565083764e-07,2.954243290623599e-05
1.0916075680662087e-06,1.974312759111573e-06,5.63648779277876e-07,2.952249806201285e-05
1.099348373430594e-06,1.983297466538649e-06,5.700627485373632e-07,2.951086903636888e-05
1.106608691396187e-06,1.9935555139621656e-06,5.765740458822174e-07,2.9508736474446043e-05
1.1133563818920223e-06,2.0049185722446673e-06,5.832169327760371e-07,2.9516780191473523e-05
1.1195542780209357e-06,2.017247319589989e-06,5.900156532861971e-07,2.953520740722029e-05
1.1251618335752529e-06,2.030434650771756e-06,5.969828768085698e-07,2.956391582870157e-05
1.1301383670533257e-06,2.0443993135801017e-06,6.041225548318426e-07,2.960267248622021e-05
1.1344464942168027e-06,2.059076078825676e-06,6.114387314398843e-07,2.9651206001217876e-05
1.1380530168657977e-06,2.074404161483745e-06,6.189460865356528e-07,2.9709195413922582e-05
1.1409284724665687e-06,2.0903148523313527e-06,6.266726893950833e-07,2.977621528782324e-05
1.1430481247583676e-06,2.1067270873750444e-06,6.346525769598295e-07,2.9851729218882323e-05
1.1443919304730122e-06,2.123558103968164e-06,6.429149086625517e-07,2.993515917517893e-05
1.144941352698396e-06,2.1407413778056687e-06,6.514766666533026e-07,3.002597158435497e-05
1.1446763269994795e-06,2.158238959181282e-06,6.603407320751589e-07,3.0123719553617146e-05
1.1435746657739368e-06,2.176041554485873e-06,6.694964744158034e-07,3.0228019401627422e-05
1.1416130409650664e-06,2.194153873644252e-06,6.789205941499864e-07,3.033846800154839e-05
1.1387686637541477e-06,2.212571115294195e-06,6.885791259808335e-07,3.0454523674877703e-05
1.135021307055744e-06,2.2312645084238813e-06,6.984302129313675e-07,3.0575381732698766e-05
1.1303555712718411e-06,2.2501883570815444e-06,7.084262435508523e-07,3.069989615763332e-05
1.124762670601315e-06,2.2692999174639225e-06,7.185160900257981e-07,3.0826582529932426e-05
1.118241648859963e-06,2.2885741614845293e-06,7.28647228505459e-07,3.095367740633601e-05
1.1108020848200443e-06,2.30800465594157e-06,7.387663218274549e-07,3.107921735355948e-05
1.1024665898616274e-06,2.327592729977939e-06,7.488195139475745e-07,3.120111869684237e-05
1.0932678685115697e-06,2.347333073321938e-06,7.587542001735065e-07,3.1317235685241273e-05
1.0832428972060828e-06,2.367210987259657e-06,7.68521529701916e-07,3.142538971960637e-05
1.0724318219285624e-06,2.3872172979811337e-06,7.780785663696688e-07,3.15233949331495e-05
1.060881131562562e-06,2.407361258306627e-06,7.873888399912432e-07,3.1609101273385445e-05
1.0486437257346794e-06,2.4276654489266567e-06,7.964197287171789e-07,3.168044377938816e-05
1.0357744781571465e-06,2.448151449380633e-06,8.051383189770104e-07,3.17354770913033e-05
1.0223278361996545e-06,2.468826203025985e-06,8.135089223731803e-07,3.1772406374066654e-05
1.0083581996346126e-06,2.489669709295837e-06,8.214932611522424e-07,3.178963700436521e-05
9.939182982047107e-07,2.5106266452338304e-06,8.29054327636729e-07,3.178579952266023e-05
9.79058385711663e-07,2.531605222933321e-06,8.361639583138166e-07,3.175970596412832e-05
9.63832420442584e-07,2.552481132877424e-06,8.428090812318093e-07,3.171031040397169e-05
9.483077345252558e-07,2.5731044965666127e-06,8.489920803116489e-07,3.1636746296381674e-05
9.325668182647472e-07,2.5933132757673905e-06,8.547267019831947e-07,3.1538383406021363e-05
9.166984811813091e-07,2.6129558360202696e-06,8.60031486734426e-07,3.1414827483231954e-05
9.007913839487177e-07,2.6319160949825094e-06,8.649218618674713e-07,3.1265871717744856e-05
8.84940301907691e-07,2.650128033963372e-06,8.694045974413623e-07,3.1091448858584305e-05
8.692556902715437e-07,2.667571562025382e-06,8.734778443808733e-07,3.089164453455576e-05
8.538608842575726e-07,2.684254355657156e-06,8.771363674375187e-07,3.0666812590123716e-05
8.388776956128255e-07,2.7001981386736167e-06,8.803783501409166e-07,3.041769512290709e-05
8.244141303842584e-07,2.7154517537446274e-06,8.832082146708427e-07,3.0145392289171728e-05
8.105613642305444e-07,2.7301280601510684e-06,8.856331631140584e-07,2.9851196020184167e-05
7.973953209116516e-07,2.744432955039214e-06,8.876576273271885e-07,2.953641435007461e-05
7.849778358948508e-07,2.7586643651249752e-06,8.892806132508991e-07,2.9202302303660107e-05
7.733578157152819e-07,2.773182442754943e-06,8.904964884306459e-07,2.8850191410767732e-05
7.625726109721178e-07,2.788360184167376e-06,8.912966028671955e-07,2.8481739066589192e-05
7.526500869353085e-07,2.804530848524845e-06,8.916696534739709e-07,2.8099052365007258e-05
7.436146374831012e-07,2.821955530388242e-06,8.916014629070612e-07,2.770459146641071e-05
7.354944106861367e-07,2.8408224249429107e-06,8.910755207441368e-07,2.730099261038495e-05
7.283205395686617e-07,2.861265613272228e-06,8.90074418115188e-07,2.689094170211765e-05
7.221183077200627e-07,2.883382531418405e-06,8.885821204930706e-07,2.647710627393289e-05
7.169019074066659e-07,2.9072393604335525e-06,8.865866394212454e-07,2.606209440990837e-05
7.126791496294041e-07,2.932866306433138e-06,8.840822091444405e-07,2.5648430657057706e-05
7.094583787015899e-07,2.9602504989478494e-06,8.810699448287306e-07,2.523854533542004e-05
7.072474805042452e-07,2.9893311858003486e-06,8.77555773262802e-07,2.483476342128437e-05
7.060462371638209e-07,3.0199975875562e-06,8.73546966427149e-07,2.443926370440729e-05
7.058406536667023e-07,3.052090095608721e-06,8.690501968600475e-07,2.405398338625447e-05
7.066031696494652e-07,3.08540740195554e-06,8.64070900562385e-07,2.368050460338407e-05
7.082965272571779e-07,3.119721602229585e-06,8.586126663396975e-07,2.3319999474773044e-05
7.108770502350687e-07,3.154798664976895e-06,8.526771962814042e-07,2.297327184830461e-05
7.142947391537332e-07,3.1904166265191087e-06,8.462659417139406e-07,2.264087978779867e-05
7.18492385817047e-07,3.2263714487036577e-06,8.393836237243106e-07,2.232328614385173e-05
7.234060984811898e-07,3.262466494577082e-06,8.320410215671804e-07,2.2020973616611987e-05
7.289659590934678e-07,3.298498966803275e-06,8.242539377039856e-07,2.1734494054770404e-05
7.350967700240859e-07,3.334263551914228e-06,8.160399595835405e-07,2.146447567762631e-05
7.417195002298869e-07,3.369573082931593e-06,8.074164398427191e-07,2.1211625152047863e-05
7.487514994125642e-07,3.4042748017953996e-06,7.983999201350779e-07,2.097672636165226e-05
7.561060298275824e-07,3.438247683872941e-06,7.890072347182023e-07,2.076061896157234e-05
7.636937036034422e-07,3.471385959679168e-06,7.792599184468354e-07,2.0564154754712945e-05
7.714247553842594e-07,3.503580029035237e-06,7.691894471703191e-07,2.0388140503719853e-05
7.792103443968054e-07,3.534701506750351e-06,7.588376205080357e-07,2.02332651664222e-05
7.869635651598628e-07,3.564598251801741e-06,7.482518965594034e-07,2.009999459806446e-05
7.946021156429951e-07,3.5931043146101404e-06,7.374814802395759e-07,1.998845325982274e-05
8.020536226971716e-07,3.620061861786393e-06,7.265765240504094e-07,1.9898369601761883e-05
8.092593647664361e-07,3.645344371497563e-06,7.155870959225336e-07,1.9829112186299007e-05
8.161715864119082e-07,3.6688686946211516e-06,7.045603375777667e-07,1.9779754981816493e-05
8.227484621378748e-07,3.690587879675028e-06,6.935382445990081e-07,1.974913246219344e-05
8.289526091877152e-07,3.7104684623990737e-06,6.825573161556975e-07,1.973589641354428e-05
8.347511736985047e-07,3.7284682417264322e-06,6.71648589286663e-07,1.973858466735892e-05
8.401141326077687e-07,3.7445270331133864e-06,6.608381292371614e-07,1.975569461857381e-05
8.450123797952034e-07,3.758567179903367e-06,6.501504817245404e-07,1.978573268924531e-05
8.494173162926701e-07,3.7704955492601602e-06,6.396138587288597e-07,1.982722981780172e-05
8.533006589010941e-07,3.7802070139608367e-06,6.292619090940956e-07,1.9878739979774343e-05
8.566335824185965e-07,3.7875942258344927e-06,6.191308769614554e-07,1.9938808573226733e-05
8.593867370849743e-07,3.792562174035597e-06,6.092550489542612e-07,2.0005911787882205e-05
8.615330332057161e-07,3.7950375625411276e-06,5.996635322106711e-07,2.0078427884742588e-05
8.63052788498909e-07,3.7949654205893503e-06,5.903816271885107e-07,2.0154684986702207e-05
8.639395236528618e-07,3.792299589687913e-06,5.81436207756166e-07,2.0233076889398e-05
8.64203705148234e-07,3.787002547596137e-06,5.728583481729458e-07,2.031221276944115e-05
8.638705021568121e-07,3.779056476080944e-06,5.64680151510901e-07,2.0391029548676445e-05
8.629737650582756e-07,3.768471721805546e-06,5.569313983715523e-07,2.0468789155206824e-05
8.615523780148241e-07,3.7552867375836374e-06,5.49640356652123e-07,2.054497402637505e-05
8.596482962825798e-07,3.739565045911587e-06,5.428358015567737e-07,2.0619159655834025e-05
8.57305541004026e-07,3.721389866206264e-06,5.365455480991872e-07,2.069090341678237e-05
8.545728632082668e-07,3.7008532098311464e-06,5.307917065733574e-07,2.075968421222608e-05
8.515061790219169e-07,3.678046315958493e-06,5.255872715427646e-07,2.082494567413313e-05
8.481647467466817e-07,3.6530615417544374e-06,5.20936861114805e-07,2.0886194133282237e-05
8.446032218617486e-07,3.625998012981266e-06,5.168402395353199e-07,2.0943034778701294e-05
8.408668838244352e-07,3.596958765276538e-06,5.132962688300679e-07,2.0995133689243586e-05
8.36994483055364e-07,3.566050415835373e-06,5.103059732223381e-07,2.104216085978112e-05
8.330264171716073e-07,3.5333954221440947e-06,5.078732078462089e-07,2.1083733101388505e-05
8.290118665030785e-07,3.4991381899181206e-06,5.060016277272495e-07,2.111936760607158e-05
8.250119292755231e-07,3.4634364638999056e-06,5.04690970590925e-07,2.1148460227928e-05
8.211000355976022e-07,3.4264643590916165e-06,5.039383152147065e-07,2.117029509887249e-05
8.173591202166356e-07,3.3884397739791025e-06,5.037434021711157e-07,2.1184085022464745e-05
8.138759017717529e-07,3.3496481146659148e-06,5.041104919566985e-07,2.1189030682624888e-05
8.107351918073922e-07,3.3104353028592163e-06,5.05044069787717e-07,2.1184386066285463e-05
8.080133490466729e-07,3.271175689048364e-06,5.06543397991361e-07,2.116951069086802e-05
8.057716334580458e-07,3.2322377212473185e-06,5.085999053470542e-07,2.1143895938032986e-05
8.040558626766883e-07,3.193965180691428e-06,5.11197229420449e-07,2.1107171509824788e-05
8.029022709201327e-07,3.1566722192777628e-06,5.143121442602814e-07,2.105908934224304e-05
8.023419538450915e-07,3.1206367130760207e-06,5.179146745230578e-07,2.099949510810104e-05
8.024001156103048e-07,3.0860946757109023e-06,5.219681118503443e-07,2.0928320370424742e-05
8.030914852406847e-07,3.0532507802472627e-06,5.264301817596729e-07,2.084558806118198e-05
8.04415515828299e-07,3.0222938596654237e-06,5.312550632539714e-07,2.0751396513366854e-05
8.06356152600711e-07,2.9933943598394808e-06,5.363959892048211e-07,2.06458874232036e-05
8.088861526083805e-07,2.9666864478864864e-06,5.418067589180595e-07,2.052921429377045e-05
8.119698568279275e-07,2.9422550442812418e-06,5.474409155118022e-07,2.040151245074752e-05
8.155626702634137e-07,2.920139373892368e-06,5.532509416557443e-07,2.0262890643976803e-05
8.196124134906727e-07,2.9003532459011748e-06,5.591904877832407e-07,2.011345488547804e-05
8.240637541738684e-07,2.882914726716497e-06,5.65219695764372e-07,1.9953337117013643e-05
8.288611285995728e-07,2.867867370010778e-06,5.713091886427571e-07,1.9782711556539576e-05
8.339485785720001e-07,2.8552752144790823e-06,5.774377393910261e-07,1.9601798194676568e-05
8.392684826786507e-07,2.845194263244553e-06,5.835854452817971e-07,1.9410844843943792e-05
8.447598162366069e-07,2.837646693900039e-06,5.897296582047007e-07,1.921010448411197e-05
8.503569378067039e-07,2.832618010963158e-06,5.958466600318143e-07,1.8999841556046467e-05
8.559912710064036e-07,2.8300645138900564e-06,6.019152929025946e-07,1.878036179847519e-05
8.615956435200974e-07,2.8299100789422493e-06,6.079185555379394e-07,1.8552038447116426e-05
8.671080737078884e-07,2.8320362751109932e-06,6.13842182783984e-07,1.831531014223838e-05
8.724724565928859e-07,2.836280395460639e-06,6.196715793261572e-07,1.807064416164322e-05
8.776373160123596e-07,2.842441724018727e-06,6.253901987791523e-07,1.781850987471701e-05
8.825568839552605e-07,2.8502887939269433e-06,6.30981195491874e-07,1.7559403045482533e-05
8.871958739469204e-07,2.859566404768061e-06,6.364296967104687e-07,1.729390652798366e-05
8.915327740691746e-07,2.870005161690548e-06,6.417223267634655e-07,1.7022754529398628e-05
8.955563155739561e-07,2.881334342181376e-06,6.468458714232431e-07,1.6746849126294507e-05
8.992585541310411e-07,2.8932945010516497e-06,6.517873042763737e-07,1.6467188703867836e-05
9.026336851397323e-07,2.905643705568795e-06,6.565334171261971e-07,1.6184768993804567e-05
9.0568367132121e-07,2.9181554036272253e-06,6.610706677633008e-07,1.5900545741745235e-05
9.084220353726043e-07,2.9306155588626893e-06,6.653873434363489e-07,1.5615447732324054e-05
9.108707962726757e-07,2.942829234635361e-06,6.694757857448315e-07,1.533039079306069e-05
9.130546445478918e-07,2.9546330224893917e-06,6.733328014488729e-07,1.5046284703655407e-05
9.149988599700079e-07,2.965899436640085e-06,6.769598845647407e-07,1.4764026196516181e-05
9.1673028738058e-07,2.9765271917679297e-06,6.803626225415101e-07,1.4484464140105285e-05
9.182754935150419e-07,2.9864226108878163e-06,6.835477542168368e-07,1.4208379352615286e-05
9.196572983444144e-07,2.995483972217193e-06,6.865209655419036e-07,1.3936517201894861e-05
9.208931960798849e-07,3.003597598569543e-06,6.892881939951001e-07,1.3669612402092015e-05
9.219936617466101e-07,3.010642825870365e-06,6.918583233805155e-07,1.3408367718781285e-05
9.229610771946676e-07,3.016500322212033e-06,6.94244202181118e-07,1.3153433653148842e-05
9.237928131273306e-07,3.0210614932973333e-06,6.964616204436534e-07,1.2905394948524554e-05
9.24486419904228e-07,3.024233558834467e-06,6.985278240756276e-07,1.2664759395683307e-05
9.250411304257181e-07,3.025940307998876e-06,7.004598780176496e-07,1.2432010980914798e-05
9.254551064827e-07,3.0261319168170152e-06,7.022736445617028e-07,1.2207714201384645e-05
9.257245483560179e-07,3.0248068529121445e-06,7.039872513850057e-07,1.1992579953518645e-05
9.258477908573601e-07,3.02202195073879e-06,7.056287912860445e-07,1.1787471230176574e-05
9.258299542922242e-07,3.017874764227765e-06,7.072399854448737e-07,1.1593338560299506e-05
9.256827083053918e-07,3.0124843632940573e-06,7.088700291324144e-07,1.14110906974233e-05
9.254200378228184e-07,3.0059990508975054e-06,7.105651226923801e-07,1.1241482383396865e-05
9.250580147068967e-07,2.9986128545139184e-06,7.123641506117126e-07,1.1085064720485667e-05
9.2462301721779e-07,2.9905605767467387e-06,7.143030397871559e-07,1.0942169537408082e-05
9.241590684229042e-07,2.9820945608507463e-06,7.164202602401726e-07,1.0812919785725678e-05
9.23722439382048e-07,2.973462541373352e-06,7.187563253369819e-07,1.0697278320833776e-05
9.233670812087349e-07,2.964892568256446e-06,7.213480758188043e-07,1.0595103077242533e-05
9.231338342305454e-07,2.9565813859604823e-06,7.242241020413342e-07,1.0506182602035667e-05
9.230499578721625e-07,2.9486955491611074e-06,7.274059402518682e-07,1.0430279725261294e-05
9.231378511329092e-07,2.9413940018037386e-06,7.309116283786532e-07,1.0367184363302073e-05
9.234257404836607e-07,2.934851044497157e-06,7.347546689496778e-07,1.0316726965573787e-05
9.239497621512027e-07,2.929251885384668e-06,7.3893928029817e-07,1.0278726395633474e-05
9.247460938346868e-07,2.9247635924406515e-06,7.434591342267926e-07,1.02529092386038e-05
9.25845115838237e-07,2.921510980407312e-06,7.483014610094642e-07,1.0238883923093627e-05
9.27275687619318e-07,2.91957366633208e-06,7.534515141300044e-07,1.0236197727967619e-05
9.290706010503088e-07,2.9189894028519964e-06,7.588935805204439e-07,1.0244398241443734e-05
9.312630583244202e-07,2.9197546402056547e-06,7.646093344360364e-07,1.0263036919016104e-05
9.338807673154612e-07,2.9218305985740664e-06,7.705757077097965e-07,1.0291632220631008e-05
9.36946855384216e-07,2.925152163973615e-06,7.767632749205392e-07,1.032962041405028e-05
9.404828996805635e-07,2.929629567452706e-06,7.831359114087509e-07,1.0376317601779352e-05
9.445081196384087e-07,2.9351438338546572e-06,7.896532242117873e-07,1.0430913614002922e-05
9.490368015168894e-07,2.941543905468039e-06,7.962760243705713e-07,1.0492485871800786e-05
9.540762865756523e-07,2.948649966782034e-06,8.029715845139716e-07,1.0560013535693256e-05
9.596272077261082e-07,2.956262262407147e-06,8.097142224993365e-07,1.063240313763403e-05
9.656852599540174e-07,2.9641729965454344e-06,8.164811030589988e-07,1.0708541602074344e-05
9.722397099509748e-07,2.9721771169705897e-06,8.23247542480905e-07,1.0787355380717132e-05
9.792702193891377e-07,2.9800760000060243e-06,8.299847387125573e-07,1.0867836900232413e-05
9.867476427310765e-07,2.98767401343706e-06,8.366599178377255e-07,1.0949038959270553e-05
9.946360921368437e-07,2.994776194540428e-06,8.432372688074187e-07,1.1030086970403843e-05
1.002892826134802e-06,3.001192754314888e-06,8.496773789697626e-07,1.1110217696633573e-05
1.0114724332547426e-06,3.0067449322598425e-06,8.559362003554803e-07,1.1188769637405693e-05
1.020338732363395e-06,3.0112639683266164e-06,8.619669217380066e-07,1.1265110228792109e-05
1.029471819824542e-06,3.014586119713116e-06,8.677235636883604e-07,1.1338586218691935e-05
1.0388592240852283e-06,3.016552671859169e-06,8.731620841968066e-07,1.1408543860349075e-05
1.0484812446620491e-06,3.017014948513368e-06,8.782389006861427e-07,1.1474400634507187e-05
1.0583067413339723e-06,3.015838347873925e-06,8.829101344977322e-07,1.153571924250674e-05
1.068298479469941e-06,3.012907222105507e-06,8.871328969649601e-07,1.1592217972605272e-05
1.0784153797467363e-06,3.008134054686737e-06,8.908667738379576e-07,1.164370621059791e-05
1.0886084998993877e-06,3.001464221353048e-06,8.940737154979403e-07,1.1690004198171512e-05
1.098818404165245e-06,2.992869438670381e-06,8.967176050027001e-07,1.1730905919571174e-05
1.1089775413002764e-06,2.9823380122310973e-06,8.987659957562223e-07,1.1766202393477416e-05
1.119015043413127e-06,2.969867724267081e-06,9.001934131550718e-07,1.179576043357312e-05
1.128860554814028e-06,2.955459198989643e-06,9.009827406361372e-07,1.181961796549433e-05
1.1384457252947297e-06,2.9391117765139803e-06,9.011234097699844e-07,1.1838013698156966e-05
1.1477058620280625e-06,2.9208250424679315e-06,9.006096183676955e-07,1.1851332720184802e-05
1.1565820486510564e-06,2.900605488932338e-06,8.994405177124824e-07,1.1860029990981258e-05
1.1650197145395168e-06,2.8784763987062126e-06,8.976200614650257e-07,1.1864560556545446e-05
1.1729638667238623e-06,2.8544879899266294e-06,8.951555190559882e-07,1.1865317889525173e-05
1.1803564645187685e-06,2.828723413718929e-06,8.920557507883205e-07,1.1862594425066838e-05
1.1871400072548887e-06,2.8012955846046158e-06,8.883299022514738e-07,1.1856565316766983e-05
1.1932665199495151e-06,2.7723342817585848e-06,8.839870019452541e-07,1.184730986473449e-05
1.198706339265035e-06,2.741971689684808e-06,8.790358938720594e-07,1.1834917533744258e-05
1.2034501388111892e-06,2.710339251944929e-06,8.734852788072613e-07,1.181963871044935e-05
1.207502534363002e-06,2.677578275924733e-06,8.67344453600752e-07,1.180193573154545e-05
1.2108742990228165e-06,2.6438500637557046e-06,8.606234991735069e-07,1.1782388920565088e-05
1.213584112225394e-06,2.609333808527056e-06,8.533322622821275e-07,1.176155683539055e-05
1.2156692823516326e-06,2.5742148467073925e-06,8.454797523701633e-07,1.173991576415105e-05
1.217190281720742e-06,2.538670574560313e-06,8.370749745290504e-07,1.1717978683915049e-05
1.2182203824756864e-06,2.502859964042489e-06,8.281290154724468e-07,1.1696564436286025e-05
1.2188302829601813e-06,2.466922692486672e-06,8.186570760326901e-07,1.1676994942990547e-05
1.219080125214967e-06,2.430991852970673e-06,8.086790333924068e-07,1.1661037637469893e-05
1.2190184772832805e-06,2.3952121610235496e-06,7.982186525903472e-07,1.1650670992282287e-05
1.218681724920855e-06,2.359743887542645e-06,7.873018821569424e-07,1.1647845105522325e-05
1.2180927569510927e-06,2.3247466990544647e-06,7.759550286092142e-07,1.1654302852733135e-05
1.2172627177807543e-06,2.2903637733195892e-06,7.642046689286467e-07,1.1671463329807185e-05
1.2161968636472325e-06,2.2567240928288803e-06,7.520791480283034e-07,1.1700359377189184e-05
1.214900196904487e-06,2.223955151123357e-06,7.396087682604598e-07,1.1741631121105802e-05
1.2133787672199688e-06,2.192188654232536e-06,7.268244595299998e-07,1.1795575565656072e-05
1.2116371327412178e-06,2.1615526302353287e-06,7.137585513115724e-07,1.1862212926609407e-05
1.209674921378185e-06,2.132156539460739e-06,7.004482814351835e-07,1.194134236504064e-05
1.2074854706282546e-06,2.104082553753838e-06,6.869383383109608e-07,1.2032596220257926e-05
1.205060285139185e-06,2.077386967521773e-06,6.732803687083257e-07,1.2135487505773333e-05
1.2023997475455262e-06,2.052102660967171e-06,6.595301534875494e-07,1.2249440519259993e-05
1.1995221121765376e-06,2.0282395723179197e-06,6.457436076385597e-07,1.2373821250574181e-05
1.1964643629657626e-06,2.0057881959976557e-06,6.319735727892604e-07,1.2507983937215693e-05
1.1932781513734066e-06,1.9847238547464645e-06,6.182689836283174e-07,1.2651308803416831e-05
1.1900236983435979e-06,1.9650072377411358e-06,6.046748263992427e-07,1.280317852944997e-05
1.1867618227548391e-06,1.946585543912106e-06,5.912309467514097e-07,1.2962889694346594e-05
1.1835475896494995e-06,1.929397902399904e-06,5.779710945604327e-07,1.3129576218540108e-05
1.1804273142019995e-06,1.9133799919877566e-06,5.649240402114305e-07,1.3302199664832913e-05
1.1774376253515044e-06,1.898466345721647e-06,5.521156724500097e-07,1.3479572559453087e-05
1.1746081975940995e-06,1.8845939331735626e-06,5.395693900403186e-07,1.3660384729366615e-05
1.1719686778520378e-06,1.8717032323370343e-06,5.273049012098957e-07,1.3843249840182776e-05
1.169554728746841e-06,1.8597358749970246e-06,5.153399279869398e-07,1.4026775968154092e-05
1.1674075140552928e-06,1.8486388172811009e-06,5.036971096274815e-07,1.4209641380640564e-05
1.165566224027171e-06,1.8383749241433984e-06,4.924098116403465e-07,1.4390654882231546e-05
1.1640593200416063e-06,1.8289272974327332e-06,4.815196393076082e-07,1.4568778546453402e-05
1.1629003425562022e-06,1.820293004468195e-06,4.7106849493892346e-07,1.4743109242870542e-05
1.1620882223743457e-06,1.8124704725255181e-06,4.610933773291739e-07,1.4912839061229932e-05
1.1616085228432622e-06,1.8054456341288795e-06,4.516275703198777e-07,1.5077207853542752e-05
1.1614348740048843e-06,1.7991833140937518e-06,4.4270422767674893e-07,1.5235458505663653e-05
1.1615337729781796e-06,1.7936263963045654e-06,4.3435589756696005e-07,1.538682833864282e-05
1.1618736327929208e-06,1.788699290720153e-06,4.266111028492535e-07,1.553059905364811e-05
1.1624328525205715e-06,1.7843132456308334e-06,4.194937061709391e-07,1.566616994283829e-05
1.1632018490822441e-06,1.7803731022982032e-06,4.130238606381196e-07,1.5793106078739278e-05
1.1641801127373541e-06,1.7767823528351684e-06,4.0721654849391607e-07,1.5911153317154048e-05
1.1653711094553702e-06,1.773443854865466e-06,4.0208092279366973e-07,1.6020238478439293e-05
1.1667769053824593e-06,1.7702628263943142e-06,3.9762443686407036e-07,1.6120491654838967e-05
1.168397985242497e-06,1.767159130276316e-06,3.9385732250048094e-07,1.621229023310444e-05
1.1702409271230455e-06,1.7640796211961564e-06,3.907915452838875e-07,1.629624262302272e-05
1.1723261197304414e-06,1.7609965388655102e-06,3.884368729413128e-07,1.637306219053341e-05
1.1746887024298256e-06,1.7578947454884808e-06,3.868004956058085e-07,1.644339598660231e-05
1.1773735077717758e-06,1.7547636398235401e-06,3.858895392980818e-07,1.6507708434195207e-05
1.1804252074537511e-06,1.751600928006654e-06,3.857104332095606e-07,1.656625553734032e-05
1.1838771594869756e-06,1.7484161811529098e-06,3.8626383574465007e-07,1.6619107866599866e-05
1.1877468335086628e-06,1.7452229228683144e-06,3.875399469148243e-07,1.6666177334935032e-05
1.1920380050101886e-06,1.7420289245996846e-06,3.895178768303898e-07,1.6707256983585034e-05
1.1967412140826045e-06,1.7388367571681039e-06,3.921674704453515e-07,1.6742118948757033e-05
1.2018317547495315e-06,1.7356499336103985e-06,3.9545171348161137e-07,1.6770656718278178e-05
1.2072723068076457e-06,1.732475422016336e-06,3.9933073950744155e-07,1.6792958281309744e-05
1.2130195001552744e-06,1.7293209607143208e-06,4.0376530114486923e-07,1.6809252268079948e-05
1.2190258381797129e-06,1.726194688064281e-06,4.087161284777337e-07,1.6819804439889165e-05
1.2252367353182278e-06,1.723113908440208e-06,4.1414214390271294e-07,1.682484735062708e-05
1.2315925098982143e-06,1.7201166146747388e-06,4.2000130546063094e-07,1.6824609561684423e-05
1.2380356122451278e-06,1.7172652443449188e-06,4.26252407428326e-07,1.6819500668016478e-05
1.244511883991304e-06,1.7146400099463057e-06,4.328557697317233e-07,1.6810330557772564e-05
1.250964491133801e-06,1.7123251808595688e-06,4.397728780878994e-07,1.6798334599651376e-05
1.257330259576407e-06,1.7103943340870438e-06,4.469655155335657e-07,1.6784998797763145e-05
1.2635427433617322e-06,1.7089004242034388e-06,4.543944176080664e-07,1.6771864897193062e-05
1.269538593031061e-06,1.7078744682028268e-06,4.62017990253891e-07,1.6760397640214208e-05
1.2752629167551494e-06,1.7073321242809793e-06,4.697926977217517e-07,1.6751880778817132e-05
1.2806719843182234e-06,1.7072815946900552e-06,4.77675672949157e-07,1.6747321162174302e-05
1.2857337942941909e-06,1.70772684993807e-06,4.85629357984049e-07,1.6747384173659353e-05
1.290426715833232e-06,1.708664924165919e-06,4.936259743494107e-07,1.6752383896574328e-05
1.2947357713405656e-06,1.710080658459929e-06,5.016471593467197e-07,1.6762317219531445e-05
1.2986464839887196e-06,1.7119457733762942e-06,5.096786131020613e-07,1.6776920244884462e-05
1.302138733113776e-06,1.7142223090637544e-06,5.177050430767375e-07,1.6795734319097503e-05
1.3051845397053874e-06,1.7168632812401708e-06,5.257086656782465e-07,1.6818163962596705e-05
1.307749394652463e-06,1.7198094589127608e-06,5.3366969604166e-07,1.684352342439511e-05
1.3097945935643163e-06,1.7229867987428306e-06,5.415660519100771e-07,1.6871081348346e-05
1.3112805929291695e-06,1.7263092586137245e-06,5.493722226624789e-07,1.6900085838463725e-05
1.3121706213399289e-06,1.7296888542281224e-06,5.570590074120197e-07,1.6929762388783692e-05
1.3124325202037414e-06,1.7330457251225101e-06,5.645949531545275e-07,1.6959312580546263e-05
1.3120384809561883e-06,1.7363078153598794e-06,5.719492333418997e-07,1.6987919641796575e-05
1.3109632029493657e-06,1.739402384683389e-06,5.790942202089772e-07,1.7014748389539254e-05
1.309181557649437e-06,1.7422513121066726e-06,5.860057623884086e-07,1.7038941755727538e-05
1.306668339996139e-06,1.744773004341969e-06,5.926613536777162e-07,1.705961565603441e-05
1.303402569213869e-06,1.746884783380481e-06,5.990384620431218e-07,1.7075862723234484e-05
1.2993756824335041e-06,1.7485050861208526e-06,6.051156257033312e-07,1.708678692213306e-05
1.2945988837674624e-06,1.749557934053862e-06,6.10875280886985e-07,1.709156271048889e-05
1.2891036296569854e-06,1.7499761744919387e-06,6.163040512571837e-07,1.7089499920233182e-05
1.2829336623809829e-06,1.749699348162164e-06,6.21390949442429e-07,1.7080118443236995e-05
1.27613518033216e-06,1.7486690047239685e-06,6.261277178313332e-07,1.7063208116016878e-05
1.268751997002843e-06,1.7468282248727932e-06,6.30510383765651e-07,1.703881733334689e-05
1.2608232980053758e-06,1.74413124379664e-06,6.345387331982363e-07,1.700718144008836e-05
1.252380409671967e-06,1.7405617877692437e-06,6.382142031169242e-07,1.6968656993544103e-05
1.2434450215906568e-06,1.7361475518930074e-06,6.415373981013012e-07,1.6923677004797963e-05
1.2340307339154609e-06,1.7309574153449826e-06,6.445061426891151e-07,1.687269034207728e-05
1.2241475666536374e-06,1.7250801761551528e-06,6.471153824632057e-07,1.6816083588444353e-05
1.2138087923927237e-06,1.7186008345550537e-06,6.493577646836403e-07,1.6754150373085283e-05
1.203037390080035e-06,1.7115935407325648e-06,6.512234282102321e-07,1.6687152780180788e-05
1.191868953268039e-06,1.7041286068574831e-06,6.526999732733675e-07,1.6615427724217707e-05
1.1803492747541763e-06,1.6962790842369243e-06,6.537734383830579e-07,1.6539463032460737e-05
1.1685272791012773e-06,1.688124923672529e-06,6.544308555646411e-07,1.6459929306415653e-05
1.1564481301506162e-06,1.6797553779580083e-06,6.546660209768786e-07,1.6377696977267153e-05
1.1441506005348612e-06,1.671268709014896e-06,6.544881325960326e-07,1.6293830466644767e-05
1.1316679369401257e-06,1.6627817022611745e-06,6.539270726382625e-07,1.6209521940345043e-05
1.11902989110225e-06,1.6544539466979367e-06,6.530287654154128e-07,1.6125960650102325e-05
1.1062650371694365e-06,1.646506788443226e-06,6.518438113916165e-07,1.604417883165972e-05
1.0934037563242883e-06,1.6392230692853631e-06,6.504184098162219e-07,1.5964942519171977e-05
1.0804815160437968e-06,1.6329302858795462e-06,6.487919859540879e-07,1.5888729570341478e-05
1.0675412872002425e-06,1.627967494122976e-06,6.469998101082918e-07,1.5815773188140578e-05
1.0546329738265958e-06,1.6246433078519717e-06,6.450757542168272e-07,1.574614446259602e-05
1.041807848529446e-06,1.623208914733749e-06,6.430516873283465e-07,1.5679914288823338e-05
1.029112053608157e-06,1.6238572005383197e-06,6.409545929523454e-07,1.5617400693297454e-05
1.0165855611894586e-06,1.626731357396905e-06,6.388050133423704e-07,1.555932745453287e-05
1.0042652034775054e-06,1.6319324122209581e-06,6.366183694074377e-07,1.550673131062524e-05
9.921860843802032e-07,1.639533824891534e-06,6.344076054062667e-07,1.5460707882967637e-05
9.803798153255477e-07,1.6496012910974018e-06,6.321854686608897e-07,1.542218258449482e-05
9.688720628518863e-07,1.6622017277894188e-06,6.299656842603952e-07,1.5391827196442768e-05
9.576823839787352e-07,1.677393273227502e-06,6.277624012993739e-07,1.5370195088463854e-05
9.468276449396295e-07,1.6952067595538955e-06,6.255879577101156e-07,1.5357979997176632e-05
9.363279333299963e-07,1.7156441716772812e-06,6.234506090287728e-07,1.5356153319177202e-05
9.262107538466264e-07,1.7387060164600121e-06,6.213537179384262e-07,1.536590176900848e-05
9.165079968932138e-07,1.7644232542074776e-06,6.192964176541805e-07,1.5388490700802005e-05
9.072468971590612e-07,1.792866396794041e-06,6.172761772954389e-07,1.5425150011156643e-05
8.984438293670714e-07,1.8241328517841218e-06,6.152927158258362e-07,1.5477008139744986e-05
8.901047075806769e-07,1.8583238802971367e-06,6.133503703986271e-07,1.554506478491113e-05
8.822274055813828e-07,1.895516250303732e-06,6.114582459808583e-07,1.56301666329701e-05
8.748037378273687e-07,1.9357349848600288e-06,6.096291580044745e-07,1.5732966783983593e-05
8.678212455840427e-07,1.9789392955079705e-06,6.078762136207419e-07,1.585387622155279e-05
8.612646195044277e-07,2.025027969287558e-06,6.062086917513047e-07,1.5993021314770547e-05
8.551205590566313e-07,2.0738534213684243e-06,6.046328052266612e-07,1.6150215408069297e-05
8.493879771453455e-07,2.125228462762369e-06,6.031566237465812e-07,1.6324943189948542e-05
8.440876516820769e-07,2.178924601366759e-06,6.017913092019808e-07,1.6516352804021023e-05
8.392659303842095e-07,2.2346715023609886e-06,6.005466773323385e-07,1.6723280007439567e-05
8.349915132491517e-07,2.292162088763221e-06,5.994276592419222e-07,1.6944341832417223e-05
8.313477395976627e-07,2.3510616577662014e-06,5.98435418753674e-07,1.7178073520606172e-05
8.284234069751175e-07,2.4110194594778992e-06,5.975699859492056e-07,1.7423033197717208e-05
8.263016541682183e-07,2.47167949406562e-06,5.96831443413335e-07,1.76778401349781e-05
8.25049535812753e-07,2.532685404876352e-06,5.96220889461904e-07,1.7941180974945194e-05
8.247153318134734e-07,2.593681692788984e-06,5.957412436555739e-07,1.821182209174782e-05
8.253329259882369e-07,2.65431907595458e-06,5.95395139446982e-07,1.8488612709655856e-05
8.269256400876436e-07,2.714261113652989e-06,5.951817458915588e-07,1.8770450996423067e-05
8.295068764408644e-07,2.7731831511747767e-06,5.950965691632854e-07,1.905623089516936e-05
8.330798176204491e-07,2.8307682419321203e-06,5.951324606768109e-07,1.9344798462304568e-05
8.376369523817275e-07,2.8867099694821615e-06,5.952791006585307e-07,1.9634914335887235e-05
8.431598415338299e-07,2.940717671235738e-06,5.955223440856433e-07,1.992523972627912e-05
8.496210709689372e-07,2.9925155431106486e-06,5.958453076948887e-07,2.021438335405585e-05
8.569889256878319e-07,3.041841824288431e-06,5.962308489010621e-07,2.050097330056086e-05
8.652326257059071e-07,3.088455840520697e-06,5.966634894352316e-07,2.078369192619009e-05
8.74325570117012e-07,3.1321451302612555e-06,5.971295846576889e-07,2.1061292295637686e-05
8.84244816146007e-07,3.172723692768842e-06,5.976162329621482e-07,2.1332636924384228e-05
8.949660615194052e-07,3.210024197856142e-06,5.981099961413955e-07,2.159671969394803e-05
9.064562470460457e-07,3.2438925245983805e-06,5.985957530534463e-07,2.1852609867319345e-05
9.18668204567722e-07,3.274192849378992e-06,5.990560129146539e-07,2.2099373119526147e-05
9.315408423625851e-07,3.3008216815055647e-06,5.994735227865901e-07,2.2336051793275585e-05
9.450040722620815e-07,3.323715347856138e-06,5.998384828085883e-07,2.2561665620098955e-05
9.589825141160898e-07,3.3428416604074092e-06,6.00154893905028e-07,2.277519700920885e-05
9.733947352964168e-07,3.358186090735145e-06,6.004394470897681e-07,2.2975604952020314e-05
9.881529544035688e-07,3.369749939223042e-06,6.007138684579679e-07,2.316186596728846e-05
1.0031659257516847e-06,3.377568032260716e-06,6.009979422688496e-07,2.333298010438092e-05
1.0183409760759683e-06,3.3817322876318765e-06,6.013075453763732e-07,2.3487939811680813e-05
1.0335855205380636e-06,3.3823941156008373e-06,6.016556713824047e-07,2.362573945783754e-05
1.0488118478686165e-06,3.3797378750272476e-06,6.020533000692098e-07,2.3745448033720364e-05
1.0639424477582906e-06,3.3739514692437323e-06,6.025091684265702e-07,2.3846255897375974e-05
1.078911013740242e-06,3.365215996628406e-06,6.030303947729486e-07,2.392743760943529e-05
1.0936591520417774e-06,3.3537038351317884e-06,6.036257774854562e-07,2.398829702772619e-05
1.1081314047747264e-06,3.3395742204283787e-06,6.043084725700389e-07,2.402819393004116e-05
1.1222705838475729e-06,3.322974632524523e-06,6.050946092064305e-07,2.4046698912681266e-05
1.1360144029750172e-06,3.3040523541717618e-06,6.059997035439735e-07,2.4043810424607417e-05
1.1492941176388031e-06,3.282972129416928e-06,6.0703604399948e-07,2.402002929785639e-05
1.1620353267114559e-06,3.25993829438759e-06,6.082132851399749e-07,2.397618725149858e-05
1.1741600036811688e-06,3.235214085767911e-06,6.095423537177901e-07,2.391319240247754e-05
1.1855889327569656e-06,3.209123404574408e-06,6.110392068800168e-07,2.383186740223057e-05
1.196245110091744e-06,3.1820300071422764e-06,6.127265018508844e-07,2.373290321156676e-05
1.2060587390626886e-06,3.1543025327841373e-06,6.14633917830018e-07,2.3616888286383928e-05
1.214970625582147e-06,3.1262801037220862e-06,6.167950307905915e-07,2.3484358202022325e-05
1.2229303442553043e-06,3.0982566652663286e-06,6.192395775440639e-07,2.3335821874733115e-05
1.2298922677489271e-06,3.0704883591981438e-06,6.21987130521609e-07,2.317175526824928e-05
1.2358133710335063e-06,3.043203950613436e-06,6.250471176512685e-07,2.299259071828581e-05
1.2406525954531426e-06,3.0166023663162338e-06,6.284209909032411e-07,2.2798744677051737e-05
1.244372883215763e-06,2.990845850799933e-06,6.321018136022274e-07,2.259068005387572e-05
1.246945462117564e-06,2.9660622185390948e-06,6.36073437673408e-07,2.236896180121205e-05
1.2483518016524379e-06,2.942356614684584e-06,6.403118210268068e-07,2.2134293579213588e-05
1.248582817913712e-06,2.9198262481550946e-06,6.447874147604239e-07,2.1887543406871664e-05
1.2476392508479331e-06,2.8985731760288798e-06,6.494671436414895e-07,2.162974959670248e-05
1.2455335022761274e-06,2.8787120974126086e-06,6.543151429479161e-07,2.1362089139801744e-05
1.2422899720964372e-06,2.8603714331430687e-06,6.592929867529832e-07,2.1085797076672022e-05
1.2379424057658008e-06,2.843685816873549e-06,6.643609222271931e-07,2.0802061920119878e-05
1.2325289757945705e-06,2.8287799622556107e-06,6.694795364820436e-07,2.051195440465664e-05
1.2260876401839606e-06,2.815750045733272e-06,6.746104944523736e-07,2.021641064472724e-05
1.2186541227783103e-06,2.8046514170343157e-06,6.797156525818757e-07,1.9916257282137673e-05
1.2102616561726318e-06,2.7955018719286614e-06,6.847549189328979e-07,1.961226646541421e-05
1.2009417277005374e-06,2.7883032454765245e-06,6.896853557230503e-07,1.9305198961167585e-05
1.1907283488172182e-06,2.783063527575452e-06,6.944629954521738e-07,1.899579430524113e-05
1.1796650195422842e-06,2.7797963135659003e-06,6.990450832540654e-07,1.8684738415946345e-05
1.1678074116961209e-06,2.778504747931199e-06,7.033905707205285e-07,1.837267645233031e-05
1.155218272018758e-06,2.779180943366165e-06,7.074596035486188e-07,1.8060275801132817e-05
1.1419599735053987e-06,2.7818266340301786e-06,7.11213209020699e-07,1.7748270605632107e-05
1.1280918477513544e-06,2.7864662104518755e-06,7.146131926778108e-07,1.743744832760105e-05
1.113672308238095e-06,2.793134510349819e-06,7.176223551335906e-07,1.712860506804047e-05
1.0987604685261291e-06,2.8018523641746732e-06,7.20205539000969e-07,1.682249817495385e-05
1.0834154875094e-06,2.812609194811474e-06,7.223313012781935e-07,1.651981905434351e-05
1.067696263246776e-06,2.8253594291598497e-06,7.239736499940395e-07,1.6221198004337308e-05
1.05166268450472e-06,2.8400258822593437e-06,7.251138835640941e-07,1.592720289916385e-05
1.0353774650985122e-06,2.856498909392538e-06,7.257429325698282e-07,1.5638312155418618e-05
1.0189080530836521e-06,2.874631027034333e-06,7.258629501627271e-07,1.5354894193451888e-05
1.0023282814428558e-06,2.894239003010005e-06,7.25485932712605e-07,1.5077225528559286e-05
9.85718086120818e-07,2.915118938005179e-06,7.246306821434945e-07,1.4805577214473187e-05
9.691593273519756e-07,2.937064769691465e-06,7.233213503043531e-07,1.4540322382672027e-05
9.527286264412691e-07,2.959878421526868e-06,7.215889490539212e-07,1.4281944622892795e-05
9.36492477348946e-07,2.9833671851866797e-06,7.194753156863474e-07,1.4030970050867306e-05
9.205096079139416e-07,3.0073313895431237e-06,7.170340545193776e-07,1.3787960217520508e-05
9.048375226725363e-07,3.031552515844613e-06,7.143230886644714e-07,1.35535564125245e-05
8.895351439325972e-07,3.0557920533549253e-06,7.113943596410928e-07,1.3328476832991515e-05
8.746627497810482e-07,3.079802851856814e-06,7.082895500407637e-07,1.3113477970317393e-05
8.602870294402781e-07,3.1033465319925214e-06,7.050419582539938e-07,1.2909334827988345e-05
8.464878663206741e-07,3.126204694196319e-06,7.016792407358086e-07,1.2716823513038643e-05
8.333578370467044e-07,3.148175784832269e-06,6.9822420275389e-07,1.2536663450240187e-05
8.209967751514167e-07,3.169068862655874e-06,6.946953585818167e-07,1.2369435631759025e-05
8.095093222405645e-07,3.188712358755978e-06,6.911106119746141e-07,1.2215530622585065e-05
7.990057962540603e-07,3.2069750724174786e-06,6.874942004679389e-07,1.2075141815067524e-05
7.896011583784473e-07,3.223780793331192e-06,6.838814555468454e-07,1.1948290688059108e-05
7.814090054762927e-07,3.2391039121030283e-06,6.803162595257778e-07,1.1834884946274838e-05
7.745307859201314e-07,3.2529497133274016e-06,6.768446145176201e-07,1.1734840194123135e-05
7.690441882226366e-07,3.2653452249813872e-06,6.735118420486356e-07,1.1648268540535065e-05
7.649969531851863e-07,3.276363509264872e-06,6.703641073335999e-07,1.1575587113202885e-05
7.624086038027911e-07,3.2861592400714696e-06,6.67450545351548e-07,1.1517402711401891e-05
7.612768582224058e-07,3.294968414932076e-06,6.648235609566753e-07,1.1474340306320372e-05
7.615822029998906e-07,3.3030614123435625e-06,6.625347196478588e-07,1.1447020970209395e-05
7.632876547418298e-07,3.3106882208719056e-06,6.606285429949747e-07,1.1436074602784178e-05
7.6633799439329e-07,3.3180557684521577e-06,6.591402079231542e-07,1.1442072376461376e-05
7.706629831508109e-07,3.3253361052921317e-06,6.580956230545933e-07,1.1465456644694874e-05
7.761842206600825e-07,3.3326784665211047e-06,6.575099727913994e-07,1.1506519843527685e-05
7.828209963871077e-07,3.340207460917288e-06,6.573867691430873e-07,1.15654061860809e-05
7.904906191893822e-07,3.348012100753777e-06,6.57719019304244e-07,1.164209863617078e-05
7.991056908460492e-07,3.356143432673516e-06,6.584918029145127e-07,1.1736398895702582e-05
8.085749811711965e-07,3.364624798239361e-06,6.596866869390138e-07,1.1847939654828834e-05
8.188094537625936e-07,3.3734615354248784e-06,6.61286402088151e-07,1.1976210143303834e-05
8.297278614249163e-07,3.3826461968825493e-06,6.632756326125844e-07,1.2120556283133587e-05
8.412554224377119e-07,3.3921644233230606e-06,6.656372750559996e-07,1.2280178863483826e-05
8.533160457408724e-07,3.4019956389069087e-06,6.683501100979672e-07,1.2454157213350882e-05
8.658254295078825e-07,3.412102572472855e-06,6.713940093214548e-07,1.264146907549438e-05
8.786899465848184e-07,3.4224230240059916e-06,6.747587378617177e-07,1.284097486636168e-05
8.918097434831118e-07,3.4328790313258706e-06,6.784453410014428e-07,1.3051377700133957e-05
9.050822484253369e-07,3.4433956383211585e-06,6.824575392674422e-07,1.3271193748995152e-05
9.184039909317531e-07,3.4539112581604315e-06,6.867924886760935e-07,1.3498763938737599e-05
9.316720088224098e-07,3.464373904824881e-06,6.914390237944904e-07,1.3732313111321864e-05
9.447868425193405e-07,3.4747290254260886e-06,6.963817932225829e-07,1.3970026745916812e-05
9.576563067043395e-07,3.4849057844284675e-06,7.016044728630736e-07,1.4210098292973029e-05
9.701973202933274e-07,3.4948068820021745e-06,7.070885427791124e-07,1.4450725336740725e-05
9.823341690043316e-07,3.5043064226920008e-06,7.128101733167014e-07,1.4690089369007098e-05
9.939952449751116e-07,3.513255698183496e-06,7.187380481340034e-07,1.4926383509305255e-05
1.0051114815783155e-06,3.5214900918761216e-06,7.248327053357249e-07,1.5157888554754322e-05
1.0156169517281703e-06,3.5288330390868964e-06,7.310482735892134e-07,1.5383012358213138e-05
1.0254517674905687e-06,3.535099390896882e-06,7.373356286588308e-07,1.5600257154662788e-05
1.0345669191126257e-06,3.5401007386264437e-06,7.436440041840991e-07,1.5808179783091695e-05
1.042927278138967e-06,3.5436546295766716e-06,7.499207532503049e-07,1.6005378111471786e-05
1.0505099536396015e-06,3.545597580536409e-06,7.5611145373041e-07,1.6190484876165385e-05
1.0572991891275318e-06,3.5457950212078463e-06,7.621612970038584e-07,1.6362180678477273e-05
1.0632808680006458e-06,3.5441392884043615e-06,7.6801699594513e-07,1.6519244450118122e-05
1.0684396118982029e-06,3.5405367358155434e-06,7.736294512621402e-07,1.6660634246770944e-05
1.072758329957696e-06,3.5348947431336587e-06,7.789572574107429e-07,1.6785553680495386e-05
1.076217833667805e-06,3.5271161564955734e-06,7.839684359953663e-07,1.6893431878182846e-05
1.0787964024014623e-06,3.517100868814908e-06,7.886393991376525e-07,1.6983828387794253e-05
1.0804706394888235e-06,3.5047513181217344e-06,7.929523640410219e-07,1.7056363982641466e-05
1.0812173091852958e-06,3.489978672669566e-06,7.968920800396386e-07,1.711070902637559e-05
1.0810150972816276e-06,3.472707833625389e-06,8.004453537494779e-07,1.7146577941796662e-05
1.0798459745039481e-06,3.452880636344673e-06,8.036061871184519e-07,1.7163725027441433e-05
1.0776965857887385e-06,3.4304558942768187e-06,8.063825430792758e-07,1.716199132645875e-05
1.0745608438662744e-06,3.4054070614230596e-06,8.087977939095083e-07,1.714141931133665e-05
1.0704435680843958e-06,3.3777244471291794e-06,8.108844710246095e-07,1.710239156080898e-05
1.065362033607527e-06,3.3474254801540004e-06,8.126745022716435e-07,1.704571457493268e-05
1.0593439754756415e-06,3.3145630835310257e-06,8.141919189703313e-07,1.6972582214859528e-05
1.052424554270808e-06,3.2792217992190722e-06,8.154507267456334e-07,1.6884421596265775e-05
1.0446435576666523e-06,3.241504656523188e-06,8.164575308123643e-07,1.6782692820670286e-05
1.036043724001413e-06,3.201519398237056e-06,8.172170131174374e-07,1.6668735030274686e-05
1.0266727271958661e-06,3.159370158592998e-06,8.177361378680519e-07,1.654370889875779e-05
1.016587200451555e-06,3.1151579255286117e-06,8.180232468663602e-07,1.6408615606607522e-05
1.0058533230523826e-06,3.0689867093057917e-06,8.180841100389758e-07,1.6264355812462422e-05
9.945426350200905e-07,3.0209673118833987e-06,8.179193627245834e-07,1.6111835857485513e-05
9.827277364399205e-07,2.9712165730245905e-06,8.175235610412126e-07,1.595214477305661e-05
9.70482407370642e-07,2.919857601150516e-06,8.168851159937534e-07,1.5786717873418128e-05
9.578866050816849e-07,2.8670232489594434e-06,8.159874956935065e-07,1.5617333450502155e-05
9.450314718364471e-07,2.812861376017311e-06,8.148108166593307e-07,1.5445951265519733e-05
9.320164029942915e-07,2.7575434345754027e-06,8.13333148722142e-07,1.5274525119536562e-05
9.189389661285459e-07,2.7012737740991586e-06,8.115328850484238e-07,1.5104876767232648e-05
9.058900417354252e-07,2.644288793122952e-06,8.093925710409875e-07,1.4938734280564408e-05
8.929609913465821e-07,2.58684097493691e-06,8.069007619167361e-07,1.4777962213640546e-05
8.802534927973264e-07,2.529176375956612e-06,8.040499008159341e-07,1.4624767083077692e-05
8.678790551498197e-07,2.471517778601286e-06,8.008341220972345e-07,1.4481690625998676e-05
8.559480139688952e-07,2.4140590915463738e-06,7.972499078937145e-07,1.4351470333009546e-05
8.445587730554356e-07,2.3569676023270268e-06,7.932967658657566e-07,1.423688551067112e-05
8.337941220550904e-07,2.3003880285430267e-06,7.889760912636256e-07,1.4140601180007682e-05
8.237212210924394e-07,2.2444461429344607e-06,7.842908148100844e-07,1.4065019760659729e-05
8.143903620996967e-07,2.1892521530687883e-06,7.79246626297048e-07,1.4012157096346112e-05
8.058332877207868e-07,2.13490747696055e-06,7.738524641962256e-07,1.3983542936967866e-05
7.980643430798402e-07,2.0815184425335538e-06,7.68120300727487e-07,1.3980171143756785e-05
7.910859288850351e-07,2.0292109760793738e-06,7.620650817470076e-07,1.4002526578895667e-05
7.84896997046676e-07,1.9781367032636644e-06,7.557037602533034e-07,1.4050650577100793e-05
7.795014484618707e-07,1.9284685476680686e-06,7.490550529223584e-07,1.4124181470548846e-05
7.749118566704466e-07,1.8803943750572769e-06,7.421428946141318e-07,1.4222367600034942e-05
7.711464083403852e-07,1.8341169076816662e-06,7.350021580184928e-07,1.4344084131097165e-05
7.68228365386179e-07,1.7898507875953967e-06,7.276815931036588e-07,1.448786843601596e-05
7.661995372395156e-07,1.7478053789737044e-06,7.202394037336121e-07,1.4651979008296067e-05
7.651384101655356e-07,1.7081667538701817e-06,7.127343113245836e-07,1.483446833414127e-05
7.651619769361725e-07,1.6710944897624383e-06,7.052204160486814e-07,1.5033254165972538e-05
7.664078239036266e-07,1.6367233596955359e-06,6.97746636389271e-07,1.5246190635434197e-05
7.690101071771834e-07,1.6051592781805753e-06,6.903555948880496e-07,1.5471136819830213e-05
7.730807321394289e-07,1.5764759395562397e-06,6.830814988933986e-07,1.5706003395694596e-05
7.786990799249251e-07,1.5507167053443375e-06,6.759492160175885e-07,1.5948769551789497e-05
7.859110885869339e-07,1.5278965041568231e-06,6.689750277760223e-07,1.619746532914855e-05
7.947368909375225e-07,1.5080007382121618e-06,6.621683513434873e-07,1.6450117423233073e-05
8.051820463233424e-07,1.4909855858354014e-06,6.555331144212104e-07,1.6704717481410236e-05
8.172449235999792e-07,1.4767839439395328e-06,6.490699436457781e-07,1.6959288076078398e-05
8.309157867590916e-07,1.4653176582286388e-06,6.427823162776853e-07,1.7212016100660485e-05
8.461709911096108e-07,1.456511751884489e-06,6.36684515135929e-07,1.7461344998470497e-05
8.629686397997147e-07,1.4502989454583103e-06,6.308040471704742e-07,1.770597162430453e-05
8.812465221854216e-07,1.4466097970087275e-06,6.251758181494778e-07,1.7944785924057377e-05
9.009226207593201e-07,1.4453636254868915e-06,6.198333237563076e-07,1.817680895750865e-05
9.219005884858048e-07,1.4464771120688043e-06,6.148032553264235e-07,1.8401133785371045e-05
9.440770924024215e-07,1.44988408697344e-06,6.101061814178044e-07,1.8616864526482032e-05
9.673478555922487e-07,1.4555421988912822e-06,6.05762078937255e-07,1.882311405653104e-05
9.916148362472851e-07,1.463416912291854e-06,6.017959794889496e-07,1.9019107493288307e-05
1.0167925875513886e-06,1.473462211514223e-06,5.98238240556509e-07,1.9204341495297465e-05
1.0428076583777064e-06,1.4856170704817361e-06,5.95118672922878e-07,1.9378704960576835e-05
1.069590215399258e-06,1.4998131614466415e-06,5.924597901640356e-07,1.9542469315142325e-05
1.097062960707292e-06,1.5159832449435663e-06,5.902732542350588e-07,1.9696141474762107e-05
1.1251369547880177e-06,1.5340658547090588e-06,5.885591504810811e-07,1.98402888591893e-05
1.1537214861255302e-06,1.5540022899494037e-06,5.873077585399518e-07,1.997542480451437e-05
1.1827414339784094e-06,1.5757267517046024e-06,5.865023780957679e-07,2.010195378110444e-05
1.2121484722013091e-06,1.59915564643538e-06,5.861207276651813e-07,2.02201439743396e-05
1.2419209152196366e-06,1.6241797247449091e-06,5.861367215826803e-07,2.0330112703940995e-05
1.272055031212592e-06,1.6506609674123997e-06,5.865244348135228e-07,2.0431832143475063e-05
1.302551952445636e-06,1.6784347553358073e-06,5.872603004611191e-07,2.052516065714085e-05
1.3334049613488144e-06,1.7073171728882792e-06,5.883217307432214e-07,2.0609904013581697e-05
1.3645899584400495e-06,1.7371172594559728e-06,5.896873260142968e-07,2.068593416546148e-05
1.3960600219964493e-06,1.7676470021703422e-06,5.913399808764447e-07,2.0753392922636664e-05
1.427745275851748e-06,1.7987216220778691e-06,5.932669932457634e-07,2.0812884856151733e-05
1.4595561607265029e-06,1.8301581847756698e-06,5.954562405009693e-07,2.086544564259024e-05
1.4913882768755941e-06,1.8617839835321683e-06,5.978932299045621e-07,2.091227894754404e-05
1.5231280762149628e-06,1.8934510608159645e-06,6.005595929087466e-07,2.0954564684712045e-05
1.5546549160669894e-06,1.9250483552667967e-06,6.034316309670254e-07,2.099348598520784e-05
1.585840139012825e-06,1.956508818375655e-06,6.064798775236702e-07,2.1030286605895497e-05
1.6165500433050253e-06,1.987808255636874e-06,6.096699279302779e-07,2.106624493702504e-05
1.6466539304369e-06,2.018951437486124e-06,6.129640182172079e-07,2.1102627829422225e-05
1.676032639718919e-06,2.0499490954180103e-06,6.163222541078489e-07,2.114063779544436e-05
1.7045816690593118e-06,2.080798155362701e-06,6.19702730351825e-07,2.1181334051948198e-05
1.7322077390952572e-06,2.111473288878225e-06,6.230626015851709e-07,2.122555551650378e-05
1.758823359219991e-06,2.1419270506908594e-06,6.263607336583344e-07,2.1273870604060467e-05
1.784341267293935e-06,2.172091614992588e-06,6.295589554503889e-07,2.1326553594779056e-05
1.808669978995348e-06,2.2018798959060644e-06,6.326218891157165e-07,2.1383595138265727e-05
1.8317136311894901e-06,2.231191906603194e-06,6.355181911789268e-07,2.144474504082412e-05
1.8533756103099498e-06,2.259930218299246e-06,6.382216760187854e-07,2.1509568849768912e-05
1.8735639671606296e-06,2.288019444446098e-06,6.40709854548121e-07,2.15775183366401e-05
1.892196438714366e-06,2.3154223731475142e-06,6.429618631955441e-07,2.1648002162189874e-05
1.909201313223417e-06,2.3421438652089437e-06,6.44957323167631e-07,2.1720409602642496e-05
1.9245144845327943e-06,2.368213925265748e-06,6.466761176445261e-07,2.179407039424592e-05
1.938076415138308e-06,2.393658032093469e-06,6.480997691998805e-07,2.186819480531373e-05
1.9498310579778333e-06,2.418479563920296e-06,6.492128397987467e-07,2.194185664009424e-05
1.959728215056401e-06,2.442665707462643e-06,6.500019723139847e-07,2.2014030183317325e-05
1.9677289830520193e-06,2.466200594577219e-06,6.504540356201526e-07,2.208363635628126e-05
1.9738104387950933e-06,2.4890661661210257e-06,6.505557780628187e-07,2.2149569056383027e-05
1.9779649440614318e-06,2.511231082830407e-06,6.502946948939188e-07,2.2210707328695285e-05
1.9801933471887852e-06,2.532641394539344e-06,6.496610983813807e-07,2.2265931601115164e-05
1.9804978443202498e-06,2.5532208782343457e-06,6.486529606737179e-07,2.23141588350365e-05
1.9788804455787237e-06,2.5728782528118814e-06,6.472811338364282e-07,2.2354373054837523e-05
1.975347000817696e-06,2.5915157169027198e-06,6.455683413004872e-07,2.2385613459174647e-05
1.9699124648551148e-06,2.609033367642856e-06,6.435417267588943e-07,2.2406935330765813e-05
1.9626021162912587e-06,2.6253292370294087e-06,6.41226514393096e-07,2.2417404392357958e-05
1.9534473311835127e-06,2.6403054885549497e-06,6.386443280295746e-07,2.2416171218053407e-05
1.9424803674948257e-06,2.653885120067518e-06,6.358134194834394e-07,2.240259141862804e-05
1.9297324924223442e-06,2.6660231592476557e-06,6.327489805278599e-07,2.237628031931602e-05
1.9152348981683656e-06,2.676699781976877e-06,6.294643635104973e-07,2.233704545558868e-05
1.8990194935900773e-06,2.6859075385933915e-06,6.25974339138164e-07,2.2284769142402795e-05
1.8811188942090401e-06,2.6936480101572447e-06,6.222992972599312e-07,2.2219341770740345e-05
1.8615672693993488e-06,2.6999314869415765e-06,6.184662332813596e-07,2.2140672330719613e-05
1.8404024227938461e-06,2.704767799856377e-06,6.145054069142195e-07,2.204874522094308e-05
1.8176679895967576e-06,2.708154048285167e-06,6.10448514175854e-07,2.1943663708608882e-05
1.7934153761456826e-06,2.7100711550405565e-06,6.06331272902608e-07,2.1825624437110013e-05
1.7677051805862488e-06,2.7104892284535925e-06,6.02194217610211e-07,2.169484997724212e-05
1.740608282391081e-06,2.709375315530413e-06,5.980803039134761e-07,2.15515448842176e-05
1.7122072851344705e-06,2.70670641495168e-06,5.940386145368297e-07,2.1395893553251842e-05
1.6825968387845022e-06,2.7024904339355863e-06,5.901341747389326e-07,2.122812206559011e-05
1.65188143970884e-06,2.696777045815007e-06,5.864509627453768e-07,2.104862369022279e-05
1.6201717638252345e-06,2.689644143073661e-06,5.830845344491196e-07,2.0858040383289475e-05
1.5875815512060875e-06,2.681182011560501e-06,5.801310944664449e-07,2.065720730145942e-05
1.554228417945665e-06,2.6715064182856343e-06,5.776766316233348e-07,2.04470123090538e-05
1.5202381681475568e-06,2.6607947968825183e-06,5.757890210257212e-07,2.022827724912729e-05
1.4857454365812485e-06,2.649306282641042e-06,5.745169395064271e-07,2.0001706562894642e-05
1.4508879109939929e-06,2.6373582134163466e-06,5.738939588958364e-07,1.9767903104141558e-05
1.4158005953772232e-06,2.6252736800326822e-06,5.739430704596229e-07,1.9527442147861717e-05
1.3806155856266511e-06,2.6133375490702387e-06,5.746798577242604e-07,1.9280979207149395e-05
1.345463582816014e-06,2.601781714000772e-06,5.761136419934076e-07,1.902938701496985e-05
1.3104712365835168e-06,2.5907897942622133e-06,5.782458330725034e-07,1.8773904604763924e-05
1.2757573622755615e-06,2.580502219461352e-06,5.810676886864607e-07,1.851617555934567e-05
1.2414328149571836e-06,2.571016838817045e-06,5.845599779334286e-07,1.825809320659549e-05
1.2076011478684776e-06,2.5623894004026887e-06,5.886935110864334e-07,1.8001565309490462e-05
1.1743571082838075e-06,2.5546377138227832e-06,5.934297932566032e-07,1.7748342556833726e-05
1.1417857717772327e-06,2.5477504627650318e-06,5.98723453859945e-07,1.7499982980041934e-05
1.1099649291978183e-06,2.5416942368644484e-06,6.045270011029718e-07,1.7258002016314253e-05
1.0789684817128245e-06,2.5364150690017973e-06,6.107968915631195e-07,1.70241129770935e-05
1.0488667598766734e-06,2.531840738727084e-06,6.174986973656262e-07,1.6800318110253852e-05
1.0197228678118832e-06,2.527885713123377e-06,6.246083749571137e-07,1.658877564021419e-05
9.915882551381498e-07,2.524453789667833e-06,6.321088378413388e-07,1.6391594736393762e-05
9.645006602210994e-07,2.521437782160375e-06,6.399837709053151e-07,1.621069108421746e-05
9.38485116840568e-07,2.5187180065011572e-06,6.482123371331514e-07,1.6047720410533512e-05
9.135592689088205e-07,2.5161612155073987e-06,6.567673048415403e-07,1.5904058406919115e-05
8.897421837060622e-07,2.513624129636769e-06,6.656158214987474e-07,1.57808004790962e-05
8.670602427552965e-07,2.510964211513749e-06,6.747213570141889e-07,1.5678765512256078e-05
8.455469676441896e-07,2.508056999746368e-06,6.840447163486213e-07,1.5598488944783857e-05
8.25239725563877e-07,2.5048147364220424e-06,6.935425409547754e-07,1.5540204944445648e-05
8.061741849332752e-07,2.501194075876029e-06,7.031656629157271e-07,1.5503828916260884e-05
7.883772412163255e-07,2.497185747425468e-06,7.128593483361213e-07,1.5488941451992677e-05
7.71861867199339e-07,2.492794472207174e-06,7.225644449908553e-07,1.5494781966182918e-05
7.566252639509006e-07,2.4880221716592117e-06,7.322197003167606e-07,1.5520285579563622e-05
7.426497248471535e-07,2.4828624887939827e-06,7.417658749371329e-07,1.5564184622994873e-05
7.299056122369279e-07,2.4773090534209496e-06,7.511485274915281e-07,1.5625146648417795e-05
7.183550014794033e-07,2.4713696818931384e-06,7.603169256292296e-07,1.5701888763864107e-05
7.079542443577613e-07,2.46507237956454e-06,7.692221233855513e-07,1.579322538586314e-05
6.986548857032687e-07,2.4584574837883373e-06,7.778169905043224e-07,1.5898059298348356e-05
6.904044240385712e-07,2.45156509049917e-06,7.860568590681261e-07,1.6015353386435564e-05
6.831483708538197e-07,2.4444335521556288e-06,7.938998419808971e-07,1.6144099434039544e-05
6.768327905020522e-07,2.437107642274057e-06,8.013079205091775e-07,1.6283283855605524e-05
6.714070191692627e-07,2.429636881598174e-06,8.082496254103635e-07,1.643185236702437e-05
6.668279610031565e-07,2.422064006677424e-06,8.147023231187705e-07,1.6588673905207182e-05
6.630647853296095e-07,2.414421713037857e-06,8.206508630632019e-07,1.675250845004123e-05
6.601001781735618e-07,2.4067360659861493e-06,8.260838649227235e-07,1.6921989506141378e-05
6.579267197405731e-07,2.399022694310943e-06,8.309913388008036e-07,1.709562571180462e-05
6.56540115863499e-07,2.3912781706390725e-06,8.353633747912137e-07,1.7271823672846252e-05
6.559323686220635e-07,2.3834789059355697e-06,8.391888214641611e-07,1.7448928853230885e-05
6.560891864102714e-07,2.375590542520718e-06,8.424547224085084e-07,1.7625261863012402e-05
6.569922830280984e-07,2.367579469176398e-06,8.451465053954239e-07,1.779913465838848e-05
6.586205839274053e-07,2.3594169113042308e-06,8.472492266625789e-07,1.7968858130633492e-05
6.609467680705764e-07,2.3510745657340445e-06,8.487496571502041e-07,1.8132747349722586e-05
6.63933156141586e-07,2.3425215408825937e-06,8.496368051812201e-07,1.8289123150717858e-05
6.675311238506559e-07,2.33373336287388e-06,8.499006634965891e-07,1.8436324340141785e-05
6.716834158449863e-07,2.3247090913207324e-06,8.495319548283993e-07,1.857274504760423e-05
6.763269528438885e-07,2.3154793009505e-06,8.485246486235169e-07,1.869689729350501e-05
6.813949837535356e-07,2.306094964214734e-06,8.468813591180163e-07,1.880749432347265e-05
6.86819015010761e-07,2.2966060215590747e-06,8.446190726224781e-07,1.8903529545791242e-05
6.925322111886661e-07,2.2870462220717683e-06,8.417711022417019e-07,1.898428308770416e-05
6.984740231688885e-07,2.2774300532575358e-06,8.383848658727343e-07,1.9049230681885252e-05
7.04591726598188e-07,2.2677558372402604e-06,8.345169166429562e-07,1.909795073709602e-05
7.108374650428738e-07,2.258009512854948e-06,8.302271354972777e-07,1.9130118239293022e-05
7.171668851943124e-07,2.2481669909568104e-06,8.255784884034782e-07,1.914555014332112e-05
7.235424161740668e-07,2.238195911383868e-06,8.206436551419479e-07,1.91442362127818e-05
7.299344846246282e-07,2.228059111546619e-06,8.155078325194661e-07,1.912633950010426e-05
7.363164261598249e-07,2.2177184783451188e-06,8.102616889120719e-07,1.9092163462238126e-05
7.426588635939536e-07,2.207135519255463e-06,8.049912060935241e-07,1.904211330468418e-05
7.489288327689631e-07,2.196270443233425e-06,7.997709873832134e-07,1.8976726790443955e-05
7.550919039514057e-07,2.185091994795274e-06,7.946614626393621e-07,1.8896743311690123e-05
7.611140949051758e-07,2.173606563232724e-06,7.897096655367371e-07,1.8803070603343358e-05
7.669624298053263e-07,2.1618915373638e-06,7.849538040437945e-07,1.869664719269848e-05
7.726038912967917e-07,2.1501059482127962e-06,7.804283238125741e-07,1.857832572813721e-05
7.780048274373759e-07,2.138466839776406e-06,7.761649713252786e-07,1.8448864799157067e-05
7.831351797348391e-07,2.1272056669439887e-06,7.721905565728378e-07,1.8309086521126306e-05
7.879767591794209e-07,2.1165348837858183e-06,7.685250235669012e-07,1.8160142860761983e-05
7.925283487426075e-07,2.106639810075074e-06,7.651807425302343e-07,1.800366923570579e-05
7.968033359720947e-07,2.0976794330672693e-06,7.621618268244263e-07,1.784170524197435e-05
8.008220909872935e-07,2.08978021476386e-06,7.594640627598241e-07,1.7676497864057094e-05
8.046062077121526e-07,2.083030945146433e-06,7.570784555596501e-07,1.7510323450142372e-05
8.081806585640517e-07,2.0774854418223763e-06,7.549984210588317e-07,1.73453529804064e-05
8.115794856767349e-07,2.0731656354986266e-06,7.532247105003363e-07,1.7183536333167112e-05
8.148462197775574e-07,2.070064271608572e-06,7.517644242855709e-07,1.7026501701106633e-05
8.180276460309645e-07,2.068153581917617e-06,7.50627839648732e-07,1.6875497181561058e-05
8.211654030529595e-07,2.0673984393887642e-06,7.498261680112168e-07,1.6731389359173368e-05
8.242909805430391e-07,2.067769255321887e-06,7.49370815514893e-07,1.6594698251961433e-05
8.27427839482938e-07,2.0692525079484334e-06,7.49273638266002e-07,1.6465649030694185e-05
8.305981443381025e-07,2.071857512586769e-06,7.495438034955622e-07,1.634424206695005e-05
8.338273144427658e-07,2.0756181290994998e-06,7.501811480903227e-07,1.6230332921600402e-05
8.371427367422602e-07,2.0805859689145838e-06,7.511726389405345e-07,1.612369857199788e-05
8.405696027797996e-07,2.0868130096197047e-06,7.524938021337154e-07,1.602408613488024e-05
8.441303934163906e-07,2.094332032509897e-06,7.54111748909761e-07,1.5931260669869418e-05
8.478487692063376e-07,2.10314852391342e-06,7.559875663599125e-07,1.5845047172239447e-05
8.517521402608716e-07,2.113245628862544e-06,7.580774463008368e-07,1.5765344876040773e-05
8.558699909979935e-07,2.124591563919997e-06,7.603327578775009e-07,1.5692123069502575e-05
8.602295637007976e-07,2.137141621872733e-06,7.627004546165989e-07,1.562541396735306e-05
8.648541096579163e-07,2.1508343026125754e-06,7.651259845115467e-07,1.556528640656082e-05
8.697670411772351e-07,2.165585329846009e-06,7.675586910350009e-07,1.5511793820998773e-05
8.74996684289451e-07,2.1812856957290985e-06,7.699552986351127e-07,1.5464917385968182e-05
8.805759600631077e-07,2.1978103193847823e-06,7.722783164014971e-07,1.5424517882814805e-05
8.865375977365488e-07,2.215040121846117e-06,7.744930777429831e-07,1.5390311339646108e-05
8.929075130335107e-07,2.2328870277176757e-06,7.765672409162132e-07,1.5361906915647243e-05
8.996994520817595e-07,2.2512993984590958e-06,7.784706842799631e-07,1.533889210592656e-05
9.069143340143752e-07,2.2702431635363627e-06,7.801736493260128e-07,1.5320868481996367e-05
9.145442855454674e-07,2.289685646803372e-06,7.816454927414395e-07,1.5307403879449755e-05
9.225771528022672e-07,2.309598768684749e-06,7.828566111286739e-07,1.5297972848661475e-05
9.309979085526405e-07,2.3299635842641512e-06,7.837807166219054e-07,1.5291950020538454e-05
9.397876871845072e-07,2.3507621301984662e-06,7.843939030882489e-07,1.5288656388773833e-05
9.489245511988848e-07,2.371965658793544e-06,7.846739533488376e-07,1.5287401980265993e-05
9.583868887136215e-07,2.3935269167428698e-06,7.84603900793575e-07,1.5287482413139906e-05
9.681543970707435e-07,2.4153751109112456e-06,7.841751546590683e-07,1.5288154835292662e-05
9.782039531768957e-07,2.437412931706784e-06,7.83384419587666e-07,1.5288634441919526e-05
9.885041872791276e-07,2.4595171230820054e-06,7.822279071731483e-07,1.528812987464453e-05
9.99014142279451e-07,2.48154603398208e-06,7.806993943728058e-07,1.5285921229582788e-05
1.009687158198771e-06,2.50335482677918e-06,7.787932794990544e-07,1.5281455402932786e-05
1.020474829591637e-06,2.524807756323167e-06,7.765098864898785e-07,1.52743934262896e-05
1.0313262888127491e-06,2.545780578271758e-06,7.738592671606566e-07,1.5264558921809552e-05
1.042184749494651e-06,2.566164513485875e-06,7.708603256276551e-07,1.5251823138415146e-05
1.052985728250389e-06,2.585874627815215e-06,7.675352004466976e-07,1.5236019460102905e-05
1.0636578984429671e-06,2.604846022766917e-06,7.639034434658441e-07,1.521693439019576e-05
1.074125120487345e-06,2.6230184747812947e-06,7.599800579906366e-07,1.5194342741669144e-05
1.0843099275475298e-06,2.640332290579188e-06,7.557757293350999e-07,1.5168041888884408e-05
1.0941392100440228e-06,2.6567426206092152e-06,7.512967939938652e-07,1.5137862135321066e-05
1.1035500750258406e-06,2.6722358523586567e-06,7.465455505538947e-07,1.5103671599486804e-05
1.1124926544140443e-06,2.6868323749357742e-06,7.415211771924203e-07,1.5065459817023694e-05
1.120928029814253e-06,2.700573885553579e-06,7.362213672873101e-07,1.5023478586041941e-05
1.128822627506831e-06,2.7135029522063284e-06,7.306454105911678e-07,1.4978261617260556e-05
1.136142804452523e-06,2.725644065904892e-06,7.247964777881983e-07,1.493049802025065e-05
1.1428525953278604e-06,2.73699283457384e-06,7.186806288815716e-07,1.4880903954750534e-05
1.1489154634375029e-06,2.7475146439074868e-06,7.123051078668733e-07,1.4830156131363757e-05
1.154297436489824e-06,2.757148676982909e-06,7.056785554598704e-07,1.4778921817723584e-05
1.1589682515177618e-06,2.7658137851850443e-06,6.988117669663255e-07,1.4728013874783355e-05
1.1629004423306156e-06,2.7734150493796027e-06,6.917183087232335e-07,1.4678540750711013e-05
1.166067084964076e-06,2.779851207260304e-06,6.84415807741751e-07,1.4631891776964356e-05
1.1684393925847376e-06,2.7850250666068386e-06,6.769264058524721e-07,1.4589591868648415e-05
1.1699866674412714e-06,2.788854446087162e-06,6.692742587346391e-07,1.4553149543649585e-05
1.1706783722818229e-06,2.7912753343964143e-06,6.614815370280114e-07,1.4523945556909353e-05
1.1704867807752123e-06,2.7922351094998336e-06,6.535662340149485e-07,1.4503156994047821e-05
1.1693910213331212e-06,2.791682692961142e-06,6.455424409945983e-07,1.4491711426713822e-05
1.1673811142952009e-06,2.789562320729057e-06,6.374214086392041e-07,1.4490258107822337e-05
1.1644573787781514e-06,2.785813053129958e-06,6.292120926311466e-07,1.4499143114553192e-05
1.1606250097651165e-06,2.780372180396541e-06,6.209208564659976e-07,1.4518399351203643e-05
1.1558891835377182e-06,2.7731789776104734e-06,6.125510263790956e-07,1.45477634857793e-05
1.15025407536303e-06,2.764179871553962e-06,6.041036163763175e-07,1.4586710923675713e-05
1.1437243418006698e-06,2.7533405546732403e-06,5.955801172322521e-07,1.4634493022294366e-05
1.1363083210498623e-06,2.740662317776056e-06,5.869869785665626e-07,1.4690166573026487e-05
1.1280237740802929e-06,2.7261889919667304e-06,5.783388237685819e-07,1.4752626304736221e-05
1.1189033902970536e-06,2.709996806247896e-06,5.696570701065431e-07,1.4820671110843048e-05
1.1089963015631148e-06,2.692175918980391e-06,5.609655516902624e-07,1.489311007210323e-05
1.0983646652737257e-06,2.672820250884294e-06,5.522872542756866e-07,1.4968862155061642e-05
1.087076391644703e-06,2.652032068672789e-06,5.43642958023296e-07,1.504700780888757e-05
1.0751989012803804e-06,2.6299277880506454e-06,5.35051032801553e-07,1.512679677717822e-05
1.062798095660173e-06,2.606630257841127e-06,5.265281231248385e-07,1.5207621637645755e-05
1.0499394389852524e-06,2.582256245687267e-06,5.180898215331242e-07,1.5288963666100283e-05
1.036687410380748e-06,2.5569178237990515e-06,5.097506615136275e-07,1.5370339301282265e-05
1.023104432547885e-06,2.5307373113710492e-06,5.01523516639546e-07,1.5451268428836926e-05
1.009250548118582e-06,2.5038583279514408e-06,4.934190522416629e-07,1.5531252904934853e-05
9.95183329737407e-07,2.476440117957873e-06,4.854464616325481e-07,1.5609761003692746e-05
9.809584705788114e-07,2.448639549167825e-06,4.776156525440926e-07,1.5686238415213094e-05
9.666316570119651e-07,2.420600216375779e-06,4.6994057205881616e-07,1.5760127589096052e-05
9.522593691260357e-07,2.3924640116935937e-06,4.624448292390206e-07,1.583085366358013e-05
9.378971826092643e-07,2.364395405808389e-06,4.551680593863657e-07,1.5897802094616448e-05
9.236000790438904e-07,2.336592860322805e-06,4.4816664213029354e-07,1.5960333773729128e-05
9.094286794663133e-07,2.3092745650359337e-06,4.4150555671676295e-07,1.6017820458660107e-05
8.954569853579882e-07,2.282650375453568e-06,4.3524683721515685e-07,1.606965654101918e-05
8.817744290974855e-07,2.256906306313324e-06,4.294431135465696e-07,1.6115238149480412e-05
8.684796585299215e-07,2.2322128537440044e-06,4.241380006011124e-07,1.615393983878308e-05
8.556689130419471e-07,2.2087375265878918e-06,4.1936811347837283e-07,1.6185119886688388e-05
8.434270724135695e-07,2.1866406118519474e-06,4.151638083147697e-07,1.6208158092094593e-05
8.318270280986015e-07,2.166060523898496e-06,4.115493157963609e-07,1.6222523401722508e-05
8.20933839729737e-07,2.1471141552194425e-06,4.085422852278488e-07,1.62278770769276e-05
8.108081114033346e-07,2.129924449439254e-06,4.0615328469379465e-07,1.6224172307548047e-05
8.015052702361142e-07,2.114651728425284e-06,4.0438546285639683e-07,1.6211665316082826e-05
7.930697551564727e-07,2.1014922939788465e-06,4.0323409965510564e-07,1.619081431960927e-05
7.85529733718146e-07,2.0906407893495607e-06,4.0268781303736757e-07,1.6162143037922546e-05
7.788977263804937e-07,2.082256124948221e-06,4.027317210857456e-07,1.612616541715249e-05
7.731731442830712e-07,2.0764624403613816e-06,4.03350569679771e-07,1.6083391920028805e-05
7.683424755200704e-07,2.073368133365045e-06,4.045318700865404e-07,1.6034357191662552e-05
7.643795167814727e-07,2.073071116921429e-06,4.062682862518639e-07,1.597961245695709e-05
7.612471015300776e-07,2.0756424998285666e-06,4.085564740737599e-07,1.5919700850018148e-05
7.58898429410691e-07,2.0811037794054583e-06,4.1139298273143174e-07,1.5855201068866716e-05
7.572776827011543e-07,2.089417261168083e-06,4.1477066070910603e-07,1.578682676826607e-05
7.563218726987178e-07,2.100495428752771e-06,4.186788204008214e-07,1.5715422361119553e-05
7.559642029314994e-07,2.1142179946346973e-06,4.2310686369356925e-07,1.564182127379099e-05
7.561358837407606e-07,2.1304421728368483e-06,4.2804550121540276e-07,1.5566716119179635e-05
7.567653733206043e-07,2.14900288792713e-06,4.334827948848789e-07,1.5490644262882134e-05
7.577785702434111e-07,2.169711361607708e-06,4.3939937249953564e-07,1.541412867610453e-05
7.591014770129389e-07,2.1923604390807635e-06,4.4576685824787407e-07,1.5337964574381772e-05
7.606643601818566e-07,2.216734064289433e-06,4.5255095593409394e-07,1.526348300656274e-05
7.624081142247854e-07,2.242610623257039e-06,4.5971833110915716e-07,1.5192605418479693e-05
7.642898387626816e-07,2.2697585793989e-06,4.6724257186434477e-07,1.5127701072846696e-05
7.662809138668317e-07,2.2979355970532173e-06,4.7510506990286245e-07,1.5071355963633166e-05
7.683583692412172e-07,2.3268956438022487e-06,4.832917195289907e-07,1.5026122535878132e-05
7.704978570522537e-07,2.3563929000384685e-06,4.917881688146779e-07,1.4994294924104065e-05
7.726730535860129e-07,2.3861778835032083e-06,5.005756778504332e-07,1.4977737851719504e-05
7.748581831908144e-07,2.415998097711269e-06,5.096302533118554e-07,1.4977790240765626e-05
