3.528530233252613e-07,3.5579290941721397e-07,2.614745576149448e-07,1.555530748068875e-05
3.530312958333638e-07,3.532357664153686e-07,2.593764854720027e-07,1.5594813763197415e-05
3.532571422666783e-07,3.508128313769691e-07,2.573080772287063e-07,1.5634871004027302e-05
3.535299643382193e-07,3.4853707315608265e-07,2.552737462942218e-07,1.5674669342703445e-05
3.538471389286025e-07,3.4641664862541553e-07,2.532755366083477e-07,1.5713376791575486e-05
3.542044762899833e-07,3.444557273448573e-07,2.51313659204725e-07,1.5750133309583116e-05
3.545962515707985e-07,3.426558718520857e-07,2.4938826195060017e-07,1.578406647819033e-05
3.5501582308236363e-07,3.4101747613032276e-07,2.475017046941756e-07,1.5814336122469313e-05
3.5545658157717955e-07,3.39541946847362e-07,2.456591116932049e-07,1.5840189299824e-05
3.559116374340097e-07,3.382336780616119e-07,2.438672510996355e-07,1.5861023280449843e-05
3.563732553844917e-07,3.370996631079912e-07,2.4213337233769426e-07,1.5876428944388474e-05
3.5683378392558277e-07,3.361470994570761e-07,2.404641956973009e-07,1.5886149815899354e-05
3.572874935873433e-07,3.35381584763159e-07,2.388654604518944e-07,1.5889977894020012e-05
3.5773074067110076e-07,3.348070368191537e-07,2.3734224604187607e-07,1.5887695232456056e-05
3.581601134786113e-07,3.344254776001176e-07,2.3589939289888712e-07,1.587910176821288e-05
3.585707006348561e-07,3.3423558958422196e-07,2.3454217954963452e-07,1.5864098413638376e-05
3.58955276771707e-07,3.342320405640801e-07,2.3327667578127642e-07,1.5842797306054998e-05
3.5930457655820453e-07,3.344069044091959e-07,2.321088124554613e-07,1.5815596681231886e-05
3.596088275651657e-07,3.347517827638429e-07,2.310433821475852e-07,1.5783145614326503e-05
3.598598611055977e-07,3.352596711330778e-07,2.3008378574629802e-07,1.57462077135392e-05
3.600523272735818e-07,3.359274433183051e-07,2.292314979473701e-07,1.570549876611179e-05
3.601827675090249e-07,3.3675800130553887e-07,2.2848533859044727e-07,1.5661578413740987e-05
3.602473520745812e-07,3.3775948149922406e-07,2.278415708469377e-07,1.5614861428452092e-05
3.6024038686483305e-07,3.389422775474596e-07,2.272948899572288e-07,1.55657309344496e-05
3.6015498954017244e-07,3.403169715113793e-07,2.2683949904490968e-07,1.55146279462073e-05
3.599849634465871e-07,3.418933893410968e-07,2.2646964274451307e-07,1.5462021001806565e-05
3.5972544215810134e-07,3.436786068568752e-07,2.2618025067186999e-07,1.5408296437522894e-05
3.5937243550009007e-07,3.4567439960415696e-07,2.259685490742353e-07,1.5353673029216234e-05
3.589233977315624e-07,3.478766548549141e-07,2.2583570254974327e-07,1.5298187365883284e-05
3.583784609368281e-07,3.5027676561803235e-07,2.2578710267376948e-07,1.5241720744026502e-05
3.577400108869062e-07,3.5286353646995586e-07,2.258321134576901e-07,1.5184031022507252e-05
3.570105733043912e-07,3.556247347963353e-07,2.259839261958663e-07,1.5124795739172796e-05
3.5619145896178475e-07,3.585477064932028e-07,2.2625784217133165e-07,1.506371320029352e-05
3.552838892098211e-07,3.6161856077258843e-07,2.2666768659990825e-07,1.5000672295506653e-05
3.542919036121423e-07,3.6482030970137797e-07,2.272231211087202e-07,1.4935870467357784e-05
3.5322417166222367e-07,3.681322507493438e-07,2.279297593022851e-07,1.4869758355561066e-05
3.5209269754139976e-07,3.715321504779081e-07,2.287902104325419e-07,1.4802887673999633e-05
3.5090980345701735e-07,3.7499980922260265e-07,2.298043006294421e-07,1.4735799031408427e-05
3.496858753483795e-07,3.7852020218900473e-07,2.3097003331824245e-07,1.4668978537712716e-05
3.4842888598930694e-07,3.820854748309843e-07,2.3228544858343534e-07,1.4602909906880008e-05
3.471453900649251e-07,3.856949975264078e-07,2.3374888626948871e-07,1.45382218840614e-05
3.458425558212112e-07,3.893527863840513e-07,2.3535749225187358e-07,1.4475778131549686e-05
3.445300065384805e-07,3.930630691865882e-07,2.371061541219924e-07,1.441659598200743e-05
3.432196443144905e-07,3.968264349158014e-07,2.3898783250743925e-07,1.436168067204526e-05
3.419246248753535e-07,4.006383189097967e-07,2.4099484879821574e-07,1.4311884363121273e-05
3.40659360865521e-07,4.044893517343455e-07,2.4311997204235824e-07,1.4267816570733993e-05
3.3943858935569237e-07,4.0836646720829884e-07,2.453566059066142e-07,1.4229810289922643e-05
3.382745411508512e-07,4.122537762598978e-07,2.476988238716606e-07,1.419793081754373e-05
3.371751642391111e-07,4.1613263692349343e-07,2.5014077637357784e-07,1.4172002647814584e-05
3.3614466486560374e-07,4.19981516202644e-07,2.526749167658958e-07,1.4151643348931527e-05
3.351848988202973e-07,4.237763713320548e-07,2.552911053563188e-07,1.4136303145641547e-05
3.34296796306082e-07,4.274915375072472e-07,2.5797742512822264e-07,1.41253133408061e-05
3.334825021790696e-07,4.3110060620167025e-07,2.607212604220991e-07,1.4117930490574682e-05
3.327479907115138e-07,4.345770769475562e-07,2.635094588295662e-07,1.4113355456700934e-05
3.321026603318105e-07,4.3789515668836925e-07,2.663274006326315e-07,1.4110733712966269e-05
3.315550912273344e-07,4.4103065997395637e-07,2.691585648417835e-07,1.4109160708449945e-05
3.311096874907166e-07,4.4396154058440285e-07,2.71985697709521e-07,1.4107720837383826e-05
3.307672712002105e-07,4.466688041359091e-07,2.747920101779398e-07,1.4105561140196475e-05
3.305288046916833e-07,4.49138164245873e-07,2.7756153097275963e-07,1.4101953622606516e-05
3.303982973534029e-07,4.5135981396908653e-07,2.802798532618876e-07,1.4096324554909115e-05
3.303813546571881e-07,4.5332572237281196e-07,2.829347711787123e-07,1.4088264280938604e-05
3.304825532364303e-07,4.550281768091551e-07,2.8551515436109674e-07,1.407750851233606e-05
3.307054923640695e-07,4.5646036460410575e-07,2.88009373269845e-07,1.4063896224258695e-05
3.310530308988988e-07,4.5761631706407383e-07,2.904051639812429e-07,1.4047350016140682e-05
3.315256826220068e-07,4.5848999007740795e-07,2.926901638489279e-07,1.4027895009060974e-05
3.321208530392134e-07,4.590751254691086e-07,2.948521403649286e-07,1.4005667767291416e-05
3.328345794004834e-07,4.593661993851034e-07,2.968790371840798e-07,1.3980864077769625e-05
3.3366351551352037e-07,4.5935943759711707e-07,2.987591389557952e-07,1.395365377760461e-05
3.3460534911541683e-07,4.590528661088229e-07,3.004817765096548e-07,1.3924140703785834e-05
3.356590343650875e-07,4.584454836075984e-07,3.0203805929955487e-07,1.3892373630123544e-05
3.368254626929753e-07,4.5753633972758093e-07,3.034206870230527e-07,1.3858344993157348e-05
3.381066905782205e-07,4.5632385250892105e-07,3.046236330004713e-07,1.3821962597712848e-05
3.395034073150065e-07,4.54806365328753e-07,3.056425465866933e-07,1.3783049719737487e-05
3.4101258709744026e-07,4.529858748482071e-07,3.064748822856841e-07,1.3741423556990926e-05
3.426267136825779e-07,4.5087275967293243e-07,3.071189564735546e-07,1.3697006999166085e-05
3.443346286714583e-07,4.4848554045297277e-07,3.075727470174764e-07,1.3649861487552596e-05
3.4612305245260786e-07,4.4584587226698647e-07,3.078336718438118e-07,1.3600125013156272e-05
3.47977507311556e-07,4.4297500851357853e-07,3.0789945620348345e-07,1.3547936297376085e-05
3.498823860239761e-07,4.398937693086141e-07,3.077691497709791e-07,1.3493397166497501e-05
3.518211036951636e-07,4.366230962955082e-07,3.0744370062414277e-07,1.343658884689368e-05
3.5377774556093286e-07,4.3318344062926597e-07,3.069261432511708e-07,1.3377630731714798e-05
3.557406759269907e-07,4.2959389032592393e-07,3.06221496673066e-07,1.3316749104371091e-05
3.577054891652276e-07,4.258719406754848e-07,3.053364614353093e-07,1.3254343177983134e-05
3.596737337966764e-07,4.220333819185781e-07,3.042791134385807e-07,1.3191046292523112e-05
3.6164820200383156e-07,4.180919511623977e-07,3.030585761714281e-07,1.3127760471335714e-05
3.636292033909761e-07,4.140593246284028e-07,3.0168416078373104e-07,1.3065629214433831e-05
3.6561350374015756e-07,4.099460330822967e-07,3.0016403992265933e-07,1.3005939672374147e-05
3.675941263357471e-07,4.057642392366269e-07,2.9850467643111547e-07,1.294998370284611e-05
3.695604282987244e-07,4.0153098327698066e-07,2.9671169315032105e-07,1.2898918605468375e-05
3.7149880402442003e-07,3.9726759194385094e-07,2.9479169717398117e-07,1.2853689445379702e-05
3.7339371143862976e-07,3.9299594109055844e-07,2.927539132822628e-07,1.2815059891182503e-05
3.7522910803404633e-07,3.887363356683122e-07,2.906100399886209e-07,1.2783692241542205e-05
3.769893231136858e-07,3.845072594779972e-07,2.883725959896813e-07,1.2760176883077365e-05
3.786581895779375e-07,3.803254378745778e-07,2.8605416721682177e-07,1.2745005118490798e-05
3.8021792563245726e-07,3.7620701121517847e-07,2.8366808323169806e-07,1.2738523392163749e-05
3.8164952827164973e-07,3.721689855601911e-07,2.812285937224017e-07,1.2740883792573515e-05
3.829345514596446e-07,3.682289230382946e-07,2.787496290157465e-07,1.2752026984826082e-05
3.8405692725281687e-07,3.644039556584908e-07,2.7624353743678896e-07,1.2771709081430662e-05
3.850036870186197e-07,3.6071050474413293e-07,2.737211728995337e-07,1.2799533158709533e-05
3.85765345685214e-07,3.57163515188397e-07,2.7119310445588607e-07,1.283498410582928e-05
3.8633681912124795e-07,3.5377521795946566e-07,2.686709056580651e-07,1.2877483303568907e-05
3.867178375018739e-07,3.505554433767308e-07,2.661671516838311e-07,1.2926438564038395e-05
3.8691161572089656e-07,3.475128787107177e-07,2.636941688071548e-07,1.2981266100313749e-05
3.8692263348510106e-07,3.44654748188444e-07,2.612631337248292e-07,1.3041398478118773e-05
3.86755819531571e-07,3.419854805051137e-07,2.5888421879782875e-07,1.3106287670250474e-05
3.864169498171045e-07,3.395063942509162e-07,2.5656732298495225e-07,1.3175384802979655e-05
3.8591192461928774e-07,3.37216407186465e-07,2.5432225343688364e-07,1.3248111157240602e-05
3.852453272000733e-07,3.3511241838644515e-07,2.5215818862656414e-07,1.3323864138759344e-05
3.8442020115711454e-07,3.331886516716966e-07,2.5008373890825054e-07,1.3402046611665665e-05
3.834386923216422e-07,3.31436174346248e-07,2.481076120227984e-07,1.348207028656368e-05
3.823026310806757e-07,3.298440818717478e-07,2.462383342672512e-07,1.3563321519880961e-05
3.8101370779618825e-07,3.284027860234261e-07,2.444826341032036e-07,1.3645113911908507e-05
3.795727780157722e-07,3.2710761515126097e-07,2.4284406891908327e-07,1.3726662897604324e-05
3.7797942398455576e-07,3.2595877591269017e-07,2.413231639971049e-07,1.3807106617875066e-05
3.7623302169602643e-07,3.249576700655438e-07,2.3991844576054375e-07,1.3885558945041105e-05
3.743337899029389e-07,3.241041696199927e-07,2.386273987315126e-07,1.3961164962992206e-05
3.7228270554718923e-07,3.233967262956975e-07,2.3744737612791162e-07,1.4033137098735587e-05
3.7008177954268716e-07,3.228332322733259e-07,2.363759693775072e-07,1.4100749707310296e-05
3.677352838815687e-07,3.224109473597109e-07,2.354102421694365e-07,1.4163295751542019e-05
3.6525037852994157e-07,3.221264713006567e-07,2.3454633199674602e-07,1.4220044723497339e-05
3.6263650206297313e-07,3.2197729028978627e-07,2.3378015209200645e-07,1.4270231557897006e-05
3.59904741912164e-07,3.2196322458741486e-07,2.331075636502529e-07,1.4313080912943534e-05
3.570672069722385e-07,3.220856503186943e-07,2.3252361625383855e-07,1.4347856770338244e-05
3.5413568553512935e-07,3.223468406672977e-07,2.3202222451455621e-07,1.4373898709426346e-05
3.511210306327619e-07,3.227518021660393e-07,2.3159662657642712e-07,1.439061452576722e-05
3.480337584194223e-07,3.233097172594061e-07,2.3123940733532162e-07,1.4397463090387432e-05
3.448841462758633e-07,3.24031756873732e-07,2.3094183287875825e-07,1.4393959270953134e-05
3.416820017548884e-07,3.2492686085607426e-07,2.3069370712413936e-07,1.4379690782888541e-05
3.384374515906273e-07,3.25999354716272e-07,2.3048391537808975e-07,1.4354363953020115e-05
3.3516166026011125e-07,3.272496475371499e-07,2.303008544016877e-07,1.431788458592478e-05
3.3186560435521693e-07,3.2867541382536557e-07,2.3013268874225568e-07,1.4270392631237219e-05
3.28558072857111e-07,3.302722755201717e-07,2.2996780149536147e-07,1.4212189673765064e-05
3.252453008926608e-07,3.320355192394082e-07,2.2979517029822215e-07,1.4143627327090475e-05
3.219321362868539e-07,3.3396070751998355e-07,2.296043405883986e-07,1.4065049509320887e-05
3.1862318443778007e-07,3.360415152603649e-07,2.2938543159890729e-07,1.3976800943106756e-05
3.153236882324657e-07,3.38267941992088e-07,2.2912926672989512e-07,1.3879284705188196e-05
3.1204043615537424e-07,3.406265860380746e-07,2.2882757091959648e-07,1.3773035303584736e-05
3.0878195288683855e-07,3.431024609198329e-07,2.2847357599462024e-07,1.3658728035804347e-05
3.055579220636048e-07,3.4568138607698164e-07,2.2806242698154287e-07,1.3537101305680805e-05
3.023783564301406e-07,3.4835051215741337e-07,2.275906759185748e-07,1.3408869719785784e-05
2.992525011084542e-07,3.5109714400328805e-07,2.2705575523073329e-07,1.3274676954571708e-05
2.961880493493441e-07,3.53908520477131e-07,2.264566194049305e-07,1.3135071131685747e-05
2.9319064261641694e-07,3.567723029141302e-07,2.2579480312771805e-07,1.2990498298406468e-05
2.902633260732137e-07,3.596762827713337e-07,2.2507399374482502e-07,1.2841332073588265e-05
2.874067842961336e-07,3.626073202098136e-07,2.242983826763654e-07,1.2687973649181867e-05
2.8462003149435053e-07,3.655503544583232e-07,2.234717253436244e-07,1.2531042451804539e-05
2.819003997084963e-07,3.68488592471717e-07,2.2259732870913163e-07,1.2371547773558435e-05
2.79243356528997e-07,3.714048961625246e-07,2.2167841035482783e-07,1.2210876839740586e-05
2.766429409274578e-07,3.742836299222287e-07,2.2071886968339442e-07,1.2050623118792372e-05
2.7409233124131204e-07,3.771118833832703e-07,2.1972388572436362e-07,1.1892404517251458e-05
2.7158409128336144e-07,3.7987874608550574e-07,2.187000817503963e-07,1.1737742436559335e-05
2.6911092003368587e-07,3.8257371266129814e-07,2.1765549588173093e-07,1.1588052367506278e-05
2.6666803516418967e-07,3.851870371047143e-07,2.1659886468462648e-07,1.144479616163347e-05
2.6425581508649866e-07,3.8771254462799074e-07,2.1553874842872786e-07,1.1309672330909638e-05
2.6187946928972417e-07,3.901502659627335e-07,2.1448348375136887e-07,1.1184640329145068e-05
2.595456731209132e-07,3.925058808092821e-07,2.1344111084309426e-07,1.1071773428207954e-05
2.5725956341271947e-07,3.947874093058297e-07,2.1241893289856888e-07,1.097307336448208e-05
2.550240673151504e-07,3.970024662715632e-07,2.114234459338023e-07,1.0890311241293693e-05
2.5284104699794194e-07,3.9915720119818093e-07,2.1046012239090852e-07,1.08249013367627e-05
2.507137730442641e-07,4.012559277950889e-07,2.0953294815261535e-07,1.0777843963002664e-05
2.4864991784044923e-07,4.0330096646336665e-07,2.086450597554165e-07,1.0749761336313983e-05
2.466621703733717e-07,4.052921405217907e-07,2.0780013691267648e-07,1.074096655294374e-05
2.4476532465583037e-07,4.0722588169923037e-07,2.0700239497520228e-07,1.0751504837619065e-05
2.429731772618453e-07,4.090951901940875e-07,2.0625509556270693e-07,1.0781185063698512e-05
2.412974687560579e-07,4.108915948823252e-07,2.055597903430896e-07,1.0829625051820766e-05
2.3974812384411193e-07,4.126076369678578e-07,2.049173385950552e-07,1.0896285560640007e-05
2.383340072764729e-07,4.142370545870708e-07,2.0432959422021392e-07,1.0980475762383787e-05
2.3706293004861995e-07,4.157730731189367e-07,2.037999897999433e-07,1.1081357221312688e-05
2.359408264126832e-07,4.1720703254006095e-07,2.033325801418732e-07,1.1197969151410028e-05
2.3497211298267196e-07,4.1852781360667616e-07,2.0293125777428172e-07,1.1329262028828081e-05
2.341606829930255e-07,4.19721869080736e-07,2.025999516938366e-07,1.1474121823393587e-05
2.3350931901028748e-07,4.2077426665154853e-07,2.023421975188032e-07,1.1631390046731802e-05
2.330185644125308e-07,4.2167031607171137e-07,2.0215968872462227e-07,1.1799882153464385e-05
2.326870180902493e-07,4.22396257876985e-07,2.0205168134069592e-07,1.1978376902974347e-05
2.325124343848555e-07,4.229391991384583e-07,2.020160824211314e-07,1.2165575775760267e-05
2.3249271555818692e-07,4.232883444376375e-07,2.0205082702056307e-07,1.236009620540928e-05
2.326271994306852e-07,4.2343670010252e-07,2.021542417710871e-07,1.2560537589364861e-05
2.3291773066753782e-07,4.233809061934261e-07,2.0232475494252208e-07,1.2765583455978524e-05
2.33368114925273e-07,4.2312128286915076e-07,2.0256064939190108e-07,1.297410427604224e-05
2.3398249326907118e-07,4.226633686299073e-07,2.0285989972477968e-07,1.3185240930226865e-05
2.3476426371264934e-07,4.2201737299368e-07,2.0322017743084574e-07,1.3398422271878191e-05
2.3571593113561358e-07,4.2119532315589865e-07,2.036397721313036e-07,1.3613300413111627e-05
2.368391922799861e-07,4.2020899166543726e-07,2.0411922986477467e-07,1.382964772282869e-05
2.381340476094604e-07,4.1906921773389896e-07,2.0466148358182443e-07,1.4047258732235744e-05
2.395972250217648e-07,4.1778685763440424e-07,2.052699533019371e-07,1.426588046350546e-05
2.4122198209894163e-07,4.1637491750156406e-07,2.05946993860102e-07,1.4485202897422321e-05
2.4299956411782625e-07,4.1484932129816985e-07,2.066941843087286e-07,1.4704931046427194e-05
2.449206199635272e-07,4.132274875113587e-07,2.075134196100482e-07,1.4924877013127524e-05
2.4697577175843956e-07,4.1152660372341367e-07,2.084065617245259e-07,1.5144981448395211e-05
2.491557990625673e-07,4.097626929829026e-07,2.0937343981168566e-07,1.5365259813403406e-05
2.514519645496941e-07,4.079495852142466e-07,2.1041085349036983e-07,1.558570069552491e-05
2.5385596371601124e-07,4.060975666003785e-07,2.1151399425998922e-07,1.5806149359353726e-05
2.563586965792912e-07,4.042130738019316e-07,2.1267834336475327e-07,1.602624587373439e-05
2.5894910813876e-07,4.022999694516603e-07,2.1390025656130468e-07,1.6245438864694058e-05
2.61614755996628e-07,4.0036063943210423e-07,2.1517733196358852e-07,1.6463048858169082e-05
2.643434640957536e-07,3.9839550801816656e-07,2.165090029245697e-07,1.6678371519617888e-05
2.6712440521519387e-07,3.964026005221172e-07,2.1789549990191803e-07,1.6890773492465522e-05
2.699477619357685e-07,3.9437885463777387e-07,2.1933579570478702e-07,1.7099710160600085e-05
2.7280440268741625e-07,3.923219206410829e-07,2.208272092296888e-07,1.7304662038690012e-05
2.756873515865907e-07,3.9023068048102863e-07,2.2236608633869747e-07,1.750505071148678e-05
2.7859307972488646e-07,3.881050981356564e-07,2.2394763235253853e-07,1.7700230092483864e-05
2.815203608185796e-07,3.859467969009525e-07,2.255656128677681e-07,1.7889601452909728e-05
2.844684029939501e-07,3.837593357074192e-07,2.2721256607464854e-07,1.8072722948018506e-05
2.8743603702145345e-07,3.8154705333240974e-07,2.2887997086392924e-07,1.8249255904983318e-05
2.90421298155497e-07,3.793143978259553e-07,2.3055870030060076e-07,1.841881880183837e-05
2.93420821431106e-07,3.7706655981557863e-07,2.32239631493366e-07,1.858089792461905e-05
2.964292835931318e-07,3.7481026735113615e-07,2.3391375322098533e-07,1.873483445114524e-05
2.994392104127768e-07,3.725552272915198e-07,2.3557225307686449e-07,1.8879871471853807e-05
3.024411607351259e-07,3.703155812723474e-07,2.372070897127224e-07,1.901526002927723e-05
3.054238726212252e-07,3.6810857361088243e-07,2.3881140506874717e-07,1.91404011988728e-05
3.0837442337174413e-07,3.659510534645471e-07,2.403797125134563e-07,1.9254980923931528e-05
3.1127859041186727e-07,3.638584150810154e-07,2.4190901984732657e-07,1.9359040080835944e-05
3.141214399239229e-07,3.618466377477454e-07,2.4339986334043297e-07,1.945294230480337e-05
3.168883855045736e-07,3.5993252613290977e-07,2.448551707847742e-07,1.9537262418317324e-05
3.195661881047151e-07,3.581310797923814e-07,2.4627817510432344e-07,1.9612654133152174e-05
3.221436538368802e-07,3.564541582888425e-07,2.476718036210873e-07,1.9679726862655072e-05
3.2461272089972444e-07,3.549112494546597e-07,2.490395939721005e-07,1.9738947317091683e-05
3.269689693732057e-07,3.5350985449450175e-07,2.503863715851678e-07,1.9790611150148228e-05
3.292099008348742e-07,3.5225499074054607e-07,2.5171741840767445e-07,1.9834908092521606e-05
3.3133229621136586e-07,3.511484114941825e-07,2.53036748833128e-07,1.987203145810899e-05
3.333312401883348e-07,3.5018821854078933e-07,2.543469604804269e-07,1.990227099667741e-05
3.352005264841933e-07,3.4936988484927225e-07,2.556516129318712e-07,1.9926081405264506e-05
3.369328934781061e-07,3.4868805892318865e-07,2.5695633071699774e-07,1.994409570658846e-05
3.3852041708658045e-07,3.481372949897976e-07,2.5826632516020464e-07,1.995702791338813e-05
3.399555999893623e-07,3.477119770310007e-07,2.595842964100044e-07,1.9965534006505606e-05
3.412322939580608e-07,3.474069996617969e-07,2.609110441786098e-07,1.9970155729719708e-05
3.4234559457076987e-07,3.4721866604446784e-07,2.6224645639086125e-07,1.9971397869244115e-05
3.432912561290966e-07,3.4714427442549526e-07,2.635900199888541e-07,1.9969894820135918e-05
3.440659243246231e-07,3.471801699289322e-07,2.649415536464896e-07,1.996648129187665e-05
3.446681076224288e-07,3.473195521668137e-07,2.663017031848752e-07,1.9962051411901466e-05
3.450986572805227e-07,3.475517371656759e-07,2.676716337977037e-07,1.9957347074211773e-05
3.453606974693168e-07,3.478627388378033e-07,2.6905199130536524e-07,1.995284732301142e-05
3.454589967542207e-07,3.4823611732422097e-07,2.7044206601652943e-07,1.994880003834414e-05
3.4539807421646627e-07,3.4865418800600217e-07,2.718397798568124e-07,1.994536329677082e-05
3.451802189025834e-07,3.490996652899981e-07,2.7324158426666234e-07,1.994276230073671e-05
3.448049893256989e-07,3.4955734844620555e-07,2.746421578783146e-07,1.994133860230722e-05
3.442701637971493e-07,3.500154502697229e-07,2.760346306083567e-07,1.9941453493828838e-05
3.4357408727211807e-07,3.504660361537097e-07,2.7741137497736845e-07,1.9943356904167413e-05
3.4271791473330257e-07,3.5090483553151695e-07,2.7876567546824546e-07,1.9947181948836068e-05
3.4170543272369045e-07,3.513319368052085e-07,2.8009303868825945e-07,1.995306913214848e-05
3.405418586791133e-07,3.5175429571697567e-07,2.813899257644606e-07,1.996127787061268e-05
3.392338390853829e-07,3.5218792021211717e-07,2.826517025012573e-07,1.9972199707090367e-05
3.377897016481745e-07,3.526561588407861e-07,2.8387310234346804e-07,1.998629922836512e-05
3.362189119527379e-07,3.531841367344389e-07,2.8505065024422803e-07,2.000406015304828e-05
3.3453109275031085e-07,3.5379325587664326e-07,2.861845953211668e-07,2.0025970021880425e-05
3.327352115733664e-07,3.5449871262307356e-07,2.8727881983419253e-07,2.0052498046428664e-05
3.3083906606286484e-07,3.553096099304261e-07,2.883384878973537e-07,2.008403573549132e-05
3.288490775669824e-07,3.562295018469864e-07,2.893672495177095e-07,2.0120824054436227e-05
3.2677091703000476e-07,3.5725626215062094e-07,2.9036600371932725e-07,2.0162931034189097e-05
3.2461030080933873e-07,3.58382203952884e-07,2.913332906110806e-07,2.0210346001435542e-05
3.223726141977497e-07,3.595953677999944e-07,2.922668203830851e-07,2.026315194520057e-05
3.200618803139904e-07,3.608812765453301e-07,2.931650465758484e-07,2.032160260610155e-05
3.176803140372785e-07,3.6222371221928745e-07,2.940274483722377e-07,2.038600963907836e-05
3.152289926350613e-07,3.63604541805742e-07,2.94853946163341e-07,2.045657410717863e-05
3.12709448768023e-07,3.650047784210017e-07,2.9564428342626e-07,2.0533283167629486e-05
3.101250110460635e-07,3.664073386782419e-07,2.963975364133089e-07,2.0615878486874924e-05
3.0748135488371925e-07,3.677984177262126e-07,2.9711205028100897e-07,2.0703982689257094e-05
3.0478689237100003e-07,3.691662016311909e-07,2.977855834644991e-07,2.0797413777886748e-05
3.020528744192759e-07,3.704990356935352e-07,2.984150970778257e-07,2.0896437132299828e-05
2.9929254472698137e-07,3.717841210730903e-07,2.9899648758636245e-07,2.1001704163313587e-05
2.965194657398497e-07,3.730069295046982e-07,2.995248033632477e-07,2.1113967753743704e-05
2.937458579557473e-07,3.741520223635171e-07,2.999947119624901e-07,2.123383325094397e-05
2.9098183798431695e-07,3.75204337974527e-07,3.0040073288507084e-07,2.1361650375957063e-05
2.882357560334757e-07,3.7614958497228007e-07,3.007379157719498e-07,2.1497490967968427e-05
2.855148865383832e-07,3.769741844441271e-07,3.010034027711796e-07,2.164114591113935e-05
2.828256920372659e-07,3.776659702599654e-07,3.011968194178601e-07,2.1792120746683232e-05
2.8017392804297883e-07,3.7821618022759534e-07,3.0131852436076477e-07,2.1949639142621067e-05
2.775648441085471e-07,3.786207158485655e-07,3.013679039564177e-07,2.2112666396603092e-05
2.7500283234107043e-07,3.7887859381116173e-07,3.013430768023713e-07,2.227993740397368e-05
2.724905568135504e-07,3.789895340350953e-07,3.012415016590313e-07,2.244996993804692e-05
2.7002860698529664e-07,3.7895279497257383e-07,3.010607906245421e-07,2.2621089225353542e-05
2.676161873260789e-07,3.787667849894987e-07,3.0079893613439194e-07,2.2791492753099685e-05
2.6525254446354353e-07,3.784297075443056e-07,3.00453553910243e-07,2.2959323012745656e-05
2.629383071596933e-07,3.7794200224749754e-07,3.0002096469354037e-07,2.3122697016035137e-05
2.606753416926413e-07,3.7730827068301625e-07,2.994960823109609e-07,2.3279701349842625e-05
2.5846540898481204e-07,3.765356255291866e-07,2.988732256074325e-07,2.34283974618104e-05
2.5631010173014e-07,3.756301177744809e-07,2.981477660515355e-07,2.3566862668251244e-05
2.542120068978289e-07,3.74595303141464e-07,2.9731753137474533e-07,2.369326594203067e-05
2.521747812269547e-07,3.734336406188268e-07,2.963824236652888e-07,2.3805938871761138e-05
2.502026162001864e-07,3.721479862323613e-07,2.9534319014908884e-07,2.3903396350091685e-05
2.483010056102189e-07,3.707416785600376e-07,2.9420125066598506e-07,2.398431046496824e-05
2.4647780958432146e-07,3.692190130608485e-07,2.9295962804373133e-07,2.404746942938473e-05
2.447425664681423e-07,3.675861830313795e-07,2.916237824022432e-07,2.4091765559521924e-05
2.4310489361407037e-07,3.658504389153606e-07,2.9020131878471515e-07,2.411624270136296e-05
2.415735496690973e-07,3.6401882745860585e-07,2.887007051958886e-07,2.412014693140704e-05
2.401560920239521e-07,3.620988052399902e-07,2.871303318188605e-07,2.4102902017612266e-05
2.3885850870049037e-07,3.600993336853725e-07,2.854990028420995e-07,2.406403949282868e-05
2.376845221452261e-07,3.580311726444933e-07,2.838167585277833e-07,2.4003159187599226e-05
2.366353493277433e-07,3.559066756146997e-07,2.8209480472753054e-07,2.3919936279005005e-05
2.3571047387522888e-07,3.537385436015547e-07,2.803457382965901e-07,2.381414883472791e-05
2.3490864166280174e-07,3.51538022415172e-07,2.785841645208059e-07,2.3685695110133818e-05
2.3422880499527287e-07,3.49314986502138e-07,2.7682576086358963e-07,2.353460940797287e-05
2.3367103223956451e-07,3.4707974411142113e-07,2.750850008444558e-07,2.336109966677955e-05
2.3323611779643727e-07,3.448434478768928e-07,2.733735426770303e-07,2.3165565186410283e-05
2.329237119715621e-07,3.42616460201136e-07,2.7169992568609057e-07,2.2948560918966908e-05
2.3273127885086442e-07,3.404069691296475e-07,2.7007013198512365e-07,2.2710773332655614e-05
2.3265489886165728e-07,3.38221282250737e-07,2.684884666386569e-07,2.245308302646741e-05
2.3269034634208798e-07,3.360656957490085e-07,2.669583262343509e-07,2.217666857354764e-05
2.328336204101405e-07,3.339490647489455e-07,2.654824965632585e-07,2.1883034474051205e-05
2.3308148357898212e-07,3.3188430501497605e-07,2.6406290763314925e-07,2.1573933877119727e-05
2.3343183061089211e-07,3.298878151079212e-07,2.627007672649596e-07,2.125124565535784e-05
2.3388368627071523e-07,3.279780672974509e-07,2.6139750757789284e-07,2.091685944454464e-05
2.34436922476574e-07,3.2617541629867877e-07,2.6015514031888537e-07,2.057259152511837e-05
2.3509095766032372e-07,3.245033198445172e-07,2.5897508131688234e-07,2.0220136613041144e-05
2.358429444102883e-07,3.2298821642032337e-07,2.578567537645389e-07,1.9861066956807606e-05
2.3668724545392972e-07,3.216561940151729e-07,2.5679761342426117e-07,1.9496910552450125e-05
2.3761619549671674e-07,3.205289346182658e-07,2.5579462167600013e-07,1.912932737726132e-05
2.3862077175093213e-07,3.1962162147849733e-07,2.548456839931855e-07,1.8760287931461903e-05
2.3969062166011445e-07,3.1894225947320836e-07,2.539496350361031e-07,1.839207176392988e-05
2.408137287915655e-07,3.184915742312709e-07,2.5310503973671196e-07,1.802705609297424e-05
2.4197636930855945e-07,3.1826415217623354e-07,2.5230902473764496e-07,1.7667457030670967e-05
2.431642727572849e-07,3.1825075010766985e-07,2.515571857480617e-07,1.7315195585042935e-05
2.4436448372762773e-07,3.184399870894969e-07,2.508449588664103e-07,1.6971994573308724e-05
2.455663264618764e-07,3.188189255810863e-07,2.5016939593473246e-07,1.663966744419642e-05
2.4676214224459337e-07,3.193739295444096e-07,2.495297450331909e-07,1.6320362855418218e-05
2.47949175656048e-07,3.200917376413359e-07,2.489264542352658e-07,1.601657423864347e-05
2.4913079439334503e-07,3.209596333043781e-07,2.483600677382397e-07,1.573097771555097e-05
2.503150643109179e-07,3.2196516253018136e-07,2.4783126011710784e-07,1.5466239782231953e-05
2.51512211044452e-07,3.230971723308772e-07,2.473410946989404e-07,1.5224847393933488e-05
2.527325676723064e-07,3.243475428479581e-07,2.468912321372434e-07,1.5008987009932855e-05
2.539849542090692e-07,3.2571019027410587e-07,2.464846516401231e-07,1.4820482208682586e-05
2.552764534237693e-07,3.2717772323129547e-07,2.461256687109168e-07,1.4660751583059803e-05
2.5661345858138506e-07,3.2873986462822237e-07,2.4581889531919195e-07,1.4530773349337446e-05
2.58001589998237e-07,3.303847429241006e-07,2.4556867319725666e-07,1.443108856883114e-05
2.594445892960619e-07,3.321008447754702e-07,2.4537917359753665e-07,1.4361831879574832e-05
2.609445701516545e-07,3.338773816273345e-07,2.4525436781671485e-07,1.4322744614953455e-05
2.625028745155675e-07,3.357026969730619e-07,2.451979782481926e-07,1.4313171605976836e-05
2.6411952788922074e-07,3.375624987042921e-07,2.452131717098281e-07,1.4332072074556146e-05
2.657926422086658e-07,3.394395719834098e-07,2.45301428592021e-07,1.4378075221578754e-05
2.6751879644025557e-07,3.413143708894751e-07,2.45461556203267e-07,1.444959562217848e-05
2.6929335636702763e-07,3.431654032433936e-07,2.456896439701651e-07,1.4544968730539725e-05
2.711107339097013e-07,3.449697211706307e-07,2.459793608569524e-07,1.466254631132135e-05
2.7296431018273946e-07,3.46703548519567e-07,2.463223493532191e-07,1.4800736540562638e-05
2.748454775310723e-07,3.483429101614094e-07,2.4670875036025284e-07,1.4958013179020868e-05
2.7674312670611037e-07,3.49864718930116e-07,2.4712776236466123e-07,1.5132913425317475e-05
2.7864461809295936e-07,3.5124839248544397e-07,2.4756820631249427e-07,1.5324022130021998e-05
2.8053765230710985e-07,3.52478966204921e-07,2.480186553851433e-07,1.5529940452513638e-05
2.8241253663784645e-07,3.535513412740577e-07,2.4846694381384485e-07,1.574924608831177e-05
2.8426357571876037e-07,3.5447127494838545e-07,2.488998906933892e-07,1.5980443676406052e-05
2.860877472197681e-07,3.5525128275232466e-07,2.493039509147177e-07,1.6221907965962408e-05
2.8788189250203054e-07,3.559057992289285e-07,2.496658970306411e-07,1.6471853933757573e-05
2.896412561568379e-07,3.564494644036021e-07,2.499725661349045e-07,1.6728354341063913e-05
2.9135961805308316e-07,3.568975623081825e-07,2.502108503097127e-07,1.6989370241253315e-05
2.930295288853063e-07,3.572665082325096e-07,2.503688761988081e-07,1.7252771038436433e-05
2.9464223958038816e-07,3.57574711400203e-07,2.504369020255029e-07,1.751637637288486e-05
2.9618824604361394e-07,3.578435932882085e-07,2.504070795564965e-07,1.777804701510899e-05
2.976585363582597e-07,3.580962015116163e-07,2.502733197580994e-07,1.803577257654849e-05
2.9904518257208945e-07,3.5835413750629547e-07,2.500318725560969e-07,1.8287672673952147e-05
3.003407975836051e-07,3.5863762544064327e-07,2.4968225124535623e-07,1.853194191751419e-05
3.0153791815584787e-07,3.5896839941552075e-07,2.492279640110724e-07,1.8766854310743827e-05
3.026290681193645e-07,3.593699782348368e-07,2.486759284402749e-07,1.8990827930149466e-05
3.036070967361223e-07,3.5986502110405445e-07,2.4803440791304014e-07,1.9202444634593128e-05
3.0446518195874644e-07,3.6047291514428437e-07,2.473109302764894e-07,1.9400404704809992e-05
3.051970481066064e-07,3.612084944506962e-07,2.4651157917089987e-07,1.9583478053860385e-05
3.057981437456052e-07,3.6208281549433946e-07,2.456418837784905e-07,1.97504888329411e-05
3.0626686882878465e-07,3.631056114598559e-07,2.447080844775688e-07,1.990035415024865e-05
3.066045734986978e-07,3.642870507020705e-07,2.437179482382768e-07,2.0032179076452493e-05
3.068145527473086e-07,3.65638796483365e-07,2.4268193356906185e-07,2.0145351669013172e-05
3.069009963231795e-07,3.6717532420766703e-07,2.4161432125903184e-07,2.0239563450662688e-05
3.068683532959861e-07,3.6891364554259144e-07,2.4053231114025724e-07,2.0314748569699898e-05
3.06721096311764e-07,3.7086935792767354e-07,2.39453787592181e-07,2.037098896591685e-05
3.0646355111522827e-07,3.730516789041168e-07,2.3839675589204489e-07,2.04084495465528e-05
3.060997511742724e-07,3.7546209298879473e-07,2.3738010409857267e-07,2.0427457064689864e-05
3.0563399032784726e-07,3.7809585178581524e-07,2.3642283228353586e-07,2.042871568495028e-05
3.0507161911415104e-07,3.8094301704363433e-07,2.3554214882661552e-07,2.041339199143509e-05
3.044187829672481e-07,3.8398959108134453e-07,2.347531142547185e-07,2.038292754574497e-05
3.0368217566252215e-07,3.872193805866661e-07,2.3406970829848399e-07,2.033881069368289e-05
3.0286991654396617e-07,3.9061461581322854e-07,2.3350515178191577e-07,2.028250368859465e-05
3.019919001063777e-07,3.9415510905884314e-07,2.330708254978055e-07,2.021544794548921e-05
3.0105898104031525e-07,3.9781773086497715e-07,2.3277468813738623e-07,2.0139050815196782e-05
3.0008172633910444e-07,4.015767425878369e-07,2.326204499237269e-07,2.005465114805201e-05
2.990688496760945e-07,4.0540456140845426e-07,2.3260830717165013e-07,1.99634744924064e-05
2.9802661487470215e-07,4.0927282212428645e-07,2.327365935383741e-07,1.986658321283253e-05
2.969601716860312e-07,4.1315325495474855e-07,2.3300262292100353e-07,1.9764829561905764e-05
2.9587452260234764e-07,4.170179397073701e-07,2.3340273213252487e-07,1.9658836950420346e-05
2.9477332335584396e-07,4.2083987424604213e-07,2.3393295216454549e-07,1.9549025502058827e-05
2.936577391503286e-07,4.245948186160734e-07,2.3458965656250077e-07,1.943565245565178e-05
2.9252755682352864e-07,4.282636825348554e-07,2.3536958319411138e-07,1.9318832766957694e-05
2.913831335501705e-07,4.3183439038146114e-07,2.3627060660717692e-07,1.9198545786370225e-05
2.902254802377382e-07,4.353023974567709e-07,2.372928544356267e-07,1.907466028282537e-05
2.8905489043782356e-07,4.3866845096723956e-07,2.384388025726988e-07,1.8946989082742498e-05
2.8787094671677065e-07,4.419341270116524e-07,2.3971265591924014e-07,1.881533464753607e-05
2.866741297711874e-07,4.4509897595447063e-07,2.411191684731381e-07,1.867948894741214e-05
2.854673313005978e-07,4.4816102620004883e-07,2.4266229981604235e-07,1.853921647423437e-05
2.842564013298072e-07,4.5111729670929365e-07,2.443441657293503e-07,1.8394258928971607e-05
2.8304948640130613e-07,4.539627499036577e-07,2.461637136373464e-07,1.8244358202134512e-05
2.8185634455806965e-07,4.566902127147376e-07,2.4811564614772737e-07,1.8089296462959534e-05
2.80688711120253e-07,4.5929135380299456e-07,2.501904605521861e-07,1.7928955508970373e-05
2.795608803674677e-07,4.6175812868880244e-07,2.5237540136806677e-07,1.776337180625233e-05
2.78490037417885e-07,4.6408595468050157e-07,2.546556384591705e-07,1.7592754503482685e-05
2.774961622895245e-07,4.6627588728111104e-07,2.570150477781572e-07,1.7417448025671246e-05
2.766000738810486e-07,4.6833178113810074e-07,2.594370421519733e-07,1.7237849757086942e-05
2.758201858435427e-07,4.702552964450844e-07,2.6190529961841287e-07,1.7054322230398346e-05
2.7517096504679947e-07,4.7204446362539844e-07,2.644037366719998e-07,1.6867146067614102e-05
2.7466319134041336e-07,4.736955964020778e-07,2.6691673151604673e-07,1.6676547680957488e-05
2.7430417500636394e-07,4.7520417622407884e-07,2.694294908181613e-07,1.648281110717764e-05
2.7409823750934204e-07,4.765636404785429e-07,2.719274795474016e-07,1.6286420213854266e-05
2.7404759159942324e-07,4.777644409771002e-07,2.743959531128378e-07,1.6088112420994557e-05
2.741521281002358e-07,4.787948142525016e-07,2.768207653795764e-07,1.5888780787182153e-05
2.7440829746590565e-07,4.796436242933484e-07,2.791897561533474e-07,1.568930991848201e-05
2.7480893384565075e-07,4.803040522158507e-07,2.814928894309659e-07,1.5490468395068587e-05
2.753442421179263e-07,4.807745279445678e-07,2.8372072015481525e-07,1.5292879768120288e-05
2.760030028889626e-07,4.810562467827881e-07,2.8586298276493397e-07,1.5097041552239505e-05
2.7677336516772924e-07,4.811513620660017e-07,2.879086132724405e-07,1.4903366249327522e-05
2.776426167894388e-07,4.81063158043041e-07,2.898470696029749e-07,1.471220059416303e-05
2.7859636493124826e-07,4.807955335207601e-07,2.916693269218317e-07,1.4523810246653784e-05
2.796185233106649e-07,4.803519519743389e-07,2.933669175031797e-07,1.4338366764089264e-05
2.806922795126518e-07,4.797357804853479e-07,2.9493053963036616e-07,1.4155966750403054e-05
2.8180078677152784e-07,4.789515145498842e-07,2.963506548382109e-07,1.3976701003342398e-05
2.829271098037256e-07,4.780061894619611e-07,2.9761903958213694e-07,1.3800756120528827e-05
2.840543326745521e-07,4.769111433489727e-07,2.9872916490015373e-07,1.3628476375808113e-05
2.851663194118492e-07,4.7568242002645255e-07,2.996760036692475e-07,1.34603336363377e-05
2.8624902209892896e-07,4.743384918494653e-07,3.004561746414165e-07,1.3296821939892038e-05
2.872913786204944e-07,4.728979975121125e-07,3.0106816209228904e-07,1.3138347115051573e-05
2.882846498094823e-07,4.713790706416207e-07,3.015126060173872e-07,1.2985177383120545e-05
2.8922148902234123e-07,4.6979833203678073e-07,3.017917832479388e-07,1.2837444415050344e-05
2.9009576258212944e-07,4.6816923377940643e-07,3.019082866923513e-07,1.2695152191544235e-05
2.9090172583307035e-07,4.665010668625672e-07,3.0186474632342486e-07,1.2558213266945247e-05
2.916327807683429e-07,4.6479880594805405e-07,3.016644743461195e-07,1.2426568646684219e-05
2.9228169476808045e-07,4.630634049878496e-07,3.0131205123853e-07,1.2300342860445073e-05
2.9284186040436685e-07,4.612925140449944e-07,3.008136555631633e-07,1.2179872527549796e-05
2.933075986346981e-07,4.5948136057904426e-07,3.001765353183342e-07,1.2065571041591873e-05
2.936734764222497e-07,4.576232712719857e-07,2.9940800501432986e-07,1.1957771623809115e-05
2.939343235340145e-07,4.557098809098307e-07,2.985150050334413e-07,1.1856648868592576e-05
2.940862602009285e-07,4.537315818581754e-07,2.9750434014618336e-07,1.176225003942467e-05
2.941276018591749e-07,4.5167842798399647e-07,2.963831628206449e-07,1.1674669070545365e-05
2.940588099123897e-07,4.495406098214021e-07,2.9515923396464143e-07,1.1594261065133639e-05
2.9388149584867593e-07,4.4730787693289405e-07,2.938410680390657e-07,1.152169210464969e-05
2.935977613617237e-07,4.4496923007977066e-07,2.92438451889226e-07,1.1457796930248555e-05
2.932105821493316e-07,4.425140562465476e-07,2.909633797917312e-07,1.1403386832026945e-05
2.9272392813916783e-07,4.3993399440359794e-07,2.894304719521072e-07,1.1359105241862014e-05
2.9214175702071386e-07,4.372242911847274e-07,2.878564209119314e-07,1.1325348670162574e-05
2.914667321296229e-07,4.3438366528054706e-07,2.86259774709563e-07,1.1302240028345401e-05
2.906997005037298e-07,4.314127262696953e-07,2.84660781696277e-07,1.128963498296632e-05
2.8984020757637746e-07,4.2831225640879386e-07,2.8307946015615594e-07,1.128714918284043e-05
2.888878992870719e-07,4.2508242257177073e-07,2.8153348289294747e-07,1.1294195790323145e-05
2.8784369750530765e-07,4.217231752775058e-07,2.800384657569601e-07,1.1310023695718041e-05
2.8670977141702123e-07,4.182356654105522e-07,2.7860980973568176e-07,1.13337549437578e-05
2.8548902028779103e-07,4.146238199001508e-07,2.7726507734738984e-07,1.1364416623926213e-05
2.8418486318559827e-07,4.1089438613659997e-07,2.760260158706481e-07,1.1400959021565233e-05
2.828017296226643e-07,4.0705538392875593e-07,2.749175475896853e-07,1.1442271389304607e-05
2.81345515815017e-07,4.0311512824566717e-07,2.7396461056443877e-07,1.1487215791411675e-05
2.7982281277574084e-07,3.9908216116363284e-07,2.731906464135663e-07,1.1534679753182636e-05
2.782403147072551e-07,3.949647011891425e-07,2.726171747915585e-07,1.1583622692246413e-05
2.7660541798678336e-07,3.9076968981335506e-07,2.722622821425222e-07,1.1633095504610353e-05
2.749262255665737e-07,3.865021614109381e-07,2.721390691795267e-07,1.1682247761444073e-05
2.7321081207029545e-07,3.821654900622352e-07,2.7225538446386337e-07,1.173033692039005e-05
2.7146752363262217e-07,3.777633680974727e-07,2.726142038040363e-07,1.1776722499300497e-05
2.69705592961164e-07,3.733025443724614e-07,2.7321388683660545e-07,1.182083172458807e-05
2.6793429150296996e-07,3.6879434709557814e-07,2.7404842758983426e-07,1.1862112499154257e-05
2.661613356880374e-07,3.6425613654889346e-07,2.7510768589451534e-07,1.1900009557274346e-05
2.643921373285277e-07,3.5971307397324717e-07,2.7637756110173944e-07,1.1934002925759966e-05
2.6263018075353944e-07,3.551965024936488e-07,2.778409071004362e-07,1.19637002534209e-05
2.6087794333118966e-07,3.5073860664758925e-07,2.794794415581376e-07,1.1988895956904802e-05
2.591376944318465e-07,3.463686781019976e-07,2.812751335672383e-07,1.2009533961944921e-05
2.574114502286313e-07,3.421137939283629e-07,2.832105233567806e-07,1.202562171970265e-05
2.5570022421721674e-07,3.380002697199372e-07,2.8526938684960084e-07,1.203716347056131e-05
2.540039523922719e-07,3.3405246125483736e-07,2.874376959613068e-07,1.2044127431770035e-05
2.523228067472589e-07,3.30291168312255e-07,2.8970393660519254e-07,1.2046441944121604e-05
2.5065935765737517e-07,3.267344694056012e-07,2.9205909983013967e-07,1.2044008928104555e-05
2.490197417862124e-07,3.233996719534172e-07,2.94496199850472e-07,1.2036717158234558e-05
2.474122733800141e-07,3.203035381499134e-07,2.970083913085591e-07,1.2024448257138314e-05
2.458452539436709e-07,3.174604763953376e-07,2.995862175224836e-07,1.200708632575542e-05
2.4432603198211656e-07,3.148816840633433e-07,3.0221602787677725e-07,1.198455173241265e-05
2.428609100088004e-07,3.1257681326565853e-07,3.048803920488872e-07,1.1956869667293865e-05
2.4145535929706805e-07,3.105557203606204e-07,3.075595920920976e-07,1.192424041465275e-05
2.4011405506686604e-07,3.088289356957175e-07,3.102329704968339e-07,1.18870287590512e-05
2.388404565949821e-07,3.074085086389845e-07,3.1287945906579644e-07,1.1845652456909846e-05
2.376364775244349e-07,3.0630903470116375e-07,3.1547761357713245e-07,1.1800478448993234e-05
2.365023554578709e-07,3.0554652909263485e-07,3.180056714897409e-07,1.175181361897144e-05
2.3543684717929487e-07,3.051363665803245e-07,3.2044190988095505e-07,1.1699948421595226e-05
2.344377753008068e-07,3.050941208579688e-07,3.22765293165386e-07,1.164518600890134e-05
2.3350214023644986e-07,3.054380136613268e-07,3.249559386850133e-07,1.1587844188120795e-05
2.326258930924091e-07,3.061876349505079e-07,3.2699554337628865e-07,1.1528245364533135e-05
2.3180394205654067e-07,3.073589822171929e-07,3.288678875669673e-07,1.1466744649002145e-05
2.3103050744567352e-07,3.089611408176516e-07,3.305585986849816e-07,1.1403842178796435e-05
2.3030035370005878e-07,3.1099601074418986e-07,3.3205503778062627e-07,1.1340285283930565e-05
2.296104062221159e-07,3.134591494453599e-07,3.3334779983882516e-07,1.1277020365931927e-05
2.289604260384676e-07,3.163417196843865e-07,3.344316715345838e-07,1.1215041141617796e-05
2.283528158407934e-07,3.196321167637393e-07,3.353039941650041e-07,1.115526371747242e-05
2.2779190838891072e-07,3.2331587361370356e-07,3.35963109698374e-07,1.10984837237855e-05
2.2728289079249468e-07,3.273762904753728e-07,3.364092820893004e-07,1.1045474670542011e-05
2.2683118840298143e-07,3.3179582250503845e-07,3.36645917945612e-07,1.0997199369536728e-05
2.264422256385653e-07,3.3655512237864816e-07,3.366790062233251e-07,1.09549167998092e-05
2.2612072974136986e-07,3.4163022933302853e-07,3.365165600542045e-07,1.0920071546574316e-05
2.2586988447777838e-07,3.4699090747337576e-07,3.361691341421593e-07,1.0894104426017547e-05
2.2569078954991455e-07,3.5260124489705673e-07,3.356492979107705e-07,1.0878312579395144e-05
2.2558226121466828e-07,3.5842161020065445e-07,3.3496992982517446e-07,1.08737536682121e-05
2.2554119457778286e-07,3.64410260659029e-07,3.3414390529963174e-07,1.0881172046201284e-05
2.2556308771099463e-07,3.705236646727945e-07,3.331846079341841e-07,1.0900968716645586e-05
2.2564222623125376e-07,3.76716384618606e-07,3.321046623444739e-07,1.0933222846992453e-05
2.2577225617606183e-07,3.829415516855653e-07,3.309140082542508e-07,1.0977728169667792e-05
2.2594740794220252e-07,3.89151906041534e-07,3.2962028102380774e-07,1.1034027121024767e-05
2.2616263900428585e-07,3.953013590515533e-07,3.2823150245160945e-07,1.1101460270629743e-05
2.2641219118257169e-07,4.013472429447056e-07,3.267576013590289e-07,1.1179225441642841e-05
2.2668896233097767e-07,4.072521263563592e-07,3.252089451582957e-07,1.1266418318478173e-05
2.2698584134653076e-07,4.1298385463779796e-07,3.2359475231722806e-07,1.1362051416529147e-05
2.2729696867775039e-07,4.185145662334988e-07,3.219228457275001e-07,1.1465080282955224e-05
2.2761725564792824e-07,4.2382013120980465e-07,3.201994159167327e-07,1.1574455875184786e-05
2.279410637861602e-07,4.288799045411254e-07,3.1842924741232e-07,1.1689180396712665e-05
2.282614738348092e-07,4.3367558841721543e-07,3.166171083477503e-07,1.1808337494981094e-05
2.2857063246873695e-07,4.3818963998831756e-07,3.147688244007471e-07,1.1931113050331833e-05
2.2886134606845785e-07,4.4240558726713427e-07,3.128904217740614e-07,1.2056828504624831e-05
2.29129451900506e-07,4.463101261181455e-07,3.109863041855072e-07,1.218495123367632e-05
2.2937518284742626e-07,4.498944172784743e-07,3.090588871298333e-07,1.2315040047818828e-05
2.2960195603774772e-07,4.5315464469579687e-07,3.0710976616531876e-07,1.2446647793102506e-05
2.2981342209108091e-07,4.5609270588818845e-07,3.051406337367902e-07,1.2579245272386893e-05
2.3001115599595808e-07,4.5871554394107044e-07,3.0315358036242123e-07,1.2712231332611815e-05
2.3019412670928197e-07,4.610332711664469e-07,3.0115162158252803e-07,1.2845042390225275e-05
2.3035928033400144e-07,4.6305826897056856e-07,2.991395938654165e-07,1.2977275375081453e-05
2.305027408131589e-07,4.6480559778145646e-07,2.971244179920052e-07,1.310871908200177e-05
2.3062159874061923e-07,4.6629296111177004e-07,2.951139159554049e-07,1.3239295523113195e-05
2.30714611620722e-07,4.675390364272857e-07,2.9311519845995887e-07,1.3368990910276492e-05
2.307805576681233e-07,4.6856195270841685e-07,2.911345839666855e-07,1.3497826242572212e-05
2.3081656430742569e-07,4.69380433113064e-07,2.89178929947722e-07,1.3625852660445387e-05
2.3081847598232489e-07,4.7001650335686275e-07,2.87255744288122e-07,1.3753116819086136e-05
2.307819118764413e-07,4.704961736031703e-07,2.853711872332813e-07,1.3879577549072214e-05
2.307024044519283e-07,4.70847837078973e-07,2.835283547264498e-07,1.4005036226724302e-05
2.305751994314021e-07,4.711003579949293e-07,2.8172749898011696e-07,1.4129140422537674e-05
2.303957348621849e-07,4.712800290031721e-07,2.7996717593142534e-07,1.425144669277833e-05
2.301606129997414e-07,4.714068759176465e-07,2.7824468124040343e-07,1.4371508493048019e-05
2.298686751548606e-07,4.714942741097117e-07,2.765556816964196e-07,1.4488973296100659e-05
2.2952162799560065e-07,4.7155339131124345e-07,2.7489457271803175e-07,1.460364162366299e-05
2.2912343765734548e-07,4.715980276580143e-07,2.732567562923767e-07,1.4715434572509885e-05
2.2867914469940363e-07,4.7164403574777115e-07,2.716416700328952e-07,1.4824297426188913e-05
2.2819423027033911e-07,4.7170456103625936e-07,2.7005370564480357e-07,1.493011430069386e-05
2.2767435223207941e-07,4.7178710289235973e-07,2.6849986708164677e-07,1.5032673544430768e-05
2.2712540492373782e-07,4.71894294104407e-07,2.66986543842752e-07,1.5131671877022456e-05
2.2655399766541468e-07,4.720263455470845e-07,2.655184646691143e-07,1.5226724957916275e-05
2.2596719338935808e-07,4.7218241792318107e-07,2.640996679721005e-07,1.5317381667628928e-05
2.2537144975636059e-07,4.723600572449394e-07,2.62734195250846e-07,1.540320557289047e-05
2.2477224812689032e-07,4.725555819334055e-07,2.6142558642019627e-07,1.5483982694510415e-05
2.241742427445165e-07,4.7276629044644815e-07,2.601759305837589e-07,1.5559930324484558e-05
2.235810101859237e-07,4.7299129309814865e-07,2.589856537962296e-07,1.563169559072446e-05
2.2299485043293967e-07,4.732305071725573e-07,2.57854442690797e-07,1.5700163979499086e-05
2.2241772336391807e-07,4.734831521694879e-07,2.5678205654751394e-07,1.5766243961165855e-05
2.2185317979797982e-07,4.737460008896572e-07,2.557677908215077e-07,1.5830721286835722e-05
2.2130693348418003e-07,4.740134378687826e-07,2.548101204985396e-07,1.5894271278273032e-05
2.2078509933934878e-07,4.7427958710437825e-07,2.539090324977024e-07,1.5957635703197442e-05
2.2029226819896975e-07,4.745389085753498e-07,2.53069012071877e-07,1.602175903117791e-05
2.1983121581872068e-07,4.747855498423955e-07,2.522985136165682e-07,1.6087730823390645e-05
2.1940455278547225e-07,4.750150580963175e-07,2.5160704008022045e-07,1.6156633998141213e-05
2.1901673464244127e-07,4.7522651405838175e-07,2.510030834521961e-07,1.6229437051762243e-05
2.186741872253973e-07,4.754212885642397e-07,2.5049319930469715e-07,1.630693999635653e-05
2.1838427306773282e-07,4.756006699289857e-07,2.500815275603792e-07,1.6389733156053156e-05
2.1815446776965843e-07,4.7576502943120965e-07,2.497696086529177e-07,1.6478158007505287e-05
2.1799123895276013e-07,4.7591312256132135e-07,2.495570974941457e-07,1.6572283980865258e-05
2.1789941510618072e-07,4.760418806065029e-07,2.4944344383241394e-07,1.6671917328186387e-05
2.178830525866893e-07,4.761486614450384e-07,2.4942893572976466e-07,1.6776654015364482e-05
2.1794601665854897e-07,4.762337453919593e-07,2.4951397759313857e-07,1.688596218887512e-05
2.1809128197093015e-07,4.762998498392678e-07,2.496979940998545e-07,1.6999258375655253e-05
2.1832006851063923e-07,4.7635007163872176e-07,2.4998010829992244e-07,1.711596083998785e-05
2.1863143858983697e-07,4.763866937621829e-07,2.5036064257455825e-07,1.7235512362785378e-05
2.190230955735348e-07,4.7641022102548714e-07,2.508409840397006e-07,1.7357350981369094e-05
2.194928934034059e-07,4.7641788608763676e-07,2.514222850971285e-07,1.748083665641536e-05
2.200390700979648e-07,4.76403367270184e-07,2.5210496926664837e-07,1.760520465219194e-05
2.2066036357205944e-07,4.763586864278397e-07,2.528888417938673e-07,1.772959101320529e-05
2.2135773208195983e-07,4.7627539647957746e-07,2.5377262895660077e-07,1.7853088458706065e-05
2.2213486723873247e-07,4.761436305488863e-07,2.5475382134164827e-07,1.7974794910810286e-05
2.2299563567437134e-07,4.7595248914894153e-07,2.5582966609553096e-07,1.809385025575224e-05
2.239423297838933e-07,4.7569259369029006e-07,2.5699810667184355e-07,1.8209445647345667e-05
2.249786086566237e-07,4.7535724321988297e-07,2.582582534191184e-07,1.8320809674516744e-05
2.2611374345081855e-07,4.74941576057265e-07,2.5961109269392197e-07,1.8427196129461872e-05
2.273613582250939e-07,4.744418133745165e-07,2.6106003590799524e-07,1.8527875903023693e-05
2.2873369946449895e-07,4.7385533188452155e-07,2.626100551340517e-07,1.862214009506844e-05
2.302379707222448e-07,4.7318147286961156e-07,2.642652297517846e-07,1.870932162889923e-05
2.3187592374209794e-07,4.724219098415186e-07,2.660264515955517e-07,1.8788790135432076e-05
2.3364493534914412e-07,4.7157939465388965e-07,2.6789051190532777e-07,1.8859899288116532e-05
2.3554159535236808e-07,4.706563364089709e-07,2.698499205748564e-07,1.8921952579618413e-05
2.3756661055055666e-07,4.6965554834384644e-07,2.718931339824113e-07,1.897421695292079e-05
2.397253676335188e-07,4.685829311749343e-07,2.740056067452739e-07,1.901593728453148e-05
2.420232731858781e-07,4.67448789895545e-07,2.761713795169041e-07,1.9046340501428604e-05
2.444621224437253e-07,4.6626667769869405e-07,2.783742362067636e-07,1.9064663510961288e-05
2.4704039924216173e-07,4.650529535369361e-07,2.805981996580828e-07,1.9070216820772574e-05
2.4975424203001573e-07,4.638270445970477e-07,2.8282814144085485e-07,1.906246916035336e-05
2.525973692285512e-07,4.6260980754559793e-07,2.850502957164293e-07,1.9041133167265226e-05
2.5556111630610645e-07,4.614208402351098e-07,2.8725185580223013e-07,1.900624301786746e-05
2.586353249069717e-07,4.6027714746789244e-07,2.894206195349646e-07,1.8958219423236522e-05
2.618108125339846e-07,4.5919548404517286e-07,2.915456420411681e-07,1.8897880977123865e-05
2.650821432520925e-07,4.581972194077877e-07,2.9361787164585173e-07,1.882635033001336e-05
2.6844761861381866e-07,4.5730989153726007e-07,2.9562944470583483e-07,1.874487283181036e-05
2.719064518069756e-07,4.5656358449900943e-07,2.975718824553132e-07,1.865463200442321e-05
2.754553516935921e-07,4.559862492206229e-07,2.994351093767301e-07,1.8556642275163745e-05
2.7908631813371826e-07,4.556009850899985e-07,3.012079474770796e-07,1.8451730530607266e-05
2.8278716335349113e-07,4.5542508525074436e-07,3.028785131995602e-07,1.83405568426732e-05
2.865451418993258e-07,4.5546951701373785e-07,3.044341190925827e-07,1.8223637112677148e-05
2.90350678171079e-07,4.557382055764064e-07,3.0586178052659717e-07,1.8101398187647e-05
2.941971436640035e-07,4.5622821254669563e-07,3.0714903304708427e-07,1.7974323554865942e-05
2.980775081482186e-07,4.5693156587051536e-07,3.0828386562698734e-07,1.7843101664908342e-05
3.019818564548582e-07,4.578368364251543e-07,3.092546986800693e-07,1.7708589024193695e-05
3.058972995658721e-07,4.589293493453578e-07,3.100519262672986e-07,1.7571634534290486e-05
3.098093059944692e-07,4.60192585282245e-07,3.106690392378014e-07,1.743298583738941e-05
3.137032564401431e-07,4.616112780522273e-07,3.1110111951604726e-07,1.7293340126238377e-05
3.175651699290185e-07,4.631731112278737e-07,3.113431806407436e-07,1.7153505217325488e-05
3.213811812907759e-07,4.648686769751272e-07,3.113912758508668e-07,1.7014638524673958e-05
3.2513656483616466e-07,4.6669108302742176e-07,3.112449990788074e-07,1.6878404899078706e-05
3.288151036170102e-07,4.686346184705724e-07,3.109083668458005e-07,1.6746901071726106e-05
3.323995270987045e-07,4.706934409810158e-07,3.103884796839591e-07,1.6622429250064673e-05
3.3587315736513e-07,4.728620692789813e-07,3.096937727093373e-07,1.6507288200397178e-05
3.392208458732383e-07,4.751352115174922e-07,3.0883316272531445e-07,1.6403632731431948e-05
3.4242798429669586e-07,4.775051832909293e-07,3.078160201930276e-07,1.6313380295217132e-05
3.454797965157062e-07,4.799605126853902e-07,3.066528845496293e-07,1.623814182806225e-05
3.4836280804245874e-07,4.82487148689154e-07,3.053560990205746e-07,1.6179157303970646e-05
3.5106609834112893e-07,4.850688430705792e-07,3.039388548225505e-07,1.613724075231835e-05
3.5358076070728153e-07,4.876863815945503e-07,3.0241340145655284e-07,1.6112765902747048e-05
3.5590000837284165e-07,4.903195343582758e-07,3.0079016749080303e-07,1.6105711125277756e-05
3.5801960774006134e-07,4.929523255344964e-07,2.990774447989316e-07,1.6115744677061816e-05
3.599369204249005e-07,4.955768929368908e-07,2.972811059582086e-07,1.6142301095923543e-05
3.616505079258362e-07,4.98192260008291e-07,2.954047971332664e-07,1.618460633475564e-05
3.6316064933276383e-07,5.008003823589817e-07,2.934507961860432e-07,1.6241668836046652e-05
3.644690908075654e-07,5.034032134019464e-07,2.914211404294961e-07,1.631230441518198e-05
3.6557888592610326e-07,5.060006947840896e-07,2.8931821114572484e-07,1.63952207741302e-05
3.664944946775189e-07,5.08588955800723e-07,2.871447841347398e-07,1.6489107968942754e-05
3.67220645021436e-07,5.111600007646031e-07,2.8490383624803227e-07,1.65926902753132e-05
3.6776091669174157e-07,5.137042292256332e-07,2.8259773327198073e-07,1.6704761718881605e-05
3.6811723001992603e-07,5.162140493549396e-07,2.802280111182438e-07,1.6824223380059194e-05
3.682894074790494e-07,5.186840171905224e-07,2.7779750099286745e-07,1.6950093179765748e-05
3.68274874986467e-07,5.211072584553285e-07,2.753127776130489e-07,1.708148070743578e-05
3.6806976629788633e-07,5.234740455378497e-07,2.727836065058885e-07,1.7217554318985056e-05
3.676719947022199e-07,5.257751420021039e-07,2.702202081679519e-07,1.7357495340120843e-05
3.670848607603185e-07,5.280047443855653e-07,2.676312041291089e-07,1.7500435438886434e-05
3.663188678221873e-07,5.301586517313512e-07,2.650230814247745e-07,1.7645425018812162e-05
3.653912425071547e-07,5.322306420933233e-07,2.624004766190239e-07,1.7791437984117568e-05
3.643244843040913e-07,5.342111498849675e-07,2.5976670274664504e-07,1.7937359491945975e-05
3.631447183172617e-07,5.360878292155043e-07,2.5712430646563875e-07,1.8081967414151485e-05
3.618792032567689e-07,5.378463889333925e-07,2.5447529915455454e-07,1.822394626846262e-05
3.6055386748406703e-07,5.394714638330276e-07,2.5182135611847136e-07,1.8361913868418747e-05
3.5919238767216994e-07,5.409473471931479e-07,2.49164618759516e-07,1.849444876030035e-05
3.578153001310793e-07,5.422590742759125e-07,2.465083163366913e-07,1.8620129024724025e-05
3.564384058383462e-07,5.43395593585261e-07,2.4385655739711146e-07,1.873755698259606e-05
3.550722822022725e-07,5.44354306564767e-07,2.4121409488065073e-07,1.8845360430899072e-05
3.537231937645537e-07,5.451429564188254e-07,2.385862919653573e-07,1.8942224302878035e-05
3.5239417809429934e-07,5.457765567557229e-07,2.359787188213698e-07,1.9026987590011547e-05
3.510856531590044e-07,5.462712772359882e-07,2.3339653301909338e-07,1.90987580568788e-05
3.497958523863044e-07,5.466401255611438e-07,2.3084406454801178e-07,1.915694737332048e-05
3.4852200909157986e-07,5.468946476095653e-07,2.283248095873125e-07,1.9201181980553254e-05
3.472628390348469e-07,5.47050525111404e-07,2.2584212924568697e-07,1.923118617054577e-05
3.4602068939122417e-07,5.471302211267049e-07,2.2340000976837335e-07,1.924676796829045e-05
3.448009846529098e-07,5.471601476557965e-07,2.2100272398374238e-07,1.9247894274500267e-05
3.436103430360555e-07,5.47165582676209e-07,2.1865381838033851e-07,1.9234745145228387e-05
3.424557176155998e-07,5.471672503655934e-07,2.1635579653641687e-07,1.9207699743886008e-05
3.413434271959227e-07,5.471809855252532e-07,2.1411081293172365e-07,1.916727191482627e-05
3.4027740172438625e-07,5.472183191693189e-07,2.11921472175053e-07,1.9114037497559325e-05
3.392584589651441e-07,5.472856676544751e-07,2.0979166307777115e-07,1.9048650989813282e-05
3.382853484771077e-07,5.473831094481205e-07,2.0772828542739773e-07,1.897197330419848e-05
3.3735587764123287e-07,5.475046192006108e-07,2.057420213127061e-07,1.8885139835440315e-05
3.364667624983129e-07,5.476396288870476e-07,2.0384491580091557e-07,1.8789453404269898e-05
3.356136910104873e-07,5.477743472773585e-07,2.0204725664908205e-07,1.868620098927545e-05
3.3479268983241364e-07,5.478920547491663e-07,2.0035698502515682e-07,1.857655078894536e-05
3.340009226544261e-07,5.479732294686898e-07,1.987816463408889e-07,1.8461636184496266e-05
3.332357802692629e-07,5.479960465535593e-07,1.973304485395221e-07,1.8342772176493108e-05
3.3249397986299985e-07,5.479373690770436e-07,1.9601363968215532e-07,1.822157232852603e-05
3.317725957998371e-07,5.477757081177493e-07,1.948408426828654e-07,1.809984759851601e-05
3.3107085411389627e-07,5.474963311076445e-07,1.938219882111636e-07,1.797940642727279e-05
3.303900662129973e-07,5.470950861069632e-07,1.929689308929521e-07,1.786189689144702e-05
3.2973196731509855e-07,5.465777920915494e-07,1.9229404389711974e-07,1.7748723639489927e-05
3.290971905005407e-07,5.459565966676444e-07,1.9180774484179145e-07,1.7641008013812425e-05
3.284845026308201e-07,5.452470670632582e-07,1.9151823951268173e-07,1.753956083246735e-05
3.2789143902544777e-07,5.444664281681352e-07,1.914319706139668e-07,1.7444871014237855e-05
3.2731569309535017e-07,5.436313575726584e-07,1.915530565235996e-07,1.735712265418156e-05
3.2675483676900465e-07,5.427561385866328e-07,1.9188334514865013e-07,1.7276228222705574e-05
3.262044641242084e-07,5.418526421088811e-07,1.9242326128620398e-07,1.7201867092392967e-05
3.256572888534873e-07,5.409322725175083e-07,1.931718878698563e-07,1.7133549634867496e-05
3.2510391333739903e-07,5.40008193605946e-07,1.941264999793677e-07,1.7070708854632223e-05
3.2453475934402287e-07,5.390950047973388e-07,1.9528244223659576e-07,1.7012773428795536e-05
3.239425969688784e-07,5.382055025646632e-07,1.9663367876734825e-07,1.6959190417585587e-05
3.2332355283313746e-07,5.373475206516154e-07,1.9817374361264184e-07,1.6909419236013157e-05
3.226757639724988e-07,5.365233445680606e-07,1.9989597129930754e-07,1.686292034383799e-05
3.219980323602467e-07,5.357307588874237e-07,2.017929170161601e-07,1.681912994982485e-05
3.212890547406006e-07,5.349635785942098e-07,2.038565453582196e-07,1.6777420906888247e-05
3.205463306830891e-07,5.342116864020939e-07,2.0607879099974614e-07,1.6737074281494878e-05
3.197660630742332e-07,5.334619372588472e-07,2.0845066962003773e-07,1.6697277118032487e-05
3.189441336361849e-07,5.327000441695593e-07,2.10960972001804e-07,1.665714091149307e-05
3.180766725439984e-07,5.319121997522251e-07,2.1359608325617412e-07,1.6615728118178688e-05
3.1716051758055356e-07,5.310858805114751e-07,2.1634047922075977e-07,1.657208471646182e-05
3.161943592779655e-07,5.302105166125316e-07,2.191775280274692e-07,1.652529613127106e-05
3.151815135756517e-07,5.292776688859626e-07,2.2209029191259488e-07,1.6474589976490257e-05
3.141335990598597e-07,5.28279576975756e-07,2.250618170374917e-07,1.6419470037341887e-05
3.130713964443051e-07,5.272072809593981e-07,2.2807513948213386e-07,1.635980038735792e-05
3.120215944445535e-07,5.260500887090116e-07,2.311136874534389e-07,1.6295772340963468e-05
3.1101145039010986e-07,5.247965332218901e-07,2.3416209189705444e-07,1.622778665152046e-05
3.1006391680686805e-07,5.234373070957909e-07,2.3720648151733388e-07,1.6156326854234822e-05
3.091956123019681e-07,5.21968536558971e-07,2.402341103513316e-07,1.6081852965937062e-05
3.084173817787075e-07,5.203908354134036e-07,2.4323269962130485e-07,1.6004723236442338e-05
3.077354623589423e-07,5.1870482489829e-07,2.461893503204667e-07,1.5925187334752766e-05
3.071525095819251e-07,5.16908759964916e-07,2.490902593916344e-07,1.584347614405708e-05
3.066682339379202e-07,5.149994491030813e-07,2.5192309396771803e-07,1.5759948050390745e-05
3.062794090697609e-07,5.129742917467447e-07,2.546805649048475e-07,1.5675262118824914e-05
3.059796636405431e-07,5.108337399632906e-07,2.573612204223181e-07,1.5590539797606697e-05
3.0576009499876977e-07,5.085825870099342e-07,2.599667283658084e-07,1.5507399125581874e-05
3.0561109101645984e-07,5.062286134333219e-07,2.624992508462606e-07,1.5427803136821743e-05
3.05523721998005e-07,5.037808865950353e-07,2.649606653146927e-07,1.5353806990410348e-05
3.0549040059669685e-07,5.01249670389788e-07,2.673518433011953e-07,1.5287310694033856e-05
3.0550719684383776e-07,4.986463940663441e-07,2.696717271935477e-07,1.5229886479346185e-05
3.055773325166325e-07,4.95982287127397e-07,2.7191779518186714e-07,1.5182711301844793e-05
3.0571273839842125e-07,4.932667010197486e-07,2.740877643535358e-07,1.514656494797513e-05
3.0593240119224637e-07,4.905070950335484e-07,2.7618040627447824e-07,1.5121837895304819e-05
3.062581605815116e-07,4.877110052030623e-07,2.78194587311255e-07,1.5108551249927145e-05
3.0671005421609373e-07,4.848882943563096e-07,2.801284726089895e-07,1.5106438736647155e-05
3.07303223066994e-07,4.820517734484721e-07,2.8197978806023136e-07,1.5115142794756835e-05
3.080468622897208e-07,4.792157779924645e-07,2.837455118593066e-07,1.5134447664141492e-05
3.089455398704104e-07,4.7639404183385363e-07,2.854209199341391e-07,1.5164330868321305e-05
3.1000202242023393e-07,4.73597815926239e-07,2.86999737497716e-07,1.5204790067594876e-05
3.112184902821348e-07,4.70834649042758e-07,2.8847516435035033e-07,1.5255711986952835e-05
3.1259518833573807e-07,4.68108543521294e-07,2.898400643874528e-07,1.5317011320486753e-05
3.141290390382495e-07,4.6542102086914034e-07,2.9108656299270807e-07,1.5388916482885902e-05
3.1581360665101287e-07,4.627718149238617e-07,2.922061863711834e-07,1.5472101267050914e-05
3.176395868680975e-07,4.6015925657505645e-07,2.93190081075754e-07,1.556756691888515e-05
3.195950012575147e-07,4.575808492501889e-07,2.94029384066912e-07,1.5676403143763205e-05
3.21665566669007e-07,4.55033072846933e-07,2.947170374655374e-07,1.5799552782186025e-05
3.238360778506597e-07,4.5251033006387407e-07,2.952494915867455e-07,1.5937645382311625e-05
3.260914360184234e-07,4.5000477622485437e-07,2.956257943671301e-07,1.6090931358453962e-05
3.2841555132069375e-07,4.47508003212351e-07,2.958458137414341e-07,1.6259297676590247e-05
3.307896283572105e-07,4.450136462600951e-07,2.9590976790378776e-07,1.6442309606490577e-05
3.3319201868886706e-07,4.425182950551706e-07,2.9581807457959533e-07,1.6639243639368047e-05
3.3559920198766125e-07,4.400199296826206e-07,2.9557100328609097e-07,1.684912483854255e-05
3.379869319197497e-07,4.3751677397654064e-07,2.9516903988318317e-07,1.7070782381904327e-05
3.403314318424953e-07,4.3500816716296337e-07,2.9461367192950547e-07,1.730289153249933e-05
3.4261008983710215e-07,4.324954202154746e-07,2.9390757579919894e-07,1.7543971405216985e-05
3.448013913799705e-07,4.2998084143327257e-07,2.9305443897576406e-07,1.7792377385710584e-05
3.468846770345491e-07,4.274660835848798e-07,2.920589796458373e-07,1.8046356109296453e-05
3.488403474412015e-07,4.2495141455993097e-07,2.909268490119152e-07,1.8304160709563986e-05
3.506507342574528e-07,4.224354581742337e-07,2.896645921549731e-07,1.8564152993239002e-05
3.523009158082836e-07,4.1991488089288297e-07,2.882807334649484e-07,1.8824840774543213e-05
3.5377997020637125e-07,4.173846415850258e-07,2.8678752407139806e-07,1.908485864335572e-05
3.55083901664264e-07,4.148389383672444e-07,2.8520133750082694e-07,1.934292177332576e-05
3.562181446065651e-07,4.1227217588159144e-07,2.835413478444952e-07,1.9597784392357425e-05
3.5719733354338774e-07,4.096796841684e-07,2.81827930944577e-07,1.984822449549138e-05
3.580429620168865e-07,4.070582279239315e-07,2.800813886682252e-07,2.0093034730864705e-05
3.5878000302585647e-07,4.0440613189206657e-07,2.783206990245441e-07,2.03309853029024e-05
3.5943351021030103e-07,4.017242198348513e-07,2.765628857880411e-07,2.0560773369819275e-05
3.600261540896233e-07,3.990187577888849e-07,2.748231690442914e-07,2.0781010354623232e-05
3.60577578156251e-07,3.963033081735365e-07,2.731147611439377e-07,2.0990278354274733e-05
3.611055689597771e-07,3.9359630637390096e-07,2.714484621002556e-07,2.118723325120089e-05
3.616274657434793e-07,3.909171614133061e-07,2.698328694894416e-07,2.1370679840775008e-05
3.6216181791961227e-07,3.882845001278743e-07,2.682745924353231e-07,2.1539569821731387e-05
3.627312889311033e-07,3.857162040887271e-07,2.667781311970049e-07,2.169295987960735e-05
3.633658560689297e-07,3.832302317212178e-07,2.653461041224036e-07,2.1829969922570188e-05
3.641037049546924e-07,3.808451840910322e-07,2.6397966347656515e-07,2.194975195600617e-05
3.649871391772818e-07,3.7857897589006665e-07,2.6267829421336964e-07,2.2051501447936464e-05
3.6605500442311246e-07,3.7644673311334986e-07,2.614397057732549e-07,2.2134494577049208e-05
3.673373454170532e-07,3.744607605328394e-07,2.6026148884757534e-07,2.219808234885174e-05
3.688549398793972e-07,3.7263274263758173e-07,2.591435784973824e-07,2.224165992227329e-05
3.7062081493941423e-07,3.709749839070238e-07,2.5808869829491304e-07,2.2264690257769825e-05
3.726410407065582e-07,3.694980767465261e-07,2.571007550355271e-07,2.2266787017172952e-05
3.7491522289213867e-07,3.682079102908261e-07,2.561831169351618e-07,2.224781714191713e-05
3.7743716598136397e-07,3.671076260041486e-07,2.553372897336794e-07,2.2207992075002995e-05
3.801955648485273e-07,3.662047380664189e-07,2.5456209936070984e-07,2.2147883773067718e-05
3.831752087850203e-07,3.655162827784685e-07,2.5385423403460004e-07,2.206831910590686e-05
3.863587750113917e-07,3.650664855424677e-07,2.5320972718172943e-07,2.1970214338100167e-05
3.8972866617628843e-07,3.648805794103025e-07,2.526245944713082e-07,2.185446679421784e-05
3.93268379497447e-07,3.6498015016798256e-07,2.520942752311221e-07,2.1721938383603333e-05
3.96963082408733e-07,3.653805057749392e-07,2.51613366242873e-07,2.1573460240958647e-05
4.00800573923109e-07,3.660898012794317e-07,2.511763770436098e-07,2.140981198447104e-05
4.047734365931658e-07,3.6711019504744785e-07,2.507781498885772e-07,2.123172501082118e-05
4.088791831784879e-07,3.684398080168996e-07,2.504132545671351e-07,2.1039982622276728e-05
4.1311674827917655e-07,3.7007425572181655e-07,2.5007614567969245e-07,2.083557346283633e-05
4.1748369428946156e-07,3.7200726144270026e-07,2.4976247699275164e-07,2.0619727238522102e-05
4.2197623708612883e-07,3.7422975060019773e-07,2.49469535463798e-07,2.0393768185363613e-05
4.26588705261492e-07,3.767285536044316e-07,2.491956891380738e-07,2.0158933828820426e-05
4.3131178630983145e-07,3.794863254932257e-07,2.4894027225497665e-07,1.991630299676904e-05
4.3613202888161156e-07,3.8248155920941747e-07,2.487036667049326e-07,1.966685028374906e-05
4.4103252762257317e-07,3.856882532586928e-07,2.484864445901275e-07,1.9411608768562698e-05
4.4599358717992057e-07,3.890770088562317e-07,2.482880968997568e-07,1.915186379777801e-05
4.509929234089692e-07,3.926170787663938e-07,2.4810725617882926e-07,1.8889207534281008e-05
4.5600574227797184e-07,3.962771944025341e-07,2.479429353758791e-07,1.8625402735763838e-05
4.6100576652890137e-07,4.0002549801979706e-07,2.477947106729963e-07,1.8362200396427867e-05
4.6596683462302496e-07,4.038298008403789e-07,2.476621266623553e-07,1.8101228691891706e-05
4.7086350847791684e-07,4.076574458556708e-07,2.475443673756096e-07,1.7843949193413425e-05
4.756703694107376e-07,4.114744591152848e-07,2.4744037363790843e-07,1.7591644123368797e-05
4.803608305889403e-07,4.1524526332807157e-07,2.4734943551293395e-07,1.7345409288113313e-05
4.849070500360171e-07,4.189333765547429e-07,2.472714716320225e-07,1.7106144389479684e-05
4.892820865742474e-07,4.2250222473032044e-07,2.4720685562120144e-07,1.687455034565133e-05
4.934617446506375e-07,4.2591631295678746e-07,2.471567638215863e-07,1.6651130863528042e-05
4.974235086067215e-07,4.2914416417186654e-07,2.471233109082027e-07,1.6436191790452704e-05
5.011456344919043e-07,4.3216116935175323e-07,2.4710886206297266e-07,1.622986386240637e-05
5.04609763604301e-07,4.349484632430625e-07,2.471162667254662e-07,1.6032160797147307e-05
5.078039107176717e-07,4.3748944654124e-07,2.4714987997717657e-07,1.584303669125455e-05
5.107210128524848e-07,4.397685053474326e-07,2.472146887211021e-07,1.5662421956371353e-05
5.13354784027365e-07,4.4177179490491316e-07,2.4731403018482583e-07,1.5490257613274658e-05
5.156975202359446e-07,4.4348744671987494e-07,2.474490186333846e-07,1.5326531453603197e-05
5.177402740720255e-07,4.449046002362526e-07,2.4762013547092025e-07,1.517128688273884e-05
5.194739339818943e-07,4.4601246564261494e-07,2.478288974072361e-07,1.5024596699984742e-05
5.20890445434643e-07,4.468003766340112e-07,2.480780467401864e-07,1.4886535767624914e-05
5.219836068300896e-07,4.4725831137912243e-07,2.483708836667014e-07,1.4757176803325825e-05
5.227497260889057e-07,4.4737766208584527e-07,2.4871083081321076e-07,1.4636592151238525e-05
5.231881431628628e-07,4.4715331178952685e-07,2.491007519224564e-07,1.4524830657074591e-05
5.233010804510576e-07,4.4658620029981844e-07,2.495416956706044e-07,1.4421861962720136e-05
5.2309307127157e-07,4.456834548466959e-07,2.5003185859502486e-07,1.432752929446511e-05
5.225697396030366e-07,4.4445549385358036e-07,2.5056660580439894e-07,1.4241562922249509e-05
5.21736164831216e-07,4.4291308880382613e-07,2.5113940478422044e-07,1.4163634655019335e-05
5.205964387744002e-07,4.4106670347293923e-07,2.517427657430697e-07,1.4093397847277396e-05
5.191544752491465e-07,4.3892705789681656e-07,2.523692645661816e-07,1.4030512185922204e-05
5.174151495606599e-07,4.3650565944430866e-07,2.530125787795701e-07,1.3974679541819488e-05
5.153850658204965e-07,4.3381556755910846e-07,2.5366714987233864e-07,1.3925701238284014e-05
5.130731129935435e-07,4.308723958048285e-07,2.543267915969801e-07,1.3883542671221137e-05
5.104926626765104e-07,4.276955661987203e-07,2.549840383953288e-07,1.3848345926425051e-05
5.076637961278234e-07,4.2430955185370024e-07,2.55630207858435e-07,1.3820359900522165e-05
5.046110961349677e-07,4.207434266580033e-07,2.562555548106383e-07,1.379984393945083e-05
5.013582839080656e-07,4.170280521329435e-07,2.5685001905476565e-07,1.3786981216052255e-05
4.979247501687947e-07,4.1319262222203046e-07,2.5740431650940784e-07,1.3781797848792832e-05
4.943252677235797e-07,4.0926230265867033e-07,2.5791007698109753e-07,1.3784140504296381e-05
4.905720351788883e-07,4.0525792566337774e-07,2.583589981580041e-07,1.3793760915414031e-05
4.86679822132089e-07,4.011984031476832e-07,2.587426052404003e-07,1.3810423706000647e-05
4.826720985879471e-07,3.9710525860181155e-07,2.590538269728006e-07,1.3833905344357584e-05
4.785817931244804e-07,3.9300658395682064e-07,2.5928911915301446e-07,1.3863896708237197e-05
4.7444644605602524e-07,3.8893707107114357e-07,2.5944849076702215e-07,1.3899933251279192e-05
4.703049050017558e-07,3.849337025445442e-07,2.5953335441478096e-07,1.3941389882116681e-05
4.6619759837914275e-07,3.8103066288200433e-07,2.5954451761657803e-07,1.3987487867013535e-05
4.621656517765622e-07,3.772572775768317e-07,2.594815305872705e-07,1.4037306078441358e-05
4.582475399257408e-07,3.736394679793304e-07,2.59342833990424e-07,1.4089846024631797e-05
4.544776040608612e-07,3.702017122836797e-07,2.59126226921611e-07,1.4144205239891866e-05
4.508892625989152e-07,3.669663660363153e-07,2.58830044032964e-07,1.4199836692391153e-05
4.475195144907696e-07,3.6395117692971957e-07,2.58454415237461e-07,1.4256715856099732e-05
4.444091858147251e-07,3.611684878914437e-07,2.5800125368037853e-07,1.4315263632817209e-05
4.4160047634193753e-07,3.5862679653891577e-07,2.5747338345212557e-07,1.4376121969368595e-05
4.391374641536647e-07,3.563319861507046e-07,2.568737404456481e-07,1.4439952763346554e-05
4.3706900750862685e-07,3.5428682670354986e-07,2.562049029827612e-07,1.450731467897378e-05
4.354517762176508e-07,3.5248979951871044e-07,2.5546924621977547e-07,1.4578666061828745e-05
4.343535869233524e-07,3.5093446267436054e-07,2.546691272539997e-07,1.4654504369201727e-05
4.3385431862080615e-07,3.496099980737596e-07,2.538067100345426e-07,1.4735483328777207e-05
4.340417739180767e-07,3.48502711486013e-07,2.528850954814827e-07,1.4822371391489004e-05
4.350047710462201e-07,3.4759706715765254e-07,2.519108304961897e-07,1.491591342738239e-05
4.3682549920680294e-07,3.468760683843803e-07,2.50894878356898e-07,1.5016701633602936e-05
4.39571204234115e-07,3.463224347016347e-07,2.498516645066035e-07,1.5125085652046665e-05
4.432885057415043e-07,3.459198861901134e-07,2.487979305281971e-07,1.5241131917775582e-05
4.4800259919190817e-07,3.456533466147876e-07,2.477508784976533e-07,1.5364643864737264e-05
4.5371800985738077e-07,3.455091116868153e-07,2.4672577394314213e-07,1.549522167170867e-05
4.604196423827082e-07,3.4547510315316237e-07,2.457349195314244e-07,1.563232256429013e-05
4.6807656429307326e-07,3.455401836306461e-07,2.447881425989241e-07,1.5775311956920478e-05
4.766476425852781e-07,3.4569273551237287e-07,2.4389411433149364e-07,1.5923514419979714e-05
4.860857496629507e-07,3.4592009506353344e-07,2.430617791693361e-07,1.607625560443891e-05
4.963402548443029e-07,3.462098541375693e-07,2.4230019612858576e-07,1.6232880510603628e-05
5.073601791110629e-07,3.465510224772047e-07,2.416174379515538e-07,1.639274753769137e-05
5.190993627605355e-07,3.469328477760989e-07,2.4102105883421194e-07,1.655519379905025e-05
5.315207414805967e-07,3.473426231629201e-07,2.405190306061036e-07,1.6719474580077622e-05
5.445949926828179e-07,3.477648340773234e-07,2.4011939223025445e-07,1.6884723457341265e-05
5.582946350358639e-07,3.481818199328166e-07,2.398296415785389e-07,1.7049963149995342e-05
5.725891070157712e-07,3.4857532508380226e-07,2.3965618701000426e-07,1.7214126381997835e-05
5.874422794860153e-07,3.489287268180386e-07,2.396035475100252e-07,1.7376067718954512e-05
6.028098976011874e-07,3.4922833339456605e-07,2.3967390602613696e-07,1.7534607407496152e-05
6.186370850879141e-07,3.494631100228485e-07,2.3986764429102514e-07,1.7688616733255686e-05
6.348585720509414e-07,3.496257253378685e-07,2.4018419277896764e-07,1.7837114840622728e-05
6.51400646167225e-07,3.497153945356639e-07,2.4062191020232296e-07,1.797936769908531e-05
6.681828161701041e-07,3.497386758148404e-07,2.411776407051456e-07,1.811499396045005e-05
6.851210491152446e-07,3.4970726141270546e-07,2.418468475380445e-07,1.824406684170101e-05
7.021317580597794e-07,3.4963592219857393e-07,2.426239215244403e-07,1.836716268548631e-05
7.191322463959337e-07,3.495420974551409e-07,2.4350265559680176e-07,1.8485293637872267e-05
7.360388981518545e-07,3.494452552590733e-07,2.444767357711021e-07,1.859974585109329e-05
7.527674403765635e-07,3.4936430633666177e-07,2.4553958215972853e-07,1.8711913192148958e-05
7.692339641229507e-07,3.493148454548809e-07,2.4668370693862016e-07,1.882316826545796e-05
7.853540028197663e-07,3.493088437505996e-07,2.479003382874218e-07,1.8934748467131845e-05
8.010415324765184e-07,3.493555952255029e-07,2.4917962415505925e-07,1.9047643880800032e-05
8.162097424417977e-07,3.494623192160877e-07,2.5051129513882804e-07,1.916253772659227e-05
8.307728836083987e-07,3.496355285668932e-07,2.518849288067174e-07,1.9279833278034508e-05
8.446480366269196e-07,3.498824174537559e-07,2.5328931174231527e-07,1.9399718091995468e-05
8.57756308901053e-07,3.502102641772648e-07,2.547123200087121e-07,1.9522243547423667e-05
8.700249379392656e-07,3.506254101594075e-07,2.5614197826200946e-07,1.964744454197548e-05
8.813906539160149e-07,3.511343841131156e-07,2.575670079515609e-07,1.9775485118067505e-05
8.918012991344433e-07,3.517472052272777e-07,2.589762693219861e-07,1.9906772583422884e-05
9.012143489133811e-07,3.52480340082048e-07,2.6035837760344896e-07,2.0041972430147e-05
9.095944799966141e-07,3.533556948680432e-07,2.617016626006307e-07,2.0181894571296605e-05
9.169128260723578e-07,3.54396143712084e-07,2.6299385224119173e-07,2.032729289877928e-05
9.231482188696993e-07,3.556223286282104e-07,2.642221513982305e-07,2.047868015515344e-05
9.282874692442028e-07,3.570522202261218e-07,2.6537432852216895e-07,2.063625137642257e-05
9.323230421103665e-07,3.5870083456446774e-07,2.66439404089303e-07,2.0799912883618828e-05
9.352503282543051e-07,3.605789826848726e-07,2.674070135272157e-07,2.0969361284008026e-05
9.370663524196171e-07,3.626923405212789e-07,2.682670627077677e-07,2.1144228110201646e-05
9.377702582908878e-07,3.650412713092258e-07,2.6901015487016693e-07,2.132432570087371e-05
9.373653868596194e-07,3.67620826867376e-07,2.6962746872468945e-07,2.150986132011992e-05
9.358610386354892e-07,3.704210343703672e-07,2.701102793245694e-07,2.170142262666171e-05
9.332725597413551e-07,3.7342740627576904e-07,2.704498437674192e-07,2.1899775815594047e-05
9.296211477790844e-07,3.766214904227883e-07,2.7063744807555873e-07,2.2105650045197384e-05
9.249347889483931e-07,3.7998162614778683e-07,2.706648008040856e-07,2.2319569257399412e-05
9.192493989001469e-07,3.834842572263549e-07,2.705251952453126e-07,2.2541792559873785e-05
9.126077946289472e-07,3.871062407418619e-07,2.7021453168767053e-07,2.277245042751558e-05
9.05055853184288e-07,3.908269875339687e-07,2.697310180514195e-07,2.3011755132085226e-05
8.966386485877115e-07,3.9462979396132323e-07,2.6907447358477486e-07,2.326005386754265e-05
8.873995130786501e-07,3.985038547441334e-07,2.6824697551873856e-07,2.35177162595065e-05
8.773813950354158e-07,4.024452221867285e-07,2.6725435247095384e-07,2.3785008947070027e-05
8.666282023794269e-07,4.064537828674153e-07,2.6610652788495e-07,2.4062030381427508e-05
8.551861444155156e-07,4.105294813141173e-07,2.648161480186479e-07,2.434868668779208e-05
8.431060050075272e-07,4.146712308723447e-07,2.633969416550192e-07,2.464468249188229e-05
8.304450611561906e-07,4.188758423377626e-07,2.6186330239790967e-07,2.4949533961745605e-05
8.172667797569756e-07,4.2313554850194157e-07,2.6023070477319736e-07,2.526260822902717e-05
8.036380687986009e-07,4.274370612870805e-07,2.585153340227613e-07,2.558315436463325e-05
7.896251060572708e-07,4.3176352443835323e-07,2.567324556245714e-07,2.591029448533078e-05
7.75290040752964e-07,4.360971015952874e-07,2.5489503144907216e-07,2.624298045137351e-05
7.6069146483866e-07,4.40419642880904e-07,2.530137750618133e-07,2.6579942050278688e-05
7.458883867135705e-07,4.4471195852884843e-07,2.510980247926844e-07,2.6919652753455608e-05
7.309427906350013e-07,4.4895356212128666e-07,2.491566763500233e-07,2.726032265206129e-05
7.159168230211597e-07,4.5312328603782704e-07,2.4719874466467373e-07,2.7599914388575123e-05
7.008678052263354e-07,4.57200615095648e-07,2.452336575446567e-07,2.7936184892384868e-05
6.858469331600926e-07,4.6116778934413844e-07,2.4327209459921377e-07,2.8266750906782948e-05
6.70901027394234e-07,4.6501288012375996e-07,2.4132639514713376e-07,2.8589162065233985e-05
6.56073268546438e-07,4.687320413372693e-07,2.394090493470246e-07,2.89009746081021e-05
6.414029265421269e-07,4.7232719976361026e-07,2.3753100119045037e-07,2.9199818832106428e-05
6.269264285073664e-07,4.7580080075287973e-07,2.3570199790181689e-07,2.948343516258808e-05
6.126805064682845e-07,4.791534031763924e-07,2.3393206108048419e-07,2.974966452108844e-05
5.987045884368508e-07,4.823841633894024e-07,2.322324636011493e-07,2.999641409920988e-05
5.850389188259494e-07,4.854908653696457e-07,2.3061579263184176e-07,3.022164050841068e-05
5.71721240526201e-07,4.884690875350117e-07,2.2909489750914068e-07,3.0423387916194866e-05
5.587864469993879e-07,4.913110471089652e-07,2.2768151015296249e-07,3.0599870687224735e-05
5.462669524153101e-07,4.940054133287092e-07,2.26385291153625e-07,3.0749523503520115e-05
5.341913460543687e-07,4.965399451506676e-07,2.252129857464597e-07,3.0870976895055715e-05
5.225845251197844e-07,4.989048326200136e-07,2.2416802568282747e-07,3.096301421167256e-05
5.114714141143697e-07,5.01092839456833e-07,2.2325104652340093e-07,3.10245647690828e-05
5.008798409992723e-07,5.030974164818014e-07,2.2246098446680136e-07,3.1054724036862825e-05
4.90838040812545e-07,5.049122629587761e-07,2.2179590273255343e-07,3.105277513372745e-05
4.813693153200832e-07,5.065321177053275e-07,2.2125298003344272e-07,3.101822921808973e-05
4.724890539238032e-07,5.07952857057351e-07,2.2082847009042602e-07,3.095090728265854e-05
4.642059449641959e-07,5.091708719451732e-07,2.2051812383355283e-07,3.085100611417271e-05
4.56525977590186e-07,5.101828104173193e-07,2.203171046442221e-07,3.071908600176907e-05
4.4945572022299406e-07,5.109856624189291e-07,2.202194349046349e-07,3.055599738281267e-05
4.4300190466585425e-07,5.115769084564853e-07,2.202184419634117e-07,3.036278449591369e-05
4.371687089401309e-07,5.119559851318614e-07,2.2030824791499867e-07,3.0140590410040044e-05
4.3195688859183293e-07,5.121261672167314e-07,2.204843105379696e-07,2.9890581208907293e-05
4.2736651746293676e-07,5.120930674412049e-07,2.2074222898002978e-07,2.961390166977597e-05
4.233995100913511e-07,5.118607532551663e-07,2.2107688362762985e-07,2.9311686057082862e-05
4.200569604884849e-07,5.114304512170551e-07,2.2148339555947485e-07,2.8985119059630628e-05
4.1733371200448865e-07,5.10802024421369e-07,2.2195828873133946e-07,2.863548212697337e-05
4.152165376239247e-07,5.099747882721936e-07,2.224989814777052e-07,2.826414588337062e-05
4.1368722264389007e-07,5.089466980768938e-07,2.231022161593196e-07,2.7872531601346168e-05
4.1272687917767657e-07,5.077136350972866e-07,2.237631367811993e-07,2.746210994342734e-05
4.123175838407022e-07,5.062700504196946e-07,2.2447538610660963e-07,2.703453502759413e-05
4.124407740552897e-07,5.046104184263856e-07,2.252313997590536e-07,2.659182426694895e-05
4.1307555219339096e-07,5.027312958622265e-07,2.260225964656921e-07,2.613630410080883e-05
4.1419887314267357e-07,5.006342250666775e-07,2.2683957474015817e-07,2.567033226576598e-05
4.157857898038605e-07,4.983273521886553e-07,2.2767237977613057e-07,2.519609913022244e-05
4.178094305517928e-07,4.958233028881411e-07,2.285111143018377e-07,2.471560119364728e-05
4.202421316015242e-07,4.931350868449118e-07,2.2934710822602282e-07,2.423066098073253e-05
4.2305605160899297e-07,4.902736360900291e-07,2.3017472026887327e-07,2.374291987685752e-05
4.262221208397536e-07,4.872477433008225e-07,2.3099233891208292e-07,2.325381780288195e-05
4.2970910647735546e-07,4.840652069812762e-07,2.3180066680505146e-07,2.276460626503272e-05
4.334840085367237e-07,4.807334951006223e-07,2.3259995857616572e-07,2.22764222153738e-05
4.375138201494897e-07,4.772596911752237e-07,2.3338921172206692e-07,2.179038600129277e-05
4.417668153761368e-07,4.736513531338462e-07,2.3416684143120127e-07,2.1307658435153305e-05
4.462116450783314e-07,4.699173327576272e-07,2.3493064790641252e-07,2.0829438757383537e-05
4.508158361444233e-07,4.6606728137588064e-07,2.356769139324819e-07,2.035692995467909e-05
4.5554486181391287e-07,4.621117360369988e-07,2.3640009997100897e-07,1.989129506616232e-05
4.603618107242842e-07,4.580621906809595e-07,2.3709364507404762e-07,1.943362313773705e-05
4.6522941098809185e-07,4.539295412159282e-07,2.3775094124111422e-07,1.8984914660107247e-05
4.701142251457075e-07,4.497234529810354e-07,2.383656495796555e-07,1.8546060555667456e-05
4.7498905253458546e-07,4.4545311842257435e-07,2.3893133620020837e-07,1.8117793769848952e-05
4.798312062254737e-07,4.4112697437554255e-07,2.394408231936104e-07,1.7700651575833232e-05
4.846189771783638e-07,4.367519820119835e-07,2.3988594643774586e-07,1.7294986922012485e-05
4.89330195862739e-07,4.323335762854185e-07,2.402581434150096e-07,1.690100282623774e-05
4.939447402786242e-07,4.278757808093151e-07,2.4054949433084804e-07,1.6518780972078243e-05
4.984502898979601e-07,4.233812431032665e-07,2.407536471890562e-07,1.6148327275682986e-05
5.028493807207286e-07,4.1885162580890655e-07,2.4086607418628897e-07,1.5789650262154873e-05
5.071651208612224e-07,4.142887372376652e-07,2.4088354984765767e-07,1.5442843805078533e-05
5.114423231445109e-07,4.0969513101535945e-07,2.408039170219946e-07,1.5108142008880866e-05
5.157418338399797e-07,4.050732911621421e-07,2.4062685959614125e-07,1.4785928658026636e-05
5.201294484325512e-07,4.004254348332711e-07,2.403545242128691e-07,1.4476690559198432e-05
5.24664807169924e-07,3.9575586017444184e-07,2.39990746126726e-07,1.4180925697433166e-05
5.293958216160087e-07,3.910750355489154e-07,2.395396702100623e-07,1.3899044256940696e-05
5.343584958485891e-07,3.864023936179701e-07,2.3900504667286285e-07,1.3631321793727802e-05
5.39577360764427e-07,3.8176465062670653e-07,2.3839020931181908e-07,1.337796748990633e-05
5.45065074369563e-07,3.7719014301277923e-07,2.376985161305914e-07,1.3139275738870924e-05
5.508233793641622e-07,3.727037831156765e-07,2.3693391226349397e-07,1.2915703791555346e-05
5.568448718265974e-07,3.6832606211552314e-07,2.3610111490693712e-07,1.2707803059097957e-05
5.631136719976401e-07,3.6407496590414797e-07,2.3520586826082267e-07,1.2516122748457735e-05
5.69606242828295e-07,3.599680344425681e-07,2.3425550673363248e-07,1.234118465325916e-05
5.762948124595205e-07,3.5602295673875854e-07,2.3325877904901761e-07,1.21835086116117e-05
5.831533575104293e-07,3.5225623473580704e-07,2.3222452352566586e-07,1.2043647407363311e-05
5.901631491388515e-07,3.486817988344915e-07,2.311607131595388e-07,1.1922175029545992e-05
5.973150754109201e-07,3.453122796269153e-07,2.300750670152653e-07,1.181958685039201e-05
6.046081077079747e-07,3.421616969760872e-07,2.289759625587761e-07,1.1736171735730765e-05
6.120442365655303e-07,3.392457669099216e-07,2.27872497359514e-07,1.1671955098684061e-05
6.196225529680811e-07,3.365792968167728e-07,2.2677455299988452e-07,1.1626742394207456e-05
6.273359924499378e-07,3.3417367264693826e-07,2.2569324318907532e-07,1.1600231997127608e-05
6.351711231521884e-07,3.320369290696755e-07,2.2464077731514588e-07,1.1592142370912269e-05
6.431111668317758e-07,3.301767441840993e-07,2.236291026765624e-07,1.1602279770447515e-05
6.51140400040074e-07,3.286039843358441e-07,2.2266824859993167e-07,1.1630505779046891e-05
6.592440134100423e-07,3.273331956467985e-07,2.2176565421815595e-07,1.1676638090389806e-05
6.674035511881128e-07,3.263800547229148e-07,2.209260479110209e-07,1.1740367057601735e-05
6.755937093798061e-07,3.257589718055213e-07,2.2015147358215102e-07,1.1821265255816065e-05
6.837832227164421e-07,3.254817670767802e-07,2.1944267080490575e-07,1.1918870709434195e-05
6.919405524068522e-07,3.2555618821331905e-07,2.1880127772224694e-07,1.2032737938768972e-05
7.00040951034558e-07,3.259849034203022e-07,2.1823022256402225e-07,1.2162428738633227e-05
7.080673395365716e-07,3.267659493349637e-07,2.1773244284273692e-07,1.2307537804968005e-05
7.160041016199514e-07,3.2789319233984343e-07,2.173099487787714e-07,1.246776430772332e-05
7.238313931601141e-07,3.293562220087646e-07,2.1696319351603923e-07,1.2642878849479946e-05
7.315261922224423e-07,3.31140600918882e-07,2.166904140403389e-07,1.2832547658720896e-05
7.390690819280195e-07,3.332278378658245e-07,2.1648772541196142e-07,1.3036171601457125e-05
7.464507281018699e-07,3.3559497196598394e-07,2.163503980798031e-07,1.3252846135431865e-05
7.536718314089872e-07,3.3821492986415487e-07,2.1627536069222003e-07,1.348146551372233e-05
7.607356369726222e-07,3.410574971408534e-07,2.1626484169139e-07,1.3720981958089798e-05
7.676405945854757e-07,3.440913526168068e-07,2.1632874481732398e-07,1.3970683121010993e-05
7.743806753751339e-07,3.472877521379312e-07,2.1648312182349486e-07,1.4230272273895236e-05
7.809493050764775e-07,3.5062271458817713e-07,2.1674670409156023e-07,1.4499754399158099e-05
7.873385515388199e-07,3.540759256823481e-07,2.1713756711105598e-07,1.4779304599051272e-05
7.93534936886193e-07,3.5762923489842787e-07,2.176697741674909e-07,1.5069201809077673e-05
7.995183148910335e-07,3.612656418454766e-07,2.183518950078461e-07,1.5369784101576722e-05
8.052655503132616e-07,3.6496792654293717e-07,2.1918853228834337e-07,1.5681372781051197e-05
8.107566613345325e-07,3.687183153467477e-07,2.20182623293172e-07,1.600416504034945e-05
8.159780512045272e-07,3.724993898699222e-07,2.2133629337929878e-07,1.6338126545184875e-05
8.209192419454391e-07,3.762938397777436e-07,2.2265000436753388e-07,1.6682905738310125e-05
8.255673127281749e-07,3.8008293384804213e-07,2.2412149090985108e-07,1.703778513465476e-05
8.299060846997784e-07,3.8384646609052345e-07,2.2574597368204088e-07,1.7401703749599802e-05
8.339214069787704e-07,3.875642168483144e-07,2.2751747388351914e-07,1.7773354682007144e-05
8.376062656416498e-07,3.9121632711858344e-07,2.2943000420404296e-07,1.8151287768746938e-05
