2.9330820964113394e-07,1.2023652535820744e-05,3.072461738362135e-06,4.616220887092725e-07
2.910810022328489e-07,1.211447508938456e-05,3.065037860509776e-06,4.633807671990781e-07
2.890263542522598e-07,1.2202841606783185e-05,3.057718746679128e-06,4.648125607629914e-07
2.871411144721405e-07,1.2288191883801774e-05,3.0505071119292226e-06,4.659019677498767e-07
2.854202855514373e-07,1.2369939476858655e-05,3.043399223288481e-06,4.6663572543931094e-07
2.838580238012311e-07,1.2447474105477492e-05,3.036382606030537e-06,4.6700349148973634e-07
2.824483241038741e-07,1.2520197071948531e-05,3.0294350875025384e-06,4.6699800118867494e-07
2.811846582068117e-07,1.2587558169842435e-05,3.022533350177052e-06,4.6661458366345303e-07
2.800599752634281e-07,1.2649072129420794e-05,3.015658570445806e-06,4.6585060698518744e-07
2.790676547799093e-07,1.2704326447677811e-05,3.0088028575928765e-06,4.6470532440155393e-07
2.782021004434141e-07,1.2752973836418809e-05,3.0019852114659508e-06,4.6318029588797313e-07
2.7745832317129076e-07,1.279469744885037e-05,2.9952642708603264e-06,4.6127976055252344e-07
2.7683093807182065e-07,1.2829177394717907e-05,2.988742894397457e-06,4.590106306306225e-07
2.763133824354175e-07,1.2856078478310949e-05,2.982562628251585e-06,4.5638278186832856e-07
2.758976810280878e-07,1.2875045819314568e-05,2.9768769814979136e-06,4.5340936866497467e-07
2.75574371878792e-07,1.2885710446445025e-05,2.9718144520769406e-06,4.5010651483037393e-07
2.753326743299137e-07,1.2887729542038929e-05,2.9674641000394075e-06,4.4649243536626437e-07
2.7516090112387923e-07,1.2880879915974707e-05,2.9639055736335094e-06,4.425858241652098e-07
2.7504653868973364e-07,1.2865170644895075e-05,2.961258091173758e-06,4.3840473059230024e-07
2.7497678681352547e-07,1.2840885993625494e-05,2.9596989454082785e-06,4.339690513642296e-07
2.7494085158465164e-07,1.2808518195819584e-05,2.959450892052512e-06,4.293060573908414e-07
2.74932140827768e-07,1.2768647200024762e-05,2.9607723813609057e-06,4.244522573049594e-07
2.749475153282539e-07,1.2721849469248304e-05,2.963955846755141e-06,4.194481695314529e-07
2.749852813441904e-07,1.2668657369142574e-05,2.969312022352367e-06,4.1433175366038716e-07
2.7504542575536926e-07,1.2609535849080542e-05,2.977139875510872e-06,4.0913599147929956e-07
2.751309213427445e-07,1.2544871302966195e-05,2.987707056183638e-06,4.0388919489824253e-07
2.7524688202409893e-07,1.2474984578136087e-05,3.0012425537774664e-06,3.986156894957931e-07
2.753981142395298e-07,1.240015517753321e-05,3.0179254326039437e-06,3.933371174151662e-07
2.755877191865344e-07,1.2320677808464536e-05,3.037876740833353e-06,3.880735947212996e-07
2.758171837373282e-07,1.2236974959221508e-05,3.061168010086528e-06,3.8284314565112e-07
2.760865631980398e-07,1.214968225401288e-05,3.087830206625308e-06,3.776611237784842e-07
2.763945457049097e-07,1.2059610641470654e-05,3.1178447288865886e-06,3.7254262708530567e-07
2.767391032838975e-07,1.1967624337234641e-05,3.1511336519828487e-06,3.675058662886005e-07
2.771185438492137e-07,1.1874551858356676e-05,3.1875709983786155e-06,3.6257168242412074e-07
2.7753228640305036e-07,1.1781218745988396e-05,3.2270065649110325e-06,3.5775997737357273e-07
2.779808245412375e-07,1.1688565501949894e-05,3.2692791210469487e-06,3.53088289637896e-07
2.784651589054825e-07,1.1597700549068048e-05,3.314219298867116e-06,3.485745648650032e-07
2.78986882577404e-07,1.1509843044980924e-05,3.3616729516537135e-06,3.44240940992952e-07
2.7954852169716076e-07,1.14262409831747e-05,3.4115499696046407e-06,3.401140310710262e-07
2.801526738268467e-07,1.1348105485292614e-05,3.463853028908236e-06,3.362211487601332e-07
2.808008815019902e-07,1.1276551955114247e-05,3.5186604166300073e-06,3.3258664257784925e-07
2.814935076755679e-07,1.1212537745063246e-05,3.576099031963601e-06,3.29230712471486e-07
2.822300322638752e-07,1.1156797416794523e-05,3.6363410526471176e-06,3.2616866243492826e-07
2.8300961411492556e-07,1.1109809537031966e-05,3.699607525677216e-06,3.23409734565289e-07
2.8383216936743284e-07,1.1071825204464056e-05,3.7661587889600234e-06,3.209568098501569e-07
2.8469870857290304e-07,1.1042936025612007e-05,3.8362834563025815e-06,3.188069992344566e-07
2.8560997366618197e-07,1.1023118888695402e-05,3.910291941585958e-06,3.169527507684543e-07
2.8656549504161644e-07,1.1012217786571016e-05,3.988496524646914e-06,3.153838229884925e-07
2.875645934830811e-07,1.1009900073740823e-05,4.0711721669836925e-06,3.1408990527150736e-07
2.886073193211746e-07,1.1015653234379119e-05,4.15850764095927e-06,3.130625666844102e-07
2.896940346351645e-07,1.1028829765435068e-05,4.250561617186056e-06,3.122949534580853e-07
2.9082470883994327e-07,1.1048710099340887e-05,4.3472483475489254e-06,3.117795156125067e-07
2.919992919878363e-07,1.1074567710457272e-05,4.4483515161577535e-06,3.1150625896611656e-07
2.932189268629473e-07,1.1105727182219953e-05,4.5535398299602085e-06,3.1146273199193674e-07
2.9448553414523157e-07,1.1141602208388854e-05,4.662388593472181e-06,3.116350454619168e-07
2.957992283054223e-07,1.1181696947439607e-05,4.774424265337207e-06,3.1201002145658286e-07
2.9715632505832505e-07,1.1225563079264644e-05,4.88917288423535e-06,3.1257791418688465e-07
2.985492984052921e-07,1.1272738458268067e-05,5.006189450337747e-06,3.133326202738155e-07
2.999679732301784e-07,1.1322717817796213e-05,5.125072048226676e-06,3.1426830583399056e-07
3.0140187969371016e-07,1.1374967323257809e-05,5.245456279162629e-06,3.153759490024072e-07
3.028432990750678e-07,1.142893789166253e-05,5.366997959127874e-06,3.166424247481297e-07
3.042885084394209e-07,1.1484070806146401e-05,5.4893769701849035e-06,3.1805139544727077e-07
3.057356985297221e-07,1.1539836557110604e-05,5.612301902300261e-06,3.1958495905226934e-07
3.071822444292308e-07,1.1595782249858655e-05,5.7354774322059364e-06,3.212255157211999e-07
3.0862506707703307e-07,1.1651521365683721e-05,5.858562409656054e-06,3.229571328204997e-07
3.100631324856419e-07,1.1706671694462852e-05,5.981151732154115e-06,3.247657233466165e-07
3.114978763482791e-07,1.1760808791419318e-05,6.102777559358026e-06,3.266377941322287e-07
3.129308325112777e-07,1.1813462198590726e-05,6.222928315729936e-06,3.2855891412990013e-07
3.143620929076452e-07,1.1864117236579613e-05,6.341084776267229e-06,3.305142270352303e-07
3.157920576500941e-07,1.1912213502104021e-05,6.456750812337773e-06,3.3249116912987147e-07
3.172241789023041e-07,1.1957180621779045e-05,6.569456712578526e-06,3.3448126062254336e-07
3.186649087511014e-07,1.1998508524253904e-05,6.678753515916318e-06,3.3647919614227533e-07
3.2012204696521193e-07,1.2035806488257472e-05,6.784238394297338e-06,3.384812616438167e-07
3.2160484690053284e-07,1.2068825839424013e-05,6.8855970095104325e-06,3.404841358323284e-07
3.231238793927914e-07,1.209743076688548e-05,6.982609300569493e-06,3.42482895547893e-07
3.246883555270772e-07,1.2121523067506958e-05,7.075111635976953e-06,3.444692847956801e-07
3.263037966177497e-07,1.2140976742610596e-05,7.162947024326858e-06,3.4643208386371817e-07
3.2797160645899984e-07,1.2155621580489685e-05,7.245929227980553e-06,3.4835895387511393e-07
3.296887594239967e-07,1.2165252564976379e-05,7.3238332187394954e-06,3.502379321920401e-07
3.3144753185324213e-07,1.2169650858050211e-05,7.396405918637198e-06,3.520574356227983e-07
3.332365105436318e-07,1.2168634845699367e-05,7.463390403992137e-06,3.538055121472057e-07
3.3504243347239816e-07,1.216211576756801e-05,7.524565695176341e-06,3.554693188295115e-07
3.368512542060359e-07,1.2150097566999541e-05,7.579785935769603e-06,3.570346161880087e-07
3.3864788920414664e-07,1.2132631636333904e-05,7.629003947111365e-06,3.584861752453065e-07
3.404159671674445e-07,1.2109809405172756e-05,7.67229579178619e-06,3.598107442379812e-07
3.421388320496201e-07,1.2081803170847555e-05,7.709879936430536e-06,3.610007219469262e-07
3.438008448421641e-07,1.2048871813990205e-05,7.742096284926904e-06,3.620544180011611e-07
3.4538735560636986e-07,1.2011315912853915e-05,7.76935591697973e-06,3.6297311957127095e-07
3.4688394813242605e-07,1.1969424749858588e-05,7.792097599760389e-06,3.637587116173057e-07
3.482771030595932e-07,1.1923420473640285e-05,7.810760671509588e-06,3.6441291496645814e-07
3.495568801793348e-07,1.187342195374174e-05,7.825763305331958e-06,3.6493680416201404e-07
3.507192680068767e-07,1.18194526270065e-05,7.837469457347821e-06,3.653306799574482e-07
3.517654966455598e-07,1.1761470477497665e-05,7.846152730991202e-06,3.655952805289596e-07
3.52698562135856e-07,1.1699396505607167e-05,7.8519843561057e-06,3.657331055420836e-07
3.5351974599988537e-07,1.1633133147688078e-05,7.855046632133671e-06,3.6574763211485183e-07
3.542272221109813e-07,1.1562573267460126e-05,7.855352848532961e-06,3.6564145212162436e-07
3.548164818541603e-07,1.1487600811891212e-05,7.852860981001218e-06,3.654163162102615e-07
3.552815133916761e-07,1.1408084518816938e-05,7.847481069987268e-06,3.650748789280096e-07
3.5561559751352094e-07,1.1323876938319607e-05,7.839087526095145e-06,3.646215038309048e-07
3.5581106428490096e-07,1.1234821649618089e-05,7.827544459819313e-06,3.640616776098403e-07
3.558588986604733e-07,1.1140759646941227e-05,7.812735901432735e-06,3.6340146113413173e-07
3.5574949132382985e-07,1.1041540626219534e-05,7.794584028844248e-06,3.6264752133394453e-07
3.554751696240167e-07,1.093704925628298e-05,7.773045092701769e-06,3.6180721124218935e-07
3.5503292390061025e-07,1.0827226894207983e-05,7.748094903264234e-06,3.608884125042407e-07
3.544242226334568e-07,1.0712067882527451e-05,7.719721942534527e-06,3.5989941603964907e-07
3.5365271131786095e-07,1.0591609504700302e-05,7.68792049130336e-06,3.58848922497904e-07
3.527236796928308e-07,1.0465932616050237e-05,7.652677160071886e-06,3.577460448102851e-07
3.516458950972223e-07,1.0335161206009584e-05,7.6139660282414004e-06,3.566003357956392e-07
3.504330320691516e-07,1.0199448694778931e-05,7.57175620123839e-06,3.5542222392245774e-07
3.491025561689413e-07,1.0058956604342496e-05,7.526018099528799e-06,3.5422349509225383e-07
3.4767265417507767e-07,9.913847070798537e-06,7.476722079259822e-06,3.530163175132213e-07
3.4615936437742856e-07,9.764296788911901e-06,7.423837544286467e-06,3.518112066175711e-07
3.4457512457135445e-07,9.61052043351016e-06,7.3673445593042484e-06,3.5061626791109607e-07
3.4292915973441746e-07,9.452792703998371e-06,7.307262693352104e-06,3.4943789906452764e-07
3.412296512751568e-07,9.29145032384846e-06,7.243680590514334e-06,3.4828129852379897e-07
3.394859483605709e-07,9.12686644954376e-06,7.176765040573723e-06,3.47150689855761e-07
3.3770877596263037e-07,8.959437000475425e-06,7.106758395939993e-06,3.4605013213994753e-07
3.359087692305108e-07,8.789609135480829e-06,7.0339786513613354e-06,3.4498412352908445e-07
3.3409528879277203e-07,8.617912586328136e-06,6.95881138933318e-06,3.4395657565586283e-07
3.3227634292901385e-07,8.444940462638388e-06,6.881677215254148e-06,3.42969118373654e-07
3.304590752744428e-07,8.2712893408761e-06,6.802982265879108e-06,3.4202054854425077e-07
3.286505018305811e-07,8.097526528948868e-06,6.7230797484915085e-06,3.411075567499063e-07
3.268581170162164e-07,7.924224045992681e-06,6.642255952035355e-06,3.402262230009749e-07
3.2508948250616924e-07,7.752015816959179e-06,6.560732880313023e-06,3.3937308560090213e-07
3.233510087367533e-07,7.581619817697044e-06,6.4786794894999256e-06,3.385445786072736e-07
3.216474128056934e-07,7.413823161098564e-06,6.3962316257055426e-06,3.3773620829676325e-07
3.199822407221402e-07,7.249452015468898e-06,6.313519981326376e-06,3.3694325654300837e-07
3.1835828972222427e-07,7.089326350220345e-06,6.23070012488094e-06,3.361618322907865e-07
3.167774369404162e-07,6.934198377941333e-06,6.147976382338436e-06,3.3538854929353717e-07
3.152403818196365e-07,6.7847098463095354e-06,6.0656102103821825e-06,3.346193519798504e-07
3.137467543499458e-07,6.6414229435292215e-06,5.983915570570453e-06,3.338488257785625e-07
3.122958749162663e-07,6.504922877552812e-06,5.903245196527296e-06,3.3307073686074554e-07
3.1088778080276525e-07,6.375903975442283e-06,5.823965071721771e-06,3.322799870329861e-07
3.095235283390317e-07,6.255163953279417e-06,5.746431824397142e-06,3.3147487844905987e-07
3.082043833545135e-07,6.14352608102731e-06,5.670983192922409e-06,3.3065743620637194e-07
3.0693111963286426e-07,6.041763520996118e-06,5.597925111711827e-06,3.298320742738429e-07
3.0570516992155147e-07,5.950575577620255e-06,5.527504992390005e-06,3.2900504230014165e-07
3.0453160766826854e-07,5.870594869808161e-06,5.459886457007023e-06,3.281836684325631e-07
3.0342200146379925e-07,5.8023817245398775e-06,5.395143075925023e-06,3.273738957530047e-07
3.0239398717305604e-07,5.746413350915284e-06,5.333267477312474e-06,3.2657853496685055e-07
3.014669388869137e-07,5.703109255067697e-06,5.274185869571217e-06,3.2579822953832395e-07
3.0065803758346273e-07,5.672916864537114e-06,5.2177798335423055e-06,3.250336376550081e-07
2.999809996538773e-07,5.656409827055442e-06,5.163914055794368e-06,3.242860425762517e-07
2.994455307333135e-07,5.6543035788961925e-06,5.112453747231228e-06,3.235562568275172e-07
2.99057376289287e-07,5.667368225133201e-06,5.063267289646125e-06,3.2284378789422906e-07
2.988195045366756e-07,5.696298383929519e-06,5.016229595366607e-06,3.2214661948840325e-07
2.987328725915382e-07,5.741599928054945e-06,4.971231075818948e-06,3.214615011395092e-07
2.987961532611456e-07,5.8035553554494125e-06,4.928183920363667e-06,3.2078510451506986e-07
2.990053296756877e-07,5.882308051002296e-06,4.887016105134048e-06,3.2011560896423757e-07
2.99353322793037e-07,5.978007348857272e-06,4.8476512400574995e-06,3.194542894704157e-07
2.9983013506079486e-07,6.090900062786593e-06,4.809991605751447e-06,3.1880662576058807e-07
3.004248289523872e-07,6.221335026097263e-06,4.7739176568043855e-06,3.1818240422806737e-07
3.011282556439371e-07,6.36972327700288e-06,4.739293509994501e-06,3.1759554710589514e-07
3.0193460560665736e-07,6.536467896864593e-06,4.7059660615617115e-06,3.170635898189702e-07
3.028427410233008e-07,6.721865363827908e-06,4.673760324300669e-06,3.16605656065852e-07
3.0385745001794845e-07,6.926027476127432e-06,4.642481840822989e-06,3.162403494716633e-07
3.049882088608345e-07,7.148868650690634e-06,4.6119285516920096e-06,3.1598487535009487e-07
3.06245421450882e-07,7.390139862142453e-06,4.581900914944428e-06,3.158537891114023e-07
3.076369465461549e-07,7.649460473781368e-06,4.552207383890774e-06,3.158573816736796e-07
3.091666055406227e-07,7.926312537409108e-06,4.522681233380129e-06,3.160019071855037e-07
3.108347065611698e-07,8.219996572203661e-06,4.493211988606503e-06,3.1629176780450394e-07
3.126397470734089e-07,8.529584833377445e-06,4.46376449549189e-06,3.167314505739154e-07
3.145792546229925e-07,8.853898196610465e-06,4.43436322965721e-06,3.173254392969341e-07
3.166498115073538e-07,9.191505377995414e-06,4.405053868419161e-06,3.1807688453828766e-07
3.1884883490507104e-07,9.540755927799467e-06,4.375871699389859e-06,3.189871325764739e-07
3.2117670703676805e-07,9.899867098890593e-06,4.346829361215669e-06,3.200565699786477e-07
3.236363815723437e-07,1.0267035674057983e-05,4.317915593714357e-06,3.212862534579204e-07
3.2623290182154214e-07,1.064050875266511e-05,4.289100954770762e-06,3.2267951419837825e-07
3.289757228907544e-07,1.1018596202558414e-05,4.260356137012404e-06,3.242417540527944e-07
3.318812259747122e-07,1.1399653416053172e-05,4.231672742473174e-06,3.259779147789276e-07
3.3497036493177736e-07,1.1782053277424432e-05,4.203062166552655e-06,3.2788987865198486e-07
3.3826205645482303e-07,1.216416935573556e-05,4.174540357153434e-06,3.2997534818028626e-07
3.4176887864511964e-07,1.2544387661661673e-05,4.146136252352242e-06,3.32227659255556e-07
3.4549750009973374e-07,1.2921117146468006e-05,4.117920985535773e-06,3.3463689070011676e-07
3.4945033730920747e-07,1.3292764209974813e-05,4.090012827947926e-06,3.3719175929117387e-07
3.5362616501281363e-07,1.365769658060406e-05,4.062556303813469e-06,3.3987993159621073e-07
3.580201479156992e-07,1.401423926159467e-05,4.035717645713445e-06,3.42686998053232e-07
3.626243661647754e-07,1.4360701922996646e-05,4.009704107351005e-06,3.455961296452176e-07
3.674292849787952e-07,1.4695411916221509e-05,3.984773712232802e-06,3.4858835408673923e-07
3.724261612514061e-07,1.5016745390923455e-05,3.961208974857247e-06,3.5164246095022376e-07
3.7761129215499594e-07,1.5323175672764237e-05,3.939266965780982e-06,3.547349829306656e-07
3.829907563239217e-07,1.5613328153821327e-05,3.919143581219528e-06,3.5784123416054245e-07
3.885807525546936e-07,1.588599078896798e-05,3.900966277491712e-06,3.609368772024228e-07
3.9440330181936286e-07,1.6140082487460315e-05,3.8848032924780986e-06,3.639982283572133e-07
4.0048325696946844e-07,1.637463719536104e-05,3.870683571953224e-06,3.670011182530602e-07
4.0684891654545577e-07,1.6588822197269213e-05,3.858618895166882e-06,3.6992017475829573e-07
4.1353248454869845e-07,1.6781970900514473e-05,3.848610581561257e-06,3.727290634528342e-07
4.20567837907754e-07,1.69536175248975e-05,3.840642998241363e-06,3.754007829608313e-07
4.2798736062663774e-07,1.7103516541307098e-05,3.834684266889384e-06,3.77908780809257e-07
4.3581988305747155e-07,1.7231626510168036e-05,3.830696155640796e-06,3.802310524871357e-07
4.440903435324836e-07,1.733805733983629e-05,3.828639686654476e-06,3.823558744446029e-07
4.5282137791407864e-07,1.7423001361080162e-05,3.8284739625572656e-06,3.842830778279128e-07
4.620348407122172e-07,1.7486688981192768e-05,3.830152130405934e-06,3.860188067342089e-07
4.717512862918526e-07,1.752939236733575e-05,3.833631811053388e-06,3.875694705246915e-07
4.819882015247723e-07,1.7551442290224527e-05,3.838919897134505e-06,3.889394310776301e-07
4.927571542849657e-07,1.7553223945837402e-05,3.846117231840401e-06,3.9013189739396075e-07
5.040600484909491e-07,1.7535183342201244e-05,3.855410043575118e-06,3.9115092287474105e-07
5.158868293727628e-07,1.7497895126856093e-05,3.867027313112268e-06,3.92002646313111e-07
5.282160674495975e-07,1.7442165353732927e-05,3.8812089934071655e-06,3.926957488527864e-07
5.410175313708392e-07,1.736906140183723e-05,3.8981828780904785e-06,3.932424000048462e-07
5.542555606605979e-07,1.727983256376707e-05,3.918140158002397e-06,3.9365974933573843e-07
5.678928162945e-07,1.7175808886108967e-05,3.941213175692643e-06,3.9397017847756685e-07
5.81893798789731e-07,1.7058338030352324e-05,3.967455807589638e-06,3.941987352213696e-07
5.962278051501766e-07,1.6928778775387393e-05,3.9968363386910145e-06,3.9436966281214683e-07
6.108718867553472e-07,1.6788574158223182e-05,4.0292541841608096e-06,3.94505265653397e-07
6.258126578760193e-07,1.663933364140348e-05,4.0645631245900835e-06,3.946262333611532e-07
6.410439982390286e-07,1.648281950778e-05,4.1025785151189975e-06,3.9475089780781324e-07
6.565605253379586e-07,1.6320849375861382e-05,4.143086972106684e-06,3.948942935125212e-07
6.723514885986003e-07,1.6155193456059762e-05,4.185876534675264e-06,3.9506828339867953e-07
6.883996486508881e-07,1.5987516608747556e-05,4.230766504260263e-06,3.9528167838488216e-07
7.046847196868162e-07,1.5819376615043146e-05,4.2776284568544185e-06,3.955398066175057e-07
7.21187186674307e-07,1.565225863781882e-05,4.326403583072328e-06,3.958447489892082e-07
7.37889347092666e-07,1.54875962499026e-05,4.377104030953376e-06,3.961967161277505e-07
7.54774758351958e-07,1.5326735490931734e-05,4.429801771473763e-06,3.965945344750433e-07
7.718284405145241e-07,1.5170870776564536e-05,4.4846197147306264e-06,3.970343902642636e-07
7.890366833437087e-07,1.5021016004228146e-05,4.54171337848256e-06,3.975090458123037e-07
8.063843997797147e-07,1.4878004346062937e-05,4.601233098693413e-06,3.980086673453167e-07
8.238510610465187e-07,1.4742480474013427e-05,4.663280810608834e-06,3.985231184925681e-07
8.414072162349365e-07,1.4614888418249679e-05,4.727879701706719e-06,3.990460451900057e-07
8.590122096519635e-07,1.4495462390516287e-05,4.7949672893110805e-06,3.995784042313144e-07
8.766134064523515e-07,1.4384226644079294e-05,4.864414221559945e-06,4.001267590751746e-07
8.941479825558558e-07,1.4281013594390336e-05,4.936063410721118e-06,4.006976005568279e-07
9.115478647632461e-07,1.4185488477693987e-05,5.009771562173606e-06,4.012951550018225e-07
9.287448198639006e-07,1.4097179982374325e-05,5.085436715894024e-06,4.01924527566718e-07
9.456716308111755e-07,1.4015546387085657e-05,5.163010358848934e-06,4.0259410709151723e-07
9.622605018847592e-07,1.3940068535581257e-05,5.2424932305539905e-06,4.033137069478283e-07
9.784426249888757e-07,1.3870300371536626e-05,5.323918983589852e-06,4.0409090760020106e-07
9.941493030021677e-07,1.3805845658302191e-05,5.407330443502269e-06,4.049287607628742e-07
1.0093119282044044e-06,1.3746303348991095e-05,5.492740880179102e-06,4.058261715998048e-07
1.0238608926745494e-06,1.3691216849455488e-05,5.580090049514701e-06,4.0677968891353454e-07
1.0377276497760764e-06,1.3640039692524554e-05,5.669218555434943e-06,4.077839461636429e-07
1.0508503008717505e-06,1.359213638342703e-05,5.759867232773604e-06,4.0883062180541045e-07
1.0631779325432808e-06,1.354681777302363e-05,5.851707697312195e-06,4.0990791819317975e-07
1.0746720392121504e-06,1.350338579275356e-05,5.944404051137079e-06,4.110010668456033e-07
1.0853060574386242e-06,1.3461169176095935e-05,6.037667605289121e-06,4.1209367591003793e-07
1.0950633440049593e-06,1.3419538545993089e-05,6.131270601902893e-06,4.1317014195436406e-07
1.1039350645365283e-06,1.3377892653114335e-05,6.2250344752464835e-06,4.142175505206418e-07
1.1119187839419664e-06,1.3335643103236685e-05,6.318815010935914e-06,4.152253409666839e-07
1.119016409791965e-06,1.3292245112345516e-05,6.412489609268787e-06,4.161839281022312e-07
1.125231053558112e-06,1.3247276106911686e-05,6.505959091533402e-06,4.1708392072500595e-07
1.1305640901475906e-06,1.3200503373721653e-05,6.5991707526544414e-06,4.1791621513463356e-07
1.1350138682925328e-06,1.3151888780652844e-05,6.692128184728123e-06,4.186724830892e-07
1.138575847023351e-06,1.310155913146958e-05,6.784854408230638e-06,4.1934494682990646e-07
1.1412427233617253e-06,1.3049789150367128e-05,6.877342890792876e-06,4.199253701866796e-07
1.1430055510561312e-06,1.2996976962429111e-05,6.969536693993742e-06,4.204046706485557e-07
1.143857197318245e-06,1.2943581326876844e-05,7.0613247403154e-06,4.20773915056625e-07
1.14379487504454e-06,1.2890035072551444e-05,7.1525470186688644e-06,4.21025839019284e-07
1.142818709253267e-06,1.2836671844637785e-05,7.243008917427794e-06,4.2115609267856567e-07
1.14092873092554e-06,1.2783692469439099e-05,7.3325005636749295e-06,4.2116493118380105e-07
1.1381234320115546e-06,1.2731171382872944e-05,7.420842683133037e-06,4.2105926295025064e-07
1.1343999501018914e-06,1.2679086746491953e-05,7.50794886492403e-06,4.2085336714232e-07
1.129754566168684e-06,1.2627346784122695e-05,7.593836028956067e-06,4.205670977716558e-07
1.124182885980292e-06,1.257580614743563e-05,7.678581676019197e-06,4.202216812736071e-07
1.1176802418995491e-06,1.2524326169597618e-05,7.762288464700041e-06,4.198353750903822e-07
1.1102428279047343e-06,1.2472887758683216e-05,7.845052771542937e-06,4.194216522991113e-07
1.101869087146742e-06,1.2421646219597377e-05,7.926914374821253e-06,4.1898954967230723e-07
1.0925605899856605e-06,1.2370884862712269e-05,8.007820909726119e-06,4.1854400080819436e-07
1.082322413216044e-06,1.2320961551100214e-05,8.087628551508153e-06,4.180857246722264e-07
1.0711634202527753e-06,1.227229607746825e-05,8.166109895602925e-06,4.1761179341308954e-07
1.0590971860279687e-06,1.2225360011346435e-05,8.24295476691277e-06,4.1711685838025713e-07
1.046144117749432e-06,1.2180631563128193e-05,8.317778700751967e-06,4.165942671560013e-07
1.032333439828115e-06,1.2138521299970355e-05,8.390144067056581e-06,4.1603666549422e-07
1.0177037814180134e-06,1.2099311980519119e-05,8.459589679612773e-06,4.1543601820186725e-07
1.0023023097488116e-06,1.2063138524542536e-05,8.525656751619004e-06,4.147834876793135e-07
9.861825806565944e-07,1.2030005142896793e-05,8.587894540245235e-06,4.140695257237734e-07
9.694030819045006e-07,1.1999818775572007e-05,8.645853512857698e-06,4.1328495499610183e-07
9.520277142926923e-07,1.1972401397136885e-05,8.699085687910009e-06,4.124233865826686e-07
9.341255550443705e-07,1.1947482554251575e-05,8.747148156345376e-06,4.114829261482101e-07
9.157675175316832e-07,1.1924715776712676e-05,8.789599602909192e-06,4.1046558081186144e-07
8.970218680022635e-07,1.1903729880586689e-05,8.825997571728905e-06,4.093755255296351e-07
8.779522577180555e-07,1.188418725262314e-05,8.85590653408048e-06,4.08217343507575e-07
8.586191552094221e-07,1.1865808602454612e-05,8.878915058080958e-06,4.069945597018733e-07
8.390829867806305e-07,1.1848334837192015e-05,8.894648562356166e-06,4.057090441078086e-07
8.194063967749109e-07,1.183146020321766e-05,8.902768154316036e-06,4.043614878502686e-07
7.996536164799227e-07,1.1814799195155725e-05,8.902969247786098e-06,4.0295316659593526e-07
7.798873807869432e-07,1.1797898519598708e-05,8.89499315935005e-06,4.014877641488169e-07
7.601656706630674e-07,1.1780267166071026e-05,8.878636991343416e-06,3.9997080025523246e-07
7.405402091768998e-07,1.1761397705216792e-05,8.853749079157908e-06,3.984077629012502e-07
7.210572336795219e-07,1.1740772073451354e-05,8.820229754039799e-06,3.968035561976713e-07
7.017604931207893e-07,1.1717866380249748e-05,8.77805484150163e-06,3.9516318167364287e-07
6.826959019611964e-07,1.1692163394935009e-05,8.727297587091264e-06,3.934931593108808e-07
6.639161894363107e-07,1.1663166927231195e-05,8.668116970783893e-06,3.918030525684432e-07
6.454832364269025e-07,1.163040993718523e-05,8.600727458660012e-06,3.901050748536022e-07
6.274664317025253e-07,1.1593467948700855e-05,8.52539858752268e-06,3.884118609342944e-07
6.099376961256472e-07,1.1551997631208452e-05,8.442495037240563e-06,3.8673510503834117e-07
5.929651874681738e-07,1.1505766014976582e-05,8.352504930231303e-06,3.850849699006271e-07
5.766082189471322e-07,1.145462725321118e-05,8.25602093982316e-06,3.8346873528672854e-07
5.609159152775503e-07,1.1398492974259963e-05,8.153702025490369e-06,3.818902531620498e-07
5.459286078619611e-07,1.1337337252937027e-05,8.046236771208773e-06,3.8035102240857184e-07
5.31678541156379e-07,1.1271195160464755e-05,7.934303499500866e-06,3.78851530071049e-07
5.181895520155527e-07,1.1200145569328816e-05,7.818547695588301e-06,3.773925949209638e-07
5.054774572606229e-07,1.1124301368831483e-05,7.699592885301038e-06,3.759761533516306e-07
4.935509340038114e-07,1.1043789793283532e-05,7.578055634362146e-06,3.74604377867801e-07
4.824118919010012e-07,1.0958730201940482e-05,7.454542429308123e-06,3.732778766873149e-07
4.7205541439065826e-07,1.0869237903335953e-05,7.329639815258917e-06,3.719948003297096e-07
4.624699451630393e-07,1.0775430632699033e-05,7.203912513834793e-06,3.707514230934316e-07
4.536382576399992e-07,1.0677416337411405e-05,7.0779278986791305e-06,3.695436483274884e-07
4.455391305311943e-07,1.0575287880998504e-05,6.952299403580228e-06,3.683697741349204e-07
4.3814962741729365e-07,1.046914459017883e-05,6.827703454865827e-06,3.672343209965573e-07
4.3144794518461244e-07,1.0359142718333427e-05,6.704854595979634e-06,3.66150223495996e-07
4.254150283223847e-07,1.0245567075007212e-05,6.584466029603157e-06,3.651376839681096e-07
4.2003308987328156e-07,1.0128882860311933e-05,6.4672266182164435e-06,3.64220520636124e-07
4.1528330514175136e-07,1.0009719401030548e-05,6.3537928374229085e-06,3.6342126086061006e-07
4.111456421759898e-07,9.8887843337204e-06,6.244763535942027e-06,3.627575686939361e-07
4.075995740122481e-07,9.766761358893927e-06,6.14064054136462e-06,3.622422375120819e-07
4.046234231330049e-07,9.644249759275224e-06,6.041808043234588e-06,3.618848741864215e-07
4.021934439312547e-07,9.52175021751595e-06,5.948534649860194e-06,3.6169228679592e-07
4.0028526889038063e-07,9.399674406442529e-06,5.860984431350326e-06,3.616676443371118e-07
3.988771363997079e-07,9.278384970387347e-06,5.7792363796972525e-06,3.618109903175714e-07
3.979512727892496e-07,9.158276947835783e-06,5.703308869135024e-06,3.621226485359525e-07
3.9749153295178937e-07,9.039870746969428e-06,5.6331713569940164e-06,3.6260642216664657e-07
3.974793205763235e-07,8.923843916626868e-06,5.5687450631736395e-06,3.63268132118739e-07
3.9789110367083946e-07,8.810962623319396e-06,5.5099066617992415e-06,3.6411086561674783e-07
3.9869881546610405e-07,8.701981081158913e-06,5.456487422227574e-06,3.651323182894053e-07
3.9987154686685674e-07,8.597579328815474e-06,5.4082693977969456e-06,3.6632611346473543e-07
4.0137610930516244e-07,8.49833741852439e-06,5.36499108287112e-06,3.6768448510277097e-07
4.031764858374525e-07,8.404789723902127e-06,5.3263517793402015e-06,3.6919958195272314e-07
4.052342078426013e-07,8.317597712370269e-06,5.292008699178056e-06,3.7086305105804884e-07
4.0751020154244156e-07,8.237706884391681e-06,5.2615780916935895e-06,3.7266488686362706e-07
4.099665878992954e-07,8.166332560009822e-06,5.234644900830823e-06,3.745923271510687e-07
4.125669130015856e-07,8.104813793968901e-06,5.210778583801945e-06,3.7662924363253976e-07
4.152750408493557e-07,8.054465970474711e-06,5.1895458567582465e-06,3.787564174648242e-07
4.180544407578906e-07,8.016490857312467e-06,5.17051710423892e-06,3.809528564199482e-07
4.208684115353747e-07,7.991935634801247e-06,5.1532810195929715e-06,3.83198110785022e-07
4.23680640379316e-07,7.981665348700252e-06,5.137469578483343e-06,3.8547561459791215e-07
4.2645616694472156e-07,7.986322176965097e-06,5.1227688221816615e-06,3.877757456891385e-07
4.2916251182733775e-07,8.006298602710825e-06,5.108900145020287e-06,3.900961700741421e-07
4.3177048878044126e-07,8.041753476405327e-06,5.095591807746427e-06,3.9243892574310725e-07
4.342545617660158e-07,8.092635853923015e-06,5.082572233215393e-06,3.9480611586460254e-07
4.3659234513476236e-07,8.158685378318224e-06,5.069596099981766e-06,3.971969494858225e-07
4.387641973452625e-07,8.239429750652624e-06,5.056481303055356e-06,3.9960796816766896e-07
4.4075430965053405e-07,8.334196343899374e-06,5.0431265169038825e-06,4.0203631644434744e-07
4.4255153553690365e-07,8.44213270119932e-06,5.0295138510571885e-06,4.044832088406513e-07
4.4414782691323717e-07,8.562230995913604e-06,5.015702001959566e-06,4.0695311410210023e-07
4.4553559656312817e-07,8.693357402019676e-06,5.001788933223533e-06,4.0944905074968853e-07
4.467063396625165e-07,8.834288556217207e-06,4.987863243719101e-06,4.1196950135630864e-07
4.4765134537496346e-07,8.98375899766149e-06,4.973986667981577e-06,4.1450875488968074e-07
4.4836368269584094e-07,9.14052134055329e-06,4.960197276919884e-06,4.1705797816533726e-07
4.4883939832301255e-07,9.303393247833247e-06,4.946505176485501e-06,4.196053843568915e-07
4.4907685744774456e-07,9.471250657044748e-06,4.93288160204712e-06,4.2213706385521325e-07
4.490755562141573e-07,9.642973371052273e-06,4.919253769182466e-06,4.2464102137481046e-07
4.488355730524206e-07,9.8173936895377e-06,4.9055143531632865e-06,4.271115551947151e-07
4.483572491220316e-07,9.993280164343863e-06,4.89154691566325e-06,4.295481243343608e-07
4.476409619855804e-07,1.016935751927484e-05,4.877256278821629e-06,4.3195083159548523e-07
4.466871905708378e-07,1.0344353464038798e-05,4.862581091932866e-06,4.343181628008532e-07
4.4549666074096935e-07,1.0517043041407682e-05,4.847475397515771e-06,4.366467311090558e-07
4.440708985566002e-07,1.0686261801289476e-05,4.831881598489827e-06,4.389315996989854e-07
4.424138862840634e-07,1.0850902214853641e-05,4.815723617719647e-06,4.411672377871706e-07
4.40533785917594e-07,1.1009913051033791e-05,4.798912742352388e-06,4.4334833233498146e-07
4.3844245110437404e-07,1.1162294986613774e-05,4.781351745958648e-06,4.454700797669364e-07
4.3615302454804584e-07,1.130710797333522e-05,4.7629542529555536e-06,4.475282291589077e-07
4.336779555312035e-07,1.1443509409604624e-05,4.7436980443516535e-06,4.495185255269861e-07
4.310283412410061e-07,1.1570789694052549e-05,4.7236906334259386e-06,4.514354740174709e-07
4.282145421667422e-07,1.1688375048313407e-05,4.703188071126307e-06,4.532718905276708e-07
4.252475262472985e-07,1.1795818130488298e-05,4.682533860972734e-06,4.550192416639778e-07
4.2213918082744715e-07,1.1892806581872216e-05,4.662069540008754e-06,4.56667273783539e-07
4.189010824557611e-07,1.19791936410377e-05,4.642083274525388e-06,4.58204821729651e-07
4.1554358070212656e-07,1.2055014543062075e-05,4.6227959892785466e-06,4.5962335373793285e-07
4.120760986765735e-07,1.2120444014081974e-05,4.604362646649293e-06,4.6091933299042846e-07
4.085079440191865e-07,1.2175706137714673e-05,4.586877589702736e-06,4.620928933498472e-07
4.0484898504554586e-07,1.2220994941096733e-05,4.5703790455278705e-06,4.6314531890494356e-07
4.011102629771072e-07,1.2256446206225036e-05,4.55486386674899e-06,4.6407720518882226e-07
3.9730495054673573e-07,1.2282151078663547e-05,4.540309680313661e-06,4.648880217525563e-07
3.934486914854814e-07,1.2298176892711333e-05,4.5266821978166566e-06,4.6557700177869776e-07
3.895584264527766e-07,1.2304576726263972e-05,4.5139367602042066e-06,4.661434389999381e-07
3.8565060331296155e-07,1.23014229674922e-05,4.502039813654676e-06,4.6658557741943033e-07
3.8173990034819776e-07,1.2288926313405895e-05,4.490990080412617e-06,4.668992906947962e-07
3.778387433335013e-07,1.2267584472205248e-05,4.4808003843294264e-06,4.6707829246618435e-07
3.7395711990618795e-07,1.2238207271193033e-05,4.471454829055872e-06,4.671160575419546e-07
3.701027239726272e-07,1.2201792420822445e-05,4.4628864559155416e-06,4.670069035118413e-07
3.66281584331769e-07,1.2159366985960667e-05,4.4549876427734965e-06,4.6674527610059727e-07
3.6249825571772966e-07,1.2111883815381191e-05,4.44763423083483e-06,4.663251687114335e-07
3.5875572302344726e-07,1.2060206760567085e-05,4.440697158652333e-06,4.6573988466690683e-07
3.55056165535576e-07,1.2005204605835925e-05,4.434032726434531e-06,4.649814108678152e-07
3.5140239015162247e-07,1.1947906209588416e-05,4.427471845160458e-06,4.6404023365576594e-07
3.47799208642964e-07,1.1889590688090455e-05,4.420825717679047e-06,4.629065622724281e-07
3.4425437944645903e-07,1.1831748888564267e-05,4.413903898693437e-06,4.6157284805023544e-07
3.407785604323405e-07,1.1775971106596116e-05,4.406530526164961e-06,4.6003539122676363e-07
3.3738362401677754e-07,1.1723829532283094e-05,4.398545023036852e-06,4.5829324054904825e-07
3.340803314917172e-07,1.1676783027023993e-05,4.38979238060299e-06,4.563460350433694e-07
3.308776742504273e-07,1.1636121192083785e-05,4.380123598132354e-06,4.54192672371912e-07
3.2778395594226215e-07,1.1602954369384407e-05,4.369414497292609e-06,4.5183094675643577e-07
3.248087631924664e-07,1.157823485687775e-05,4.357593714621138e-06,4.4925790974775886e-07
3.219648584378167e-07,1.1562783022630753e-05,4.344663600398223e-06,4.464701921512302e-07
3.192676437323268e-07,1.1557276363030342e-05,4.330707303764492e-06,4.4346399133054026e-07
3.167328931533592e-07,1.1562185687147418e-05,4.315897515169982e-06,4.402355534225296e-07
3.1437544154241064e-07,1.1577707483837524e-05,4.3005138676856064e-06,4.3678182612697535e-07
3.122084876075009e-07,1.1603740651760699e-05,4.284935078387895e-06,4.331003921770092e-07
3.1024233375289397e-07,1.1639912138723315e-05,4.2695846703991535e-06,4.291892798831758e-07
3.084828487037704e-07,1.1685651237536495e-05,4.2548804379096115e-06,4.250474156699993e-07
3.069306530510757e-07,1.1740307967232226e-05,4.2412358299305915e-06,4.206758466242584e-07
3.055817459496574e-07,1.1803266532977255e-05,4.229090595477138e-06,4.160788982259939e-07
3.0442901924340537e-07,1.1873993610018566e-05,4.2189203494883064e-06,4.112646086418551e-07
3.0346312578335105e-07,1.1952023342844086e-05,4.211197770256169e-06,4.0624612990535155e-07
3.026723550198908e-07,1.2036922504785153e-05,4.206337474636023e-06,4.010438448953689e-07
3.020428016511089e-07,1.2128265525387254e-05,4.2046731719046345e-06,3.956846674452316e-07
3.015594812333827e-07,1.2225633139144646e-05,4.206452928766798e-06,3.9019890294926493e-07
3.012081045847799e-07,1.2328611926750336e-05,4.211832830862848e-06,3.846179001548843e-07
3.0097739872751853e-07,1.2436753380371015e-05,4.220885330286702e-06,3.789724235221388e-07
3.008614767783583e-07,1.2549525266454545e-05,4.233614893607575e-06,3.7329135265775116e-07
