Time,Data_Filt_E0,Data_Filt_E1,Data_Filt_E6,Data_Filt_CD,On-set
0.0,3.6292398057428993e-07,4.323010889046285e-07,2.097388956018119e-07,1.335574999865746e-05,0.0
0.001,3.617800504431897e-07,4.315074978013839e-07,2.095695840423376e-07,1.3746035480492324e-05,0.0
0.002,3.605043700431951e-07,4.306415771821992e-07,2.094033460300846e-07,1.4150293697681093e-05,0.0
0.003,3.591130029259542e-07,4.2969276723738237e-07,2.0924542805614527e-07,1.4566191229044997e-05,0.0
0.004,3.576312013207928e-07,4.28651667361864e-07,2.0910153124829255e-07,1.499126854863497e-05,0.0
0.005,3.5608880616727505e-07,4.275136430280995e-07,2.0897664751755505e-07,1.5422993800933974e-05,0.0
0.006,3.545168472999508e-07,4.262806248467792e-07,2.0887659154396707e-07,1.5858867479532932e-05,0.0
0.007,3.529469684062277e-07,4.249581637323753e-07,2.088099532863169e-07,1.6296512534289025e-05,0.0
0.008,3.5141250317029785e-07,4.235508225340512e-07,2.087885328481297e-07,1.673371545460829e-05,0.0
0.009000000000000001,3.4994746438727346e-07,4.22060580100104e-07,2.088268701688453e-07,1.716842517117857e-05,0.0
0.01,3.485826258938981e-07,4.20487792414874e-07,2.089418646517183e-07,1.7598742684812158e-05,0.0
0.011,3.473423882480465e-07,4.188317610345036e-07,2.091517026742738e-07,1.802291298900298e-05,0.0
0.012,3.4624434305595906e-07,4.170905680273181e-07,2.0947315127627007e-07,1.843929002138694e-05,0.0
0.013000000000000001,3.453009765307593e-07,4.1526177464637873e-07,2.0991874129436065e-07,1.884626989532008e-05,0.0
0.014,3.445226552439568e-07,4.133442969926018e-07,2.104957995063499e-07,1.924224081074772e-05,0.0
0.015,3.439195169896043e-07,4.1133969842283693e-07,2.1120709832889898e-07,1.9625594072628875e-05,0.0
0.016,3.435011146320901e-07,4.092517930228506e-07,2.1205277046615695e-07,1.9994777362694525e-05,0.0
0.017,3.432796626318022e-07,4.070868299073604e-07,2.130345631850096e-07,2.0348379099861917e-05,0.0
0.018000000000000002,3.4328349060402295e-07,4.048565724426173e-07,2.1416256555619526e-07,2.0685293156754625e-05,0.0
0.019,3.435711377822752e-07,4.025810873634432e-07,2.154593708007385e-07,2.100489989087325e-05,0.0
0.02,3.442301830797383e-07,4.0028777030251385e-07,2.1695628525702034e-07,2.1307110242407e-05,0.0
0.021,3.453648104027482e-07,3.9800909824086733e-07,2.1868634885452813e-07,2.1592272216424463e-05,0.0
0.022,3.470844677501912e-07,3.957814843868188e-07,2.206821034573044e-07,2.186101796474152e-05,0.0
0.023,3.4949461370856e-07,3.936444022916016e-07,2.229766276494391e-07,2.211409966683549e-05,0.0
0.024,3.526881858697309e-07,3.916400687570436e-07,2.2560222221945607e-07,2.2352271890943867e-05,0.0
0.025,3.567399286863393e-07,3.898149138830293e-07,2.285864920128686e-07,2.2576209480523167e-05,0.0
0.026000000000000002,3.617045664276722e-07,3.882205522372373e-07,2.319492033718545e-07,2.278641755587715e-05,0.0
0.027,3.676184669170192e-07,3.8690976959687227e-07,2.357009758168621e-07,2.298319586050896e-05,0.0
0.028,3.745032399249494e-07,3.8592892092417723e-07,2.39842917185828e-07,2.3166723478273e-05,0.0
0.029,3.823690241457597e-07,3.853127610638786e-07,2.443677293454885e-07,2.3337202468405865e-05,0.0
0.03,3.9121681122424557e-07,3.8508354708486805e-07,2.492628567746732e-07,2.3494977733800585e-05,0.0
0.031,4.01039657018968e-07,3.8525322862009603e-07,2.545142503589091e-07,2.364061486296393e-05,0.0
0.032,4.118228247948594e-07,3.85828415677424e-07,2.601094190433017e-07,2.377490866021509e-05,0.0
0.033,4.235440008677417e-07,3.868159209948768e-07,2.660395636704595e-07,2.3898797351272577e-05,0.0
0.034,4.361747188986356e-07,3.8822550639712397e-07,2.7230009042310215e-07,2.4013244531703868e-05,0.0
0.035,4.496830468591658e-07,3.90068855168022e-07,2.788891179613134e-07,2.4119172228236203e-05,0.0
0.036000000000000004,4.640346018423751e-07,3.923559060623669e-07,2.8580453536082345e-07,2.4217431691949615e-05,0.0
0.037,4.791902215139372e-07,3.9509171773262723e-07,2.930405307240979e-07,2.4308754094677546e-05,0.0
0.038,4.95104108591746e-07,3.9827612254852594e-07,3.005853895223817e-07,2.4393698773025864e-05,0.0
0.039,5.11724051322555e-07,4.019045564206577e-07,3.084208398293071e-07,2.4472651350269933e-05,0.0
0.04,5.289907343099256e-07,4.059690871501195e-07,3.165218378347279e-07,2.454585252874484e-05,0.0
0.041,5.468355994223984e-07,4.1046143062359633e-07,3.248577030200321e-07,2.461340512305694e-05,0.0
0.042,5.651796116565592e-07,4.1537738423139817e-07,3.333942108096865e-07,2.4675255162103547e-05,0.0
0.043000000000000003,5.839340326857501e-07,4.207179063999939e-07,3.420939581109055e-07,2.4731167159147094e-05,0.0
0.044,6.030029101980148e-07,4.26484487342143e-07,3.509154517482247e-07,2.4780707907376693e-05,0.0
0.045,6.222868922879612e-07,4.326726866454603e-07,3.598133246201418e-07,2.4823258209572385e-05,0.0
0.046,6.416860492558039e-07,4.392685102784753e-07,3.687394171672003e-07,2.4858047870977285e-05,0.0
0.047,6.6109956296939e-07,4.4624829135063226e-07,3.776437794648633e-07,2.4884184685363225e-05,0.0
0.048,6.804247679223633e-07,4.535799520307762e-07,3.8647667998065533e-07,2.490067853842861e-05,0.0
0.049,6.995583422912417e-07,4.612240147919225e-07,3.95191232906391e-07,2.49064740683378e-05,0.0
0.05,7.183993084015128e-07,4.6913452173277356e-07,4.0374431950979253e-07,2.4900500780117107e-05,0.0
0.051000000000000004,7.368540792579174e-07,4.772606855599228e-07,4.120965583785049e-07,2.4881789414383584e-05,0.0
0.052000000000000005,7.548418644806695e-07,4.855494613835614e-07,4.202126499214579e-07,2.484964246657173e-05,0.0
0.053,7.722943569847819e-07,4.9394822915508e-07,4.280607782209826e-07,2.4803702633824996e-05,0.0
0.054,7.891494736345813e-07,5.024057084010832e-07,4.3561123529584923e-07,2.474384285149924e-05,0.0
0.055,8.053468971353165e-07,5.108708844398777e-07,4.4283537564970907e-07,2.4670024542166208e-05,0.0
0.056,8.208281059358392e-07,5.192933881582262e-07,4.497048443471333e-07,2.458229198834826e-05,0.0
0.057,8.355367715691764e-07,5.276266927882175e-07,4.561918325330729e-07,2.4480893470362704e-05,0.0
0.058,8.49417752840666e-07,5.358302468693095e-07,4.622709385362955e-07,2.436638213736393e-05,0.0
0.059000000000000004,8.624166979819783e-07,5.438678446603117e-07,4.679206806664076e-07,2.423960164016686e-05,0.0
0.06,8.744824896832857e-07,5.517043957575018e-07,4.731225755129654e-07,2.4101592598543108e-05,0.0
0.061,8.855721506833765e-07,5.593044782202067e-07,4.778593798972571e-07,2.39534872508872e-05,0.0
0.062,8.956545826796179e-07,5.666332943232254e-07,4.821151921874205e-07,2.3796429613972e-05,0.0
0.063,9.047111212152136e-07,5.736573444152694e-07,4.858774887750835e-07,2.363153840049663e-05,0.0
0.064,9.127341049922212e-07,5.80343264225752e-07,4.891394712312373e-07,2.345990228776384e-05,0.0
0.065,9.197238412893782e-07,5.866570653801535e-07,4.919009626196791e-07,2.3282572440876885e-05,0.0
0.066,9.256847225602106e-07,5.925650906877952e-07,4.941676316003348e-07,2.3100533163989702e-05,0.0
0.067,9.306225436164204e-07,5.980356300267164e-07,4.959492680681812e-07,2.29146865178958e-05,0.0
0.068,9.345429826068112e-07,6.030404993752542e-07,4.972575860196681e-07,2.272590445825336e-05,0.0
0.069,9.374506289352032e-07,6.075553598383004e-07,4.981046650177133e-07,2.253511557326709e-05,0.0
0.07,9.393492785325382e-07,6.115581759479313e-07,4.985023849360011e-07,2.2343297851747246e-05,0.0
0.07100000000000001,9.40242815779018e-07,6.150276941994082e-07,4.984622450180743e-07,2.215134661150309e-05,0.0
0.07200000000000001,9.401353800738968e-07,6.17943407769656e-07,4.979958398027477e-07,2.196000683270027e-05,0.0
0.073,9.390317656636114e-07,6.202863426171663e-07,4.971159618136446e-07,2.1770040310856856e-05,0.0
0.074,9.369390451665404e-07,6.220395902325776e-07,4.958367446975556e-07,2.158250039621535e-05,0.0
0.075,9.338683540905844e-07,6.231888456303903e-07,4.94172403523668e-07,2.139883386416344e-05,0.0
0.076,9.298356558853962e-07,6.237234405486621e-07,4.921365925104372e-07,2.122073682414207e-05,0.0
0.077,9.248619057509372e-07,6.23637324573621e-07,4.897429289023158e-07,2.104991753780925e-05,0.0
0.078,9.189737516141502e-07,6.22930401447146e-07,4.870051031850466e-07,2.0887890126314696e-05,0.0
0.079,9.12203968712647e-07,6.216103633303578e-07,4.839361522327837e-07,2.0735830917236865e-05,0.0
0.08,9.045893073415728e-07,6.19693297245864e-07,4.805478504939978e-07,2.059451766194448e-05,0.0
0.081,8.961668816572885e-07,6.172039586386885e-07,4.768516535222966e-07,2.0464351465180828e-05,0.0
0.082,8.869730560835542e-07,6.141776215212445e-07,4.728610745926123e-07,2.034542086242053e-05,0.0
0.083,8.770447422895808e-07,6.106608346933766e-07,4.685929671738399e-07,2.023757023282208e-05,0.0
0.084,8.664200182452721e-07,6.067081835857894e-07,4.6406704933368237e-07,2.0140459192348124e-05,0.0
0.085,8.551376351129874e-07,6.023761265169588e-07,4.593052804706145e-07,2.005359966058504e-05,0.0
0.08600000000000001,8.432363534112712e-07,5.977171111168211e-07,4.543314205406853e-07,1.9976357891990376e-05,0.0
0.08700000000000001,8.307543938018873e-07,5.927772190826685e-07,4.491701698329786e-07,1.990793464824292e-05,0.0
0.088,8.177291314943165e-07,5.87597096374183e-07,4.43845704613461e-07,1.9847353328582743e-05,0.0
0.089,8.041969799441888e-07,5.822130857737572e-07,4.383805142589365e-07,1.979347508657847e-05,0.0
0.09,7.901943494568993e-07,5.766580523232956e-07,4.3279541043546396e-07,1.9745041087364845e-05,0.0
0.091,7.757603356403431e-07,5.709633445261968e-07,4.271101278883706e-07,1.970071816989415e-05,0.0
0.092,7.609391618502143e-07,5.651617222494983e-07,4.213436649590559e-07,1.9659123515294685e-05,0.0
0.093,7.457810172989409e-07,5.592895262407836e-07,4.155142122866817e-07,1.961884271070898e-05,0.0
0.094,7.303422171964055e-07,5.533857540559843e-07,4.0963929647760397e-07,1.957846389848165e-05,0.0
0.095,7.146844437632355e-07,5.474886724130237e-07,4.037361045576133e-07,1.9536613298038897e-05,0.0
0.096,6.9887230320154e-07,5.416347095565822e-07,3.9782097146526347e-07,1.949196646099e-05,0.0
0.097,6.829700130243389e-07,5.358603104564124e-07,3.919084769321106e-07,1.9443238520810623e-05,0.0
0.098,6.670390571775443e-07,5.302017158798151e-07,3.860113810534009e-07,1.9389174007876928e-05,0.0
0.099,6.511377513167579e-07,5.246919812861651e-07,3.80141253343253e-07,1.932854698741024e-05,0.0
0.1,6.353215110560185e-07,5.193592296681472e-07,3.7430915319514323e-07,1.926017599630224e-05,0.0
0.101,6.196434042298995e-07,5.142265880720784e-07,3.685258685260229e-07,1.918296435451897e-05,0.0
0.10200000000000001,6.041547976890922e-07,5.093119818172264e-07,3.628012423195596e-07,1.9095965860842107e-05,0.0
0.10300000000000001,5.889044298785994e-07,5.046275326279597e-07,3.5714314207898217e-07,1.8998440588967785e-05,0.0
0.10400000000000001,5.73936912256131e-07,5.001791682346898e-07,3.515572348998924e-07,1.888986040018852e-05,0.0
0.105,5.592930764887454e-07,4.959672829627217e-07,3.460477137206004e-07,1.876986811844836e-05,0.0
0.106,5.450113999279056e-07,4.919877448241975e-07,3.406184404585442e-07,1.863822934691289e-05,0.0
0.107,5.311279804567398e-07,4.882326919378075e-07,3.352740477012995e-07,1.849480348666189e-05,0.0
0.108,5.176746353651243e-07,4.846930924755358e-07,3.300204719083821e-07,1.8339523057320592e-05,0.0
0.109,5.046781227915209e-07,4.813627891132606e-07,3.2486447409162365e-07,1.817237146725781e-05,0.0
0.11,4.921622421308018e-07,4.782404363608035e-07,3.198123656581e-07,1.799338296305894e-05,0.0
0.111,4.801496157736912e-07,4.7532811309743843e-07,3.148690044087417e-07,1.7802674837653545e-05,0.0
0.112,4.686604050654305e-07,4.726289460295764e-07,3.10037839491244e-07,1.7600478385720652e-05,0.0
0.113,4.577100244026007e-07,4.701448333248376e-07,3.053212798528684e-07,1.7387147781038107e-05,0.0
0.114,4.473082974550862e-07,4.6787361032016526e-07,3.007205378633616e-07,1.7163183309984787e-05,0.0
0.115,4.374597493268269e-07,4.658079175737575e-07,2.962358472925524e-07,1.69292835542488e-05,0.0
0.116,4.281643784307016e-07,4.639375687028104e-07,2.918675771557912e-07,1.668634209014843e-05,0.0
0.117,4.194189917260119e-07,4.622515211741906e-07,2.876168325364489e-07,1.6435337186871344e-05,0.0
0.11800000000000001,4.1121861148558476e-07,4.607365503865795e-07,2.834849664340381e-07,1.617721552387795e-05,0.0
0.11900000000000001,4.035569577524641e-07,4.59375992722151e-07,2.7947316989240904e-07,1.5912869827305624e-05,0.0
0.12,3.964258154465241e-07,4.5815131290937283e-07,2.755825711318916e-07,1.5643169915857666e-05,0.0
0.121,3.898144312010803e-07,4.5704429295169814e-07,2.7181427088552745e-07,1.5368969976430437e-05,0.0
0.122,3.8371024858521e-07,4.560375159914236e-07,2.681695082373475e-07,1.50910933242645e-05,0.0
0.123,3.7810003148332164e-07,4.551139036250486e-07,2.646497469929117e-07,1.481036149364853e-05,0.0
0.124,3.7296939914194e-07,4.542572035300977e-07,2.612559943103014e-07,1.4527730125048475e-05,0.0
0.125,3.6830114455977284e-07,4.534533897312602e-07,2.579883579985139e-07,1.424447886241528e-05,0.0
0.126,3.6407467093973605e-07,4.5269069659978217e-07,2.548468679949183e-07,1.3962278645369453e-05,0.0
0.127,3.602683840404474e-07,4.5195771865227436e-07,2.518329504906421e-07,1.3683044325799188e-05,0.0
0.128,3.568633014652446e-07,4.512424829901835e-07,2.4894986722941666e-07,1.340868289920622e-05,0.0
0.129,3.538436336744433e-07,4.5053405938488643e-07,2.462012791743327e-07,1.3140905770173274e-05,0.0
0.13,3.511944693148838e-07,4.498244862189787e-07,2.435896471244949e-07,1.2881217745580184e-05,0.0
0.131,3.489007527370967e-07,4.49109739726096e-07,2.411158900284275e-07,1.2631105664243236e-05,0.0
0.132,3.469478880758949e-07,4.483900333487709e-07,2.387803076334313e-07,1.239227427816397e-05,0.0
0.133,3.453211177145363e-07,4.476682503231305e-07,2.3658454005009577e-07,1.216669795904573e-05,0.0
0.134,3.440040335862766e-07,4.469465081689755e-07,2.3453247245230698e-07,1.1956451678363558e-05,0.0
0.135,3.429780822739139e-07,4.46223390575153e-07,2.326283624148877e-07,1.1763481881352642e-05,0.0
0.136,3.422225039918527e-07,4.454933842239208e-07,2.3087432790083537e-07,1.1589440502233696e-05,0.0
0.137,3.417140535563925e-07,4.447475203493527e-07,2.292700263405197e-07,1.1435593750344645e-05,0.0
0.138,3.414274686116019e-07,4.439739223373189e-07,2.2781451074607978e-07,1.1302784345336845e-05,0.0
0.139,3.413373321839473e-07,4.431588488373246e-07,2.2650790580518698e-07,1.1191444569769188e-05,0.0
0.14,3.414203240850179e-07,4.4228891971706556e-07,2.253511030667877e-07,1.110167207770952e-05,0.0
0.14100000000000001,3.4165576168474777e-07,4.413528068092894e-07,2.2434481319702545e-07,1.1033350133662856e-05,0.0
0.14200000000000002,3.420239155111899e-07,4.403417195694217e-07,2.234902477791595e-07,1.0986244655848043e-05,0.0
0.14300000000000002,3.425040712080345e-07,4.392506663708458e-07,2.2279074331554094e-07,1.0960029326084806e-05,0.0
0.14400000000000002,3.430742811473193e-07,4.380797377365726e-07,2.2225174304417014e-07,1.09542639114578e-05,0.0
0.145,3.437129085152174e-07,4.368330363684563e-07,2.218787894335145e-07,1.0968370067035962e-05,0.0
0.146,3.443996985755903e-07,4.355158655837113e-07,2.2167591252481267e-07,1.100160636461823e-05,0.0
0.147,3.45115311733974e-07,4.341324594458607e-07,2.2164582827212965e-07,1.1053040414189938e-05,0.0
0.148,3.45841807377388e-07,4.326856715540821e-07,2.217908542547114e-07,1.1121564570496692e-05,0.0
0.149,3.4656425944231414e-07,4.311778604491866e-07,2.2211396089959585e-07,1.1205985153413208e-05,0.0
0.15,3.472711079754108e-07,4.296113504352497e-07,2.22619859322584e-07,1.1305125972890344e-05,0.0
0.151,3.479532737185803e-07,4.279881116470675e-07,2.2331441458142721e-07,1.1417882073166388e-05,0.0
0.152,3.486025450311359e-07,4.263104327746211e-07,2.2420318482713317e-07,1.1543235479892871e-05,0.0
0.153,3.49209460844566e-07,4.24583795797941e-07,2.252914862242283e-07,1.1680262212204367e-05,0.0
0.154,3.49762093081404e-07,4.228187919957708e-07,2.2658423107761797e-07,1.1828125370282463e-05,0.0
0.155,3.5024633836815097e-07,4.210296832138626e-07,2.2808449243675375e-07,1.1986034189940198e-05,0.0
0.156,3.506470647915957e-07,4.1923177502997756e-07,2.297929495247013e-07,1.215316632559608e-05,0.0
0.157,3.509492314052253e-07,4.174389948371797e-07,2.3170805760074046e-07,1.2328584895056151e-05,0.0
0.158,3.511385394108544e-07,4.1566167210301094e-07,2.3382565680296965e-07,1.2511197246012767e-05,0.0
0.159,3.512023690388328e-07,4.139055347586584e-07,2.3613878679159947e-07,1.2699766155176362e-05,0.0
0.16,3.5113158925412295e-07,4.121721466427301e-07,2.386382219107944e-07,1.289293676185686e-05,0.0
0.161,3.509219706558731e-07,4.10459884591495e-07,2.4131269722877685e-07,1.3089256671364036e-05,0.0
0.162,3.505733827802914e-07,4.087655323516146e-07,2.441484823651911e-07,1.3287199913640296e-05,0.0
0.163,3.500872665446034e-07,4.070866874494099e-07,2.471291665322585e-07,1.3485198184666724e-05,0.0
0.164,3.4946491615567057e-07,4.054234972807195e-07,2.502360027659652e-07,1.3681671751502153e-05,0.0
0.165,3.48708206021676e-07,4.037789404380952e-07,2.5344852868498145e-07,1.3875047163726577e-05,0.0
0.166,3.478219945488879e-07,4.021584193877714e-07,2.567451841392006e-07,1.4063755572397951e-05,0.0
0.167,3.468149801610831e-07,4.005685994941331e-07,2.6010361506434215e-07,1.4246234618336222e-05,0.0
0.168,3.456972296802601e-07,3.990156578383951e-07,2.635008970079259e-07,1.4420954761113488e-05,0.0
0.169,3.444772018662392e-07,3.975044249394257e-07,2.669141580077391e-07,1.458645795241121e-05,0.0
0.17,3.4316083813969445e-07,3.960386407459485e-07,2.703212733033352e-07,1.4741398452159876e-05,0.0
0.171,3.417520284093605e-07,3.946213462831981e-07,2.737012818570007e-07,1.4884603662429782e-05,0.0
0.17200000000000001,3.402535908573495e-07,3.9325560764612956e-07,2.770347181150128e-07,1.501514224485542e-05,0.0
0.17300000000000001,3.386683995134385e-07,3.9194534833507726e-07,2.803039714693625e-07,1.5132328261028587e-05,0.0
0.17400000000000002,3.3699982417478536e-07,3.90695107095225e-07,2.834931926493093e-07,1.5235643280345049e-05,0.0
0.17500000000000002,3.352515186875209e-07,3.8950978652852433e-07,2.865871170686061e-07,1.532466179177915e-05,0.0
0.176,3.334276811998713e-07,3.883965225127067e-07,2.895697207765576e-07,1.5399039852197906e-05,0.0
0.177,3.315344729702723e-07,3.873672396909385e-07,2.924244687995233e-07,1.5458529874779487e-05,0.0
0.178,3.295812169350016e-07,3.864389420427997e-07,2.951360243162805e-07,1.5502969588708155e-05,0.0
0.179,3.275791320443302e-07,3.856328303096474e-07,2.9769125843231945e-07,1.5532257475450448e-05,0.0
0.18,3.255389055505976e-07,3.8497361754075963e-07,3.000786313855431e-07,1.554640332376656e-05,0.0
0.181,3.234699725406956e-07,3.844864484539427e-07,3.022879301998956e-07,1.554569477092267e-05,0.0
0.182,3.213809347656355e-07,3.8419145068303654e-07,3.043112864987147e-07,1.553081944606732e-05,0.0
0.183,3.192793069731e-07,3.841003459717606e-07,3.0614382340157346e-07,1.550277561549507e-05,0.0
0.184,3.171715370725967e-07,3.8421663087320747e-07,3.077836144478716e-07,1.546266130013851e-05,0.0
0.185,3.150647974351091e-07,3.845374469675235e-07,3.092316348787631e-07,1.5411510148703526e-05,0.0
0.186,3.129683643478671e-07,3.850562158273141e-07,3.104909267488337e-07,1.5350233086425365e-05,0.0
0.187,3.108927350872173e-07,3.857649879305659e-07,3.115649597900823e-07,1.5279714320780407e-05,0.0
0.188,3.088479792374688e-07,3.866552396219982e-07,3.124570149498079e-07,1.5201039664835971e-05,0.0
0.189,3.0684209875118333e-07,3.8771860207442883e-07,3.131716281541845e-07,1.5115656918683643e-05,0.0
0.19,3.0488023510937304e-07,3.8894822903909966e-07,3.1371715353562137e-07,1.5025325292687232e-05,0.0
0.191,3.029659347915553e-07,3.903393296042232e-07,3.141069313363929e-07,1.493194395615183e-05,0.0
0.192,3.0110275820266625e-07,3.918890560340418e-07,3.143576635907652e-07,1.4837395306263105e-05,0.0
0.193,2.992941407515849e-07,3.935951013333957e-07,3.144867683349075e-07,1.4743439249371863e-05,0.0
0.194,2.975423433001354e-07,3.954524272091571e-07,3.145102312788894e-07,1.4651646104850808e-05,0.0
0.195,2.958485178557494e-07,3.974508795474543e-07,3.14441117277977e-07,1.456335514843467e-05,0.0
0.196,2.942144419270032e-07,3.99575335533484e-07,3.142892170129721e-07,1.4479656017436091e-05,0.0
0.197,2.9264401760956495e-07,4.018072832070506e-07,3.14061636582067e-07,1.4401392908096558e-05,0.0
0.198,2.9114295447945174e-07,4.041259031735218e-07,3.137637267881505e-07,1.4329177920542045e-05,0.0
0.199,2.897177848535885e-07,4.065083082032847e-07,3.133998647367623e-07,1.4263394025374685e-05,0.0
0.2,2.8837511021931005e-07,4.0893159395893643e-07,3.129737174272599e-07,1.4204193476251262e-05,0.0
0.201,2.871208139535164e-07,4.113760628547189e-07,3.124891796687734e-07,1.4151519559333975e-05,0.0
0.202,2.8595950055025414e-07,4.138253350428297e-07,3.119524861038596e-07,1.4105145170371964e-05,0.0
0.203,2.848942321844704e-07,4.162641011354778e-07,3.11372633365724e-07,1.4064695809896096e-05,0.0
0.20400000000000001,2.839263815638003e-07,4.186766516260377e-07,3.1075906661021986e-07,1.4029668730334634e-05,0.0
0.20500000000000002,2.830558605100313e-07,4.210461449747168e-07,3.101194655321155e-07,1.399946789255559e-05,0.0
0.20600000000000002,2.822821399571457e-07,4.233548881197327e-07,3.0945896053027725e-07,1.39734336459791e-05,0.0
0.20700000000000002,2.816056853379955e-07,4.255867028996985e-07,3.0877998630193653e-07,1.3950865865842837e-05,0.0
0.20800000000000002,2.810282900606908e-07,4.277297156671949e-07,3.08082963773674e-07,1.393105681289882e-05,0.0
0.209,2.80551503282538e-07,4.297763468974234e-07,3.073687917938685e-07,1.3913321459971688e-05,0.0
0.21,2.801746357910188e-07,4.317213443889493e-07,3.06641349010932e-07,1.3897018767586685e-05,0.0
0.211,2.79894146077302e-07,4.335613059948937e-07,3.059070446585205e-07,1.3881563972200773e-05,0.0
0.212,2.7970458528568844e-07,4.352948302006183e-07,3.05172989946072e-07,1.3866411812567653e-05,0.0
0.213,2.796004390023743e-07,4.3692106969218403e-07,3.04446333910016e-07,1.3851022166636074e-05,0.0
0.214,2.795775104230753e-07,4.384383499710698e-07,3.037341391772431e-07,1.383487109393628e-05,0.0
0.215,2.796325938100515e-07,4.398444422962648e-07,3.0304306609665164e-07,1.3817506447501197e-05,0.0
0.216,2.7976242558161345e-07,4.411376425768593e-07,3.0237911514837e-07,1.3798553364323094e-05,0.0
0.217,2.7996359183195145e-07,4.4231791123154164e-07,3.017479365796513e-07,1.3777645587668387e-05,0.0
0.218,2.802328523819603e-07,4.433868153701632e-07,3.0115557334263506e-07,1.3754366772451691e-05,0.0
0.219,2.805670007407644e-07,4.4434591498059165e-07,3.0060895008794144e-07,1.3728258380323288e-05,0.0
0.22,2.809630254916218e-07,4.451953738583495e-07,3.001155683308048e-07,1.3698881729621462e-05,0.0
0.221,2.814186929816993e-07,4.459333569982731e-07,2.996819105137241e-07,1.3665912358483929e-05,0.0
0.222,2.8193237195684e-07,4.465566584718335e-07,2.993115251510295e-07,1.3629247561791548e-05,0.0
0.223,2.8250166808426655e-07,4.470627126271657e-07,2.9900453571964306e-07,1.358906760333177e-05,0.0
0.224,2.831219520516727e-07,4.474505697004984e-07,2.987590378586228e-07,1.354581257814618e-05,0.0
0.225,2.83786220255838e-07,4.477199724051264e-07,2.985734498818235e-07,1.3500121681726736e-05,0.0
0.226,2.844860119295016e-07,4.4787051255498637e-07,2.984484326003108e-07,1.3452772907613207e-05,0.0
0.227,2.852121227799652e-07,4.479016206315981e-07,2.9838701932088525e-07,1.340461620053729e-05,0.0
0.228,2.859554565979186e-07,4.478123111381084e-07,2.983922446945601e-07,1.335649909167312e-05,0.0
0.229,2.867084403292366e-07,4.476009286318009e-07,2.98464272550836e-07,1.330919218197787e-05,0.0
0.23,2.874662321202677e-07,4.4726612498998106e-07,2.9859973771822733e-07,1.326332644920342e-05,0.0
0.231,2.8822769776079e-07,4.468076169131772e-07,2.9879333052261705e-07,1.3219368344679312e-05,0.0
0.232,2.889953507948762e-07,4.4622492449005737e-07,2.990396483425284e-07,1.3177646271773e-05,0.0
0.233,2.897729909692902e-07,4.455155569630316e-07,2.993336102320341e-07,1.3138389235861524e-05,0.0
0.234,2.905633311895049e-07,4.446750752634054e-07,2.99669667826306e-07,1.3101728696643373e-05,0.0
0.23500000000000001,2.913683525257767e-07,4.436992991478878e-07,3.000409362934925e-07,1.3067680849519149e-05,0.0
0.23600000000000002,2.9219090526075525e-07,4.425857594162718e-07,3.0043899683193095e-07,1.3036182071786437e-05,0.0
0.23700000000000002,2.930345033376698e-07,4.4133224208901414e-07,3.008546532740037e-07,1.3007184381989527e-05,0.0
0.23800000000000002,2.939014528697383e-07,4.399346401717504e-07,3.012789194151598e-07,1.2980703222286893e-05,0.0
0.23900000000000002,2.9479198782688464e-07,4.383867126931383e-07,3.017032028762376e-07,1.2956784714001789e-05,0.0
0.24,2.957045178539263e-07,4.366816582366684e-07,3.021188005463874e-07,1.2935475215878896e-05,0.0
0.241,2.966351487419652e-07,4.348138518547275e-07,3.025166601887197e-07,1.2916803386701668e-05,0.0
0.242,2.975769523101645e-07,4.327795253366243e-07,3.028875030655191e-07,1.2900736472076412e-05,0.0
0.243,2.985204703367258e-07,4.305775177154229e-07,3.0322190836714e-07,1.2887141270192271e-05,0.0
0.244,2.994552200428078e-07,4.2821117329934723e-07,3.035104688219795e-07,1.287579245758594e-05,0.0
0.245,3.003708740349708e-07,4.25689552483372e-07,3.0374391107379255e-07,1.2866403658140032e-05,0.0
0.246,3.012580838415914e-07,4.2302598238724476e-07,3.039133880258674e-07,1.2858643401582308e-05,0.0
0.247,3.021095140668704e-07,4.20235124236673e-07,3.040114902807599e-07,1.2852144318990084e-05,0.0
0.248,3.0291963828361e-07,4.173309797895971e-07,3.040332806486491e-07,1.2846519195381282e-05,0.0
0.249,3.036828495541307e-07,4.143263148786403e-07,3.03975981099378e-07,1.2841379212957628e-05,0.0
0.25,3.043923532213048e-07,4.112329663037504e-07,3.038377568454328e-07,1.2836347971589725e-05,0.0
0.251,3.050410087845003e-07,4.080635208285361e-07,3.036178279189238e-07,1.283106537228427e-05,0.0
0.252,3.056226836066151e-07,4.048336378908386e-07,3.033178846593132e-07,1.2825186753479204e-05,0.0
0.253,3.061325911540907e-07,4.015618738613191e-07,3.029419881460905e-07,1.2818396886050674e-05,0.0
0.254,3.065667515669145e-07,3.98267071976949e-07,3.024947790272311e-07,1.281043032225186e-05,0.0
0.255,3.069214848766677e-07,3.949667762627396e-07,3.0198075334757016e-07,1.2801059589120296e-05,0.0
0.256,3.0719317317393e-07,3.9167666444427973e-07,3.014046285176412e-07,1.2790055672645836e-05,0.0
0.257,3.073785331308001e-07,3.884092414052809e-07,3.007713347654755e-07,1.2777162770702522e-05,0.0
0.258,3.074752113471079e-07,3.851732424957112e-07,3.000863470109829e-07,1.276209035056045e-05,0.0
0.259,3.074819583492746e-07,3.8197509252427837e-07,2.993560409701935e-07,1.2744506905048376e-05,0.0
0.26,3.073982936430126e-07,3.7882042898515963e-07,2.9858684408774024e-07,1.2724046542001312e-05,0.0
0.261,3.072238203163623e-07,3.757144827614332e-07,2.97784281019626e-07,1.270032768769532e-05,0.0
0.262,3.069575183555836e-07,3.7266304022462257e-07,2.969529415964987e-07,1.2672960815560856e-05,0.0
0.263,3.0659737190555e-07,3.696743581454637e-07,2.960968788284922e-07,1.2641554028992717e-05,0.0
0.264,3.0614029850413e-07,3.66759586991061e-07,2.952196749044634e-07,1.2605749989832542e-05,0.0
0.265,3.0558214252666026e-07,3.639302471596244e-07,2.9432379599249053e-07,1.2565288250501189e-05,0.0
0.266,3.04917483039006e-07,3.611955028283481e-07,2.934100362651144e-07,1.2520056618760042e-05,0.0
0.267,3.041398374587144e-07,3.5856260590870015e-07,2.924776126984303e-07,1.2470108817478438e-05,0.0
0.268,3.032430110330192e-07,3.56038345784368e-07,2.9152470305019535e-07,1.241563756011515e-05,0.0
0.269,3.022229059997892e-07,3.536281950005065e-07,2.905497500525893e-07,1.235690699857476e-05,0.0
0.27,3.010784799421652e-07,3.5133492300192015e-07,2.895526109159762e-07,1.229417228741172e-05,0.0
0.271,2.9981159565500565e-07,3.491586963814362e-07,2.885339538107833e-07,1.2227632881482782e-05,0.0
0.272,2.9842660981575015e-07,3.4709743998599855e-07,2.874939243987401e-07,1.21574529413957e-05,0.0
0.273,2.969302858387107e-07,3.4514647263192655e-07,2.8643152298105e-07,1.2083807315054506e-05,0.0
0.274,2.95331611953622e-07,3.432980801343818e-07,2.853445532278251e-07,1.2006885218295484e-05,0.0
0.275,2.93641177704166e-07,3.4154158403311385e-07,2.8423020065774685e-07,1.192687824305761e-05,0.0
0.276,2.918700888928465e-07,3.398636933461055e-07,2.8308569914576404e-07,1.1844017931697506e-05,0.0
0.277,2.9002865192751816e-07,3.38249741172028e-07,2.819079114339732e-07,1.1758632565050662e-05,0.0
0.278,2.881262936473871e-07,3.366869042922217e-07,2.80692625183239e-07,1.1671147443420914e-05,0.0
0.279,2.861736935494431e-07,3.351673194433817e-07,2.794352539683907e-07,1.1582026755269783e-05,0.0
0.28,2.841848820239193e-07,3.336876211980879e-07,2.781323142257727e-07,1.149170432804471e-05,0.0
0.281,2.8217622318350335e-07,3.322464373851274e-07,2.7678194916800745e-07,1.1400531681945938e-05,0.0
0.28200000000000003,2.80163218399692e-07,3.308436330946832e-07,2.753834422377355e-07,1.1308769583264756e-05,0.0
0.28300000000000003,2.781582957875814e-07,3.294810511257184e-07,2.73936740587384e-07,1.1216652336675252e-05,0.0
0.28400000000000003,2.761701316669894e-07,3.281632059648571e-07,2.724429187951224e-07,1.1124489381046196e-05,0.0
0.28500000000000003,2.74203688669536e-07,3.268980742355961e-07,2.7090546912732293e-07,1.1032707569616246e-05,0.0
0.28600000000000003,2.722607745411038e-07,3.256969151541144e-07,2.693312717211273e-07,1.0941795231995787e-05,0.0
0.28700000000000003,2.70340998387832e-07,3.2457171154204853e-07,2.677310398413399e-07,1.0852204329613808e-05,0.0
0.28800000000000003,2.684432172977486e-07,3.2353237675473577e-07,2.66119191437442e-07,1.0764284179946142e-05,0.0
0.289,2.665670484810144e-07,3.225866076006114e-07,2.6451246868873306e-07,1.0678267760961756e-05,0.0
0.29,2.6471340498947896e-07,3.217411676818546e-07,2.629278301717663e-07,1.0594273340006529e-05,0.0
0.291,2.628841523701097e-07,3.210015083521979e-07,2.6138060935114853e-07,1.0512299961325723e-05,0.0
0.292,2.610820227235955e-07,3.203698285346892e-07,2.5988359817096613e-07,1.04322661132913e-05,0.0
0.293,2.593110400458481e-07,3.198444567062434e-07,2.584474212309896e-07,1.0354145900915196e-05,0.0
0.294,2.575764469454962e-07,3.1942145118076986e-07,2.57080888343898e-07,1.0278130419025696e-05,0.0
0.295,2.558835550252503e-07,3.190959308004671e-07,2.5579054126189014e-07,1.020465519855141e-05,0.0
0.296,2.542365755507492e-07,3.1886172668768773e-07,2.5458149434097376e-07,1.0134268825284002e-05,0.0
0.297,2.526389298224389e-07,3.187116312172945e-07,2.534601816413263e-07,1.0067469899779932e-05,0.0
0.298,2.510945809059377e-07,3.186400750033331e-07,2.524357196134838e-07,1.00046288652029e-05,0.0
0.299,2.496082465246832e-07,3.186463948651567e-07,2.515177621263528e-07,9.946063755388778e-06,0.0
0.3,2.481842466678824e-07,3.187358083533084e-07,2.507131497311474e-07,9.89226839697458e-06,0.0
0.301,2.468257418974202e-07,3.1891919626162417e-07,2.50024654976813e-07,9.844131355598976e-06,0.0
0.302,2.455348698868662e-07,3.192147215001576e-07,2.494523355745558e-07,9.802949544822694e-06,0.0
0.303,2.4431318398195296e-07,3.196477747048691e-07,2.489958210595765e-07,9.77025853502995e-06,0.0
0.304,2.431618910209043e-07,3.2024490633067295e-07,2.486559935581099e-07,9.747643954925948e-06,0.0
0.305,2.420815718736683e-07,3.210272405936957e-07,2.484358875235243e-07,9.736605338836928e-06,0.0
0.306,2.4107189986270616e-07,3.220098777280899e-07,2.483408910576643e-07,9.73844554839328e-06,0.0
0.307,2.401321528253775e-07,3.232048104754151e-07,2.483775334098109e-07,9.754168034526093e-06,0.0
0.308,2.392619445032486e-07,3.246218427219515e-07,2.4855142834271284e-07,9.784409159940936e-06,0.0
0.309,2.384607868876192e-07,3.262667269656517e-07,2.488659711531041e-07,9.829429454854487e-06,0.0
0.31,2.377267359158189e-07,3.281394620113477e-07,2.493217428609019e-07,9.889145365071522e-06,0.0
0.311,2.370555817214177e-07,3.302343668500208e-07,2.499165772768904e-07,9.963175275898622e-06,0.0
0.312,2.364409316190728e-07,3.325412756347861e-07,2.506475016564781e-07,1.0050896370190642e-05,0.0
0.313,2.358745760502827e-07,3.350475708508019e-07,2.515134616114565e-07,1.0151515391682314e-05,0.0
0.314,2.353467796063842e-07,3.377412644638553e-07,2.5251551598192884e-07,1.0264135748143136e-05,0.0
0.315,2.348468421470839e-07,3.406139565854422e-07,2.5365415516643984e-07,1.0387795501757277e-05,0.0
0.316,2.343646381748801e-07,3.436615623556151e-07,2.549265234828529e-07,1.0521485676882464e-05,0.0
0.317,2.3389290541371258e-07,3.4688206073034373e-07,2.563252437219952e-07,1.0664176344109996e-05,0.0
0.318,2.3342862018116647e-07,3.502722211789664e-07,2.5783858719006805e-07,1.081484508506567e-05,0.0
0.319,2.329722061788566e-07,3.538256489740221e-07,2.594516904151167e-07,1.0972489146373489e-05,0.0
0.32,2.325251798459862e-07,3.575321411473444e-07,2.611486380323681e-07,1.1136125596924704e-05,0.0
0.321,2.32088019279071e-07,3.613776496141354e-07,2.629136614558383e-07,1.130478185306901e-05,0.0
0.322,2.3165974432694762e-07,3.653450416964303e-07,2.6473063607477013e-07,1.1477472378297936e-05,0.0
0.323,2.312386898425664e-07,3.694154305108174e-07,2.66583111933566e-07,1.1653179593736824e-05,0.0
0.324,2.308228779424425e-07,3.735688189805591e-07,2.6845510005005565e-07,1.1830850730354884e-05,0.0
0.325,2.304101765442444e-07,3.777838690124637e-07,2.703310323725021e-07,1.2009397623140453e-05,0.0
0.326,2.2999963729910322e-07,3.82038290786487e-07,2.721959769527384e-07,1.21877097900234e-05,0.0
0.327,2.295932302235511e-07,3.863096593939601e-07,2.7403641909355015e-07,1.2364705312639596e-05,0.0
0.328,2.2919578427461078e-07,3.9057490973845307e-07,2.758405096446873e-07,1.2539391668947729e-05,0.0
0.329,2.288139186423593e-07,3.9480892766703733e-07,2.7759827778297645e-07,1.2710890204893074e-05,0.0
0.33,2.2845530746422778e-07,3.989843243127841e-07,2.793014707350173e-07,1.2878429106956288e-05,0.0
0.331,2.2812802031438801e-07,4.0307315749022883e-07,2.809426547684868e-07,1.304132838276427e-05,0.0
0.332,2.2784123132634218e-07,4.070488638138222e-07,2.825153511728793e-07,1.3198982096491384e-05,0.0
0.333,2.2760603044329727e-07,4.1088640265364e-07,2.840152995327006e-07,1.3350833539479388e-05,0.0
0.334,2.274334273182885e-07,4.145612351080664e-07,2.854409454902557e-07,1.349634816112108e-05,0.0
0.335,2.2733294976554585e-07,4.180487496232864e-07,2.867933088608133e-07,1.3635004004616252e-05,0.0
0.336,2.2731504277941279e-07,4.213243179694689e-07,2.880757657829139e-07,1.3766306008508651e-05,0.0
0.337,2.273932709841445e-07,4.243636754611952e-07,2.892931986679119e-07,1.3889810749207512e-05,0.0
0.338,2.2758295047150013e-07,4.271437294343103e-07,2.904517230463728e-07,1.4005148948414331e-05,0.0
0.339,2.278982869153961e-07,4.2964352988633773e-07,2.915592208855873e-07,1.4112056757978612e-05,0.0
0.34,2.2835056518044162e-07,4.318450816882903e-07,2.926245433104172e-07,1.421041849399436e-05,0.0
0.341,2.2894773826466386e-07,4.337340993448267e-07,2.93655675069395e-07,1.4300268004017887e-05,0.0
0.342,2.2969477568813557e-07,4.353005227588192e-07,2.946594086450666e-07,1.4381726855385706e-05,0.0
0.343,2.305947085124636e-07,4.365395309904006e-07,2.956429440324652e-07,1.4454927385503414e-05,0.0
0.34400000000000003,2.316506140639788e-07,4.374535563298058e-07,2.9661454617179504e-07,1.451994922274908e-05,0.0
0.34500000000000003,2.3286612786477085e-07,4.38052685479372e-07,2.975819339404753e-07,1.4576786822717973e-05,0.0
0.34600000000000003,2.3424298589076442e-07,4.383516292487274e-07,2.985509354308459e-07,1.4625368941923283e-05,0.0
0.34700000000000003,2.3577985664928767e-07,4.383656958920221e-07,2.995254775156801e-07,1.4665597059175198e-05,0.0
0.34800000000000003,2.3747600035153286e-07,4.381087156794516e-07,3.005074715765775e-07,1.4697386086411504e-05,0.0
0.34900000000000003,2.3933654778082524e-07,4.3759278981903633e-07,3.0149640155931493e-07,1.4720784875562915e-05,0.0
0.35000000000000003,2.413743112207499e-07,4.368286579831704e-07,3.024897907590804e-07,1.4736167540932158e-05,0.0
0.35100000000000003,2.43607245490879e-07,4.358274725791566e-07,3.03485398793402e-07,1.4744303002779168e-05,0.0
0.352,2.460536970358684e-07,4.346040887844319e-07,3.044837126119552e-07,1.4746207861207653e-05,0.0
0.353,2.487280974145351e-07,4.3317857528679523e-07,3.0548808530189605e-07,1.4742919644460438e-05,0.0
0.354,2.51639403633782e-07,4.31573686841827e-07,3.0650308971554456e-07,1.4735360242744396e-05,0.0
0.355,2.547919981247104e-07,4.2981123564993954e-07,3.075337427132888e-07,1.4724395351606574e-05,0.0
0.356,2.5818689826893305e-07,4.279123313970976e-07,3.085861406578912e-07,1.4711088558368114e-05,0.0
0.357,2.6182215331146045e-07,4.259020831861461e-07,3.096680617159108e-07,1.4696945848056608e-05,0.0
0.358,2.656928716366767e-07,4.238130512316371e-07,3.107884719625213e-07,1.4683926863419296e-05,0.0
0.359,2.697913479621094e-07,4.216827926057941e-07,3.119566305383993e-07,1.467425749859526e-05,0.0
0.36,2.741069130628281e-07,4.19549108883533e-07,3.1318207923939097e-07,1.4670212999463014e-05,0.0
0.361,2.786257637680804e-07,4.174485090601728e-07,3.1447496435200015e-07,1.4673948253934989e-05,0.0
0.362,2.833308170253464e-07,4.1541640770803123e-07,3.158449152582207e-07,1.4687380257065546e-05,0.0
0.363,2.8820087910241985e-07,4.134852508481186e-07,3.172994968124545e-07,1.471211114497864e-05,0.0
0.364,2.932105594634304e-07,4.116815959723199e-07,3.188446083833581e-07,1.4749376105664091e-05,0.0
0.365,2.983325362676078e-07,4.100248076780559e-07,3.204856419572368e-07,1.4800012945064478e-05,0.0
0.366,3.035400537431893e-07,4.085274149139632e-07,3.2222809505780096e-07,1.48644564732966e-05,0.0
0.367,3.088068963865825e-07,4.071962831732325e-07,3.240781319271452e-07,1.49427537049197e-05,0.0
0.368,3.141059584666663e-07,4.060347854252135e-07,3.26041402365972e-07,1.5034588497441264e-05,0.0
0.369,3.1940947346231934e-07,4.050451433689358e-07,3.281196397750764e-07,1.513932054051429e-05,0.0
0.37,3.246912135937933e-07,4.042284595835416e-07,3.3030827136550655e-07,1.5256061997283632e-05,0.0
0.371,3.299286377124639e-07,4.035827812460723e-07,3.325965756513902e-07,1.5383794623737102e-05,0.0
0.372,3.351039718513243e-07,4.03102107186873e-07,3.34969171611856e-07,1.5521493423395986e-05,0.0
0.373,3.402034894124469e-07,4.0277736544809163e-07,3.374075144291595e-07,1.56682134347696e-05,0.0
0.374,3.452146052949047e-07,4.0259838628280883e-07,3.3989057444400374e-07,1.5823118657714172e-05,0.0
0.375,3.501231947464904e-07,4.025547195316808e-07,3.423952828186185e-07,1.5985461763790982e-05,0.0
0.376,3.549132030326745e-07,4.026342956380102e-07,3.448982574845503e-07,1.6154541053120013e-05,0.0
0.377,3.595670041326425e-07,4.028218513707913e-07,3.4737847292077653e-07,1.632965982911694e-05,0.0
0.378,3.640652260852294e-07,4.0309887355533094e-07,3.498183725156716e-07,1.6510085841421092e-05,0.0
0.379,3.683873036424514e-07,4.0344571435180454e-07,3.522024912972523e-07,1.669499071781239e-05,0.0
0.38,3.725134851639986e-07,4.038452286340247e-07,3.545161145927756e-07,1.6883388034666703e-05,0.0
0.381,3.7642797128395037e-07,4.042844314411426e-07,3.567461135112693e-07,1.7074117923552236e-05,0.0
0.382,3.801222875441472e-07,4.047522914156508e-07,3.588824669484566e-07,1.7265897289842256e-05,0.0
0.383,3.8359643552861405e-07,4.052369025560562e-07,3.609187260069917e-07,1.7457428771945133e-05,0.0
0.384,3.868563741348025e-07,4.057257055268622e-07,3.628519607339439e-07,1.7647517744585535e-05,0.0
0.385,3.8990961084909033e-07,4.0620832303860637e-07,3.646821540813075e-07,1.7835110987177708e-05,0.0
0.386,3.9276181907726853e-07,4.066779220436296e-07,3.6641112539886645e-07,1.801924615671502e-05,0.0
0.387,3.954157252583838e-07,4.071293184289775e-07,3.680420026904929e-07,1.819898132930216e-05,0.0
0.388,3.978718201459086e-07,4.07557233747475e-07,3.695784840366753e-07,1.8373353315941376e-05,0.0
0.389,4.00130004559965e-07,4.079561685257878e-07,3.710234044901881e-07,1.854136251324492e-05,0.0
0.39,4.021904840858368e-07,4.083204736452261e-07,3.723775607430853e-07,1.870196503250285e-05,0.0
0.391,4.04053208291861e-07,4.0864522178043273e-07,3.7363921320089764e-07,1.88540770673514e-05,0.0
0.392,4.057175723797479e-07,4.089272345131975e-07,3.748046512896845e-07,1.8996604176829378e-05,0.0
0.393,4.071829540815324e-07,4.091639175153534e-07,3.758699403797597e-07,1.9128481986433957e-05,0.0
0.394,4.084488094294502e-07,4.093510293839664e-07,3.7683283704298315e-07,1.92487252092406e-05,0.0
0.395,4.09514335787294e-07,4.0948251378342686e-07,3.776931955862854e-07,1.9356514537841563e-05,0.0
0.396,4.103784502843349e-07,4.095534724208947e-07,3.784517893062422e-07,1.9451305740431416e-05,0.0
0.397,4.110401594188605e-07,4.095646279487175e-07,3.791092460879789e-07,1.953286110902939e-05,0.0
0.398,4.114993850282949e-07,4.095236055729274e-07,3.796653142621125e-07,1.9601148306880148e-05,0.0
0.399,4.117576488420525e-07,4.09440927964099e-07,3.801182827838104e-07,1.9656196819863822e-05,0.0
0.4,4.118173659559794e-07,4.0932585454945923e-07,3.80466049767006e-07,1.969803291291156e-05,0.0
0.401,4.116803018304413e-07,4.091855440762945e-07,3.807086112118626e-07,1.972670287719562e-05,0.0
0.402,4.1134690935959545e-07,4.090260776935212e-07,3.8084898578232614e-07,1.974232358520137e-05,0.0
0.403,4.108167017869713e-07,4.088549000035716e-07,3.8089163167656884e-07,1.9745122322411265e-05,0.0
0.404,4.100886463871063e-07,4.0868273108606557e-07,3.80840423439106e-07,1.973544313251579e-05,0.0
0.405,4.09161489240779e-07,4.085222078983777e-07,3.806975948336742e-07,1.971374036902289e-05,0.0
0.406,4.08035142619494e-07,4.083857018094092e-07,3.804637285249924e-07,1.968063371669551e-05,0.0
0.40700000000000003,4.067130256224843e-07,4.082849920383782e-07,3.801381830450149e-07,1.9636970889552005e-05,0.0
0.40800000000000003,4.0520437696926673e-07,4.082311272945377e-07,3.797192792841677e-07,1.9583748000849443e-05,0.0
0.40900000000000003,4.035255217130765e-07,4.082335663959059e-07,3.792046345575395e-07,1.952193046391286e-05,0.0
0.41000000000000003,4.0169821317420565e-07,4.082997154302204e-07,3.785919018385748e-07,1.945233692359041e-05,0.0
0.41100000000000003,3.997467688213127e-07,4.084345041659346e-07,3.778791081445367e-07,1.9375653581110605e-05,0.0
0.41200000000000003,3.9769756240299246e-07,4.086393349321082e-07,3.770642780586911e-07,1.929259262410868e-05,0.0
0.41300000000000003,3.955785289448252e-07,4.089123688508989e-07,3.76145066397514e-07,1.9204114811375608e-05,0.0
0.41400000000000003,3.93416002842711e-07,4.092521619073685e-07,3.751189351052203e-07,1.911152214253972e-05,0.0
0.41500000000000004,3.9123206170617306e-07,4.0966197969835284e-07,3.7398380730298354e-07,1.901635336576508e-05,0.0
0.41600000000000004,3.8904453407839e-07,4.1015044860674636e-07,3.727387118405943e-07,1.892020749882376e-05,0.0
0.417,3.868674942023264e-07,4.10728974738631e-07,3.713838066562218e-07,1.882459939791181e-05,0.0
0.418,3.8471090447828034e-07,4.11409265089519e-07,3.699196907808832e-07,1.8730850552473344e-05,0.0
0.419,3.825806781579507e-07,4.122022119286534e-07,3.68346703128263e-07,1.8640009798612382e-05,0.0
0.42,3.804797588432114e-07,4.131180203969286e-07,3.666652256244368e-07,1.8552823747612773e-05,0.0
0.421,3.784089954915742e-07,4.141683177155069e-07,3.648764746226656e-07,1.8469745687723025e-05,0.0
0.422,3.76367254503757e-07,4.153704443849833e-07,3.629824281210745e-07,1.839094560338365e-05,0.0
0.423,3.7435131301658613e-07,4.167504388027792e-07,3.6098522571793596e-07,1.8316323534497647e-05,0.0
0.424,3.723564555864774e-07,4.183396180589439e-07,3.5888677866960624e-07,1.824555007447344e-05,0.0
0.425,3.703788870753897e-07,4.201660866437226e-07,3.566887453008174e-07,1.817812761678825e-05,0.0
0.426,3.68418733621355e-07,4.22248598430197e-07,3.543928883299832e-07,1.8113451665481787e-05,0.0
0.427,3.6648153610097675e-07,4.245960148179399e-07,3.520013034539845e-07,1.8050868846208228e-05,0.0
0.428,3.645789998606068e-07,4.272091207136634e-07,3.4951608201078146e-07,1.7989733751600132e-05,0.0
0.429,3.627286601495446e-07,4.300814757872142e-07,3.4693859523693295e-07,1.792945381179301e-05,0.0
0.43,3.609506911926034e-07,4.3319917643570635e-07,3.442690465718439e-07,1.7869518912181885e-05,0.0
0.431,3.592650175450081e-07,4.3654096076253363e-07,3.415068058475608e-07,1.7809529495874828e-05,0.0
0.432,3.5769168221269064e-07,4.40079667211828e-07,3.3865122462090186e-07,1.7749229081622533e-05,0.0
0.433,3.562504524864541e-07,4.4378495561186986e-07,3.357021598201774e-07,1.7688533913562678e-05,0.0
0.434,3.5495723490961865e-07,4.476256537291048e-07,3.3265973858484885e-07,1.762754425812032e-05,0.0
0.435,3.5382140721526786e-07,4.515708359346062e-07,3.295239935801258e-07,1.7566510691408e-05,0.0
0.436,3.528469423880484e-07,4.555902115957332e-07,3.2629574759710845e-07,1.750574394240017e-05,0.0
0.437,3.520349883753253e-07,4.5965338309438933e-07,3.229785732515092e-07,1.7445500483873664e-05,0.0
0.438,3.513846146445316e-07,4.637288058627088e-07,3.195798422240609e-07,1.738590839088778e-05,0.0
0.439,3.50892167237925e-07,4.677850214424949e-07,3.1611004639617097e-07,1.7326992912536116e-05,0.0
0.44,3.505513243372953e-07,4.7179297555557474e-07,3.125817646812625e-07,1.7268772303128043e-05,0.0
0.441,3.503537800521159e-07,4.7572635409965326e-07,3.09009059792841e-07,1.7211301716185485e-05,0.0
0.442,3.5029010288755706e-07,4.795611890616451e-07,3.0540618885585545e-07,1.7154619845069103e-05,0.0
0.443,3.503504355574999e-07,4.832763321547014e-07,3.0178572218237e-07,1.709868490123217e-05,0.0
0.444,3.505240918287617e-07,4.868528793758949e-07,2.981579831488657e-07,1.7043373904659848e-05,0.0
0.445,3.5079892439652175e-07,4.902721414344007e-07,2.9453173813062205e-07,1.698852059791723e-05,0.0
0.446,3.5116192421401655e-07,4.935141651643167e-07,2.909145578822122e-07,1.693391765779489e-05,0.0
0.447,3.516001898589241e-07,4.965579324395701e-07,2.8731307458771045e-07,1.6879270477468767e-05,0.0
0.448,3.521014520464135e-07,4.993829623642665e-07,2.837340892948876e-07,1.6824168899497463e-05,0.0
0.449,3.5265468426296865e-07,5.019706851405042e-07,2.801861593924348e-07,1.6768111035632955e-05,0.0
0.45,3.532503357297276e-07,5.043047016232107e-07,2.7668044719822333e-07,1.67105604760949e-05,0.0
0.451,3.5387918252122965e-07,5.063708387972419e-07,2.732300076363325e-07,1.665102698574194e-05,0.0
0.452,3.545303979820233e-07,5.081570656915796e-07,2.698481102892167e-07,1.6589136864835783e-05,0.0
0.453,3.551904852890048e-07,5.096533078634173e-07,2.665471070889986e-07,1.6524633900380795e-05,0.0
0.454,3.558436246297937e-07,5.108519833909889e-07,2.633383141411019e-07,1.645732343215116e-05,0.0
0.455,3.564724733451232e-07,5.11749077863792e-07,2.602321776648111e-07,1.6387032792962828e-05,0.0
0.456,3.570588498650655e-07,5.123446157717087e-07,2.5723838408160666e-07,1.631362309077281e-05,0.0
0.457,3.575847405190815e-07,5.126412204529419e-07,2.5436590828540256e-07,1.6237020694782013e-05,0.0
0.458,3.580332375301847e-07,5.126420274148428e-07,2.51623462579921e-07,1.6157222392914456e-05,0.0
0.459,3.583889337970438e-07,5.123507464718552e-07,2.490209175929091e-07,1.6074278461910234e-05,0.0
0.46,3.586385533973036e-07,5.11772793049047e-07,2.465698176117731e-07,1.5988278391885475e-05,0.0
0.461,3.587714335087322e-07,5.109144814705576e-07,2.4428136358500853e-07,1.5899366429507723e-05,0.0
0.462,3.587794441368493e-07,5.097811551985516e-07,2.4216398090240013e-07,1.5807845180048235e-05,0.0
0.463,3.586573317026254e-07,5.083774946520179e-07,2.4022245398168897e-07,1.5714308226070256e-05,0.0
0.464,3.584028850678538e-07,5.067098048770523e-07,2.38458486395744e-07,1.561962531479713e-05,0.0
0.465,3.580165655515091e-07,5.047873818680077e-07,2.368724752910017e-07,1.552478341448202e-05,0.0
0.466,3.575009414466741e-07,5.026218269100613e-07,2.3546576502374725e-07,1.5430737927601345e-05,0.0
0.467,3.5685923917053905e-07,5.00225302669935e-07,2.342415870787713e-07,1.5338375652395395e-05,0.0
0.468,3.560943033360141e-07,4.976094350648064e-07,2.3320399248354927e-07,1.5248629120453026e-05,0.0
0.46900000000000003,3.5520891571557613e-07,4.947859954830873e-07,2.3235597125475497e-07,1.5162625912537604e-05,0.0
0.47000000000000003,3.5420573925209775e-07,4.917693984736077e-07,2.3169795983225698e-07,1.5081681612420274e-05,0.0
0.47100000000000003,3.530867194419072e-07,4.885787797285928e-07,2.3122718954820659e-07,1.5007155987291272e-05,0.0
0.47200000000000003,3.51853055792943e-07,4.852363211887779e-07,2.3093789974030598e-07,1.4940316675910142e-05,0.0
0.47300000000000003,3.5050553688251906e-07,4.817631685002946e-07,2.308220293082098e-07,1.4882260310565074e-05,0.0
0.47400000000000003,3.490446698392709e-07,4.781775506965138e-07,2.3086966367968078e-07,1.4833872449791302e-05,0.0
0.47500000000000003,3.4747072194737294e-07,4.744971416390553e-07,2.3106908076593445e-07,1.4795809985667398e-05,0.0
0.47600000000000003,3.457841492082573e-07,4.707444071507022e-07,2.3140712791002857e-07,1.4768498413072051e-05,0.0
0.47700000000000004,3.439866030275494e-07,4.669501542953605e-07,2.318699421446491e-07,1.4752132576919556e-05,0.0
0.47800000000000004,3.4208280635313885e-07,4.6315117923194484e-07,2.3244353748693066e-07,1.474668183036994e-05,0.0
0.47900000000000004,3.400823097434207e-07,4.593847022026716e-07,2.3311404441032246e-07,1.4751913120265096e-05,0.0
0.48,3.379987155059659e-07,4.5568448353533813e-07,2.3386720799532705e-07,1.476741770598065e-05,0.0
0.481,3.35846972481979e-07,4.520792401367334e-07,2.346880127717755e-07,1.4792623102135523e-05,0.0
0.482,3.3364144248586165e-07,4.485918805922138e-07,2.3556236713648698e-07,1.4826800264767903e-05,0.0
0.483,3.313953938801763e-07,4.45239396810707e-07,2.3648053408112446e-07,1.48690744642733e-05,0.0
0.484,3.291209566015808e-07,4.4203363981098244e-07,2.3743906372298654e-07,1.4918450721560116e-05,0.0
0.485,3.268285422448564e-07,4.389822481790919e-07,2.3843890078866226e-07,1.497386700810514e-05,0.0
0.486,3.245261479323736e-07,4.3608934335485814e-07,2.3948163988966204e-07,1.5034243110146108e-05,0.0
0.487,3.2221952769779015e-07,4.333560137487465e-07,2.405674322477579e-07,1.5098486684354022e-05,0.0
0.488,3.199127166946203e-07,4.307799433315613e-07,2.4169492762518133e-07,1.5165485474514355e-05,0.0
0.489,3.1760825020608936e-07,4.283548345608283e-07,2.428617172773681e-07,1.523413207791048e-05,0.0
0.49,3.153074313841868e-07,4.260714449220525e-07,2.440648792867383e-07,1.5303369353465228e-05,0.0
0.491,3.1301075223968e-07,4.239193376932977e-07,2.453019398343296e-07,1.5372220878845563e-05,0.0
0.492,3.107181807514621e-07,4.218873524674568e-07,2.4657157607571444e-07,1.5439807014093825e-05,0.0
0.493,3.084296496809354e-07,4.1996362067219234e-07,2.478728759762857e-07,1.5505353733984427e-05,0.0
0.494,3.06147168584434e-07,4.1813590041848315e-07,2.4920376109661445e-07,1.556817334374567e-05,0.0
0.495,3.0387908285047576e-07,4.163920700181171e-07,2.5056021198444134e-07,1.5627620484660686e-05,0.0
0.496,3.0164248962779845e-07,4.1472178736693337e-07,2.519366723180743e-07,1.5683060369723437e-05,0.0
0.497,2.9945960292967975e-07,4.131182093904352e-07,2.533272989559766e-07,1.573385350604112e-05,0.0
0.498,2.973519853263051e-07,4.115770725224582e-07,2.547273036755417e-07,1.5779339779969324e-05,0.0
0.499,2.953387387617368e-07,4.1009402597345757e-07,2.561328476473716e-07,1.581882817783068e-05,0.0
0.5,2.934370313078484e-07,4.0866336989972337e-07,2.575398905942299e-07,1.5851605794328883e-05,0.0
0.501,2.916609954864637e-07,4.072786672194066e-07,2.589448235453215e-07,1.5876962673076242e-05,0.0
0.502,2.900199120001232e-07,4.059328926143413e-07,2.6034652597039855e-07,1.5894218308407343e-05,0.0
0.503,2.885179621807207e-07,4.046176081124619e-07,2.617463997191212e-07,1.5902767713185258e-05,0.0
0.504,2.871551580435632e-07,4.033228858075088e-07,2.6314648847644215e-07,1.5902188779492758e-05,0.0
0.505,2.859282744502772e-07,4.0203774314693357e-07,2.645488758809125e-07,1.5892381265151635e-05,0.0
0.506,2.848319490982232e-07,4.00749809395826e-07,2.659568083761692e-07,1.5873634034735906e-05,0.0
0.507,2.838603776999565e-07,3.994457623491469e-07,2.6737487133551455e-07,1.584656350501505e-05,0.0
0.508,2.830085835360784e-07,3.981145338360741e-07,2.688074953249233e-07,1.5811961708175825e-05,0.0
0.509,2.822719722810128e-07,3.967501516549997e-07,2.7025794028040976e-07,1.5770629238280834e-05,0.0
0.51,2.816450859195984e-07,3.953503548855766e-07,2.717286446984747e-07,1.572325821248442e-05,0.0
0.511,2.811214470255059e-07,3.939138551321462e-07,2.732218378186776e-07,1.5670421097763617e-05,0.0
0.512,2.806945391812659e-07,3.924399967440729e-07,2.747397391171652e-07,1.561267742325816e-05,0.0
0.513,2.803586816203995e-07,3.90929622929445e-07,2.762847591658991e-07,1.5550711084759138e-05,0.0
0.514,2.8010966933815345e-07,3.893853128410655e-07,2.778599776034075e-07,1.548538330528732e-05,0.0
0.515,2.799449356288962e-07,3.878109545835381e-07,2.7946892930551e-07,1.541768620700874e-05,0.0
0.516,2.798622531052016e-07,3.862112337500466e-07,2.811139970011657e-07,1.534864537831315e-05,0.0
0.517,2.798585834331557e-07,3.845915418569783e-07,2.827947024813775e-07,1.5279226327355868e-05,0.0
0.518,2.799309619662223e-07,3.829575684132313e-07,2.845071198897926e-07,1.5210345465449806e-05,0.0
0.519,2.8007747103335773e-07,3.813141406528626e-07,2.862439262772854e-07,1.51429623054166e-05,0.0
0.52,2.8029630451400186e-07,3.796654629487841e-07,2.879950872340394e-07,1.5078073782247283e-05,0.0
0.521,2.805843809435336e-07,3.7801722472618293e-07,2.89750100839152e-07,1.5016654311356417e-05,0.0
0.522,2.809370290072951e-07,3.7637754202480374e-07,2.915002429291522e-07,1.4959693985007182e-05,0.0
0.523,2.813479960857536e-07,3.747556258335015e-07,2.93238232449042e-07,1.490822874614691e-05,0.0
0.524,2.818092874557381e-07,3.7315972116018593e-07,2.949564211382226e-07,1.4863257587104334e-05,0.0
0.525,2.823113677939334e-07,3.715959063805937e-07,2.9664630426714306e-07,1.4825630703663188e-05,0.0
0.526,2.8284350239007017e-07,3.70068969856349e-07,2.983008140434919e-07,1.4795974483268676e-05,0.0
0.527,2.833938360713416e-07,3.685843292078191e-07,2.9991820752675106e-07,1.477464865611012e-05,0.0
0.528,2.839497892758789e-07,3.671489381164758e-07,3.015030299383208e-07,1.47617242461475e-05,0.0
0.529,2.8449863100267704e-07,3.657728755299822e-07,3.030622919168568e-07,1.4756986350928802e-05,0.0
0.53,2.850274981707609e-07,3.644722839641845e-07,3.046011626931463e-07,1.4759972908823765e-05,0.0
0.531,2.855233396394064e-07,3.6326827952810477e-07,3.061217579828402e-07,1.4770032542332552e-05,0.0
0.532,2.859730005760017e-07,3.6218134670633653e-07,3.076236908686469e-07,1.4786367321185608e-05,0.0
0.533,2.863634839895045e-07,3.612284716403335e-07,3.091045391107145e-07,1.4808055201342047e-05,0.0
0.534,2.8668393456397497e-07,3.604245468420325e-07,3.1056098296443495e-07,1.48340714012486e-05,0.0
0.535,2.869291128758094e-07,3.597832512565949e-07,3.1199146186329586e-07,1.4863319101880546e-05,0.0
0.536,2.871006723583938e-07,3.593153825868117e-07,3.1339851680082085e-07,1.4894663230355884e-05,0.0
0.537,2.872049573356078e-07,3.590264432940389e-07,3.147882839786034e-07,1.4926962309638498e-05,0.0
0.538,2.872501462992814e-07,3.5891611008540735e-07,3.16167484932012e-07,1.4959105725174965e-05,0.0
0.539,2.872443514196651e-07,3.5898021742094657e-07,3.175407853821882e-07,1.4990048804121831e-05,0.0
0.54,2.871944618666459e-07,3.592130646230315e-07,3.189109668181344e-07,1.501882368927984e-05,0.0
0.541,2.871060842415752e-07,3.596082023801564e-07,3.202809950102708e-07,1.5044530236515738e-05,0.0
0.542,2.869843013352996e-07,3.601584730454608e-07,3.216551759609463e-07,1.5066329060168702e-05,0.0
0.543,2.868339225125474e-07,3.608565659337741e-07,3.230392517462713e-07,1.5083444077345884e-05,0.0
0.544,2.866595043701648e-07,3.616955434584547e-07,3.2444030088949655e-07,1.5095169063249098e-05,0.0
0.545,2.864663649924171e-07,3.626681614448743e-07,3.2586570630455105e-07,1.5100877684024328e-05,0.0
0.546,2.862612701963677e-07,3.63765648384367e-07,3.273213394797536e-07,1.510004104194304e-05,0.0
0.547,2.860511435612404e-07,3.649776011936474e-07,3.288104623502713e-07,1.5092245066857595e-05,0.0
0.548,2.858410141263719e-07,3.662932543528236e-07,3.303340392086204e-07,1.5077188416171637e-05,0.0
0.549,2.856330587320355e-07,3.6770308750003803e-07,3.3189125500722454e-07,1.5054647734860184e-05,0.0
0.55,2.854269993380577e-07,3.691991931991473e-07,3.3347908099884226e-07,1.502444028517684e-05,0.0
0.551,2.852206303487989e-07,3.707739516802001e-07,3.3509198983321697e-07,1.4986454972034282e-05,0.0
0.552,2.850096750533513e-07,3.724183952925348e-07,3.3672262317272505e-07,1.4940740297221556e-05,0.0
0.553,2.847875647204812e-07,3.741214813841147e-07,3.383622594465021e-07,1.4887522642352383e-05,0.0
0.554,2.84545621675238e-07,3.758709505052581e-07,3.400007382133923e-07,1.4827113031996532e-05,0.0
0.555,2.8427357737732485e-07,3.7765472756362884e-07,3.416267134991907e-07,1.4759809791761386e-05,0.0
0.556,2.83960405435338e-07,3.7946054651919356e-07,3.4322802739222986e-07,1.4685872209630308e-05,0.0
0.557,2.8359539906834413e-07,3.812750684617015e-07,3.447916047435267e-07,1.4605564464548316e-05,0.0
0.558,2.831688587118581e-07,3.830854897030886e-07,3.463036629663392e-07,1.451924912257295e-05,0.0
0.559,2.826720348690267e-07,3.848825517038381e-07,3.477505712107784e-07,1.4427447411986772e-05,0.0
0.56,2.820975157375997e-07,3.866616347627025e-07,3.491191494753907e-07,1.4330788293578449e-05,0.0
0.561,2.814412083964692e-07,3.884212532854553e-07,3.503963540027453e-07,1.4229898133685582e-05,0.0
0.562,2.8070463329949e-07,3.9016197955674075e-07,3.515692402825342e-07,1.4125354387212914e-05,0.0
0.5630000000000001,2.798951423594189e-07,3.9188776987874316e-07,3.526251575490706e-07,1.4017752157725802e-05,0.0
0.5640000000000001,2.79024089032026e-07,3.9360667054763145e-07,3.535522695065461e-07,1.3907822117161215e-05,0.0
0.5650000000000001,2.781048327086993e-07,3.953296149181057e-07,3.543400777621468e-07,1.3796512322140576e-05,0.0
0.5660000000000001,2.77151426129502e-07,3.970696370077887e-07,3.549791254862629e-07,1.3684979575607368e-05,0.0
0.5670000000000001,2.761781046415049e-07,3.988402303821345e-07,3.554606567517434e-07,1.357447501635645e-05,0.0
0.5680000000000001,2.751997503175629e-07,4.006518563607476e-07,3.5577675637567813e-07,1.3466168689392634e-05,0.0
0.5690000000000001,2.7423238345473054e-07,4.02510094999397e-07,3.559200413974402e-07,1.3361012807435416e-05,0.0
0.5700000000000001,2.7329208686880776e-07,4.044169093436482e-07,3.558829594961049e-07,1.3259701957433792e-05,0.0
0.5710000000000001,2.72392857848e-07,4.0637316140792083e-07,3.556575726747657e-07,1.3162688997368118e-05,0.0
0.5720000000000001,2.715455706557548e-07,4.0838108928519836e-07,3.552361228407203e-07,1.3070208187705783e-05,0.0
0.5730000000000001,2.707585503684632e-07,4.104448231469168e-07,3.546127617996178e-07,1.2982342311237634e-05,0.0
0.5740000000000001,2.700381719624255e-07,4.125674237465844e-07,3.537868473427037e-07,1.2899196780201064e-05,0.0
0.5750000000000001,2.6938892105917495e-07,4.1474768329928553e-07,3.527655139701405e-07,1.2821093731958684e-05,0.0
0.5760000000000001,2.6881426787607374e-07,4.169804795849913e-07,3.515624031822402e-07,1.2748593440811935e-05,0.0
0.577,2.683184572242804e-07,4.192592424294473e-07,3.501943672541252e-07,1.268233587961907e-05,0.0
0.578,2.679070781342698e-07,4.215771689328066e-07,3.486792628563076e-07,1.2622869338993766e-05,0.0
0.579,2.675853326638957e-07,4.239269952432402e-07,3.4703453925911866e-07,1.2570590906534917e-05,0.0
0.58,2.673560208575415e-07,4.263006763128018e-07,3.452761877186007e-07,1.252586923880603e-05,0.0
0.581,2.672197566618643e-07,4.286889594289928e-07,3.434182542996658e-07,1.248931674183153e-05,0.0
0.582,2.671768568508342e-07,4.310808327667758e-07,3.41472798402357e-07,1.246199869006055e-05,0.0
0.583,2.672285745181465e-07,4.334634576284097e-07,3.3945012426722805e-07,1.2445410993222105e-05,0.0
0.584,2.6737706473733725e-07,4.3582290564004673e-07,3.373589565029528e-07,1.2441303443168348e-05,0.0
0.585,2.676246519435524e-07,4.381449988660183e-07,3.3520679663652124e-07,1.2451488101948946e-05,0.0
0.586,2.679727185851809e-07,4.404162924336597e-07,3.330004669883307e-07,1.2477665909246702e-05,0.0
0.587,2.684207839350212e-07,4.4262740919083473e-07,3.3074637320179506e-07,1.25212813933536e-05,0.0
0.588,2.689661913547313e-07,4.44777724263289e-07,3.28450899963717e-07,1.2583427253781763e-05,0.0
0.589,2.6960449827369804e-07,4.468758314396063e-07,3.261208779822688e-07,1.266478626273725e-05,0.0
0.59,2.703306526337751e-07,4.489344125755166e-07,3.23763703812955e-07,1.276560179538116e-05,0.0
0.591,2.711399774466668e-07,4.509649423286532e-07,3.2138843988942345e-07,1.2885694538372254e-05,0.0
0.592,2.7202817844433505e-07,4.5297587801234413e-07,3.1900743404290466e-07,1.302451558212286e-05,0.0
0.593,2.729914765438424e-07,4.549723630259716e-07,3.166355685491783e-07,1.3181211301657776e-05,0.0
0.594,2.740267597563028e-07,4.569557740513868e-07,3.1428762731307175e-07,1.3354693566600176e-05,0.0
0.595,2.751304606812866e-07,4.589247294862494e-07,3.119765053256105e-07,1.3543706402924534e-05,0.0
0.596,2.762972661926912e-07,4.608781471252202e-07,3.097128622781928e-07,1.374689378579736e-05,0.0
0.597,2.775204257409705e-07,4.62817093150836e-07,3.075054849368872e-07,1.396288791381491e-05,0.0
0.598,2.787934660321715e-07,4.647431492226209e-07,3.053618907671501e-07,1.4190403525825049e-05,0.0
0.599,2.8011162979241485e-07,4.6665604929271446e-07,3.0328874166219405e-07,1.4428291797311486e-05,0.0
0.6,2.814714753371353e-07,4.685526370392773e-07,3.012914484967055e-07,1.467554680524076e-05,0.0
0.601,2.828689324835044e-07,4.70426407593273e-07,2.9937380325877925e-07,1.4931313772614092e-05,0.0
0.602,2.842975471776985e-07,4.722687682328548e-07,2.975388762707694e-07,1.5194904052934064e-05,0.0
0.603,2.857479153214357e-07,4.740720020201183e-07,2.9578980098367937e-07,1.546575665581886e-05,0.0
0.604,2.872082406810205e-07,4.758315612079989e-07,2.9412979911602256e-07,1.5743326991183826e-05,0.0
0.605,2.886659408729875e-07,4.775472627547988e-07,2.925633687387008e-07,1.602695097545272e-05,0.0
0.606,2.90109227917402e-07,4.792233040373722e-07,2.910976937154252e-07,1.6315748893025395e-05,0.0
0.607,2.915274757869941e-07,4.808672681010918e-07,2.8974181715039485e-07,1.660861707128835e-05,0.0
0.608,2.929110091246856e-07,4.824893682877063e-07,2.885050881373787e-07,1.690430368516242e-05,0.0
0.609,2.942505765457097e-07,4.841009799158173e-07,2.8739635375329684e-07,1.7201505869052275e-05,0.0
0.61,2.955366191398325e-07,4.857117302524387e-07,2.864224661052696e-07,1.7498931245956258e-05,0.0
0.611,2.967595484533125e-07,4.873275174597041e-07,2.855865534878856e-07,1.7795319217187448e-05,0.0
0.612,2.979110937531324e-07,4.889502300420528e-07,2.8488804167219465e-07,1.8089441570224825e-05,0.0
0.613,2.989859722736793e-07,4.905777012445773e-07,2.8432373093781256e-07,1.8380085542059137e-05,0.0
0.614,2.999830408305047e-07,4.922040401152603e-07,2.838882678876797e-07,1.8666019116524783e-05,0.0
0.615,3.009046450137248e-07,4.938205561154468e-07,2.835740908898152e-07,1.894598395036328e-05,0.0
0.616,3.01754297630644e-07,4.954171308045121e-07,2.8337147445106344e-07,1.9218735808074712e-05,0.0
0.617,3.0253432784105535e-07,4.969846658950088e-07,2.832690053974144e-07,1.9483065399850652e-05,0.0
0.618,3.032448545742808e-07,4.985172002302509e-07,2.832544518487093e-07,1.973776937592724e-05,0.0
0.619,3.03884268345663e-07,5.000110724891499e-07,2.833150818424805e-07,1.998161265506538e-05,0.0
0.62,3.044502278206473e-07,5.014616841785535e-07,2.834370025331389e-07,2.021331847133309e-05,0.0
0.621,3.049403156908951e-07,5.028612914630973e-07,2.836047619699045e-07,2.0431601774207557e-05,0.0
0.622,3.053527347870484e-07,5.041997505891289e-07,2.838018204322928e-07,2.0635224282190064e-05,0.0
0.623,3.056874220022808e-07,5.054668467909689e-07,2.840110837633519e-07,2.082303973247436e-05,0.0
0.624,3.059467413470681e-07,5.066533123415967e-07,2.842152560023846e-07,2.099403581321862e-05,0.0
0.625,3.061350494564571e-07,5.077497485318523e-07,2.843972033522257e-07,2.1147376732672052e-05,0.0
0.626,3.0625764939448017e-07,5.087468681801497e-07,2.8454027773552935e-07,2.1282418346249217e-05,0.0
0.627,3.063197363662202e-07,5.09638453021495e-07,2.84628525587889e-07,2.13986789574443e-05,0.0
0.628,3.063253672428082e-07,5.104225054849849e-07,2.846467053378043e-07,2.14957821484362e-05,0.0
0.629,3.062767453356153e-07,5.110983581268692e-07,2.84580549219452e-07,2.157342095100771e-05,0.0
0.63,3.061742641848329e-07,5.116636345661384e-07,2.8441752549047413e-07,2.1631393240813017e-05,0.0
0.631,3.060168069764689e-07,5.12113780166862e-07,2.841474654772038e-07,2.16696589470662e-05,0.0
0.632,3.058020211203981e-07,5.124426768489015e-07,2.837626799067221e-07,2.1688324164530352e-05,0.0
0.633,3.055276557792305e-07,5.126430130554416e-07,2.832576772705641e-07,2.1687560611124184e-05,0.0
0.634,3.051934152434079e-07,5.127071058210789e-07,2.826284790253823e-07,2.166752872576668e-05,0.0
0.635,3.048008345392453e-07,5.126287764612933e-07,2.818716566377615e-07,2.1628345168012347e-05,0.0
0.636,3.0435125490396345e-07,5.124048456806806e-07,2.809837620629753e-07,2.1570086213098748e-05,0.0
0.637,3.038444703009876e-07,5.120349233113711e-07,2.79961632140509e-07,2.149279753287507e-05,0.0
0.638,3.032793265548865e-07,5.115211484779188e-07,2.78803137169639e-07,2.1396514129433532e-05,0.0
0.639,3.026550559563623e-07,5.108695751937388e-07,2.775077576236668e-07,2.128129595985686e-05,0.0
0.64,3.019712982835162e-07,5.10090961105008e-07,2.760764922626054e-07,2.114726326259202e-05,0.0
0.641,3.012272165921538e-07,5.09197927410539e-07,2.745114458841839e-07,2.099462715337292e-05,0.0
0.642,3.004218991686791e-07,5.082004502866686e-07,2.72816221033145e-07,2.0823714845098463e-05,0.0
0.643,2.995558643973952e-07,5.071041926820281e-07,2.7099643786887986e-07,2.0634975507169783e-05,0.0
0.644,2.986318811465017e-07,5.05913087991423e-07,2.69059204744372e-07,2.042896118698752e-05,0.0
0.645,2.976542976101536e-07,5.046334230695327e-07,2.670122335661664e-07,2.0206293371679844e-05,0.0
0.646,2.966275028212722e-07,5.032746123231845e-07,2.648634129381949e-07,1.9967622725173484e-05,0.0
0.647,2.955554358052486e-07,5.018460273214683e-07,2.626212850945417e-07,1.971359385280824e-05,0.0
0.648,2.944427547293235e-07,5.003545163682234e-07,2.602958504243936e-07,1.944483016380649e-05,0.0
0.649,2.9329580823437026e-07,4.988044573247618e-07,2.578981398284188e-07,1.916193803235531e-05,0.0
0.65,2.92121915651436e-07,4.971981150198428e-07,2.554391293633306e-07,1.8865523035544085e-05,0.0
0.651,2.909279725222607e-07,4.955357689064216e-07,2.529296615396165e-07,1.8556205716426725e-05,0.0
0.652,2.897197893170808e-07,4.938162757085347e-07,2.5038149027363685e-07,1.8234625843817026e-05,0.0
0.653,2.8850171204195125e-07,4.920377236213396e-07,2.4780843166699664e-07,1.790144917137064e-05,0.0
0.654,2.8727683548454204e-07,4.901977176634997e-07,2.45226406550059e-07,1.7557389467440762e-05,0.0
0.655,2.860486316188195e-07,4.88292575465684e-07,2.426526393383814e-07,1.7203224180041282e-05,0.0
0.656,2.848224614745888e-07,4.863160314191527e-07,2.401048605239453e-07,1.683977845877705e-05,0.0
0.657,2.836060182575483e-07,4.842595856523435e-07,2.3759990181105405e-07,1.646788895872824e-05,0.0
0.658,2.824091385029908e-07,4.821145284416907e-07,2.3515192813982647e-07,1.6088382220979743e-05,0.0
0.659,2.812424679398585e-07,4.798733734429367e-07,2.327717884985412e-07,1.570208388723567e-05,0.0
0.66,2.8011572143286146e-07,4.775297618279101e-07,2.3046773947782537e-07,1.5309842300962734e-05,0.0
0.661,2.790372360744288e-07,4.750792619328058e-07,2.2824740465827806e-07,1.4912550136736415e-05,0.0
0.662,2.7801441809866735e-07,4.725223310244626e-07,2.2612004231771598e-07,1.4511179177882404e-05,0.0
0.663,2.770534333506684e-07,4.698653795658671e-07,2.240967229024249e-07,1.4106841293883952e-05,0.0
0.664,2.761578334191456e-07,4.671174737736755e-07,2.2218880308486225e-07,1.3700820997519234e-05,0.0
0.665,2.753281972751403e-07,4.642863805153807e-07,2.204078317300411e-07,1.329450672263908e-05,0.0
0.666,2.745638143582839e-07,4.613774430329047e-07,2.1876669915579925e-07,1.2889270075948831e-05,0.0
0.667,2.738641947764068e-07,4.5839512211517537e-07,2.172791352847572e-07,1.248641625444943e-05,0.0
0.668,2.732290146739319e-07,4.553451829129682e-07,2.159579129115693e-07,1.20872286581769e-05,0.0
0.669,2.726572099763095e-07,4.522353735367149e-07,2.1481456105124955e-07,1.1693042950131656e-05,0.0
0.67,2.721458968366978e-07,4.4907462654268854e-07,2.138601660525308e-07,1.1305284888368256e-05,0.0
0.671,2.716899765006265e-07,4.4587353333529435e-07,2.131049820526595e-07,1.0925421775756215e-05,0.0
0.672,2.712825370830352e-07,4.4264696725124614e-07,2.125576127030509e-07,1.0554845916126022e-05,0.0
0.673,2.709152928113911e-07,4.394149628049866e-07,2.1222529816294146e-07,1.0194783262510457e-05,0.0
0.674,2.705794706561221e-07,4.361992760168126e-07,2.121147980711926e-07,9.846282710394967e-06,0.0
0.675,2.7026756769196e-07,4.3301905378627755e-07,2.1223249332380365e-07,9.510257809455062e-06,0.0
0.676,2.699749817150643e-07,4.2988965344837917e-07,2.125831875707981e-07,9.187535059928844e-06,0.0
0.677,2.6969991693991016e-07,4.2682378325571413e-07,2.131696231620561e-07,8.878879539121283e-06,0.0
0.678,2.694411615415808e-07,4.238319320272568e-07,2.139940127900306e-07,8.58498518248361e-06,0.0
0.679,2.691957716670609e-07,4.209216588905223e-07,2.1505909094363722e-07,8.306445096623746e-06,0.0
0.68,2.689585038824053e-07,4.180977709602213e-07,2.1636733865535419e-07,8.043717844504749e-06,0.0
0.681,2.6872224924975586e-07,4.153636809638165e-07,2.179197880073236e-07,7.797095480267112e-06,0.0
0.682,2.684785311449752e-07,4.1272148141197293e-07,2.1971465799841926e-07,7.566697767242106e-06,0.0
0.683,2.682185890886905e-07,4.101705521206152e-07,2.2174622351621287e-07,7.352504101429498e-06,0.0
0.684,2.679351327732184e-07,4.077077252954179e-07,2.2400520090607846e-07,7.154401709911961e-06,0.0
0.685,2.6762385561516484e-07,4.053298435022927e-07,2.264796983850921e-07,6.972251236106481e-06,0.0
0.686,2.6728386792628584e-07,4.030361045495858e-07,2.291549496844857e-07,6.805985131715154e-06,0.0
0.687,2.669167482057887e-07,4.008277463123334e-07,2.3201253651966362e-07,6.655673793738627e-06,0.0
0.6880000000000001,2.665250142683548e-07,3.987055203887551e-07,2.35030711309754e-07,6.521463665576032e-06,0.0
0.6890000000000001,2.661111981113055e-07,3.966677596971896e-07,2.381857479897564e-07,6.403434818290498e-06,0.0
0.6900000000000001,2.656774249661469e-07,3.9471073740352257e-07,2.414533708107752e-07,6.301518028079641e-06,0.0
0.6910000000000001,2.65225372603465e-07,3.9282985443111357e-07,2.448095656428261e-07,6.215511098689417e-06,0.0
0.6920000000000001,2.647574437014232e-07,3.910202348133173e-07,2.482307122267906e-07,6.145128200575659e-06,0.0
0.6930000000000001,2.6427793949325415e-07,3.89278087686689e-07,2.5169343342741204e-07,6.090020481893056e-06,0.0
0.6940000000000001,2.637925099999861e-07,3.876033205375432e-07,2.551741181229851e-07,6.049770465967013e-06,0.0
0.6950000000000001,2.63307602444104e-07,3.860008170685338e-07,2.586482874274722e-07,6.023893896246964e-06,0.0
0.6960000000000001,2.6283060755693254e-07,3.844784781912234e-07,2.620905704662519e-07,6.01184056261491e-06,0.0
0.6970000000000001,2.623689608519167e-07,3.830433482485274e-07,2.654752601286336e-07,6.0129732614455946e-06,0.0
0.6980000000000001,2.619292717263085e-07,3.816987320643958e-07,2.6877704262759664e-07,6.026552385806597e-06,0.0
0.6990000000000001,2.615174141236197e-07,3.804444809299466e-07,2.719721167833433e-07,6.051750835942958e-06,0.0
0.7000000000000001,2.61137933975901e-07,3.792810591633475e-07,2.750394387327891e-07,6.087686303355794e-06,0.0
0.7010000000000001,2.607936206518566e-07,3.782147847510369e-07,2.77961660319293e-07,6.133462623296932e-06,0.0
0.7020000000000001,2.604868725729685e-07,3.772591686575662e-07,2.807256517535068e-07,6.188216799277404e-06,0.0
0.7030000000000001,2.602209308026885e-07,3.764314754774198e-07,2.833218562890669e-07,6.251149444342015e-06,0.0
0.704,2.599989923498539e-07,3.7574852283399314e-07,2.8574256665491704e-07,6.321511934568813e-06,0.0
0.705,2.598224916901352e-07,3.7522372148980897e-07,2.879805246514137e-07,6.39855244577132e-06,0.0
0.706,2.596904179151849e-07,3.748655752857454e-07,2.900285086457107e-07,6.481465630807658e-06,0.0
0.707,2.595994716881745e-07,3.746788585015402e-07,2.918797095906123e-07,6.56939400154638e-06,0.0
0.708,2.595444832758505e-07,3.746666674662818e-07,2.935282481710981e-07,6.661484376629019e-06,0.0
0.709,2.5951925775188186e-07,3.748299826644701e-07,2.949692321677417e-07,6.756956159297628e-06,0.0
0.71,2.595173019596103e-07,3.751666283240793e-07,2.961993478179208e-07,6.855131361923106e-06,0.0
0.711,2.595325307420442e-07,3.756726685735476e-07,2.972189175381025e-07,6.955421602479019e-06,0.0
0.712,2.595610477595746e-07,3.763443859374822e-07,2.98033553130109e-07,7.057303396408408e-06,0.0
0.713,2.5960229676168685e-07,3.771779113701474e-07,2.986534619276381e-07,7.160287631328626e-06,0.0
0.714,2.596576536510281e-07,3.781672405078178e-07,2.990908054023239e-07,7.2638720759718785e-06,0.0
0.715,2.59728409027866e-07,3.7930400714265617e-07,2.993567352508972e-07,7.367501507344895e-06,0.0
0.716,2.598147843261328e-07,3.8057945967082985e-07,2.9946060248456857e-07,7.470571177597284e-06,0.0
0.717,2.599155013588609e-07,3.8198503022596485e-07,2.994119327800109e-07,7.572467100845659e-06,0.0
0.718,2.60027835199948e-07,3.835101609935903e-07,2.992220852949258e-07,7.672601020150473e-06,0.0
0.719,2.601482996625433e-07,3.851403639895818e-07,2.989041971565503e-07,7.770409703839585e-06,0.0
0.72,2.602734972371136e-07,3.868576006638757e-07,2.984728334128408e-07,7.865338273166084e-06,0.0
0.721,2.604006531521641e-07,3.8864173125279513e-07,2.979430410409538e-07,7.956837539699666e-06,0.0
0.722,2.605278408414984e-07,3.904714958186286e-07,2.973286325160795e-07,8.044364852646004e-06,0.0
0.723,2.606539975718704e-07,3.923249582436453e-07,2.966410589320105e-07,8.12738172650539e-06,0.0
0.724,2.607794211688991e-07,3.94179971988563e-07,2.958891967298943e-07,8.205366712159444e-06,0.0
0.725,2.6090673363272496e-07,3.960151053131209e-07,2.950799912063409e-07,8.277859702795974e-06,0.0
0.726,2.610403130679259e-07,3.978101429875229e-07,2.942203665389184e-07,8.34453750355209e-06,0.0
0.727,2.6118454069420106e-07,3.995450509776318e-07,2.9332072320649325e-07,8.40526897629195e-06,0.0
0.728,2.613437115854328e-07,4.011985255784986e-07,2.92398246367544e-07,8.460080582681919e-06,0.0
0.729,2.615229888039941e-07,4.0274776562884845e-07,2.914760511712253e-07,8.509056201451366e-06,0.0
0.73,2.617276578780836e-07,4.041694896937581e-07,2.905782317895993e-07,8.552271120449112e-06,0.0
0.731,2.61961165866094e-07,4.054417424568969e-07,2.897257876882347e-07,8.589799470498783e-06,0.0
0.732,2.6222402457847624e-07,4.065459533990102e-07,2.889358222547294e-07,8.62176687918068e-06,0.0
0.733,2.62513733432248e-07,4.074685374724113e-07,2.8822219198058186e-07,8.648431320582987e-06,0.0
0.734,2.6282502658515465e-07,4.0820148493837634e-07,2.875958526680912e-07,8.670248199356373e-06,0.0
0.735,2.631502977346563e-07,4.0874075501476366e-07,2.870647916869635e-07,8.687856048483564e-06,0.0
0.736,2.634802728670461e-07,4.090829612990946e-07,2.8663367337923306e-07,8.701999379036136e-06,0.0
0.737,2.638053685926437e-07,4.092244936682314e-07,2.863031111841251e-07,8.713456012487595e-06,0.0
0.738,2.641175599662013e-07,4.091651935166457e-07,2.860692662300964e-07,8.722994903078144e-06,0.0
0.739,2.6441078354755085e-07,4.08912230338355e-07,2.859244420019237e-07,8.731343665084918e-06,0.0
0.74,2.646793282375047e-07,4.084797876651857e-07,2.858581957027457e-07,8.739150331935504e-06,0.0
0.741,2.6491674873084684e-07,4.0788633331004563e-07,2.858586287905313e-07,8.746974527396527e-06,0.0
0.742,2.6511626473042344e-07,4.071518148739533e-07,2.859137649533859e-07,8.75537098257087e-06,0.0
0.743,2.6527135306558484e-07,4.0629458956617915e-07,2.8601213521017695e-07,8.765049469767873e-06,0.0
0.744,2.6537643418980705e-07,4.053294706029124e-07,2.8614275761235865e-07,8.776964969114944e-06,0.0
0.745,2.6542769646336505e-07,4.042680634253186e-07,2.862957217640759e-07,8.79223108329612e-06,0.0
0.746,2.65422931599487e-07,4.031206963300836e-07,2.8646243930408466e-07,8.811941808047065e-06,0.0
0.747,2.653602543061433e-07,4.0189863658988724e-07,2.8663456625466026e-07,8.83703795420304e-06,0.0
0.748,2.652370937034124e-07,4.0061455386763965e-07,2.8680319797888295e-07,8.868286437413685e-06,0.0
0.749,2.6505023565216864e-07,3.992811262505116e-07,2.869594742865859e-07,8.9064251656241e-06,0.0
0.75,2.6479633121925333e-07,3.9790973525928185e-07,2.870960098005231e-07,8.952411569343617e-06,0.0
0.751,2.644721603329147e-07,3.965103038487174e-07,2.872077139041295e-07,9.007547772855638e-06,0.0
0.752,2.64075001438237e-07,3.950919825332106e-07,2.872907826742237e-07,9.07337098248399e-06,0.0
0.753,2.636035220812731e-07,3.936631704788224e-07,2.873409493226336e-07,9.151439651821284e-06,0.0
0.754,2.630584303428957e-07,3.92230377952949e-07,2.873526252297898e-07,9.243158249935308e-06,0.0
0.755,2.624421973039169e-07,3.907975842074521e-07,2.8731906112004145e-07,9.349660949110463e-06,0.0
0.756,2.617580202993846e-07,3.893675353499254e-07,2.872333120534813e-07,9.471731775169684e-06,0.0
0.757,2.610085910025487e-07,3.879449980035485e-07,2.870894440940853e-07,9.60976360395841e-06,0.0
0.758,2.601956834136394e-07,3.8653935225485765e-07,2.868835682034359e-07,9.763758956403776e-06,0.0
0.759,2.593211849023327e-07,3.851631795642999e-07,2.866147895085523e-07,9.933356333641751e-06,0.0
0.76,2.583886971699959e-07,3.83828126127357e-07,2.862853609231932e-07,1.0117873178437156e-05,0.0
0.761,2.574049375574821e-07,3.825420778554547e-07,2.858996287576917e-07,1.0316354111883683e-05,0.0
0.762,2.563804158380263e-07,3.8130894777621364e-07,2.854626403746961e-07,1.052760168834708e-05,0.0
0.763,2.553283620985435e-07,3.801298193600326e-07,2.8497894990959655e-07,1.0750195057414814e-05,0.0
0.764,2.5426336215186133e-07,3.790036066691715e-07,2.844516798101561e-07,1.098252285548296e-05,0.0
0.765,2.532017012217704e-07,3.779266598793771e-07,2.838823264982838e-07,1.1222834134466863e-05,0.0
0.766,2.5216151287692266e-07,3.768923248886362e-07,2.8327177929110533e-07,1.146928606141688e-05,0.0
0.767,2.5116121490742e-07,3.758908603426502e-07,2.8262200450406586e-07,1.171997204455891e-05,0.0
0.768,2.502184848615313e-07,3.749096481163616e-07,2.819366071333244e-07,1.19729387183787e-05,0.0
0.769,2.4935029307523325e-07,3.739339262063753e-07,2.812194661629905e-07,1.222620431503063e-05,0.0
0.77,2.485720089468487e-07,3.7294813390508373e-07,2.8047344182983173e-07,1.2477779211995366e-05,0.0
0.771,2.4789643314783734e-07,3.7193790123165874e-07,2.7970085791377505e-07,1.2725692471189443e-05,0.0
0.772,2.473339138055289e-07,3.708917251300546e-07,2.7890426516795695e-07,1.2968022632089425e-05,0.0
0.773,2.468925439342828e-07,3.698008977909525e-07,2.780859602926661e-07,1.3202915433137068e-05,0.0
0.774,2.46578296308396e-07,3.6865809962911435e-07,2.77247177508846e-07,1.3428586556372586e-05,0.0
0.775,2.46395049493247e-07,3.674560436679272e-07,2.7638794082185626e-07,1.364333714338725e-05,0.0
0.776,2.463444497764711e-07,3.661869859472154e-07,2.755073652838214e-07,1.38455992219988e-05,0.0
0.777,2.4642621389296425e-07,3.648437645188687e-07,2.746037053270759e-07,1.4033979357532055e-05,0.0
0.778,2.4663810010133164e-07,3.63422136706838e-07,2.7367404354000885e-07,1.4207255325308023e-05,0.0
0.779,2.469753172132787e-07,3.619230334632148e-07,2.72714488006086e-07,1.4364335204342968e-05,0.0
0.78,2.4743088121579896e-07,3.603533082060115e-07,2.7172096310978505e-07,1.4504225091047976e-05,0.0
0.781,2.4799646207573573e-07,3.587241537014205e-07,2.706897462418223e-07,1.4626024279983228e-05,0.0
0.782,2.4866253209604414e-07,3.570485366359271e-07,2.696184772774212e-07,1.4728952989223476e-05,0.0
0.783,2.4941911509182164e-07,3.553404603087479e-07,2.6850923016676774e-07,1.481242813337639e-05,0.0
0.784,2.502577427751213e-07,3.53615624506283e-07,2.6737201139429853e-07,1.4876153716764724e-05,0.0
0.785,2.511725331340391e-07,3.51890094903727e-07,2.662245514094388e-07,1.4920146883783988e-05,0.0
0.786,2.521588900495892e-07,3.501770291037736e-07,2.6508791197124773e-07,1.4944697403086845e-05,0.0
0.787,2.532110886178165e-07,3.484851268638941e-07,2.6398235896397245e-07,1.495032894718992e-05,0.0
0.788,2.543213311214434e-07,3.468196904590509e-07,2.629262694819624e-07,1.4937791037853206e-05,0.0
0.789,2.554807695425887e-07,3.451837273023708e-07,2.619365013343218e-07,1.490807206124605e-05,0.0
0.79,2.5668048081671e-07,3.4357779309187893e-07,2.6102883041625295e-07,1.486239441665107e-05,0.0
0.791,2.579119455851437e-07,3.419995784734545e-07,2.602181772368416e-07,1.4802136497192563e-05,0.0
0.792,2.591682662939164e-07,3.404439960358312e-07,2.5951833079876484e-07,1.472869711686336e-05,0.0
0.793,2.604455973658916e-07,3.389035696921041e-07,2.589418821503028e-07,1.464338321927609e-05,0.0
0.794,2.617434053988901e-07,3.3736916209167214e-07,2.585006976545289e-07,1.4547365161398294e-05,0.0
0.795,2.630629834112035e-07,3.358318667750536e-07,2.582055301342096e-07,1.4441684161846857e-05,0.0
0.796,2.644048865580736e-07,3.342868492087836e-07,2.5806434488126134e-07,1.4327280751107988e-05,0.0
0.797,2.65767125744971e-07,3.327374383222019e-07,2.580814402075652e-07,1.4205019445146851e-05,0.0
0.798,2.671449071876058e-07,3.311958621682636e-07,2.58258266455759e-07,1.4075742925565308e-05,0.0
0.799,2.685315045975754e-07,3.296797610795454e-07,2.585948642589288e-07,1.3940422788123435e-05,0.0
0.8,2.699196379089566e-07,3.282071228035548e-07,2.5909166895446493e-07,1.3800318035248388e-05,0.0
0.801,2.713019731255642e-07,3.267927063486743e-07,2.59750698387376e-07,1.3656958227899497e-05,0.0
0.802,2.726700877930136e-07,3.254472474692832e-07,2.6057446957547346e-07,1.351196447134278e-05,0.0
0.803,2.740137937636999e-07,3.241781279639051e-07,2.6156407794201e-07,1.3366863966360162e-05,0.0
0.804,2.753229235920835e-07,3.229897153779015e-07,2.627189999965197e-07,1.3223016368084944e-05,0.0
0.805,2.7659052723159614e-07,3.218836332914733e-07,2.640381691027252e-07,1.308172842529176e-05,0.0
0.806,2.77814462489168e-07,3.208600770666687e-07,2.655205542320367e-07,1.294449385856515e-05,0.0
0.807,2.789961180223192e-07,3.199198837923711e-07,2.6716507586782226e-07,1.2813136418447116e-05,0.0
0.808,2.801382386589469e-07,3.190657726663494e-07,2.689704854511277e-07,1.2689741365981954e-05,0.0
0.809,2.81244375769022e-07,3.183015877258281e-07,2.709348831971608e-07,1.257648744633273e-05,0.0
0.81,2.8231913163971986e-07,3.176304806249108e-07,2.730549466134272e-07,1.2475512558668907e-05,0.0
0.811,2.833675057650288e-07,3.170551483743839e-07,2.753262191990408e-07,1.238883051549251e-05,0.0
0.812,2.843940245429104e-07,3.165819094064087e-07,2.777438365856376e-07,1.231826077886326e-05,0.0
0.8130000000000001,2.854019235698624e-07,3.162254070579064e-07,2.8030198100901664e-07,1.2265346988985142e-05,0.0
0.8140000000000001,2.863921780988923e-07,3.160084227775292e-07,2.829931887410871e-07,1.223128199503421e-05,0.0
0.8150000000000001,2.873630390863438e-07,3.1595663945562364e-07,2.8580864634124136e-07,1.2216879919751304e-05,0.0
0.8160000000000001,2.883100072657502e-07,3.160941335371135e-07,2.887383979947308e-07,1.2222595647106046e-05,0.0
0.8170000000000001,2.892258953723578e-07,3.164424542986784e-07,2.917708125872585e-07,1.2248543184703553e-05,0.0
0.8180000000000001,2.901013010544372e-07,3.170211232835544e-07,2.948919395876389e-07,1.2294490375336155e-05,0.0
0.8190000000000001,2.909256685511511e-07,3.178475848252851e-07,2.980857536167238e-07,1.2359861301010232e-05,0.0
0.8200000000000001,2.916885247363401e-07,3.1893614886265104e-07,3.013350230942412e-07,1.2443780500534076e-05,0.0
0.8210000000000001,2.92380646717446e-07,3.202970700445008e-07,3.046215292297589e-07,1.254516551331848e-05,0.0
0.8220000000000001,2.929948570736444e-07,3.219362186104507e-07,3.079256966447296e-07,1.2662850606423786e-05,0.0
0.8230000000000001,2.9352561109465373e-07,3.2385373714374925e-07,3.112266651286862e-07,1.2795704125559234e-05,0.0
0.8240000000000001,2.939676508052883e-07,3.260425629663311e-07,3.145035850026448e-07,1.2942690549042706e-05,0.0
0.8250000000000001,2.943149588302469e-07,3.2848934553016026e-07,3.1773805906482495e-07,1.3102868782732373e-05,0.0
0.8260000000000001,2.945604372368716e-07,3.311775316253844e-07,3.2091572971235906e-07,1.3275376170702166e-05,0.0
0.8270000000000001,2.9469637768042374e-07,3.340901251428604e-07,3.24025606763103e-07,1.3459424434091622e-05,0.0
0.8280000000000001,2.94716189287016e-07,3.372104213768624e-07,3.2705912039475293e-07,1.3654281649761095e-05,0.0
0.8290000000000001,2.9461717869786865e-07,3.405217265079498e-07,3.3001008408973135e-07,1.3859217910569984e-05,0.0
0.8300000000000001,2.944022258284127e-07,3.440072608722551e-07,3.328736815882741e-07,1.4073417945252645e-05,0.0
0.8310000000000001,2.940784701508456e-07,3.4765048157170575e-07,3.356443430559469e-07,1.4295899801436427e-05,0.0
0.8320000000000001,2.936551615486325e-07,3.5143686209099095e-07,3.383145677699282e-07,1.4525507135282137e-05,0.0
0.833,2.931435309429808e-07,3.553567270461213e-07,3.408748526223441e-07,1.4760981179031357e-05,0.0
0.834,2.9255674977953457e-07,3.59406306820106e-07,3.433136948191013e-07,1.500102104246466e-05,0.0
0.835,2.919077095833929e-07,3.635856421713169e-07,3.456177772741523e-07,1.524427617316548e-05,0.0
0.836,2.9120649411600816e-07,3.6789469250996034e-07,3.477727270484172e-07,1.548932365420605e-05,0.0
0.837,2.904597671125016e-07,3.72330470381295e-07,3.497642318231102e-07,1.5734683678969478e-05,0.0
0.838,2.896719417173897e-07,3.768921490763539e-07,3.515791409097032e-07,1.5978863954420295e-05,0.0
0.839,2.88846493635643e-07,3.816062684490092e-07,3.53206199162711e-07,1.62203964234612e-05,0.0
0.84,2.879865617996087e-07,3.8657211413825546e-07,3.546360620097117e-07,1.6457831317253637e-05,0.0
0.841,2.870952934576123e-07,3.919934858672425e-07,3.558611021303182e-07,1.668970151268665e-05,0.0
0.842,2.86175793478068e-07,3.981577064839836e-07,3.568760501666417e-07,1.6914519682234462e-05,0.0
0.843,2.852308158203396e-07,4.053748815913208e-07,3.576791549230709e-07,1.7130833420837094e-05,0.0
0.844,2.842630172082876e-07,4.1392798275845923e-07,3.582727992656627e-07,1.7337312774780068e-05,0.0
0.845,2.832750511244602e-07,4.24059120176563e-07,3.586633630742352e-07,1.753284826978669e-05,0.0
0.846,2.822686910803624e-07,4.359818252161026e-07,3.58860102668878e-07,1.7716616679976596e-05,0.0
0.847,2.812443633528593e-07,4.49900059196789e-07,3.588731475126629e-07,1.788804935247438e-05,0.0
0.848,2.80202352552941e-07,4.660208259140998e-07,3.5871245769614137e-07,1.804671990200949e-05,0.0
0.849,2.791451952326578e-07,4.845569395835602e-07,3.583883517931053e-07,1.819227062595309e-05,0.0
0.85,2.780795224322964e-07,5.0572281987558e-07,3.5791155399532706e-07,1.8324437045731656e-05,0.0
0.851,2.770152260542223e-07,5.29728363076619e-07,3.572922411273114e-07,1.844309024938277e-05,0.0
0.852,2.759624767003556e-07,5.567727570798103e-07,3.565396800083904e-07,1.8548227129717045e-05,0.0
0.853,2.749300692402998e-07,5.870380574881816e-07,3.556625705940447e-07,1.863991993336604e-05,0.0
0.854,2.7392629634658055e-07,6.206892829118653e-07,3.546690602487865e-07,1.871827236583994e-05,0.0
0.855,2.729595416435773e-07,6.578963488306825e-07,3.535664634795666e-07,1.878347261831269e-05,0.0
0.856,2.72037068613043e-07,6.988968120058657e-07,3.523608935162473e-07,1.8835934892195677e-05,0.0
0.857,2.711637752315742e-07,7.440837934050583e-07,3.510566100177714e-07,1.887634468639968e-05,0.0
0.858,2.703421797244192e-07,7.940369406250958e-07,3.4965566258217825e-07,1.890552716972506e-05,0.0
0.859,2.695732871232256e-07,8.4944001078378e-07,3.481589593159084e-07,1.8924265099104395e-05,0.0
0.86,2.6885764208797264e-07,9.109456063176602e-07,3.465684225848129e-07,1.893320847388388e-05,0.0
0.861,2.681956971248974e-07,9.790811643143542e-07,3.448880146081242e-07,1.8932964496815027e-05,0.0
0.862,2.6758743199122106e-07,1.0542267032279755e-06,3.431232006609889e-07,1.892432980005811e-05,0.0
0.863,2.670319522423091e-07,1.1366443720958478e-06,3.412804241470551e-07,1.890845252429647e-05,0.0
0.864,2.665275111459738e-07,1.2265223374684133e-06,3.393663995864274e-07,1.8886776583981632e-05,0.0
0.865,2.660722664158283e-07,1.324004201558832e-06,3.373871257084936e-07,1.886085544842603e-05,0.0
0.866,2.6566529334697465e-07,1.4292017410109838e-06,3.3534790191451945e-07,1.883218461086522e-05,0.0
0.867,2.653076321165138e-07,1.54220151527332e-06,3.332541871181248e-07,1.880210057341183e-05,0.0
0.868,2.650033481903564e-07,1.6630686760056623e-06,3.3111222513417577e-07,1.877171982576225e-05,0.0
0.869,2.647587647172408e-07,1.791843603115734e-06,3.289286658385174e-07,1.8741888073803835e-05,0.0
0.87,2.645802895438571e-07,1.9285322771755378e-06,3.267094111714587e-07,1.8713146600675056e-05,0.0
0.871,2.6447424206129725e-07,2.073098067520254e-06,3.2445899170481937e-07,1.868573673374564e-05,0.0
0.872,2.644483034731064e-07,2.225458860635599e-06,3.221806552971282e-07,1.865963308524781e-05,0.0
0.873,2.645113363989753e-07,2.385489708036768e-06,3.198766767525997e-07,1.863458183820033e-05,0.0
0.874,2.6467217499107217e-07,2.553025966258023e-06,3.175487025722667e-07,1.8610139392308276e-05,0.0
0.875,2.6493987905331297e-07,2.7278541089450437e-06,3.1519741581270615e-07,1.858571891257776e-05,0.0
0.876,2.653241989750808e-07,2.909686503520618e-06,3.128218581744233e-07,1.85606516025502e-05,0.0
0.877,2.658340403708424e-07,3.0981326017496416e-06,3.104199151329244e-07,1.853426370923621e-05,0.0
0.878,2.664749220105192e-07,3.292678370304767e-06,3.0798988395417816e-07,1.850596118441638e-05,0.0
0.879,2.672479693406252e-07,3.492679288787842e-06,3.055319334030878e-07,1.8475301219507787e-05,0.0
0.88,2.6815112512423404e-07,3.697369244935256e-06,3.030490997917967e-07,1.8442020687093664e-05,0.0
0.881,2.6918048969013884e-07,3.905882545035274e-06,3.005475027498261e-07,1.8406018748993223e-05,0.0
0.882,2.703301893608607e-07,4.117283446932224e-06,2.980352178060845e-07,1.836733021335122e-05,0.0
0.883,2.7159177250861426e-07,4.330598108911494e-06,2.955206931507379e-07,1.8326109865032755e-05,0.0
0.884,2.729542533379578e-07,4.544843017079538e-06,2.930125060205914e-07,1.8282605789109843e-05,0.0
0.885,2.744049360969307e-07,4.759044959628972e-06,2.9052054228845775e-07,1.823711041920149e-05,0.0
0.886,2.759307713142396e-07,4.972253151455709e-06,2.8805669560989255e-07,1.818990624370983e-05,0.0
0.887,2.775186738284569e-07,5.183546962786315e-06,2.856336361756578e-07,1.814121632161719e-05,0.0
0.888,2.791542541844777e-07,5.392036525792507e-06,2.832624796554736e-07,1.809118690185627e-05,0.0
0.889,2.808211849082727e-07,5.596855271306595e-06,2.8095128545040335e-07,1.803993660839296e-05,0.0
0.89,2.825019683007903e-07,5.797159626531898e-06,2.7870499999151734e-07,1.7987625772510008e-05,0.0
0.891,2.841787774870524e-07,5.992140017870255e-06,2.765261190904095e-07,1.7934467870137074e-05,0.0
0.892,2.8583387794006416e-07,6.18102152188661e-06,2.744158444247139e-07,1.7880691519280428e-05,0.0
0.893,2.874498462310946e-07,6.363054615756664e-06,2.723755724074518e-07,1.7826508346082122e-05,0.0
0.894,2.890098243196809e-07,6.537521086388085e-06,2.704072791814667e-07,1.7772094114894448e-05,0.0
0.895,2.904976477729941e-07,6.703756009112349e-06,2.685124961357809e-07,1.7717569948178435e-05,0.0
0.896,2.918975146895959e-07,6.8611688657915486e-06,2.666917153525808e-07,1.7663020396332396e-05,0.0
0.897,2.931936519145845e-07,7.0092565243642405e-06,2.649453430013777e-07,1.7608554495494918e-05,0.0
0.898,2.9437118332831146e-07,7.147606864548305e-06,2.632754016187868e-07,1.755433834476792e-05,0.0
0.899,2.954188927264604e-07,7.275893633506671e-06,2.61685972570721e-07,1.7500575355011168e-05,0.0
0.9,2.963319215502905e-07,7.393867332082603e-06,2.601815947707476e-07,1.744745563268034e-05,0.0
0.901,2.971111534428459e-07,7.501345753892599e-06,2.5876533463467485e-07,1.7395080890736667e-05,0.0
0.902,2.977598341753397e-07,7.598203802470968e-06,2.574382681199e-07,1.7343402544993286e-05,0.0
0.903,2.982815535540106e-07,7.684363115870105e-06,2.5620055952614414e-07,1.7292218820169717e-05,0.0
0.904,2.986810445571299e-07,7.759782489481865e-06,2.55052888135793e-07,1.7241235382878885e-05,0.0
0.905,2.989649852032197e-07,7.824447923969468e-06,2.539971316584713e-07,1.7190171325708743e-05,0.0
0.906,2.9914117523939585e-07,7.878366035530289e-06,2.530365016245907e-07,1.7138866034206023e-05,0.0
0.907,2.992178328492871e-07,7.921570353625891e-06,2.521749591154611e-07,1.7087320923318825e-05,0.0
0.908,2.992043369825041e-07,7.954134917762606e-06,2.514158634208268e-07,1.7035658974415652e-05,0.0
0.909,2.991119811048408e-07,7.9761755030386e-06,2.507608795337781e-07,1.6984046587452756e-05,0.0
0.91,2.989529921743278e-07,7.987836348874648e-06,2.502094192113292e-07,1.6932623521827374e-05,0.0
0.911,2.987390514930179e-07,7.989275786940071e-06,2.4975814090611684e-07,1.6881466179392296e-05,0.0
0.912,2.984810399763477e-07,7.980656532386509e-06,2.494006558621873e-07,1.68305990011454e-05,0.0
0.913,2.9818906556750577e-07,7.962139904898877e-06,2.491279829262874e-07,1.6780059864553543e-05,0.0
0.914,2.978721589885467e-07,7.933883847968943e-06,2.489297422490677e-07,1.6729968940203437e-05,0.0
0.915,2.975387323347863e-07,7.896045109272846e-06,2.487952530750406e-07,1.6680516517531186e-05,0.0
0.916,2.9719784328963466e-07,7.848785149517694e-06,2.4871367709193384e-07,1.663187158454594e-05,0.0
0.917,2.9685988905042e-07,7.792276843060592e-06,2.486735458178865e-07,1.6584084600333706e-05,0.0
0.918,2.965357613769428e-07,7.726708200075247e-06,2.486628119421439e-07,1.6537042391746754e-05,0.0
0.919,2.962349075306135e-07,7.652283784299364e-06,2.486693466571195e-07,1.649048537138961e-05,0.0
0.92,2.959643859716827e-07,7.569227408225344e-06,2.486813388695574e-07,1.644405702155806e-05,0.0
0.921,2.957304256517893e-07,7.477785569276445e-06,2.486879135351972e-07,1.6397364141389028e-05,0.0
0.922,2.955404107230853e-07,7.378228014932839e-06,2.486793505181383e-07,1.635003409567547e-05,0.0
0.923,2.954022905097038e-07,7.270845815262388e-06,2.48646379106294e-07,1.6301745258989885e-05,0.0
0.924,2.953226972872709e-07,7.155951702003967e-06,2.4858002867327855e-07,1.6252229110157905e-05,0.0
0.925,2.953068918231078e-07,7.033882092654677e-06,2.4847246130462384e-07,1.620126398158718e-05,0.0
0.926,2.953594700915013e-07,6.904995526593884e-06,2.483175476124452e-07,1.614866956139145e-05,0.0
0.927,2.954836280898235e-07,6.769669794188736e-06,2.481115110004303e-07,1.6094298750487567e-05,0.0
0.928,2.956805683940597e-07,6.628301829204772e-06,2.478540384946428e-07,1.603802454618966e-05,0.0
0.929,2.95950969323396e-07,6.4813072402656415e-06,2.47548061627974e-07,1.5979726945913944e-05,0.0
0.93,2.9629713615867575e-07,6.32911776010926e-06,2.471978116352443e-07,1.5919282723399045e-05,0.0
0.931,2.967230440664567e-07,6.172179675732223e-06,2.468078294495978e-07,1.5856550038958813e-05,0.0
0.932,2.972320566039552e-07,6.010953477811137e-06,2.463836419905429e-07,1.579134908403756e-05,0.0
0.933,2.97824848579606e-07,5.845910758628664e-06,2.459316936444852e-07,1.5723455419726858e-05,0.0
0.934,2.984990160037705e-07,5.677527835826029e-06,2.4545817222968613e-07,1.56526091493575e-05,0.0
0.935,2.992498845299392e-07,5.5062808168268685e-06,2.449681459598612e-07,1.557852437113699e-05,0.0
0.936,3.000720409885885e-07,5.332643957078391e-06,2.444653699759094e-07,1.5500888969829363e-05,0.0
0.937,3.009609487158488e-07,5.15708823857631e-06,2.4395301388434706e-07,1.541935931801458e-05,0.0
0.9380000000000001,3.019132399818618e-07,4.980078470280989e-06,2.4343458346288503e-07,1.5333563793604647e-05,0.0
0.9390000000000001,3.0292538428224584e-07,4.802073371270507e-06,2.429141352991428e-07,1.5243122098659396e-05,0.0
0.9400000000000001,3.039921691196087e-07,4.623532854836267e-06,2.423966691245083e-07,1.5147665374127565e-05,0.0
0.9410000000000001,3.051062008707953e-07,4.444924096392706e-06,2.418884456588994e-07,1.5046842165928684e-05,0.0
0.9420000000000001,3.0625790202092495e-07,4.266715240183696e-06,2.413963919236549e-07,1.4940320074708983e-05,0.0
0.9430000000000001,3.07435149845764e-07,4.089362258070118e-06,2.409278579428008e-07,1.4827809179568928e-05,0.0
0.9440000000000001,3.086233231851799e-07,3.913300334923806e-06,2.404910250190999e-07,1.4709121274315117e-05,0.0
0.9450000000000001,3.098071435260673e-07,3.738940582191903e-06,2.4009432323185493e-07,1.4584218128446391e-05,0.0
0.9460000000000001,3.109743184026749e-07,3.56667040074322e-06,2.397448618260263e-07,1.445317345944055e-05,0.0
0.9470000000000001,3.1211831052607017e-07,3.3968572358120505e-06,2.3944757262278005e-07,1.4316075880926586e-05,0.0
0.9480000000000001,3.1323756314712424e-07,3.229850745859044e-06,2.3920537368346425e-07,1.4172973023639654e-05,0.0
0.9490000000000001,3.143326348823932e-07,3.065980978259396e-06,2.390195228964784e-07,1.4023888685286922e-05,0.0
0.9500000000000001,3.15403853819262e-07,2.905557006987977e-06,2.3889019200633575e-07,1.386889600502237e-05,0.0
0.9510000000000001,3.164498063409008e-07,2.748866417424586e-06,2.388175936050071e-07,1.3708219703537311e-05,0.0
0.9520000000000001,3.174667137544608e-07,2.596171747510507e-06,2.388034657467338e-07,1.354229789786409e-05,0.0
0.9530000000000001,3.1844931231544305e-07,2.447705777161562e-06,2.388522245843527e-07,1.3371753592482509e-05,0.0
0.9540000000000001,3.193928454147549e-07,2.303670106610335e-06,2.3897071297601385e-07,1.3197307170499717e-05,0.0
0.9550000000000001,3.202945993148981e-07,2.164237149302148e-06,2.391663176549171e-07,1.3019683217843284e-05,0.0
0.9560000000000001,3.2115369119004977e-07,2.029555459289315e-06,2.394447760544417e-07,1.2839561393615834e-05,0.0
0.9570000000000001,3.2196952731724226e-07,1.899758717792599e-06,2.398093125342469e-07,1.2657624391538044e-05,0.0
0.9580000000000001,3.2274067197118213e-07,1.7749737299346958e-06,2.402616840026235e-07,1.2474678134318311e-05,0.0
0.9590000000000001,3.234650472577196e-07,1.655322379427052e-06,2.4080419201114626e-07,1.2291718823326268e-05,0.0
0.96,3.2414137639538625e-07,1.540917968169671e-06,2.4144089377798455e-07,1.2109859945695376e-05,0.0
0.961,3.247715138781509e-07,1.4318580606320491e-06,2.42176570897089e-07,1.1930176387614376e-05,0.0
0.962,3.253619575137069e-07,1.32821668326805e-06,2.4301403401438e-07,1.175358980099835e-05,0.0
0.963,3.259226739167866e-07,1.230040595297382e-06,2.439525006623528e-07,1.1580847474324416e-05,0.0
0.964,3.264641602318996e-07,1.1373498712179588e-06,2.4498797497222466e-07,1.1412556295222068e-05,0.0
0.965,3.269949389315904e-07,1.050138561470441e-06,2.461137710140632e-07,1.1249216670402064e-05,0.0
0.966,3.275205121948938e-07,9.683755382991234e-07,2.4732038164199425e-07,1.1091244279341242e-05,0.0
0.967,3.2804413900925706e-07,8.920079460495453e-07,2.485953829974073e-07,1.093903630392635e-05,0.0
0.968,3.285678630367987e-07,8.209657959585144e-07,2.49924133367062e-07,1.079310271040882e-05,0.0
0.969,3.290920176757396e-07,7.551651763285437e-07,2.5129168263828944e-07,1.0654137167030126e-05,0.0
0.97,3.2961494918096965e-07,6.945100902595075e-07,2.526844793546106e-07,1.052293729264182e-05,0.0
0.971,3.301344094077334e-07,6.388941456464696e-07,2.540905147426568e-07,1.0400264252815597e-05,0.0
0.972,3.306491033309567e-07,5.882015921717639e-07,2.554988900939929e-07,1.0286741676720978e-05,0.0
0.973,3.311589874522405e-07,5.423075724225888e-07,2.568993838706288e-07,1.0182848139063113e-05,0.0
0.974,3.316643643491558e-07,5.010783504872269e-07,2.582819319594674e-07,1.0089072072541025e-05,0.0
0.975,3.321644564217481e-07,4.643696654160722e-07,2.596368717929468e-07,1.0006147341954556e-05,0.0
0.976,3.3265633165415533e-07,4.320233802211735e-07,2.6095605075685374e-07,9.935129028513238e-06,0.0
0.977,3.331352883090884e-07,4.038663609391938e-07,2.622337025043543e-07,9.87724237187726e-06,0.0
0.978,3.335971055737269e-07,3.797132506245563e-07,2.634664386929389e-07,9.833667271406033e-06,0.0
0.979,3.3404035490407565e-07,3.593720567160488e-07,2.646527515498851e-07,9.805383471446168e-06,0.0
0.98,3.344663149376801e-07,3.426491797386367e-07,2.6579216035915266e-07,9.79308219260906e-06,0.0
0.981,3.348771049338456e-07,3.293500729716499e-07,2.668836994921917e-07,9.797118951228644e-06,0.0
0.982,3.35274093654723e-07,3.192770411363714e-07,2.6792483886972295e-07,9.817498682530031e-06,0.0
0.983,3.356567172801688e-07,3.122284561822756e-07,2.689118554046976e-07,9.853898503809176e-06,0.0
0.984,3.36022067720712e-07,3.0799994392329255e-07,2.698407880345693e-07,9.905725873181262e-06,0.0
0.985,3.363659406914475e-07,3.0638669406806344e-07,2.707082288128294e-07,9.97218322211689e-06,0.0
0.986,3.366841587844375e-07,3.071868364388417e-07,2.715115969738147e-07,1.005230686535331e-05,0.0
0.987,3.369735508828471e-07,3.102034232778951e-07,2.722483470854598e-07,1.0144994041202797e-05,0.0
0.988,3.372337564181896e-07,3.152438462561504e-07,2.729149305064786e-07,1.0249049028636678e-05,0.0
0.989,3.374693113873812e-07,3.2212054711263177e-07,2.735066872532577e-07,1.0363238331918896e-05,0.0
0.99,3.376892749397491e-07,3.306531461753268e-07,2.740181732450808e-07,1.0486329698929873e-05,0.0
0.991,3.3790391006786684e-07,3.406671368484652e-07,2.744432726548441e-07,1.0617113301321023e-05,0.0
0.992,3.381214738386591e-07,3.519904744215016e-07,2.747753061546788e-07,1.0754412856866184e-05,0.0
0.993,3.383473871094636e-07,3.6445279883255297e-07,2.750074464199525e-07,1.0897089429754496e-05,0.0
0.994,3.385854338653778e-07,3.77886359211904e-07,2.751337985781655e-07,1.1044046735299597e-05,0.0
0.995,3.388393918066853e-07,3.921262691096811e-07,2.7515032977554586e-07,1.1194238662746072e-05,0.0
0.996,3.391130085961625e-07,4.070107369545852e-07,2.750543883190271e-07,1.134665995325492e-05,0.0
0.997,3.394088957201085e-07,4.223819317152957e-07,2.7484387667579054e-07,1.1500320678016668e-05,0.0
0.998,3.397290881017719e-07,4.380871597274765e-07,2.7451743325751337e-07,1.1654224303994616e-05,0.0
0.999,3.400766217351577e-07,4.539801025399552e-07,2.740749708109864e-07,1.180735431936245e-05,0.0
1.0,3.404554367180144e-07,4.6992188002167997e-07,2.735174280656922e-07,1.1958685691917291e-05,0.0
1.0010000000000001,3.408692962153401e-07,4.857824775047066e-07,2.7284572230257685e-07,1.2107239788494978e-05,0.0
1.002,3.413221501136532e-07,5.01442571394017e-07,2.720603799305269e-07,1.2252137780770324e-05,0.0
1.0030000000000001,3.418190876145026e-07,5.167940536631585e-07,2.711626826335898e-07,1.239259805108405e-05,0.0
1.004,3.4236532628313304e-07,5.317392774892222e-07,2.701563478785538e-07,1.2527909504784532e-05,0.0
1.0050000000000001,3.429641040250805e-07,5.46190388952677e-07,2.690484415557465e-07,1.2657434323085554e-05,0.0
1.006,3.436159804720184e-07,5.60068881757264e-07,2.678485319208304e-07,1.2780631167277446e-05,0.0
1.0070000000000001,3.443190138069189e-07,5.73306589690998e-07,2.665670370851665e-07,1.2897058306912372e-05,0.0
1.008,3.4506909623214617e-07,5.858479011930221e-07,2.652151754466014e-07,1.3006342553116817e-05,0.0
1.0090000000000001,3.458616367303777e-07,5.976502465889521e-07,2.6380615056916124e-07,1.310815137849701e-05,0.0
1.01,3.4669317574297534e-07,6.086825700743197e-07,2.6235546286001175e-07,1.320220422988917e-05,0.0
1.0110000000000001,3.4756066189416693e-07,6.189222298926846e-07,2.608798873634205e-07,1.3288299024328916e-05,0.0
1.012,3.484599153403184e-07,6.283506603116192e-07,2.593959662615871e-07,1.3366322010001133e-05,0.0
1.0130000000000001,3.4938519429109893e-07,6.369512639406891e-07,2.579195321036304e-07,1.3436270323566886e-05,0.0
1.014,3.5032912867413934e-07,6.44710858146785e-07,2.5646649098895765e-07,1.349832153915834e-05,0.0
1.0150000000000001,3.5128230459274614e-07,6.516208936327591e-07,2.5505322342592177e-07,1.3552889961996587e-05,0.0
1.016,3.522335983507762e-07,6.576763254107352e-07,2.5369664821469905e-07,1.3600580787539135e-05,0.0
1.0170000000000001,3.5317197721449786e-07,6.628748761305611e-07,2.524148747016897e-07,1.3642056413194163e-05,0.0
1.018,3.540881388308014e-07,6.672182062132437e-07,2.512268354006787e-07,1.3677907444829184e-05,0.0
1.0190000000000001,3.549743755928671e-07,6.707122176786072e-07,2.501499309660351e-07,1.3708600481850048e-05,0.0
1.02,3.5582341613791255e-07,6.733650125212948e-07,2.491981777570213e-07,1.3734501119833456e-05,0.0
1.0210000000000001,3.566279214008299e-07,6.751847191087946e-07,2.483823220579168e-07,1.3755909869639883e-05,0.0
1.022,3.573814078215223e-07,6.761793915112299e-07,2.477103627078448e-07,1.3773073903729206e-05,0.0
1.0230000000000001,3.580791043563898e-07,6.763591949593374e-07,2.4718765079635976e-07,1.378623278698031e-05,0.0
1.024,3.5871692623424346e-07,6.757386962821791e-07,2.4681666925128045e-07,1.3795752631228623e-05,0.0
1.025,3.592903173663267e-07,6.743364811420116e-07,2.465965148372892e-07,1.380223166493826e-05,0.0
1.026,3.597945644616275e-07,6.721734058696304e-07,2.465229356270491e-07,1.3806419765462112e-05,0.0
1.027,3.6022468418305825e-07,6.69272657551913e-07,2.465888690752634e-07,1.3809015838831416e-05,0.0
1.028,3.605743964816012e-07,6.656603771242029e-07,2.467847811657867e-07,1.381053023224286e-05,0.0
1.029,3.6083598265195483e-07,6.613642871298448e-07,2.470995970286094e-07,1.381131318301602e-05,0.0
1.03,3.6100117505843563e-07,6.564117092705049e-07,2.475221162632671e-07,1.381176552621137e-05,0.0
1.031,3.610620736549157e-07,6.50829495943859e-07,2.48041593697727e-07,1.381262503226918e-05,0.0
1.032,3.610117059672216e-07,6.446454021364692e-07,2.486485475029993e-07,1.3815092278207344e-05,0.0
1.033,3.608443029723109e-07,6.378886464936605e-07,2.493368479246316e-07,1.3820693552169774e-05,0.0
1.034,3.60555795465048e-07,6.305894274497757e-07,2.501046712050233e-07,1.3831032664852733e-05,0.0
1.035,3.601444787554228e-07,6.227785187997716e-07,2.509526523533879e-07,1.3847596408789064e-05,0.0
1.036,3.596105728213568e-07,6.14486880964515e-07,2.518814186916824e-07,1.387163836828822e-05,0.0
1.037,3.5895447045181625e-07,6.057455866061164e-07,2.528912786189234e-07,1.3904105620664e-05,0.0
1.038,3.581757517725016e-07,5.965867357069526e-07,2.5398382027329845e-07,1.3945595020921945e-05,0.0
1.039,3.572741024326845e-07,5.870441888692209e-07,2.551626210176183e-07,1.3996346657099229e-05,0.0
1.04,3.562502387661929e-07,5.771530389054296e-07,2.5643201928736333e-07,1.4056269377324895e-05,0.0
1.041,3.551056327681273e-07,5.669488599940666e-07,2.577957382463851e-07,1.412498850515826e-05,0.0
1.042,3.538424356658535e-07,5.564679264303386e-07,2.592560224331434e-07,1.4201901795778758e-05,0.0
1.043,3.52464121741522e-07,5.457489071789297e-07,2.608126194907524e-07,1.4286214678036483e-05,0.0
1.044,3.509756487610428e-07,5.348349738641829e-07,2.624621579740473e-07,1.437695521082461e-05,0.0
1.045,3.49382558148276e-07,5.237728180726127e-07,2.6419852007305985e-07,1.4473000012835151e-05,0.0
1.046,3.476897806921797e-07,5.12609252239804e-07,2.6601378303762377e-07,1.4573129591543984e-05,0.0
1.047,3.459009259609179e-07,5.013912549004019e-07,2.678991247233976e-07,1.4676111388223404e-05,0.0
1.048,3.44018312169382e-07,4.901690766741676e-07,2.698450730586804e-07,1.4780771553373292e-05,0.0
1.049,3.420437834839642e-07,4.789963943355344e-07,2.718412308106486e-07,1.4886006472643916e-05,0.0
1.05,3.399793244691848e-07,4.679265166883742e-07,2.738764569179552e-07,1.4990756982294177e-05,0.0
1.051,3.378271145380871e-07,4.570083198288585e-07,2.759395773612048e-07,1.5094010632102944e-05,0.0
1.052,3.3559020005207097e-07,4.462849637853378e-07,2.780201708026893e-07,1.5194839240079568e-05,0.0
1.053,3.3327337556829085e-07,4.3579505614427574e-07,2.801091023495197e-07,1.5292425942734427e-05,0.0
1.054,3.3088278596154015e-07,4.255736305736687e-07,2.8219823149292925e-07,1.538604965520325e-05,0.0
1.055,3.284246857517672e-07,4.156520933567826e-07,2.842800523579548e-07,1.5475031315935973e-05,0.0
1.056,3.2590533633833345e-07,4.060575790459125e-07,2.863480909567888e-07,1.5558684229012766e-05,0.0
1.057,3.233321120351204e-07,3.968120441333933e-07,2.883970527381524e-07,1.5636318964388214e-05,0.0
1.058,3.207136326528156e-07,3.8793241194301334e-07,2.9042264899084294e-07,1.5707280630406243e-05,0.0
1.059,3.180595130575963e-07,3.794323154813457e-07,2.924215671825829e-07,1.5770942442782987e-05,0.0
1.06,3.153817662495169e-07,3.7132380952187353e-07,2.943907820968257e-07,1.582665800054361e-05,0.0
1.061,3.126959476868492e-07,3.6361734207468243e-07,2.96326604698294e-07,1.5873741393267056e-05,0.0
1.062,3.1001975992981977e-07,3.5632104139769745e-07,2.982245546365367e-07,1.5911486029233733e-05,0.0
1.063,3.073704337049315e-07,3.4944255716939706e-07,3.000795217615729e-07,1.5939206910232343e-05,0.0
1.064,3.0476301823791533e-07,3.429926429288476e-07,3.018854828710143e-07,1.5956346729060832e-05,0.0
1.065,3.022103576366668e-07,3.369856962461318e-07,3.0363541613232415e-07,1.5962627678294625e-05,0.0
1.066,2.99723910209158e-07,3.314371135342225e-07,3.053222313568176e-07,1.5958116728406277e-05,0.0
1.067,2.973138135295428e-07,3.26361098495632e-07,3.069395080119184e-07,1.594316550358432e-05,0.0
1.068,2.949882121725322e-07,3.217699523428116e-07,3.084808186491179e-07,1.5918319381491054e-05,0.0
1.069,2.927533934500595e-07,3.17674167914409e-07,3.099394038942685e-07,1.5884235713822456e-05,0.0
1.07,2.906148534184792e-07,3.140829470191904e-07,3.113093375280575e-07,1.5841591664250084e-05,0.0
1.071,2.885773528272414e-07,3.110041154967046e-07,3.125858642842635e-07,1.5790993322817456e-05,0.0
1.072,2.8664369344934815e-07,3.084424499116513e-07,3.137638807006947e-07,1.5732924743837916e-05,0.0
1.073,2.848146838215749e-07,3.0639783289215573e-07,3.148371481819878e-07,1.5667770220472577e-05,0.0
1.074,2.830903528210982e-07,3.04864693459951e-07,3.157997606027064e-07,1.55958983691973e-05,0.0
1.075,2.81470178787289e-07,3.0383176565688505e-07,3.1664837445087405e-07,1.551774860747149e-05,0.0
1.076,2.799530646042943e-07,3.03282277715068e-07,3.173830517687584e-07,1.5433867892055463e-05,0.0
1.077,2.785380937587825e-07,3.031958824827743e-07,3.180056386063229e-07,1.5344887096627405e-05,0.0
1.078,2.772244998070033e-07,3.0355105789531177e-07,3.185169618293424e-07,1.5251452670414995e-05,0.0
1.079,2.760106996905571e-07,3.043255631634362e-07,3.189155436725178e-07,1.5154152150612345e-05,0.0
1.08,2.748939244917788e-07,3.054950887112809e-07,3.191988104322913e-07,1.5053493889312653e-05,0.0
1.081,2.7387072905326424e-07,3.070322618248408e-07,3.193647877343493e-07,1.4949955144982728e-05,0.0
1.082,2.729375805494373e-07,3.089075653314172e-07,3.194120456605571e-07,1.4844026763084794e-05,0.0
1.083,2.720911022155899e-07,3.110917812089505e-07,3.19338678771374e-07,1.4736194135234553e-05,0.0
1.084,2.71328184360176e-07,3.135582800422216e-07,3.1914180107380066e-07,1.4626885885904664e-05,0.0
1.085,2.70645802349544e-07,3.1628348641969706e-07,3.18817248320916e-07,1.4516442472426931e-05,0.0
1.086,2.70040511576365e-07,3.192448604729674e-07,3.183594451934348e-07,1.4405107887118547e-05,0.0
1.087,2.695079995627718e-07,3.224180347652611e-07,3.17761841414586e-07,1.4293025339890632e-05,0.0
1.088,2.690425448635892e-07,3.257754244563865e-07,3.170175871342601e-07,1.4180230357594609e-05,0.0
1.089,2.6863650366922535e-07,3.292870554698411e-07,3.161198528613699e-07,1.4066655856250714e-05,0.0
1.09,2.682804930174991e-07,3.3292314516391296e-07,3.150617201415478e-07,1.395216287026551e-05,0.0
1.091,2.679650279117462e-07,3.366557254769569e-07,3.13836491202094e-07,1.383658157690184e-05,0.0
1.092,2.676834110107851e-07,3.404575471256188e-07,3.124391042239341e-07,1.371973127847742e-05,0.0
1.093,2.67432956699176e-07,3.443016803488793e-07,3.108680996765914e-07,1.3601411143775843e-05,0.0
1.094,2.6721296966889805e-07,3.481640078504338e-07,3.091268885359617e-07,1.348138564537637e-05,0.0
1.095,2.670225825223218e-07,3.5202532470590735e-07,3.07223436949111e-07,1.3359383956963397e-05,0.0
1.096,2.6686036030916054e-07,3.5587061372129257e-07,3.051684803154653e-07,1.323511044545598e-05,0.0
1.097,2.667245903691181e-07,3.59687612495688e-07,3.0297333606060965e-07,1.3108263381687308e-05,0.0
1.098,2.666137597379812e-07,3.634666164744197e-07,3.006486332710947e-07,1.297855903855296e-05,0.0
1.099,2.66526610702592e-07,3.672000478486281e-07,2.982041172076249e-07,1.2845743445877212e-05,0.0
1.1,2.664616517762527e-07,3.7088050947229794e-07,2.956485949371595e-07,1.2709586710023438e-05,0.0
1.101,2.664170676230321e-07,3.744984307035675e-07,2.929898078778663e-07,1.2569877602309047e-05,0.0
1.102,2.6639061262834565e-07,3.78041679679044e-07,2.902344817053355e-07,1.2426422762568298e-05,0.0
1.103,2.663789913807774e-07,3.814991464474882e-07,2.8738856605366586e-07,1.227904322618866e-05,0.0
1.104,2.663774982509977e-07,3.848657328446418e-07,2.844582352309304e-07,1.2127571483152472e-05,0.0
1.105,2.663799050948948e-07,3.881429598684117e-07,2.81451455482445e-07,1.1971861404799744e-05,0.0
1.106,2.6637817371099964e-07,3.913348831113365e-07,2.783783392697788e-07,1.1811820051244688e-05,0.0
1.107,2.663626142049544e-07,3.944444286555598e-07,2.7524996713199015e-07,1.1647447152619064e-05,0.0
1.108,2.6632280243114445e-07,3.974726228556481e-07,2.720773089286096e-07,1.1478846828937284e-05,0.0
1.109,2.6624848512411304e-07,4.004187341029585e-07,2.688710559669648e-07,1.1306198863690472e-05,0.0
1.11,2.661301702486755e-07,4.03279666126249e-07,2.656422342995537e-07,1.112971859126727e-05,0.0
1.111,2.659594665353981e-07,4.060493645206939e-07,2.624031063534799e-07,1.094963331859978e-05,0.0
1.112,2.657285853708547e-07,4.087187854138087e-07,2.5916746275910464e-07,1.0766188363816605e-05,0.0
1.113,2.6542924065102297e-07,4.112767350151798e-07,2.559500467408982e-07,1.0579685111631116e-05,0.0
1.114,2.6505215524685255e-07,4.137117744206085e-07,2.52765374326814e-07,1.039050875181519e-05,0.0
1.115,2.645873831840587e-07,4.160130234570682e-07,2.4962621818555145e-07,1.0199103865832058e-05,0.0
1.116,2.640252331268867e-07,4.1816864876160354e-07,2.465428208151382e-07,1.000593643899691e-05,0.0
1.117,2.63357817793733e-07,4.201650243373754e-07,2.435240685740887e-07,9.811495374790452e-06,0.0
1.118,2.625806344883013e-07,4.219888251611535e-07,2.405795758997737e-07,9.616330545496243e-06,0.0
1.119,2.6169364473707065e-07,4.236304020892436e-07,2.377198838916578e-07,9.421117523893824e-06,0.0
1.12,2.607013711711711e-07,4.2508590648086476e-07,2.3495460352020747e-07,9.22672407486016e-06,0.0
1.121,2.596118730177017e-07,4.263563581403448e-07,2.3229086281278801e-07,9.034211039565736e-06,0.0
1.122,2.584357741195558e-07,4.2744421257775683e-07,2.297329651582706e-07,8.844744016373496e-06,0.0
1.123,2.571858681277544e-07,4.283514193447306e-07,2.2728335551974185e-07,8.659466765454914e-06,0.0
1.124,2.558770178550479e-07,4.290812196897126e-07,2.249446070429109e-07,8.479405191818775e-06,0.0
1.125,2.545267541485905e-07,4.296409537195629e-07,2.227205769324173e-07,8.30547181130461e-06,0.0
1.1260000000000001,2.5315569217033405e-07,4.3004236514958057e-07,2.2061634154096838e-07,8.138588189315605e-06,0.0
1.127,2.517858056375684e-07,4.3029955891708286e-07,2.1863791840125178e-07,7.979821631989761e-06,0.0
1.1280000000000001,2.504373519197731e-07,4.304275421959193e-07,2.1679121446867453e-07,7.830406660730778e-06,0.0
1.129,2.491269179090636e-07,4.304423584985646e-07,2.150805065910047e-07,7.69163806277151e-06,0.0
1.1300000000000001,2.4786745827487055e-07,4.3036075315301394e-07,2.1350809630788225e-07,7.564713854466424e-06,0.0
1.131,2.466695420893975e-07,4.301984499137109e-07,2.12074655690999e-07,7.450615946494643e-06,0.0
1.1320000000000001,2.45541853329634e-07,4.299687203301956e-07,2.107788281006177e-07,7.350074444990899e-06,0.0
1.133,2.444904703207543e-07,4.296820555368823e-07,2.096165319989698e-07,7.2635893241886275e-06,0.0
1.1340000000000001,2.43519037600416e-07,4.293462847095691e-07,2.085811931941338e-07,7.191468013533134e-06,0.0
1.135,2.426299931823951e-07,4.289670398321756e-07,2.0766507107333979e-07,7.13390636787186e-06,0.0
1.1360000000000001,2.418247854990688e-07,4.285481945059434e-07,2.0686075977097906e-07,7.091165316610924e-06,0.0
1.137,2.411034541253177e-07,4.280918626754099e-07,2.0616175079205014e-07,7.063755574095623e-06,0.0
1.1380000000000001,2.404651286417857e-07,4.275986453720528e-07,2.0556212826115213e-07,7.052453465225244e-06,0.0
1.139,2.399086840462516e-07,4.270684251808509e-07,2.0505640015041558e-07,7.0581436494998296e-06,0.0
1.1400000000000001,2.394326212964874e-07,4.265017805062607e-07,2.046396285477855e-07,7.081628818413308e-06,0.0
1.141,2.390348882098404e-07,4.259026531655774e-07,2.0430738037061985e-07,7.123504505188962e-06,0.0
1.1420000000000001,2.387128058750432e-07,4.252817646314921e-07,2.040558713064288e-07,7.184174981715111e-06,0.0
1.143,2.3846262627400026e-07,4.246580814120463e-07,2.038829818248088e-07,7.264038213175833e-06,0.0
1.1440000000000001,2.3827911211099842e-07,4.240567196724721e-07,2.037892432071969e-07,7.363683883829899e-06,0.0
1.145,2.381556574560889e-07,4.235063333614305e-07,2.0377720623373865e-07,7.483905502476633e-06,0.0
1.1460000000000001,2.380849293902645e-07,4.230380785320709e-07,2.038497684443749e-07,7.625550476840362e-06,0.0
1.147,2.380592126744655e-07,4.226836163244633e-07,2.0400917663178802e-07,7.789357937018154e-06,0.0
1.1480000000000001,2.380703169412441e-07,4.22472971087435e-07,2.042567113769363e-07,7.97584819650768e-06,0.0
1.149,2.381104043561004e-07,4.2243493743566633e-07,2.0459220296289705e-07,8.185253952686644e-06,0.0
1.1500000000000001,2.3817319151475325e-07,4.225965468438882e-07,2.050137009290729e-07,8.417476861855636e-06,0.0
1.151,2.3825397754512487e-07,4.2297933795266476e-07,2.0551796762284849e-07,8.672071013843258e-06,0.0
1.1520000000000001,2.383488239655609e-07,4.235964695400522e-07,2.0610101332316173e-07,8.94826906267225e-06,0.0
1.153,2.3845347053113895e-07,4.244528063362433e-07,2.0675786897912046e-07,9.245046395722923e-06,0.0
1.154,2.3856281279084853e-07,4.255462842533418e-07,2.074821127563093e-07,9.561177449625164e-06,0.0
1.155,2.386716999734525e-07,4.268689033379685e-07,2.0826566186657946e-07,9.895246089257202e-06,0.0
1.156,2.387762495880627e-07,4.284068361224162e-07,2.090993096567993e-07,1.0245627924891551e-05,0.0
1.157,2.388750058560985e-07,4.301404628980513e-07,2.0997394293657966e-07,1.061047731262242e-05,0.0
1.158,2.389701777349967e-07,4.3204542888200857e-07,2.1088125847454267e-07,1.09877410390241e-05,0.0
1.159,2.390685144566242e-07,4.340954484581106e-07,2.1181383215388677e-07,1.137521805287386e-05,0.0
1.16,2.3918156490733345e-07,4.3626554237089577e-07,2.1276522289997055e-07,1.177065249250636e-05,0.0
1.161,2.393255631779905e-07,4.385326609099638e-07,2.1372955268230842e-07,1.2171824362568814e-05,0.0
1.162,2.3951969936056174e-07,4.408744056819993e-07,2.1470028250988946e-07,1.257661918067267e-05,0.0
1.163,2.3978272959350936e-07,4.4326863525684114e-07,2.1566950568214226e-07,1.2983060054620117e-05,0.0
1.164,2.40130969574024e-07,4.456935632967575e-07,2.1662839500394045e-07,1.3389284556007287e-05,0.0
1.165,2.405790224914982e-07,4.4812730330615835e-07,2.1756765880532786e-07,1.3793487528737704e-05,0.0
1.166,2.411409609008408e-07,4.505470285196908e-07,2.184773454702955e-07,1.419387381002672e-05,0.0
1.167,2.418299618832473e-07,4.529281492936906e-07,2.193468138570569e-07,1.4588636675826926e-05,0.0
1.168,2.426569193117391e-07,4.552444710802225e-07,2.2016545729401266e-07,1.4975955155312882e-05,0.0
1.169,2.4362973733084177e-07,4.574698002461554e-07,2.2092423984751482e-07,1.53540057598202e-05,0.0
1.17,2.447542892108561e-07,4.595795830765084e-07,2.2161759115892185e-07,1.5720984789098296e-05,0.0
1.171,2.460355856470419e-07,4.61551347829202e-07,2.222439973259092e-07,1.607512541364709e-05,0.0
1.172,2.47477547439424e-07,4.633647060932455e-07,2.2280441994512545e-07,1.6414696685402964e-05,0.0
1.173,2.490834054139937e-07,4.650014716985498e-07,2.2330037240977267e-07,1.6738000876371402e-05,0.0
1.174,2.508582849517077e-07,4.664451434033782e-07,2.237338459898377e-07,1.704339154910876e-05,0.0
1.175,2.5281057002226813e-07,4.676797351529762e-07,2.2410837998836909e-07,1.7329306178220767e-05,0.0
1.176,2.549498305603927e-07,4.6868921627725094e-07,2.2442943881539286e-07,1.7594290498824365e-05,0.0
1.177,2.572851718613004e-07,4.694577094400288e-07,2.247043209391737e-07,1.7837008569978764e-05,0.0
