0.0,0.011927619210197832
0.004,0.011917546222712147
0.008,0.011932066710639006
0.012,0.01195250117212548
0.016,0.011956083213021343
0.02,0.011904732613332981
0.024,0.011882951881442692
0.028,0.011898770558687516
0.032,0.011925094953190678
0.036000000000000004,0.011943678292871908
0.04,0.011869393015232843
0.044,0.011877374475484032
0.048,0.011931658021409277
0.052000000000000005,0.011882735516556366
0.056,0.011895621247564306
0.06,0.011931826305209753
0.064,0.011929566494174778
0.068,0.011882927840899768
0.07200000000000001,0.011866484109538887
0.076,0.011876196488880693
0.08,0.011884682800533312
0.084,0.011909420519203408
0.088,0.011912545789783692
0.092,0.01191783470922725
0.096,0.01187184515061122
0.1,0.011854824446220132
0.10400000000000001,0.011873335664272587
0.108,0.01184960764840535
0.112,0.01187910539457465
0.116,0.011859512352090559
0.12,0.01189929945063187
0.124,0.01190148714003807
0.128,0.01189929945063187
0.132,0.011889947679433945
0.136,0.011901198653522967
0.14,0.011875619515850488
0.14400000000000002,0.011867565933970524
0.148,0.011880668029864792
0.152,0.011890284247034897
0.156,0.01182818752465894
0.16,0.011824966091906955
0.164,0.011858935379060352
0.168,0.011899852383119152
0.17200000000000001,0.01190778576228449
0.176,0.011839751025805992
0.18,0.011835159282107268
0.184,0.011875331029335384
0.188,0.01188773594948482
0.192,0.011793160453616832
0.196,0.011862661663213769
0.2,0.011899972585833779
0.20400000000000001,0.011892688301327423
0.20800000000000002,0.011880259340635062
0.212,0.011883096124700244
0.216,0.011867517852884674
0.22,0.011851362608038894
0.224,0.011849992297092155
0.228,0.011855737986851292
0.232,0.011849727851119976
0.23600000000000002,0.011848309459087386
0.24,0.011797656035143857
0.244,0.011854656162419656
0.248,0.01189153435526701
0.252,0.011876797502453825
0.256,0.011886582003424408
0.26,0.011879706408147781
0.264,0.011869561299033321
0.268,0.011861219230638253
0.272,0.011870162312606453
0.276,0.011871412420838567
0.28,0.011826961456969752
0.28400000000000003,0.011827322065113631
0.28800000000000003,0.011857997797886268
0.292,0.011858911338517427
0.296,0.01187088352889421
0.3,0.01183412553876148
0.304,0.01178525111499442
0.308,0.011828620254431595
0.312,0.011909733046261436
0.316,0.011907353032511834
0.32,0.011876653259196273
0.324,0.011853237770387066
0.328,0.011846842985968945
0.332,0.011844174485704241
0.336,0.011868215028629506
0.34,0.01185225210812713
0.34400000000000003,0.011841962755755116
0.34800000000000003,0.011851675135096922
0.352,0.011850328864693107
0.356,0.011849775932205826
0.36,0.011848910472660517
0.364,0.011833187957587395
0.368,0.01184088093132348
0.372,0.011814003604333035
0.376,0.011826168119053218
0.38,0.011874441529247149
0.384,0.011871532623553192
0.388,0.011855786067937142
0.392,0.011839438498747964
0.396,0.011847299756284525
0.4,0.01187408092110327
0.404,0.01184321286398723
0.40800000000000003,0.011810950455381527
0.41200000000000003,0.01183362068736005
0.41600000000000004,0.011840544363722526
0.42,0.011845088026335401
0.424,0.011835471809165296
0.428,0.011828836619317922
0.432,0.011837034444455437
0.436,0.011845208229050027
0.44,0.011822586078157355
0.444,0.011775490654566763
0.448,0.011845160147964176
0.452,0.01187362415078769
0.456,0.011819484848119996
0.46,0.011831048349267048
0.464,0.011837419093142242
0.468,0.011853357973101691
0.47200000000000003,0.011840400120464974
0.47600000000000003,0.011829605916691532
0.48,0.011827129740770229
0.484,0.011827490348914107
0.488,0.011831481079039701
0.492,0.011825543064937162
0.496,0.011830206930264663
0.5,0.011827081659684378
0.504,0.011842467607156548
0.508,0.011845328431764654
0.512,0.0117539262875628
0.516,0.011777678343972963
0.52,0.01186001720349199
0.524,0.011861748122582607
0.528,0.0117971271431995
0.532,0.011798281089259913
0.536,0.011824413159419674
0.54,0.011860594176522195
0.544,0.011861147109009476
0.548,0.011838044147258298
0.552,0.011822177388927624
0.556,0.011816792307312366
0.56,0.011813691077275007
0.5640000000000001,0.011825134375707431
0.5680000000000001,0.011834462106362435
0.5720000000000001,0.01183499099830679
0.5760000000000001,0.011763350180389504
0.58,0.011765609991424479
0.584,0.011783472114817952
0.588,0.011851122202609641
0.592,0.011842876296386277
0.596,0.011803906576304425
0.6,0.011829942484292484
0.604,0.011805469211594567
0.608,0.011828740457146221
0.612,0.011793184494159758
0.616,0.011821311929382315
0.62,0.011804050819561976
0.624,0.011801117873325094
0.628,0.011783159587759922
0.632,0.011764864734593795
0.636,0.01179443460239187
0.64,0.011816792307312366
0.644,0.011790491953352128
0.648,0.011796838656684397
0.652,0.011817152915456245
0.656,0.01175565720665342
0.66,0.011759095004291733
0.664,0.011820398388751156
0.668,0.011828019240858464
0.672,0.011851578972925221
0.676,0.011783448074275026
0.68,0.01172387560890622
0.684,0.011800877467895841
0.6880000000000001,0.011806502954940352
0.6920000000000001,0.01180027645432271
0.6960000000000001,0.01178890527751906
0.7000000000000001,0.011781284425411752
0.704,0.011778327438631945
0.708,0.011772269221814778
0.712,0.011786044452910954
0.716,0.011789746696521445
0.72,0.011771788410956273
0.724,0.011761691382927661
0.728,0.011829533795062755
0.732,0.011801815049069927
0.736,0.011743853300077114
0.74,0.011766379288798087
0.744,0.011777654303430037
0.748,0.011764792612965019
0.752,0.011787847493630349
0.756,0.011788111939602526
0.76,0.011787102236799666
0.764,0.011773086600274237
0.768,0.011760224909809219
0.772,0.011759383490806834
0.776,0.011767413032143875
0.78,0.011777005208771054
0.784,0.011766379288798087
0.788,0.011751930922500004
0.792,0.011773230843531789
0.796,0.011783424033732101
0.8,0.011695026957395905
0.804,0.011746786246313997
0.808,0.011822081226755923
0.812,0.01178698203408504
0.8160000000000001,0.011790371750637501
0.8200000000000001,0.011796237643111265
0.8240000000000001,0.011768783343090615
0.8280000000000001,0.011763278058760727
0.8320000000000001,0.011784433736534962
0.836,0.011768182329517483
0.84,0.011761018247725753
0.844,0.011763229977674877
0.848,0.011760801882839426
0.852,0.01175351759833307
0.856,0.011753132949646267
0.86,0.011755849530996822
0.864,0.011764407964278216
0.868,0.011757844896059619
0.872,0.01171317756730448
0.876,0.011767773640287754
0.88,0.011805541333223342
0.884,0.01176178754509936
0.888,0.011739814488865671
0.892,0.011780899776724947
0.896,0.011768855464719391
0.9,0.011713249688933254
0.904,0.01174382925953419
0.908,0.0117673409105151
0.912,0.011756522666198728
0.916,0.011758061260945946
0.92,0.01176200390998569
0.924,0.011758493990718601
0.928,0.011752531936073136
0.932,0.011722168730358527
0.936,0.01175108950349762
0.9400000000000001,0.011730582920382369
0.9440000000000001,0.011748060395089036
0.9480000000000001,0.011771548005527021
0.9520000000000001,0.011759455612435611
0.9560000000000001,0.011739429840178867
0.96,0.011723803487277445
0.964,0.011754767706565184
0.968,0.011757099639228935
0.972,0.011753084868560417
0.976,0.011746738165228147
0.98,0.011748300800518289
0.984,0.011744382192021471
0.988,0.011736953664257565
0.992,0.011743035921617656
0.996,0.011765369585995226
1.0,0.01173236192055884
1.004,0.01174255511075915
1.008,0.011715485459425305
1.012,0.011692190173330725
1.016,0.011713345851104956
1.02,0.011762460680301269
1.024,0.011788232142317154
1.028,0.011741112678183636
1.032,0.011753637801047698
1.036,0.011750969300782992
1.04,0.011696132822370468
1.044,0.011730655042011146
1.048,0.011738876907691586
1.052,0.01173144837992768
1.056,0.011725967136140719
1.06,0.011729284731064405
1.064,0.011725678649625615
1.068,0.011721976406015126
1.072,0.01172240913578778
1.076,0.011704210444793356
1.08,0.011722024487100977
1.084,0.011756811152713832
1.088,0.011727553811973787
1.092,0.011669063171036621
1.096,0.011699402336208304
1.1,0.011735992042540553
1.104,0.011732770609788569
1.108,0.011721687919500023
1.112,0.01171469212150877
1.116,0.011718875175977767
1.12,0.01171317756730448
1.124,0.011705845201712273
1.1280000000000001,0.011712889080789376
1.1320000000000001,0.011718442446205112
1.1360000000000001,0.0116785591854921
1.1400000000000001,0.01168221334801674
1.1440000000000001,0.011708225215461875
1.1480000000000001,0.01171175917527189
1.1520000000000001,0.011708008850575548
1.156,0.011726544109170926
1.16,0.011638122992291807
1.164,0.011687430145831523
1.168,0.011729236649978556
1.172,0.011718971338149468
1.176,0.01171231210775917
1.18,0.01170372963393485
1.184,0.011679953536981766
1.188,0.01167257309030371
1.192,0.011669784387324378
1.196,0.011692166132787798
1.2,0.01172464490627983
1.204,0.011719596392265524
1.208,0.011701782349957904
1.212,0.011703681552849
1.216,0.011664663751681298
1.22,0.011650311547554916
1.224,0.011688079240490505
1.228,0.011688247524290981
1.232,0.011667813062804507
1.236,0.011679352523408635
1.24,0.011688319645919758
1.244,0.011675794523055694
1.248,0.01169043521369718
1.252,0.011695844335855365
1.256,0.011687983078318804
1.26,0.011675049266225012
1.264,0.011671130657728193
1.268,0.011673919360707524
1.272,0.011660096048525498
1.276,0.01169322391667651
1.28,0.011645190911911834
1.284,0.011656033196771129
1.288,0.011672597130846635
1.292,0.011660264332325974
1.296,0.011648604669007223
1.3,0.011642378168389578
1.304,0.011658797859207534
1.308,0.011670673887412613
1.312,0.011683775983306883
1.316,0.011693464322105763
1.32,0.011652547318046965
1.324,0.011648484466292595
1.328,0.011654302277680509
1.332,0.011646801628287828
1.336,0.011643676357707543
1.34,0.011647763250004838
1.344,0.011653508939763977
1.348,0.011633603370221858
1.352,0.01161338527362171
1.356,0.011635406410941252
1.36,0.011651681858501656
1.364,0.011657523710432495
1.368,0.01165896614300801
1.372,0.01164324362793489
1.3760000000000001,0.011626463328973055
1.3800000000000001,0.01164704203371708
1.3840000000000001,0.011584801068083574
1.3880000000000001,0.011632761951219473
1.3920000000000001,0.011674159766136777
1.3960000000000001,0.011645022628111358
1.4000000000000001,0.011648268101406269
1.4040000000000001,0.01166750053574648
1.408,0.011646969912088304
1.412,0.01160821655689278
1.416,0.011601028434558127
1.42,0.011620549355413439
1.424,0.011665529211226608
1.428,0.011665889819370487
1.432,0.011642810898162234
1.436,0.01161410648990947
1.44,0.01163155992407321
1.444,0.011644950506482583
1.448,0.011634925600082746
1.452,0.011635406410941252
1.456,0.011640022195182903
1.46,0.011627881721005645
1.464,0.011610019597612174
1.468,0.011616895192888799
1.472,0.011636728640802141
1.476,0.011605499975542225
1.48,0.01160973111109707
1.484,0.011607639583862574
1.488,0.011605548056628076
1.492,0.011595979920543821
1.496,0.011609370502953192
1.5,0.011625790193771147
1.504,0.011605163407941271
1.508,0.01156181830904702
1.512,0.011552057848619363
1.516,0.011618529949807718
1.52,0.011641801195359373
1.524,0.011642113722417401
1.528,0.011624107355766378
1.532,0.011601941975189286
1.536,0.011583911567995339
1.54,0.011593623947337145
1.544,0.011587421487262427
1.548,0.01158355095985146
1.552,0.011580882459586755
1.556,0.011586796433146371
1.56,0.011594176879824426
1.564,0.011590642920014412
1.568,0.011597951245063692
1.572,0.011595306785341913
1.576,0.011546817010261655
1.58,0.01157441555353986
1.584,0.011598648420808525
1.588,0.011569463201697253
1.592,0.01157898325669566
1.596,0.011598480137008049
1.6,0.011610235962498503
1.604,0.011570545026128892
1.608,0.011566193687859418
1.612,0.011598095488321244
1.616,0.011552033808076437
1.62,0.011562178917190899
1.624,0.011578045675521575
1.6280000000000001,0.011559967187241775
1.6320000000000001,0.011534315927940518
1.6360000000000001,0.01153167146821874
1.6400000000000001,0.011585498243828407
1.6440000000000001,0.011609707070554146
1.6480000000000001,0.011540638590729863
1.6520000000000001,0.01153131086007486
1.6560000000000001,0.011610115759783875
1.6600000000000001,0.011585594406000108
1.6640000000000001,0.011574704040054963
1.668,0.011567275512291055
1.672,0.011567539958263233
1.676,0.011548547929352275
1.68,0.011547369942748936
1.684,0.011545086091171037
1.688,0.011553524321737804
1.692,0.011554678267798216
1.696,0.011551456835046232
1.7,0.011552538659477867
1.704,0.011557202524805368
1.708,0.011559558498012044
1.712,0.011535085225314127
1.716,0.011535205428028753
1.72,0.011554774429969918
1.724,0.011573670296709176
1.728,0.011499360978527186
1.732,0.011507438600950074
1.736,0.011562611646963553
1.74,0.01157939194592539
1.744,0.011571458566760052
1.748,0.011555663930058153
1.752,0.011533883198167864
1.756,0.011541023239416666
1.76,0.011543908104567699
1.764,0.011543475374795043
1.768,0.011546360239946075
1.772,0.011551336632331604
1.776,0.011544893766827635
1.78,0.011531767630390441
1.784,0.011522896670051018
1.788,0.011526622954204434
1.792,0.011525300724343544
1.796,0.011543811942395997
1.8,0.011566001363516015
1.804,0.011577276378147965
1.808,0.0115440042667394
1.812,0.011530517522158328
1.816,0.011538523022952439
1.82,0.011535686238887259
1.824,0.011540999198873742
1.828,0.011537320995806176
1.832,0.011515900872059767
1.836,0.011517343304635283
1.84,0.011525396886515245
1.844,0.011523185156566121
1.848,0.011526358508232257
1.852,0.011538955752725094
1.856,0.011502414127478695
1.86,0.011454693649772044
1.864,0.011521334034760876
1.868,0.011544533158683755
1.872,0.011526430629861032
1.8760000000000001,0.011517343304635283
1.8800000000000001,0.011538859590553393
1.8840000000000001,0.011510684074244985
1.8880000000000001,0.011496524194462005
1.8920000000000001,0.0115098426552426
1.8960000000000001,0.011523113034937346
1.9000000000000001,0.011509986898500153
1.9040000000000001,0.011510347506644031
1.9080000000000001,0.01149690884314881
1.9120000000000001,0.011497245410749762
1.9160000000000001,0.011511765898676621
1.92,0.011497966627037521
1.924,0.011503183424852303
1.928,0.01149609146468935
1.932,0.011486162720461216
1.936,0.01145796316360988
1.94,0.01148426351757012
1.944,0.011519122304811752
1.948,0.011504241208741014
1.952,0.01148594635557489
1.956,0.011502774735622574
1.96,0.011495298126772815
1.964,0.011484624125713999
1.968,0.011482196030878548
1.972,0.011483470179653586
1.976,0.011489047585612248
1.98,0.01152217545376326
1.984,0.011489215869412725
1.988,0.011439283661756951
1.992,0.011473565475968379
1.996,0.011467747664580462
2.0,0.011470079597244213
2.004,0.01148111420644691
2.008,0.011447577649066166
2.012,0.011474430935513688
2.016,0.011473974165198108
2.02,0.011467002407749779
2.024,0.01145695346080702
2.028,0.011478541868353908
2.032,0.011473613557054228
2.036,0.011481619057848341
2.04,0.011480777638845958
2.044,0.011457217906779197
2.048,0.011463805015540719
2.052,0.01149294215356614
2.056,0.011447241081465213
2.06,0.01145644860940559
2.064,0.011476402260033559
2.068,0.01144426005414248
2.072,0.0114323840259374
2.076,0.011452337676565368
2.08,0.011465776340060591
2.084,0.011453179095567752
2.088,0.011439788513158381
2.092,0.011459597920528797
2.096,0.011456256285062187
2.1,0.0114369517290932
2.104,0.011425051660345195
2.108,0.01146608886711862
2.112,0.011440028918587634
2.116,0.011454621528143269
2.12,0.011458035285238656
2.124,0.01143243210702325
2.128,0.011447265122008138
2.132,0.011442288729622609
2.136,0.01144918836544216
2.14,0.011465511894088412
2.144,0.011436350715520068
2.148,0.011432864836795906
2.152,0.011437552742666331
2.156,0.011436062229004965
2.16,0.011422022551936611
2.164,0.01144055781053199
2.168,0.011471906678506534
2.172,0.011429595322958069
2.176,0.01141959445710116
2.18,0.011406684685550294
2.184,0.01143101371499066
2.188,0.011441086702476346
2.192,0.011439331742842802
2.196,0.011416373024349174
2.2,0.011451784744078087
2.204,0.01144887583838413
2.208,0.011402982441939803
2.212,0.01142055607881817
2.216,0.011436518999320546
2.22,0.011434427472086048
2.224,0.01144055781053199
2.228,0.011433225444939785
2.232,0.011408680050613091
2.236,0.011393486427484324
2.24,0.011451376054848358
2.244,0.011425724795547102
2.248,0.011410987942733916
2.2520000000000002,0.011424883376544718
2.2560000000000002,0.011441591553877776
2.2600000000000002,0.011383870210314218
2.2640000000000002,0.011377619669153651
2.2680000000000002,0.011429619363500995
2.2720000000000002,0.011427984606582077
2.2760000000000002,0.011426421971291935
2.2800000000000002,0.011438153756239463
2.2840000000000003,0.01144019720238811
2.2880000000000003,0.011412093807708478
2.2920000000000003,0.01137305196599785
2.2960000000000003,0.011426662376721188
2.3000000000000003,0.01144548612183167
2.3040000000000003,0.011428826025584461
2.308,0.011410362888617858
2.312,0.011407093374780023
2.316,0.011436663242578096
2.32,0.011437168093979528
2.324,0.011409016618214043
2.328,0.011410819658933438
2.332,0.011406732766636144
2.336,0.011387500332295934
2.34,0.0113775715880678
2.344,0.011431566647477942
2.348,0.011431302201505763
2.352,0.011402549712167148
2.356,0.01141319967268304
2.36,0.011428032687667927
2.364,0.011420075267959665
2.368,0.01141274290236746
2.372,0.011429162593185415
2.376,0.011396082806120252
2.38,0.011375407939204525
2.384,0.011438754769812595
2.388,0.01139935231995809
2.392,0.01136583980312027
2.396,0.011394688454630587
2.4,0.011368315979041574
2.404,0.011370551749533622
2.408,0.011412021686079701
2.412,0.01140995419938813
2.416,0.011421902349221986
2.42,0.011425772876632953
2.424,0.011392164197623435
2.428,0.011395289468203718
2.432,0.011406179834148863
2.436,0.011408415604640912
2.44,0.01139711654946604
2.444,0.011372042263194989
2.448,0.011367666884382592
2.452,0.01139351046802725
2.456,0.01141726252443741
2.46,0.011383485561627415
2.464,0.011340789557392147
2.468,0.011387836899896888
2.472,0.011416276862177473
2.476,0.011375071371603573
2.48,0.011366032127463673
2.484,0.01141685383520768
2.488,0.0113913708597069
2.492,0.011381442115478767
2.496,0.011384615467144902
2.5,0.011394808657345214
2.504,0.01141584413240482
2.508,0.011377547547524874
2.512,0.011349227787958915
2.516,0.011370599830619473
2.52,0.011379566953130596
2.524,0.011398607063127406
2.528,0.0113433138143993
2.532,0.011344251395573384
2.536,0.011374975209431872
2.54,0.011326076745121885
2.544,0.011359372897073375
2.548,0.01141690191629353
2.552,0.011396731900779234
2.556,0.011370960438763353
2.56,0.011380648777562234
2.564,0.011372162465909616
2.568,0.01135925269435875
2.572,0.01135802662666956
2.576,0.011376105114949358
2.58,0.0113752877364899
2.584,0.011387067602523279
2.588,0.011319393474188663
2.592,0.011365863843663197
2.596,0.011357449653639355
2.6,0.011356367829207717
2.604,0.011386875278179876
2.608,0.01137990352073155
2.612,0.011348242125698979
2.616,0.011342592598111541
2.62,0.011365671519319795
2.624,0.011356488031922345
2.628,0.011369590127816612
2.632,0.01137259519568227
2.636,0.011394231684315007
2.64,0.011367907289811845
2.644,0.011315378703520144
2.648,0.011335909327178319
2.652,0.011346126557921556
2.656,0.011374638641830918
2.66,0.0113684361817562
2.664,0.01137076811441995
2.668,0.01138762053501056
2.672,0.01137579258789133
2.676,0.011315426784605995
2.68,0.011281962348854029
2.684,0.01135148759899389
2.688,0.011378773615214064
2.692,0.011371922060480363
2.696,0.011325355528834128
2.7,0.011328144231813459
2.704,0.011354901356089277
2.708,0.011360070072818208
2.712,0.011353795491114715
2.716,0.011356007221063839
2.72,0.011356463991379418
2.724,0.011343073408970047
2.728,0.011348001720269726
2.732,0.011348314247327754
2.736,0.011333385070171165
2.74,0.011336726705637777
2.744,0.011367835168183068
2.748,0.011319008825501858
2.7520000000000002,0.01130093033722206
2.7560000000000002,0.011320403176991524
2.7600000000000002,0.01132143692033731
2.7640000000000002,0.01134934799067354
2.7680000000000002,0.011359901789017732
2.7720000000000002,0.011357233288753028
2.7760000000000002,0.011345405341633797
2.7800000000000002,0.011321629244680713
2.7840000000000003,0.011339731773503435
2.7880000000000003,0.011348602733842857
2.7920000000000003,0.01136569555986272
2.7960000000000003,0.011343554219828552
2.8000000000000003,0.011307757851412836
2.8040000000000003,0.011299199418131442
2.8080000000000003,0.011334322651345251
2.8120000000000003,0.011368965073700556
2.816,0.011354300342516145
2.82,0.011283573065230021
2.824,0.011333793759400896
2.828,0.011352377099082125
2.832,0.011316172041436678
2.836,0.011312878487055917
2.84,0.011345309179462096
2.844,0.011331750313252249
2.848,0.011332735975512183
2.852,0.011333913962115522
2.856,0.011356704396808671
2.86,0.011289679363133038
2.864,0.011296699201667215
2.868,0.011344155233401683
2.872,0.011337255597582134
2.876,0.011328264434528085
2.88,0.011304608540289626
2.884,0.011294824039319043
2.888,0.01129540101234925
2.892,0.011335091948718859
2.896,0.011335981448807094
2.9,0.011315354662977218
2.904,0.011346511206608359
2.908,0.011328312515613935
2.912,0.011320643582420777
2.916,0.011317999122698997
2.92,0.011333433151257016
2.924,0.011342544517025691
2.928,0.011336630543466076
2.932,0.011313840108772927
2.936,0.011303069945542409
2.94,0.011299800431704574
2.944,0.01131910498767356
2.948,0.011296675161124288
2.952,0.011270543090964525
2.956,0.011318552055186278
2.96,0.01136345978937067
2.964,0.011334058205373074
2.968,0.011309584932675155
2.972,0.01131458536560361
2.976,0.01131463344668946
2.98,0.01130590672960759
2.984,0.011307445324354806
2.988,0.011312085149139383
2.992,0.011291410282223656
2.996,0.011295088485291222
3.0,0.011330500205020135
3.004,0.011328889488644142
3.008,0.011269341063818262
3.012,0.01127184128028249
3.016,0.011280880524422391
3.02,0.011319826203961318
3.024,0.011325836339692634
3.028,0.01131285444651299
3.032,0.011325355528834128
3.036,0.011295641417778503
3.04,0.011291458363309506
3.044,0.011308791594758621
3.048,0.011309825338104408
3.052,0.011307757851412836
3.056,0.011294583633889792
3.06,0.011295713539407278
3.064,0.011229890532877906
3.068,0.011240949182623527
3.072,0.011338553786900098
3.076,0.011301170742651313
3.08,0.011305161472776907
3.084,0.011270230563906497
3.088,0.01120520089529366
3.092,0.011215971058524178
3.096,0.011231116600567094
3.1,0.011274485740004269
3.104,0.011283885592288049
3.108,0.011276433023981217
3.112,0.011264677198490761
3.116,0.011283645186858796
3.12,0.011262008698226057
3.124,0.011253330062230038
3.128,0.011255806238151339
3.132,0.011258402616787268
3.136,0.011278933240445444
3.14,0.011233953384632275
3.144,0.011239747155477264
3.148,0.01125220015671255
3.152,0.011250204791649752
3.156,0.011243233034201426
3.16,0.011285784795179145
3.164,0.011272634618199023
3.168,0.011244627385691092
3.172,0.011267754387985196
3.176,0.011253426224401739
3.18,0.011236285317296025
3.184,0.011210898503966948
3.188,0.011232246506084582
3.192,0.011286385808752276
3.196,0.011262008698226057
3.2,0.01123991543927774
3.204,0.011210658098537695
3.208,0.011212437098714164
3.212,0.011295088485291222
3.216,0.011252368440513028
3.22,0.011273187550686304
3.224,0.011276793632125096
3.228,0.011265662860750697
3.232,0.011249892264591724
3.236,0.0112315974114256
3.24,0.011253594508202215
3.244,0.011249603778076621
3.248,0.011263787698402528
3.2520000000000002,0.011247560331927975
3.2560000000000002,0.011236020871323847
3.2600000000000002,0.011245084156006672
3.2640000000000002,0.011246358304781712
3.2680000000000002,0.011252272278341326
3.2720000000000002,0.01122840001921654
3.2760000000000002,0.011264773360662462
3.2800000000000002,0.011258570900587744
3.2840000000000003,0.011228231735416063
3.2880000000000003,0.011209864760621161
3.2920000000000003,0.011222029275341345
3.2960000000000003,0.011276961915925574
3.3000000000000003,0.011251719345854045
3.3040000000000003,0.011217197126213366
3.3080000000000003,0.011241357871853257
3.3120000000000003,0.011229578005819878
3.3160000000000003,0.0111883003936172
3.3200000000000003,0.011237607547156915
3.3240000000000003,0.011238064317472495
3.3280000000000003,0.011265206090435118
3.332,0.01129311716077135
3.336,0.011269341063818262
3.34,0.011255926440865966
3.344,0.011252488643227653
3.348,0.011190295758679997
3.352,0.011250397115993155
3.356,0.011241622317825434
3.36,0.011236429560553577
3.364,0.011262633752342115
3.368,0.011196450137668864
3.372,0.011174236676005918
3.376,0.011226548897411294
3.38,0.011256575535524949
3.384,0.0112202743157078
3.388,0.011189358177505913
3.392,0.011222365842942299
3.396,0.011278115861985986
3.4,0.01126042202239299
3.404,0.011248714277988387
3.408,0.011244699507319867
3.412,0.011205874030495567
3.416,0.011184453906749159
3.42,0.0112636674956879
3.424,0.011263090522657695
3.428,0.011238545128331001
3.432,0.01124950761590492
3.436,0.011097811790046506
3.44,0.011160437404366818
3.444,0.011312878487055917
3.448,0.011294751917690268
3.452,0.011248714277988387
3.456,0.011233664898117172
3.46,0.011203902705975696
3.464,0.011205705746695091
3.468,0.011235059249606837
3.472,0.01122337554574516
3.476,0.011148825822133916
3.48,0.011219865626478072
3.484,0.01130631541883732
3.488,0.011271624915396163
3.492,0.011138921118448707
3.496,0.011157528498672862
3.5,0.011300617810164032
3.504,0.011283116294914441
3.508,0.011278933240445444
3.512,0.01126535033369267
3.516,0.011219096329104462
3.52,0.011229578005819878
3.524,0.01121900016693276
3.528,0.011240564533936723
3.532,0.011228351938130689
3.536,0.011226092127095714
3.54,0.011217701977614796
3.544,0.011156350512069523
3.548,0.011118943427277813
3.552,0.011203950787061547
3.556,0.011235564101008268
3.56,0.011271240266709358
3.564,0.011202147746342152
3.568,0.011129040455306424
3.572,0.011103341114919318
3.576,0.01126773034744227
3.58,0.011263018401028918
3.584,0.01121149951754008
3.588,0.011229145276047223
3.592,0.01124205504759809
3.596,0.011176760933013074
3.6,0.011152431903572705
3.604,0.011226332532524967
3.608,0.011200705313766636
3.612,0.011201763097655347
3.616,0.011114015115978135
3.62,0.01111901554890659
3.624,0.011194286488805591
3.628,0.011179285190020226
3.632,0.011140964564597355
3.636,0.01104191752774527
3.64,0.011090046694681647
3.644,0.011119183832707066
3.648,0.011169428567420866
3.652,0.011170606554024205
3.656,0.011140219307766671
3.66,0.011102499695916934
3.664,0.01101943962011015
3.668,0.011047062203931276
3.672,0.01107754561236051
3.676,0.011076367625757172
3.68,0.011074107814722197
3.684,0.010937533490363775
3.688,0.01092883081382483
3.692,0.011153201200946313
3.696,0.011198205097302408
3.7,0.011135819888411348
3.704,0.011102187168858905
3.708,0.011014463227724619
3.712,0.011007779956791397
3.716,0.01109983119565223
3.72,0.011103172831118842
3.724,0.01099953405056803
3.728,0.01095541965430017
3.732,0.011025593999099017
3.736,0.011077112882587855
3.74,0.011098340681990863
3.744,0.010995495239356588
3.748,0.010969122763767571
3.7520000000000002,0.010999413847853405
3.7560000000000002,0.01097501269678426
3.7600000000000002,0.011005303780870094
3.7640000000000002,0.010964026168667415
3.7680000000000002,0.01094714970753388
3.7720000000000002,0.010940033706828002
3.7760000000000002,0.010999101320795377
3.7800000000000002,0.01097724846727631
3.7840000000000003,0.01097852261605135
3.7880000000000003,0.010949361437483004
3.7920000000000003,0.010923614016010047
3.7960000000000003,0.010965636885043407
3.8000000000000003,0.01094933739694008
3.8040000000000003,0.010846059224533147
3.8080000000000003,0.010865315699416282
3.8120000000000003,0.010968714074537842
3.8160000000000003,0.01105973157005289
3.8200000000000003,0.010973281777693642
3.8240000000000003,0.010889284120712772
3.8280000000000003,0.01090654523053311
3.8320000000000003,0.010979099589081555
3.8360000000000003,0.011053577191064022
3.84,0.010995399077184886
3.844,0.01096075665482958
3.848,0.010959626749312092
3.852,0.010927580705592715
3.856,0.01083502461533045
3.86,0.010838486453511688
3.864,0.010929624151741363
3.868,0.011028863512936853
3.872,0.010969843980055329
3.876,0.010909382014598292
3.88,0.010945106261385232
3.884,0.010890173620801007
3.888,0.010800646638947324
3.892,0.010976695534789029
3.896,0.011054033961379602
3.9,0.011048624839221418
3.904,0.010996865550303327
3.908,0.010908853122653935
3.912,0.01095486672181289
3.916,0.010947342031877283
3.92,0.011065308976011552
3.924,0.011042662784575953
3.928,0.010947173748076806
3.932,0.01080716162608007
3.936,0.010846467913762876
3.94,0.0110082607676499
3.944,0.011116611494614063
3.948,0.01128946299824671
3.952,0.011275832010408085
3.956,0.01118185752811323
3.96,0.01104588421732794
3.964,0.011009919565111746
3.968,0.01133285617822681
3.972,0.011552586740563718
3.976,0.011557466970777548
3.98,0.011529315495012064
3.984,0.011488013842266461
3.988,0.011322182177167994
3.992,0.011294703836604417
3.996,0.01156597732297309
4.0,0.01167531371219719
4.0040000000000004,0.011583935608538263
4.008,0.011593527785165444
4.0120000000000005,0.011558789200638436
4.016,0.011600715907500097
4.0200000000000005,0.011686877213344242
4.024,0.011769504559378374
4.0280000000000005,0.011844775499277373
4.032,0.01179159781832669
4.0360000000000005,0.011692334416588276
4.04,0.011767893843002381
4.0440000000000005,0.011957717969940261
4.048,0.011881990259725682
4.0520000000000005,0.01170058032281164
4.056,0.011929734777975255
4.0600000000000005,0.011992937365325772
4.064,0.01191418054670261
4.0680000000000005,0.011912786195212945
4.072,0.012112130377149229
4.0760000000000005,0.012097633929765296
4.08,0.011939375035688286
4.0840000000000005,0.01198086901277729
4.088,0.011986085810592071
4.0920000000000005,0.011935095819047588
4.096,0.012001087109377436
4.1,0.012402059324827908
4.104,0.012371455713684048
4.108,0.0122234380908932
4.112,0.01214237338014921
4.116,0.012116361512704076
4.12,0.01214602754267385
4.124,0.012173073153464773
4.128,0.012465526358150606
4.132,0.012421556205140297
4.136,0.01238676953952744
4.14,0.012254859080496519
4.144,0.012240939606142792
4.148,0.012429417462676859
4.152,0.012452977194743616
4.156,0.012359291198963864
4.16,0.012388933188390714
4.164,0.012580680558762616
4.168,0.012615395102746696
4.172,0.012360469185567203
4.176,0.012124775702727918
4.18,0.012408814717389907
4.184,0.012674943527572573
4.188,0.012826975921031943
4.192,0.012906189509970687
4.196,0.0127408146151878
4.2,0.012686771474691803
4.204,0.012648547011440634
4.208,0.012649797119672748
4.212,0.01273127051964647
4.216,0.012733770736110697
4.22,0.012680809420046337
4.224,0.012635853604776096
4.228,0.012440235706993227
4.232,0.01249564915843596
4.236,0.01286368583007882
4.24,0.012807455000176628
4.244,0.012763869495853127
4.248,0.01255406767774435
4.252,0.0127410069395312
4.256,0.013030911846666953
4.26,0.012994778910650283
4.264,0.012951457852298958
4.268,0.012997639735258389
4.272,0.013001293897783029
4.276,0.012951986744243313
4.28,0.013010285060837077
4.284,0.013008121411973803
4.288,0.01294794793303187
4.292,0.012989802518264752
4.296,0.012924051633364157
4.3,0.012702469949222
4.304,0.012700594786873829
4.308,0.01314041651969153
4.312,0.01313649791119471
4.316,0.013077863026999991
4.32,0.012914747943252081
4.324,0.012897823401032692
4.328,0.012963237718332337
4.332,0.013140777127835408
4.336,0.013294780845814648
4.34,0.01344597182027163
4.344,0.013387865828021268
4.348,0.01330497403601496
4.352,0.0132793227767137
4.356,0.013273216478810683
4.36,0.01326932191085679
4.364,0.013267134221450592
4.368,0.013236025758905302
4.372,0.013176236928650172
4.376,0.013307017482163607
4.38,0.013308964766140553
4.384,0.013218404040941083
4.388,0.013243117719068253
4.392,0.013049687510691584
4.396,0.013383394287037168
4.4,0.013597186835271537
4.404,0.013661543368682466
4.408,0.013628968433018735
4.412,0.013503548920577637
4.416,0.013403756626894867
4.42,0.013522300544059342
4.424,0.013615361485723036
4.428,0.013624328608234159
4.432,0.013580238252509227
4.436,0.013516386570499727
4.44,0.013287063831535635
4.444,0.013423590074808209
4.448,0.013609495593249272
4.452,0.013818143465297634
4.456,0.013541629140571254
4.46,0.013294684683642947
4.464,0.013586200307154692
4.468,0.014020757161071757
4.472,0.014010059119470014
4.476,0.013862185739936715
4.48,0.013584445347521148
4.484,0.013498428284934555
4.488,0.013804151869315131
4.492,0.014043138906535177
4.496,0.013994192361139341
4.5,0.013946423802346843
4.5040000000000004,0.013888438012811108
4.508,0.013715298022663358
4.5120000000000005,0.01358874860470477
4.516,0.013943298531766558
4.5200000000000005,0.014212841099044611
4.524,0.01399775036149228
4.5280000000000005,0.013862017456136239
4.532,0.013983301995194196
4.5360000000000005,0.014083310653763293
4.54,0.014166635175542256
4.5440000000000005,0.014265754334023117
4.548,0.014164904256451637
4.5520000000000005,0.01402611820214409
4.556,0.014023545864051088
4.5600000000000005,0.014295684809965072
4.564,0.014407377172395845
4.5680000000000005,0.014262556941814056
4.572,0.013941134882903284
4.5760000000000005,0.014101004493356287
4.58,0.014442500405609654
4.5840000000000005,0.014442909094839383
4.588,0.014223803586618532
4.5920000000000005,0.013814994154174424
4.596,0.013977484183806283
4.6000000000000005,0.01473103500179867
4.604,0.014771447154456037
4.6080000000000005,0.014632733221777267
4.612,0.01453866257731071
4.616,0.014501351654690702
4.62,0.014480220017459397
4.624,0.014520175399801183
4.628,0.01454597090235999
4.632,0.01449197584294985
4.636,0.014462309812980072
4.64,0.01438876979217169
4.644,0.014277269754084318
4.648,0.014685983024356726
4.652,0.01491578657417932
4.656,0.014831764876655523
4.66,0.01476082123448307
4.664,0.01466001923799744
4.668,0.014623333369493488
4.672,0.01490162669439634
4.676,0.014791208480740604
4.68,0.014682545226718413
4.684,0.01485294459497268
4.688,0.0149802873508478
4.692,0.015013343097370038
4.696,0.01497201740408151
4.7,0.014948914442330333
4.704,0.014860373122736586
4.708,0.014513780615383064
4.712,0.01483513055266506
4.716,0.015170472085929563
4.72,0.015054452425772238
4.724,0.01525067133712824
4.728,0.015170832694073441
4.732,0.015121188972932773
4.736,0.014954684172632396
4.74,0.01503084461261963
4.744,0.015380370066210038
4.748,0.015359022064092405
4.752,0.015021396679250001
4.756,0.015109336985270618
4.76,0.015302719112561439
4.764,0.015391332553783959
4.768,0.015457636371171835
4.772,0.015455520803394412
4.776,0.015338611643148856
4.78,0.015172154923934332
4.784,0.015284015570165583
4.788,0.015611519886436448
4.792,0.015557140178339502
4.796,0.015536104703279896
4.8,0.015682102920465023
4.804,0.015644359268072356
4.808,0.01563094464512006
4.812,0.015486028252366573
4.816,0.015518266620429351
4.82,0.015610750589062838
4.824,0.01577225495643476
4.828,0.015773817591724904
4.832,0.015782977038579428
4.836,0.01574958472445624
4.84,0.015884019440494314
4.844,0.01587940365625266
4.848,0.016074300337747774
4.852,0.015993139464832083
4.856,0.01587428302060958
4.86,0.01607583893249499
4.864,0.01603040230636624
4.868,0.016199599647474246
4.872,0.016228881028757216
4.876,0.016173034847541828
4.88,0.016100216043021205
4.884,0.0160721366888845
4.888,0.01648936031135245
4.892,0.016575401414481966
4.896,0.016517848354718888
4.9,0.01653768180263223
4.904,0.016533017937304727
4.908,0.016324874916657794
4.912,0.016354180338483692
4.916,0.01678587636779265
4.92,0.01691658479967731
4.924,0.016804892437246532
4.928,0.016780250880748138
4.932,0.016633916095962056
4.936,0.01644305822567839
4.94,0.016948895289368864
4.944,0.017150667566140598
4.948,0.017159490445394172
4.952,0.01706626121993
4.956,0.01699062967188712
4.96,0.016767725757884076
4.964,0.016849920374145552
4.968,0.017401410428851096
4.972,0.01749185095133594
4.976,0.01734820870735749
4.98,0.017236251898954537
4.984,0.01708595042458579
4.988,0.017345492126006935
4.992,0.017366864168667492
4.996,0.01731810994761506
5.0,0.017499736249415428
5.0040000000000004,0.017376456345294673
5.008,0.017513799967026705
5.0120000000000005,0.017581666419704725
5.016,0.017481321193534675
5.0200000000000005,0.01760763020606401
5.024,0.017637753006349368
5.0280000000000005,0.017508583169211923
5.032,0.01781171037495657
5.0360000000000005,0.017725765433998755
5.04,0.01776562465416884
5.0440000000000005,0.017866306447939847
5.048,0.017900011289121064
5.0520000000000005,0.017851497473497884
5.056,0.017867027664227604
5.0600000000000005,0.018214293306783036
5.064,0.01820325869758034
5.0680000000000005,0.018201551819032647
5.072,0.018205879116759194
5.0760000000000005,0.018197080278048547
5.08,0.01816260613949372
5.0840000000000005,0.018181045235917397
5.088,0.018243021755578726
5.0920000000000005,0.018243742971866487
5.096,0.018288602624965025
5.1000000000000005,0.018155994990189273
5.104,0.018281919354031805
5.1080000000000005,0.018552543745741494
5.112,0.018621371820136526
5.1160000000000005,0.018673948487514077
5.12,0.018505231957264577
5.124,0.018416209826812326
5.128,0.018449530019306742
5.132,0.018726501114348704
5.136,0.018694671435515654
5.14,0.018633704618657185
5.144,0.018674982230859866
5.148,0.018676544866150006
5.152,0.018533984446603192
5.156,0.01833802998121937
5.16,0.01873854542635426
5.164,0.01900573202042564
5.168,0.01880035366221511
5.172,0.018815787690773134
5.176,0.018929355215552078
5.18,0.018660774269991035
5.184,0.018702412490337588
5.188,0.019119395707376287
5.192,0.019155648846107584
5.196,0.019105019462706978
5.2,0.019019050481206237
5.204,0.018859613600525887
5.208,0.01895060705549801
5.212,0.019179136456545565
5.216,0.019182958902870684
5.22,0.019153821764845265
5.224,0.019029027306520223
5.228,0.018623631631171502
5.232,0.018950727258212636
5.236,0.01946370436315191
5.24,0.019473104215435688
5.244,0.019343645891783143
5.248,0.019147018291197415
5.252,0.018767730645465528
5.256,0.019260345410547105
5.26,0.019715649253008675
5.264,0.019570420333197155
5.268,0.0194786335403085
5.272,0.01937040301605896
5.276,0.019432283373548593
5.28,0.019606649431385532
5.284,0.019549144452708295
5.288,0.01942545585935782
5.292,0.01947949899985381
5.296,0.019616073324212235
5.3,0.019507794718876845
5.304,0.01957765653661766
5.308,0.019856094104778062
5.312,0.01982104299319303
5.316,0.019770053001648545
5.32,0.019718678361417257
5.324,0.01959614371412719
5.328,0.019661582071969757
5.332,0.019652422625115233
5.336,0.019968387480781967
5.34,0.02011669359008792
5.344,0.01986977317370254
5.348,0.019769211582646162
5.352,0.020002525051735845
5.356,0.020020339094043466
5.36,0.020217880235260357
5.364,0.02016075990526993
5.368,0.020104601196996513
5.372,0.02009359062833674
5.376,0.020156047958856577
5.38,0.02018701217814432
5.384,0.020229419695864483
5.388,0.020082531978591122
5.392,0.019881144350506186
5.396,0.01992477793591554
5.4,0.02001295864736541
5.404,0.020092725168791434
5.408,0.020138233916548957
5.412,0.020023175878108646
5.416,0.02003452301436937
5.42,0.019961031074646838
5.424,0.019902708717510147
5.428,0.019828062831727205
5.432,0.01991905628669933
5.436,0.019901747095793138
5.44,0.01993446627471442
5.444,0.019841934224995084
5.448,0.019646556732641467
5.452,0.019526858869416578
5.456,0.01977570252923598
5.46,0.019788444016986373
5.464,0.01976428327134648
5.468,0.01967420335700552
5.472,0.019518252355049334
5.476,0.01923854063811389
5.48,0.019304868496044694
5.484,0.019590638429797302
5.488,0.01957659875272895
5.492,0.01951207393551754
5.496,0.019409781425370545
5.5,0.019278760466427857
5.5040000000000004,0.0193283801470256
5.508,0.01934797318950969
5.5120000000000005,0.019666173815668483
5.516,0.019578041185304464
5.5200000000000005,0.019460482930399925
5.524,0.01943259590060662
5.5280000000000005,0.019417258034220303
5.532,0.019362469636893625
5.5360000000000005,0.01934107355369014
5.54,0.01952426249078065
5.5440000000000005,0.019413315385180558
5.548,0.01934934350045643
5.5520000000000005,0.01946735852567655
5.556,0.019402064411091536
5.5600000000000005,0.01937761517893654
5.564,0.019422691196921412
5.5680000000000005,0.019351290784433376
5.572,0.019150432048292802
5.5760000000000005,0.019305301225817348
5.58,0.019361147407032733
5.5840000000000005,0.019469329850196424
5.588,0.01947858545922265
5.5920000000000005,0.019438557955252084
5.596,0.019334438363842767
5.6000000000000005,0.019191589457780853
5.604,0.019304027077042308
5.6080000000000005,0.019374441827270404
5.612,0.01933061591751765
5.6160000000000005,0.019270562641290342
5.62,0.01923168908338019
5.6240000000000006,0.01915435065678962
5.628,0.019047009632628318
5.632,0.01900359241210529
5.636,0.019226255920679083
5.64,0.01922637612339371
5.644,0.019057996160745164
5.648,0.01900974679109416
5.652,0.01898743716725951
5.656,0.019055568065909714
5.66,0.019137786722714115
5.664,0.019084536920134655
5.668,0.019055351701023387
5.672,0.019045975889282533
5.676,0.01900508292576666
5.68,0.019057010498485228
5.684,0.019076964149113196
5.688,0.019075401513823056
5.692,0.01900522716902421
5.696,0.018920796782270682
5.7,0.018784102255197634
5.704,0.01874183898073502
5.708,0.01885939723563956
5.712,0.018942000541130766
5.716,0.018845117153141955
5.72,0.018653562107113456
5.724,0.018556053665008582
5.728,0.018608365886413954
5.732,0.018753811171111804
5.736,0.018607211940353544
5.74,0.01859935068281698
5.744,0.018591681749623824
5.748,0.018580166329562622
5.752,0.018503933767946613
5.756,0.01845618924969704
5.76,0.01855667871912464
5.764,0.01858047885662065
5.768,0.01852456055377649
5.772,0.01850684267364057
5.776,0.018445972018953802
5.78,0.01836264749717484
5.784,0.01837171078185766
5.788,0.01846419475049115
5.792,0.018523214283372672
5.796,0.018489557523277304
5.8,0.01838563025621139
5.804,0.018383105999204237
5.808,0.018366277619156553
5.812,0.01845830481747446
5.816,0.018571583855738302
5.82,0.01861125075156499
5.824,0.018648345309298674
5.828,0.018640628295019664
5.832,0.01863957051113095
5.836,0.01862740599641077
5.84,0.0186805355962756
5.844,0.01870880727475571
5.848,0.018719216829842348
5.852,0.018725779898060946
5.856,0.018622381522939387
5.86,0.01854470652874786
5.864,0.018765230429001304
5.868,0.018822134394105402
5.872,0.018920916984985308
5.876,0.018831462124760404
5.88,0.018728592641583202
5.884,0.018805931068173774
5.888,0.01883910701741064
5.892,0.018978349842033764
5.896,0.018961809948501183
5.9,0.01891574826825638
5.904,0.018902021118246053
5.908,0.018897285131289774
5.912,0.01890036232078421
5.916,0.018913103808534597
5.92,0.018903583753536193
5.924,0.018870335682670554
5.928,0.01888310121096387
5.932,0.018832255462676938
5.936,0.018757657657979845
5.94,0.01891543574119835
5.944,0.018979143179950298
5.948,0.018952313934045704
5.952,0.01891447411948134
5.956,0.01890182879390265
5.96,0.01867551112280422
5.964,0.018721765127392428
5.968,0.018838049233521927
5.972,0.01879898335126837
5.976,0.01875621522540433
5.98,0.01873383347994091
5.984,0.01871546650514601
5.988,0.01869647447623505
5.992,0.01869931126030023
5.996,0.01870950445050054
6.0,0.018734410452971115
6.0040000000000004,0.01874383434579782
6.008,0.01867474182543061
6.0120000000000005,0.018599951696390112
6.016,0.01872347200594012
6.0200000000000005,0.01875224853582166
6.024,0.018833673854709528
6.0280000000000005,0.018891659644245263
6.032,0.018864181303681688
6.0360000000000005,0.01892375376905049
6.04,0.018937432837974964
6.0440000000000005,0.018898607361150666
6.048,0.018943563176420906
6.0520000000000005,0.01900044310098208
6.056,0.019009410223493207
6.0600000000000005,0.019008809209920076
6.064,0.01903359500967602
6.0680000000000005,0.019031912171671255
6.072,0.019021863224728493
6.0760000000000005,0.01898921616743598
6.08,0.019035085523337388
6.0840000000000005,0.01928421766967189
6.088,0.019265009275874607
6.0920000000000005,0.01913627216850982
6.096,0.019049197322034517
6.1000000000000005,0.01934797318950969
6.104,0.01939314536966626
6.1080000000000005,0.019380019233229066
6.112,0.019364801569557374
6.1160000000000005,0.01934431902698505
6.12,0.01932883691734118
6.1240000000000006,0.019306214766448507
6.128,0.019277101668966012
6.132000000000001,0.01923022261026175
6.136,0.019191325011808674
6.140000000000001,0.019157499967912828
6.144,0.019148124156171977
6.148,0.019060328093408914
6.152,0.01891608483585733
6.156,0.01894906846075079
6.16,0.01905436603876345
6.164,0.019043066983588576
6.168,0.019046384578512262
6.172,0.01895293898816176
6.176,0.018980561571982888
6.18,0.018977388220316752
6.184,0.018973421530734086
6.188,0.019011862358871583
6.192,0.018967747962603723
6.196,0.01894512581171105
6.2,0.01890944964600996
6.204,0.018902982739963062
6.208,0.018894183901252415
6.212,0.018873076304564036
6.216,0.018860142492470245
6.22,0.01879869486475327
6.224,0.018687002502322497
6.228,0.018714456802343148
6.232,0.018773933105540246
6.236,0.018936663540601358
6.24,0.018860551181699974
6.244,0.018742055345621348
6.248,0.018727823344209592
6.252,0.018895770577085483
6.256,0.01883177465181843
6.26,0.018810811298387603
6.264,0.01880446459505533
6.268,0.0187697019699854
6.272,0.01874558930543136
6.276,0.01878823722858078
6.28,0.018762682131451224
6.284,0.018738569466897184
6.288,0.018715779032204036
6.292,0.01865190330965161
6.296,0.018639666673302652
6.3,0.018629016712786762
6.304,0.018782731944250893
6.308,0.018677001636465587
6.312,0.01858846031687184
6.316,0.018630459145362276
6.32,0.018670102000646036
6.324,0.018706523423177808
6.328,0.01873255933116587
6.332,0.018731381344562533
6.336,0.018711283450677012
6.34,0.018671015541277196
6.344,0.018660173256417903
6.348,0.018654427566658763
6.352,0.0186508455257629
6.356,0.018649643498616638
6.36,0.018636709686522843
6.364,0.01857819500504275
6.368,0.018526435716124657
6.372,0.01862596356383525
6.376,0.018617982103584067
6.38,0.018554755475690618
6.384,0.01852206033731226
6.388,0.01851994476953484
6.392,0.01867555920389007
6.396,0.018697604381752535
6.4,0.018621996874252585
6.404,0.01859355691197199
6.408,0.01859586480409282
6.412,0.018593508830886143
6.416,0.01856509290914848
6.42,0.018553745772887757
6.424,0.01851383847163182
6.428,0.01846705557509926
6.432,0.018463257169317068
6.436,0.01844741445152932
6.44,0.018413877894148573
6.444,0.01831990341185372
6.448,0.018256051729844222
6.452,0.01835817595619074
6.456,0.01841705124581471
6.46,0.018403107730918057
6.464,0.018390678770225696
6.468,0.018342044751887887
6.472,0.01830401261298012
6.476,0.018272519501748026
6.48,0.01826405723063833
6.484,0.018271966569260743
6.488,0.018183713736182102
6.492,0.01810916401257086
6.496,0.01806262152146755
6.5,0.017999442974659954
6.5040000000000004,0.017931744805782412
6.508,0.017878879651889758
6.5120000000000005,0.017848732811061477
6.516,0.017821038105611572
6.5200000000000005,0.01774925304443674
6.524,0.017680040321354906
6.5280000000000005,0.017766490113714152
6.532,0.01775141669330001
6.5360000000000005,0.017747546165889045
6.54,0.01770833604037794
6.5440000000000005,0.017775841884912078
6.548,0.017791949048672005
6.5520000000000005,0.017694031917337406
6.556,0.017586883217519507
6.5600000000000005,0.01768838238974997
6.564,0.01776903841126423
6.5680000000000005,0.017733121840133887
6.572,0.017710932419013867
6.5760000000000005,0.017674318672138693
6.58,0.01765371592685174
6.5840000000000005,0.017648715493923287
6.588,0.017611765179447153
6.5920000000000005,0.017596932164462266
6.596,0.017683093470306412
6.6000000000000005,0.017657201805575905
6.604,0.017571569391676114
6.6080000000000005,0.017606380097831897
6.612,0.01766335618456477
6.6160000000000005,0.017598518840295334
6.62,0.01761960239644079
6.6240000000000006,0.017699152552980487
6.628,0.01774136774635725
6.632000000000001,0.017674198469424064
6.636,0.01762005916675637
6.640000000000001,0.017652273494276224
6.644,0.017630805289443965
6.648000000000001,0.017652946629478132
6.652,0.017671794415131538
6.656000000000001,0.01767133764481596
6.66,0.01766838065803615
6.664,0.017648859737180837
6.668,0.017603278867794538
6.672,0.017549379970556098
6.676,0.017527911765723835
6.68,0.017483749288370126
6.684,0.017543129429395527
6.688,0.01748146543679223
6.692,0.017410954524392428
6.696,0.017410257348647595
6.7,0.017372633898969557
6.704,0.017273033929630192
6.708,0.017235170074522903
6.712,0.017256974846956114
6.716,0.01723293430403085
6.72,0.017228558925218452
6.724,0.01720475878772244
6.728,0.01715254272848877
6.732,0.017098884236679584
6.736,0.017060563611256713
6.74,0.01699651960490381
6.744,0.016924734543728972
6.748,0.01696478608824246
6.752,0.016941995653549313
6.756,0.01694387081589748
6.76,0.016878600741855394
6.764,0.016917161772707516
6.768,0.01686826330839753
6.772,0.016894876189415795
6.776,0.01691261811009464
6.78,0.01683984738665987
6.784,0.01679063639529185
6.788,0.016798473612285487
6.792,0.016801118072007265
6.796,0.016763061892556573
6.8,0.016713610495759305
6.804,0.016683992546875383
6.808,0.01666411101787619
6.812,0.016619780256722002
6.816,0.01658157983401376
6.82,0.016595499308367487
6.824,0.01654938954703683
6.828,0.016434139184253117
6.832,0.01646635351177297
6.836,0.016611534350498638
6.84,0.016630814865924697
6.844,0.016533835315764186
6.848,0.016485393621769782
6.852,0.016535013302367525
6.856,0.016489744960039254
6.86,0.0164688537282372
6.864,0.01646935857963863
6.868,0.016445438239427995
6.872,0.01642310457505042
6.876,0.01640464143808382
6.88,0.016381875043933593
6.884,0.016355478527801656
6.888,0.016329202214384345
6.892,0.016300618008846204
6.896,0.016189142011301755
6.9,0.016293814535198355
6.904,0.01634302552656637
6.908,0.016311484334248425
6.912,0.016273067546653853
6.916,0.016296507076005984
6.92,0.016194334768573612
6.924,0.01622707798803782
6.928,0.016330356160444755
6.932,0.01630369519834064
6.936,0.01624871447667056
6.94,0.01618368480805772
6.944,0.016207100296866925
6.948,0.016183444402628467
6.952,0.016167745928098273
6.956,0.016159307697531503
6.96,0.01613791161432802
6.964,0.016106298300381298
6.968,0.016026075008639694
6.972,0.01598559073435355
6.976,0.016083676149488624
6.98,0.0160290319954195
6.984,0.016013381601975154
6.988,0.01600513569575179
6.992,0.015923710376863923
6.996,0.016015064439979923
7.0,0.0159583287586763
7.0040000000000004,0.015871878966317053
7.008,0.015959747150708893
7.0120000000000005,0.015988908329277237
7.016,0.01596366575920571
7.0200000000000005,0.01591260364603245
7.024,0.015871927047402905
7.0280000000000005,0.015842261017433128
7.032,0.01581586450130119
7.0360000000000005,0.01579124698534572
7.04,0.015766100577445895
7.0440000000000005,0.015749392400112836
7.048,0.01564789322788237
7.0520000000000005,0.01559490787127509
7.056,0.01568962761040063
7.0600000000000005,0.015680540285174883
7.064,0.015718283937567544
7.0680000000000005,0.015678593001197935
7.072,0.015640921470434044
7.0760000000000005,0.015653254268954704
7.08,0.015601543061122462
7.0840000000000005,0.015616087589592247
7.088,0.015590075722147111
7.0920000000000005,0.01559728788502469
7.096,0.015622169846952338
7.1000000000000005,0.015595436763219447
7.104,0.015570819247263976
7.1080000000000005,0.01554968761003267
7.112,0.015530887905465115
7.1160000000000005,0.015467348750513643
7.12,0.015424676786821299
7.1240000000000006,0.015438716463889652
7.128,0.015444702559078044
7.132000000000001,0.015474320507961969
7.136,0.01540609344714007
7.140000000000001,0.015386380201941354
7.144,0.015516319336452405
7.148000000000001,0.015450231883950854
7.152,0.015398496635575687
7.156000000000001,0.015345463197882556
7.16,0.015346280576342016
7.164000000000001,0.015395155000109075
7.168,0.015424917192250552
7.172,0.015404530811849929
7.176,0.01536032025341037
7.18,0.015332769791218018
7.184,0.015322023668530424
7.188,0.015308993694264932
7.192,0.015281202826643327
7.196,0.015259422094753037
7.2,0.015214153752424766
7.204,0.015115683688602888
7.208,0.015125275865230069
7.212,0.015191002709587738
7.216,0.015217375185176752
7.22,0.015206869467918412
7.224,0.015177660208264217
7.228,0.015137272096149774
7.232,0.015065991886376369
7.236,0.015140541609987611
7.24,0.015152177232763438
7.244,0.015144796786085381
7.248,0.015109625471785721
7.252,0.015081425914934388
7.256,0.015065991886376369
7.26,0.015056303547577483
7.264,0.015043802465256348
7.268,0.015030459963932825
7.272,0.014997885028269094
7.276,0.014961896335509975
7.28,0.014963867660029847
7.284,0.014957160348553699
7.288,0.01489386159903148
7.292,0.014967521822554487
7.296,0.014966752525180878
7.3,0.014968964255130002
7.304,0.014949659699161016
7.308,0.014946991198896312
7.312,0.014918334871729397
7.316,0.014884894476520357
7.32,0.014924080561488536
7.324,0.014910185127677734
7.328,0.014827846268158706
7.332,0.01479991115727955
7.336,0.01484969912167777
7.34,0.014844073634633258
7.344,0.014818446415874927
7.348,0.014805392401066509
7.352,0.01478904483187733
7.356,0.014758681626162723
7.36,0.014724544055208849
7.364,0.014688098592134149
7.368,0.014650042412683455
7.372,0.0146767274153305
7.376,0.014707499310274838
7.38,0.014777914060502934
7.384,0.014709542756423484
7.388,0.01458049312200067
7.392,0.014511112115118359
7.396,0.014577560175763787
7.4,0.014629175221424328
7.404,0.014567992039679532
7.408,0.014504452884728061
7.412,0.014457958474710599
7.416,0.014426825971622382
7.42,0.014395813671248793
7.424,0.014349607747746436
7.428,0.014345352571648665
7.432,0.014308209932829134
7.436,0.01433893374668762
7.44,0.01432253809641259
7.444,0.01426842283428782
7.448,0.014285924349537415
7.452,0.014254455278848242
7.456,0.014274360848390361
7.46,0.014196926259628088
7.464,0.014267533334199585
7.468,0.014337154746511151
7.472,0.014266403428682099
7.476,0.014178967974062916
7.48,0.014169832567751317
7.484,0.014173102081589152
7.488,0.014170361459695672
7.492,0.014226063397653506
7.496,0.014192118151043036
7.5,0.014173222284303778
7.5040000000000004,0.014109130196865027
7.508,0.01412312179284753
7.5120000000000005,0.01413321882087614
7.516,0.014127256766230676
7.5200000000000005,0.014162596364330812
7.524,0.014119419549237039
7.5280000000000005,0.014107495439946108
7.532,0.014093047073648026
7.5360000000000005,0.014073910801479513
7.54,0.014005034645998634
7.5440000000000005,0.014016453903888134
7.548,0.01412535756333958
7.5520000000000005,0.014047922974577303
7.556,0.013970560507443807
7.5600000000000005,0.013961352979503431
7.564,0.014027921242863485
7.5680000000000005,0.014040614649528023
7.572,0.014006212632601973
7.5760000000000005,0.013974431034854774
7.58,0.01395801134403682
7.5840000000000005,0.013906372257833354
7.588,0.013781914367109262
7.5920000000000005,0.013864060902284887
7.596,0.013985297360256993
7.6000000000000005,0.013938730828610758
7.604,0.013848602833183942
7.6080000000000005,0.01379552131440496
7.612,0.013757296851153792
7.6160000000000005,0.013841390670306363
7.62,0.013821364898049618
7.6240000000000006,0.013815258600146601
7.628,0.013852809928195863
7.632000000000001,0.013826581695864402
7.636,0.013784222259230088
7.640000000000001,0.013778596772185575
7.644,0.01378395781325791
7.648000000000001,0.013755758256406575
7.652,0.013723039077485292
7.656000000000001,0.013683179857315203
7.66,0.013595431875637993
7.664000000000001,0.01353448909932245
7.668,0.01369092091213714
7.672000000000001,0.01371558650917846
7.676,0.013608606093161037
