time,channel
0.004,1.0133155078513216e-07
0.008,2.524824694486311e-07
0.012,4.022642026670916e-07
0.016,5.504257698897744e-07
0.02,6.967208856409822e-07
0.024,8.409088622196755e-07
0.027999999999999997,9.827554820792628e-07
0.032,1.122033834709676e-06
0.036000000000000004,1.258525113533178e-06
0.04,1.3920193689556187e-06
0.044000000000000004,1.522316214197411e-06
0.048,1.6492254808739518e-06
0.052000000000000005,1.7725678216082273e-06
0.055999999999999994,1.8921752573193268e-06
0.06,2.0078916672496056e-06
0.064,2.119573220233456e-06
0.068,2.22708874612525e-06
0.07200000000000001,2.330320046691989e-06
0.076,2.429162145690153e-06
0.08,2.523523478300986e-06
0.084,2.6133260205092857e-06
0.08800000000000001,2.6985053592889176e-06
0.092,2.779010704651334e-06
0.096,2.8548048449111054e-06
0.1,2.925864047105373e-06
0.104,2.9921779053336663e-06
0.10800000000000001,3.0537491405560585e-06
0.11199999999999999,3.1105933557919394e-06
0.11599999999999999,3.1627387506725225e-06
0.12,3.210225799122673e-06
0.124,3.253106893749709e-06
0.128,3.291445960293147e-06
0.132,3.3253180451516205e-06
0.136,3.354808878531854e-06
0.14,3.380014415240446e-06
0.14400000000000002,3.401040354644809e-06
0.14800000000000002,3.418001640876525e-06
0.152,3.4310219439424655e-06
0.156,3.4402331221423085e-06
0.16,3.445774666205463e-06
0.16399999999999998,3.4477931258772206e-06
0.168,3.4464415201740005e-06
0.172,3.441878733041013e-06
0.17600000000000002,3.4342688965786625e-06
0.18,3.423780764273582e-06
0.184,3.410587076737954e-06
0.188,3.3948639223676924e-06
0.192,3.376790095183383e-06
0.196,3.3565464520593418e-06
0.2,3.334315271657312e-06
0.204,3.3102796175881614e-06
0.208,3.2846227084779147e-06
0.212,3.2575272976469743e-06
0.21600000000000003,3.2291750650441126e-06
0.22,3.1997460239204934e-06
0.22399999999999998,3.1694179444858263e-06
0.228,3.1383657965249964e-06
0.23199999999999998,3.1067612127648317e-06
0.236,3.0747719746720456e-06
0.24,3.0425615222393815e-06
0.244,3.010288489094165e-06
0.248,2.9781062639483193e-06
0.252,2.9461625790812162e-06
0.256,2.9145991263065912e-06
0.26,2.8835512008103304e-06
0.264,2.8531473734017795e-06
0.268,2.823509192030008e-06
0.272,2.7947509136972716e-06
0.276,2.7669792680101683e-06
0.28,2.7402932535714315e-06
0.28400000000000003,2.7147839683769094e-06
0.28800000000000003,2.690534475432189e-06
0.292,2.6676197048697364e-06
0.29600000000000004,2.6461063937753606e-06
0.3,2.626053064646568e-06
0.304,2.6075100429606593e-06
0.308,2.590519513841047e-06
0.312,2.5751156173631204e-06
0.316,2.5613245816575467e-06
0.32,2.549164892627297e-06
0.324,2.5386474987850893e-06
0.32799999999999996,2.5297760494588413e-06
0.332,2.522547164405365e-06
0.336,2.5169507326682355e-06
0.34,2.512970238264456e-06
0.34400000000000003,2.51058311000158e-06
0.34800000000000003,2.5097610924703184e-06
0.35200000000000004,2.510470635058798e-06
0.35600000000000004,2.5126732956951353e-06
0.36,2.516326155944065e-06
0.364,2.521382244053422e-06
0.368,2.5277909625746447e-06
0.37200000000000005,2.5354985173244434e-06
0.376,2.544448344760762e-06
0.38,2.554581535253371e-06
0.384,2.565837250075525e-06
0.38799999999999996,2.578153130099066e-06
0.392,2.5914656941444623e-06
0.396,2.605710724801145e-06
0.4,2.6208236393584667e-06
0.40399999999999997,2.636739843350073e-06
0.408,2.6533950642495407e-06
0.412,2.670725663159762e-06
0.416,2.6886689228401837e-06
0.42,2.707163310925594e-06
0.424,2.7261487175720357e-06
0.428,2.7455666669904373e-06
0.43200000000000005,2.7653605024088004e-06
0.436,2.7854755439827676e-06
0.44,2.8058592191736423e-06
0.444,2.8264611652747326e-06
0.44799999999999995,2.8472333041200395e-06
0.452,2.8681298894668155e-06
0.456,2.8891075280137713e-06
0.46,2.910125175427053e-06
0.46399999999999997,2.9311441090260357e-06
0.46799999999999997,2.952127878939674e-06
0.472,2.9730422396856386e-06
0.476,2.9938550643069185e-06
0.48,3.014536243385942e-06
0.484,3.035057571423085e-06
0.488,3.0553926232302477e-06
0.49200000000000005,3.0755166230951157e-06
0.496,3.0954063094101054e-06
0.5,3.115039797227627e-06
0.504,3.1343964409176702e-06
0.508,3.1534566988578125e-06
0.512,3.1722020018727915e-06
0.516,3.190614626922997e-06
0.52,3.208677577324281e-06
0.524,3.2263744706070284e-06
0.528,3.243689435010624e-06
0.532,3.2606070155301515e-06
0.536,3.2771120903445632e-06
0.54,3.2931897983565036e-06
0.544,3.3088254784880874e-06
0.5479999999999999,3.3240046213172867e-06
0.552,3.3387128335922554e-06
0.556,3.3529358160906952e-06
0.56,3.3666593551487393e-06
0.5640000000000001,3.3798693279267123e-06
0.5680000000000001,3.3925517211122044e-06
0.5720000000000001,3.4046926623549577e-06
0.5760000000000001,3.416278463385731e-06
0.58,3.427295673550788e-06
0.584,3.4377311423629877e-06
0.588,3.4475720895573897e-06
0.5920000000000001,3.456806181019719e-06
0.596,3.4654216088902197e-06
0.6,3.473407174229142e-06
0.604,3.4807523708671945e-06
0.608,3.4874474693227314e-06
0.612,3.4934835998717655e-06
0.616,3.498852834128216e-06
0.62,3.5035482649320032e-06
0.624,3.507564084814027e-06
0.628,3.510895663584416e-06
0.632,3.5135396256039154e-06
0.636,3.5154939271389635e-06
0.64,3.5167579339828565e-06
0.644,3.5173324993038473e-06
0.648,3.5172200414905504e-06
0.652,3.516424621658332e-06
0.6559999999999999,3.514952020458466e-06
0.66,3.5128098138055194e-06
0.664,3.5100074470216865e-06
0.6679999999999999,3.5065563066746847e-06
0.672,3.502469789095017e-06
0.6759999999999999,3.497763364284592e-06
0.68,3.4924546337842535e-06
0.684,3.48656338108513e-06
0.6880000000000001,3.480111613252874e-06
0.6920000000000001,3.4731235924803006e-06
0.6960000000000001,3.465625856295202e-06
0.7000000000000001,3.4576472252118284e-06
0.7040000000000001,3.4492187968096516e-06
0.708,3.4403739255573886e-06
0.7120000000000001,3.431148188052443e-06
0.716,3.4215793335304e-06
0.72,3.4117072194471863e-06
0.7240000000000001,3.401573731792212e-06
0.728,3.3912226897865818e-06
0.732,3.3806997348502984e-06
0.736,3.3700522040502926e-06
0.74,3.359328988448919e-06
0.7440000000000001,3.348580376787544e-06
0.748,3.337857884898297e-06
0.752,3.327214071327501e-06
0.7559999999999999,3.3167023399208058e-06
0.76,3.3063767304702688e-06
0.764,3.296291698896363e-06
0.768,3.286501888831418e-06
0.772,3.277061896813431e-06
0.7759999999999999,3.268026033435096e-06
0.78,3.259448082623927e-06
0.784,3.251381060797455e-06
0.7879999999999999,3.243876977086994e-06
0.792,3.2369865953522876e-06
0.7959999999999999,3.23075919851266e-06
0.8,3.2252423558555914e-06
0.804,3.220481694280948e-06
0.8079999999999999,3.2165206746394327e-06
0.812,3.213400374317756e-06
0.8160000000000001,3.211159277082119e-06
0.8200000000000001,3.209833071004205e-06
0.8240000000000001,3.2094544550943086e-06
0.8280000000000001,3.2100529551118428e-06
0.8320000000000001,3.2116547489966455e-06
0.836,3.214282502464892e-06
0.84,3.2179552154317545e-06
0.8440000000000001,3.2226880799428164e-06
0.848,3.2284923502004754e-06
0.852,3.2353752251509555e-06
0.856,3.243339744041148e-06
0.86,3.252384695337784e-06
0.8640000000000001,3.2625045393364743e-06
0.868,3.2736893446660305e-06
0.872,3.2859247387985305e-06
0.8759999999999999,3.299191872670372e-06
0.88,3.313467399612721e-06
0.884,3.3287234690150953e-06
0.888,3.344927735536445e-06
0.892,3.362043385140177e-06
0.8959999999999999,3.3800291795819577e-06
0.9,3.398839521124465e-06
0.904,3.418424539197432e-06
0.9079999999999999,3.438730200471474e-06
0.912,3.4596984433681007e-06
0.9159999999999999,3.481267337431726e-06
0.92,3.5033712673467912e-06
0.924,3.5259411408266344e-06
0.9279999999999999,3.548904619236685e-06
0.932,3.5721863696691754e-06
0.9359999999999999,3.595708337220204e-06
0.94,3.6193900363708817e-06
0.944,3.643148860537673e-06
0.948,3.666900408873809e-06
0.952,3.690558829160089e-06
0.956,3.7140371751715714e-06
0.96,3.7372477764594566e-06
0.9640000000000001,3.7601026182630242e-06
0.968,3.782513729305138e-06
0.972,3.804393575381258e-06
0.976,3.825655456782184e-06
0.98,3.846213907675604e-06
0.9840000000000001,3.865985095641541e-06
0.988,3.884887219589976e-06
0.992,3.902840904221971e-06
0.996,3.919769588992349e-06
1.0,3.93559990920291e-06
1.004,3.950262066428996e-06
1.008,3.963690185035524e-06
1.012,3.9758226512661244e-06
1.016,3.9866024315218275e-06
1.02,3.995977367024635e-06
1.024,4.003900442883095e-06
1.028,4.010330030416949e-06
1.032,4.015230102364332e-06
1.036,4.018570421222253e-06
1.04,4.0203267013413285e-06
1.044,4.020480745464504e-06
1.048,4.019020556277168e-06
1.052,4.015940423370532e-06
1.056,4.011240985881888e-06
1.06,4.00492927098992e-06
1.064,3.9970187084324515e-06
1.068,3.9875291212578525e-06
1.072,3.976486693059039e-06
1.0759999999999998,3.963923911930565e-06
1.08,3.949879491323695e-06
1.084,3.934398267846625e-06
1.088,3.917531075898677e-06
1.092,3.899334598944512e-06
1.0959999999999999,3.879871197323196e-06
1.1,3.8592087126753534e-06
1.104,3.837420249179531e-06
1.1079999999999999,3.8145839318140958e-06
1.112,3.790782642020939e-06
1.1159999999999999,3.766103731558281e-06
1.12,3.740638715845787e-06
1.124,3.714482948514715e-06
1.128,3.6877352790742196e-06
1.132,3.6604976955854956e-06
1.136,3.632874954066972e-06
1.14,3.604974196155036e-06
1.144,3.57690455639788e-06
1.148,3.5487767604605583e-06
1.152,3.5207027154274567e-06
1.156,3.4927950933078513e-06
1.16,3.4651669088477107e-06
1.1640000000000001,3.437931092902494e-06
1.168,3.411200062938411e-06
1.172,3.3850852926056633e-06
1.176,3.3596968826113296e-06
1.18,3.3351431351996604e-06
1.1840000000000002,3.3115301344135907e-06
1.188,3.2889613340241014e-06
1.192,3.2675371546533656e-06
1.196,3.2473545912679213e-06
1.2,3.22850683194809e-06
1.204,3.2110828886688564e-06
1.208,3.195167240748161e-06
1.212,3.180839491644953e-06
1.216,3.168174039929066e-06
1.22,3.157239765438181e-06
1.224,3.1480997317824077e-06
1.228,3.1408109063915673e-06
1.232,3.135423899226921e-06
1.236,3.1319827211513175e-06
1.24,3.130524562864498e-06
1.244,3.1310795953514888e-06
1.248,3.1336707929578563e-06
1.252,3.1383137804217603e-06
1.256,3.145016705419446e-06
1.26,3.15378013838752e-06
1.264,3.1645970014591988e-06
1.268,3.177452528188037e-06
1.272,3.1923242553983997e-06
1.276,3.209182048184987e-06
1.28,3.2279881588797973e-06
1.284,3.248697320632638e-06
1.288,3.2712568759928512e-06
1.2919999999999998,3.2956069405353765e-06
1.296,3.3216806012391332e-06
1.3,3.3494041490679153e-06
1.304,3.3786973449986993e-06
1.308,3.4094737184998078e-06
1.3119999999999998,3.441640897094734e-06
1.3159999999999998,3.475100965128196e-06
1.32,3.5097508492437834e-06
1.324,3.545482727554244e-06
1.328,3.582184459223962e-06
1.3319999999999999,3.6197400312233743e-06
1.3359999999999999,3.6580300191813727e-06
1.34,3.6969320593799477e-06
1.344,3.7363213290603984e-06
1.348,3.7760710325202503e-06
1.3519999999999999,3.816052890954429e-06
1.3559999999999999,3.8561376343467865e-06
1.36,3.896195493709957e-06
1.364,3.936096691689712e-06
1.368,3.975711929292165e-06
1.3719999999999999,4.0149128664476994e-06
1.376,4.053572594236038e-06
1.38,4.0915660966935054e-06
1.384,4.128770700149132e-06
1.388,4.165066508109882e-06
1.392,4.200336819946719e-06
1.396,4.234468531909857e-06
1.4,4.267352519075835e-06
1.404,4.29888399664601e-06
1.4080000000000001,4.328962858825319e-06
1.412,4.357493993569138e-06
1.416,4.384387571768422e-06
1.42,4.409559309781307e-06
1.4240000000000002,4.43293070461494e-06
1.4280000000000002,4.454429241639132e-06
1.432,4.473988575449833e-06
1.436,4.491548685200466e-06
1.44,4.507056006185028e-06
1.444,4.520463539571295e-06
1.4480000000000002,4.53173094193726e-06
1.452,4.540824595786226e-06
1.456,4.547717661705617e-06
1.46,4.55239011244138e-06
1.464,4.554828748930384e-06
1.4680000000000002,4.555027198281867e-06
1.472,4.5529858938610935e-06
1.476,4.548712037957559e-06
1.48,4.542219547819087e-06
1.484,4.5335289859057e-06
1.4880000000000002,4.5226674750241e-06
1.492,4.509668598635239e-06
1.496,4.4945722862342145e-06
1.5,4.4774246834552205e-06
1.504,4.458278006540646e-06
1.508,4.437190380919607e-06
1.5119999999999998,4.414225663630051e-06
1.516,4.389453249067616e-06
1.52,4.362947857161504e-06
1.524,4.334789302777148e-06
1.528,4.305062245064934e-06
1.5319999999999998,4.273855915605228e-06
1.536,4.241263824473163e-06
1.54,4.207383443748665e-06
1.544,4.1723158685325874e-06
1.548,4.136165456109707e-06
1.5519999999999998,4.0990394444126994e-06
1.556,4.061047551415106e-06
1.56,4.022301557617121e-06
1.564,3.9829148743496865e-06
1.568,3.9430021010678415e-06
1.5719999999999998,3.902678575108624e-06
1.5759999999999998,3.862059917617029e-06
1.58,3.821261579438555e-06
1.584,3.7803983905992433e-06
1.588,3.7395841165247697e-06
1.5919999999999999,3.698931023517556e-06
1.5959999999999999,3.658549455395064e-06
1.6,3.6185474227659245e-06
1.604,3.579030206271387e-06
1.608,3.54009997517694e-06
1.6119999999999999,3.501855422808846e-06
1.6159999999999999,3.4643914204204274e-06
1.62,3.4277986911763057e-06
1.624,3.392163506082266e-06
1.628,3.3575674038153584e-06
1.632,3.3240869364450117e-06
1.636,3.2917934429266012e-06
1.64,3.260752851979589e-06
1.644,3.2310255155600217e-06
1.648,3.2026660736741716e-06
1.652,3.175723350856242e-06
1.656,3.1502402843173027e-06
1.66,3.1262538835388037e-06
1.664,3.1037952208254385e-06
1.6680000000000001,3.08288945197925e-06
1.672,3.0635558658689144e-06
1.676,3.0458079613688647e-06
1.68,3.0296535499853686e-06
1.6840000000000002,3.015094882428866e-06
1.6880000000000002,3.0021287973945e-06
1.692,2.990746890889735e-06
1.696,2.980935704594103e-06
1.7,2.972676931877484e-06
1.704,2.965947640169235e-06
1.7080000000000002,2.9607205083529537e-06
1.712,2.9569640777649485e-06
1.716,2.954643015180223e-06
1.72,2.953718385879762e-06
1.724,2.9541479345518757e-06
1.7280000000000002,2.9558863714653503e-06
1.732,2.9588856611561917e-06
1.736,2.9630953108516893e-06
1.74,2.9684626560006684e-06
1.744,2.9749331405251516e-06
1.7480000000000002,2.9824505896793412e-06
1.7519999999999998,2.990957473619965e-06
1.756,3.0003951599238457e-06
1.76,3.01070415338433e-06
1.764,3.0218243215784757e-06
1.768,3.0336951049777317e-06
1.7719999999999998,3.046255710735965e-06
1.776,3.0594452896416852e-06
1.78,3.0732030960189865e-06
1.784,3.0874686306501935e-06
1.788,3.1021817671659386e-06
1.7919999999999998,3.1172828627996644e-06
1.796,3.132712854788832e-06
1.8,3.1484133439227852e-06
1.804,3.16432666684453e-06
1.808,3.1803959587984103e-06
1.8119999999999998,3.19656520858096e-06
1.8159999999999998,3.212779307468761e-06
1.82,3.2289840938558376e-06
1.824,3.2451263952219754e-06
1.828,3.2611540688632397e-06
1.8319999999999999,3.277016042593017e-06
1.8359999999999999,3.292662356461326e-06
1.84,3.3080442064884208e-06
1.844,3.3231139913987e-06
1.848,3.3378253632615585e-06
1.8519999999999999,3.3521332827493437e-06
1.8559999999999999,3.365994079428828e-06
1.86,3.3793655171541527e-06
1.864,3.392206864302919e-06
1.868,3.404478968394993e-06
1.8719999999999999,3.4161443345738948e-06
1.876,3.4271672074036164e-06
1.88,3.4375136553336596e-06
1.884,3.447151657016869e-06
1.888,3.4560511884909837e-06
1.892,3.464184310102285e-06
1.896,3.4715252519771134e-06
1.9,3.478050496813138e-06
1.904,3.4837388586917556e-06
1.908,3.488571556433784e-06
1.912,3.4925322798012283e-06
1.916,3.4956072468470946e-06
1.92,3.4977852511556298e-06
1.9240000000000002,3.4990576984804843e-06
1.9280000000000002,3.4994186329848572e-06
1.932,3.498864753636895e-06
1.936,3.497395421337415e-06
1.94,3.4950126571906473e-06
1.944,3.491721132062313e-06
1.9480000000000002,3.4875281473294787e-06
1.952,3.482443606723199e-06
1.956,3.476479979519584e-06
1.96,3.4696522559140355e-06
1.964,3.461977895918602e-06
1.9680000000000002,3.453476773339552e-06
1.972,3.444171116324878e-06
1.976,3.434085445769093e-06
1.98,3.4232465126549164e-06
1.984,3.4116832351884197e-06
1.9880000000000002,3.3994266362484175e-06
1.992,3.3865097812144377e-06
1.996,3.3729677158094904e-06
2.0,3.358837403361371e-06
2.004,3.344157660871782e-06
2.008,3.3289690933917432e-06
2.012,3.3133140263865837e-06
2.016,3.2972364360456064e-06
2.02,3.2807818777614295e-06
2.024,3.263997413085472e-06
2.028,3.2469315352847042e-06
2.032,3.2296340932921403e-06
2.036,3.2121562135166014e-06
2.04,3.194550218732442e-06
2.044,3.176869543080276e-06
2.048,3.1591686420069187e-06
2.052,3.1415028957673813e-06
2.056,3.12392850501325e-06
2.06,3.10650237707574e-06
2.064,3.089282001801796e-06
2.068,3.0723253161929106e-06
2.072,3.0556905575946592e-06
2.076,3.039436105662054e-06
2.08,3.0236203136370315e-06
2.084,3.0083013296346552e-06
2.088,2.9935369087757546e-06
2.092,2.979384217172139e-06
2.096,2.9658996289054314e-06
2.1,2.9531385172155203e-06
2.104,2.9411550411742493e-06
2.108,2.9300019292023744e-06
2.112,2.9197302609041084e-06
2.116,2.910389248866577e-06
2.12,2.9020260223117497e-06
2.124,2.8946854147279094e-06
2.128,2.8884097577230475e-06
2.1319999999999997,2.883238683257358e-06
2.136,2.879208936150305e-06
2.14,2.876354198405135e-06
2.144,2.874704926528062e-06
2.148,2.874288202665238e-06
2.1519999999999997,2.875127600010447e-06
2.156,2.8772430625419854e-06
2.16,2.8806507988146626e-06
2.164,2.8853631893767972e-06
2.168,2.891388707410181e-06
2.1719999999999997,2.898731852335936e-06
2.176,2.907393096362857e-06
2.18,2.91736884424009e-06
2.184,2.928651406703385e-06
2.188,2.941228988198471e-06
2.1919999999999997,2.9550856894531037e-06
2.1959999999999997,2.970201525392662e-06
2.2,2.9865524587557394e-06
2.204,3.004110449558147e-06
2.208,3.022843520274652e-06
2.2119999999999997,3.0427158362957246e-06
2.2159999999999997,3.0636878009817326e-06
2.22,3.085716164593154e-06
2.224,3.108754146531203e-06
2.228,3.132751570582109e-06
2.2319999999999998,3.157655013098459e-06
2.2359999999999998,3.1834079641888184e-06
2.24,3.2099510020150383e-06
2.244,3.2372219802708043e-06
2.248,3.265156228872454e-06
2.252,3.2936867678218175e-06
2.256,3.322744534113843e-06
2.26,3.3522586215169376e-06
2.264,3.3821565330476695e-06
2.268,3.4123644458985404e-06
2.272,3.4428074883980423e-06
2.276,3.4734100283252094e-06
2.28,3.504095971626352e-06
2.2840000000000003,3.534789070328291e-06
2.2880000000000003,3.5654132382429457e-06
2.2920000000000003,3.595892872904298e-06
2.2960000000000003,3.6261531820034194e-06
2.3000000000000003,3.656120512349573e-06
2.3040000000000003,3.6857226791448053e-06
2.3080000000000003,3.714889293227992e-06
2.312,3.743552083973467e-06
2.316,3.771645215645909e-06
2.32,3.7991055950727824e-06
2.324,3.825873168418452e-06
2.3280000000000003,3.851891204689293e-06
2.332,3.877106563484616e-06
2.336,3.901469944465557e-06
2.34,3.924936115968182e-06
2.344,3.9474641200974615e-06
2.3480000000000003,3.9690174516051325e-06
2.352,3.9895642080216015e-06
2.356,4.00907720888715e-06
2.36,4.027534082391049e-06
2.364,4.044917318247032e-06
2.3680000000000003,4.061214286296965e-06
2.372,4.076417221092247e-06
2.376,4.09052317333864e-06
2.38,4.103533929539307e-06
2.384,4.11545590158326e-06
2.388,4.126299988460661e-06
2.392,4.1360814126101144e-06
2.396,4.144819533518661e-06
2.4,4.152537641124013e-06
2.404,4.159262731317448e-06
2.408,4.165025265393375e-06
2.412,4.169858914713807e-06
2.416,4.173800291334552e-06
2.42,4.176888665058831e-06
2.424,4.179165667473893e-06
2.428,4.180674984016255e-06
2.432,4.1814620358580886e-06
2.436,4.181573654152353e-06
2.44,4.18105774972102e-06
2.444,4.179962981580527e-06
2.448,4.178338427849062e-06
2.452,4.176233262660267e-06
2.456,4.1736964427254295e-06
2.46,4.170776407070431e-06
2.464,4.167520793158716e-06
2.468,4.163976172118675e-06
2.472,4.1601878052421855e-06
2.476,4.15619942343924e-06
2.48,4.152053030978176e-06
2.484,4.147788734616357e-06
2.488,4.1434445991019985e-06
2.492,4.139056529912318e-06
2.496,4.134658183895428e-06
2.5,4.130280908193743e-06
2.504,4.125953707456603e-06
2.508,4.1217032388770916e-06
2.512,4.1175538340209855e-06
2.516,4.113527545804286e-06
2.52,4.109644218348788e-06
2.524,4.105921576826326e-06
2.528,4.102375333865095e-06
2.532,4.099019308727169e-06
2.536,4.095865555308121e-06
2.54,4.092924495024903e-06
2.544,4.0902050507991075e-06
2.548,4.0877147785662634e-06
2.552,4.08545999301526e-06
2.556,4.0834458846481265e-06
2.56,4.08167662592603e-06
2.5639999999999996,4.080155465266939e-06
2.568,4.0788848086516936e-06
2.572,4.077866289163738e-06
2.576,4.077100824903307e-06
2.58,4.076588665697363e-06
2.5839999999999996,4.0763294291232375e-06
2.588,4.076322126573687e-06
2.592,4.0765651802741595e-06
2.596,4.077056432187264e-06
2.6,4.077793145590007e-06
2.6039999999999996,4.078771999957068e-06
2.608,4.079989079857682e-06
2.612,4.081439858901379e-06
2.616,4.083119180132031e-06
2.62,4.085021234464717e-06
2.6239999999999997,4.087139538760291e-06
2.628,4.089466914986571e-06
2.6319999999999997,4.09199547165143e-06
2.636,4.094716588382978e-06
2.64,4.097620904285758e-06
2.6439999999999997,4.100698310552452e-06
2.648,4.103937947703403e-06
2.6519999999999997,4.107328207731655e-06
2.656,4.110856741366285e-06
2.66,4.114510470598451e-06
2.6639999999999997,4.118275606438857e-06
2.668,4.12213767152752e-06
2.6719999999999997,4.126081526732856e-06
2.676,4.130091400336849e-06
2.68,4.13415091789779e-06
2.6839999999999997,4.13824313055829e-06
2.688,4.14235053961989e-06
2.6919999999999997,4.146455115784299e-06
2.696,4.1505383125560275e-06
2.7,4.154581074669701e-06
2.7039999999999997,4.158563843618419e-06
2.708,4.162466563050293e-06
2.7119999999999997,4.166268686896968e-06
2.716,4.1699491927799905e-06
2.72,4.173486602733128e-06
2.7239999999999998,4.176859012718121e-06
2.728,4.1800441318414865e-06
2.7319999999999998,4.183019331602151e-06
2.736,4.185761704910492e-06
2.74,4.188248134032833e-06
2.7439999999999998,4.190455366069986e-06
2.748,4.1923600941099705e-06
2.752,4.19393904185273e-06
2.756,4.195169049417568e-06
2.76,4.196027158341064e-06
2.764,4.196490694352973e-06
2.768,4.196537347035112e-06
2.772,4.196145245646605e-06
2.776,4.1952930302672124e-06
2.78,4.193959917236871e-06
2.7840000000000003,4.192125757951356e-06
2.7880000000000003,4.189771090528021e-06
2.7920000000000003,4.186877184524487e-06
2.7960000000000003,4.1834260795124125e-06
2.8000000000000003,4.179400618737861e-06
2.8040000000000003,4.1747844793324684e-06
2.8080000000000003,4.169562200622474e-06
2.8120000000000003,4.163719212103885e-06
2.8160000000000003,4.157241862684375e-06
2.82,4.150117452831439e-06
2.824,4.142334271267167e-06
2.8280000000000003,4.133881637770624e-06
2.832,4.124749953441539e-06
2.8360000000000003,4.114930759411291e-06
2.84,4.104416804487671e-06
2.844,4.093202121682171e-06
2.8480000000000003,4.0812821130899685e-06
2.852,4.068653642215736e-06
2.8560000000000003,4.05531513257586e-06
2.86,4.04126667127922e-06
2.864,4.0265101162652985e-06
2.8680000000000003,4.011049205854535e-06
2.872,3.994889669157154e-06
2.8760000000000003,3.978039335704663e-06
2.88,3.960508242488722e-06
2.884,3.94230873650016e-06
2.888,3.923455570896683e-06
2.892,3.903965993033598e-06
2.8960000000000004,3.883859822636871e-06
2.9,3.863159518294123e-06
2.904,3.841890230217225e-06
2.908,3.820079836989901e-06
2.912,3.797758963844096e-06
2.9160000000000004,3.7749609799923748e-06
2.92,3.751721972789503e-06
2.924,3.7280806970436994e-06
2.928,3.7040784985035983e-06
2.932,3.679759211212066e-06
2.9360000000000004,3.6551690289951435e-06
2.94,3.630356351913424e-06
2.944,3.605371609070158e-06
2.948,3.5802670596721756e-06
2.952,3.5550965745926e-06
2.9560000000000004,3.529915400934125e-06
2.96,3.5047799123792546e-06
2.964,3.47974734844841e-06
2.968,3.454875546002084e-06
2.972,3.4302226663181325e-06
2.9760000000000004,3.405846920931748e-06
2.98,3.381806299252733e-06
2.984,3.358158300780107e-06
2.988,3.3349596744630355e-06
2.992,3.312266167376255e-06
2.9960000000000004,3.290132284439939e-06
3.0,3.2686110605411526e-06
3.0039999999999996,3.247753846178029e-06
3.008,3.2276101075937796e-06
3.012,3.208227242185959e-06
3.016,3.1896504097002105e-06
3.02,3.171922379349755e-06
3.0239999999999996,3.1550833925911604e-06
3.028,3.1391710408939924e-06
3.032,3.124220157537692e-06
3.036,3.11026272233304e-06
3.04,3.0973277782026545e-06
3.0439999999999996,3.085441358648889e-06
3.048,3.0746264251854958e-06
3.052,3.0649028138558806e-06
3.056,3.0562871901005904e-06
3.06,3.0487930114375786e-06
3.0639999999999996,3.0424304975417244e-06
3.068,3.037206607289156e-06
3.072,3.0331250222569696e-06
3.076,3.0301861361771585e-06
3.08,3.028387049980439e-06
3.0839999999999996,3.0277215722817403e-06
3.088,3.028180225402788e-06
3.092,3.0297502572683956e-06
3.096,3.032415659700026e-06
3.1,3.0361571937174177e-06
3.1039999999999996,3.040952422468761e-06
3.108,3.0467757523981977e-06
3.112,3.0535984832453816e-06
3.116,3.061388867431142e-06
3.12,3.070112179284949e-06
3.1239999999999997,3.0797307944069168e-06
3.128,3.090204279245868e-06
3.1319999999999997,3.1014894907360175e-06
3.136,3.1135406856090455e-06
3.14,3.1263096388644328e-06
3.1439999999999997,3.139745770905603e-06
3.148,3.1537962830333345e-06
3.1519999999999997,3.168406301271647e-06
3.156,3.1835190287820737e-06
3.16,3.1990759072890483e-06
3.1639999999999997,3.2150167879614647e-06
3.168,3.231280112143348e-06
3.1719999999999997,3.2478031022479334e-06
3.176,3.264521962973575e-06
3.18,3.281372092719944e-06
3.1839999999999997,3.298288304732817e-06
3.188,3.3152050571793496e-06
3.1919999999999997,3.332056691097644e-06
3.196,3.3487776749748186e-06
3.2,3.3653028545705218e-06
3.2039999999999997,3.38156770648728e-06
3.208,3.3975085938718576e-06
3.2119999999999997,3.4130630225239664e-06
3.216,3.428169895598541e-06
3.22,3.442769764963622e-06
3.2239999999999998,3.4568050770488367e-06
3.228,3.4702204107117067e-06
3.2319999999999998,3.482962704396258e-06
3.236,3.494981469833355e-06
3.24,3.5062289898531947e-06
3.2439999999999998,3.5166604985194156e-06
3.248,3.5262343425300923e-06
3.252,3.5349121233750597e-06
3.256,3.542658819970505e-06
3.26,3.5494428915133796e-06
3.264,3.5552363602533535e-06
3.268,3.560014873812225e-06
3.272,3.563757746601263e-06
3.276,3.5664479798995286e-06
3.28,3.568072260425233e-06
3.2840000000000003,3.5686209377957096e-06
3.2880000000000003,3.5680879819534937e-06
3.2920000000000003,3.566470922203948e-06
3.2960000000000003,3.5637707698576414e-06
3.3000000000000003,3.559991926618652e-06
3.3040000000000003,3.5551420808680015e-06
3.3080000000000003,3.549232093916906e-06
3.3120000000000003,3.542275878208925e-06
3.3160000000000003,3.53429026938982e-06
3.3200000000000003,3.5252948941523773e-06
3.3240000000000003,3.5153120357828954e-06
3.3280000000000003,3.5043664993897973e-06
3.332,3.4924854788737247e-06
3.3360000000000003,3.479698427712143e-06
3.34,3.4660369354651293e-06
3.344,3.451534611539401e-06
3.3480000000000003,3.4362269772621962e-06
3.352,3.4201513668478337e-06
3.3560000000000003,3.4033468374750445e-06
3.36,3.385854088405379e-06
3.364,3.3677153887531193e-06
3.3680000000000003,3.3489745130866254e-06
3.372,3.3296766835109013e-06
3.3760000000000003,3.309868516318078e-06
3.38,3.2895979707605274e-06
3.384,3.2689142970391188e-06
3.388,3.247867980263356e-06
3.392,3.2265106770733984e-06
3.3960000000000004,3.204895141987644e-06
3.4,3.183075141335217e-06
3.404,3.161105353553966e-06
3.408,3.1390412554001957e-06
3.412,3.116938994275048e-06
3.4160000000000004,3.0948552476188954e-06
3.42,3.072847071090969e-06
3.424,3.0509717377366463e-06
3.428,3.0292865703946955e-06
3.432,3.0078487693261488e-06
3.4360000000000004,2.9867152366503544e-06
3.44,2.965942398781743e-06
3.444,2.945586027745858e-06
3.448,2.9257010620739663e-06
3.452,2.9063414279710357e-06
3.4560000000000004,2.8875598616000298e-06
3.46,2.8694077335418055e-06
3.464,2.851934876679088e-06
3.468,2.835189418853183e-06
3.472,2.8192176216330757e-06
3.4760000000000004,2.8040637264154674e-06
3.48,2.7897698088393132e-06
3.484,2.776375642180482e-06
3.488,2.763918570061865e-06
3.492,2.7524333885150978e-06
3.4960000000000004,2.7419522371677024e-06
3.5,2.732504499163255e-06
3.5039999999999996,2.724116709474895e-06
3.508,2.716812471579667e-06
3.512,2.7106123828692576e-06
3.516,2.705533969452919e-06
3.52,2.701591631047141e-06
3.5239999999999996,2.698796596496549e-06
3.528,2.697156890271944e-06
3.532,2.6966773101788214e-06
3.536,2.6973594165373123e-06
3.54,2.6992015332108624e-06
3.5439999999999996,2.7021987609682183e-06
3.548,2.7063430036927824e-06
3.552,2.7116230078795206e-06
3.556,2.7180244156892106e-06
3.56,2.7255298315998936e-06
3.5639999999999996,2.7341189024462055e-06
3.568,2.7437684103895753e-06
3.572,2.754452378134782e-06
3.576,2.766142185529147e-06
3.58,2.7788066965754663e-06
3.5839999999999996,2.7924123958612588e-06
3.588,2.8069235334009527e-06
3.592,2.8223022768092674e-06
3.596,2.838508869543431e-06
3.6,2.8555017937680074e-06
3.6039999999999996,2.873237936341488e-06
3.608,2.89167275652662e-06
3.612,2.910760454223191e-06
3.616,2.9304541377805134e-06
3.62,2.9507059907702192e-06
3.6239999999999997,2.9714674374083184e-06
3.628,2.9926893064637113e-06
3.6319999999999997,3.01432199344103e-06
3.636,3.036315620701286e-06
3.64,3.058620195126423e-06
3.6439999999999997,3.0811857629710687e-06
3.648,3.1039625615842963e-06
3.6519999999999997,3.126901167610833e-06
3.656,3.1499526410754105e-06
3.66,3.173068664516752e-06
3.6639999999999997,3.196201676186241e-06
3.668,3.219304996273543e-06
3.6719999999999997,3.2423329450771116e-06
3.676,3.2652409519577525e-06
3.68,3.2879856539420947e-06
3.6839999999999997,3.3105249832095327e-06
3.688,3.332818243398424e-06
3.6919999999999997,3.3548261753663073e-06
3.696,3.376511013405398e-06
3.7,3.3978365329628235e-06
3.7039999999999997,3.418768090873906e-06
3.708,3.4392726591329095e-06
3.7119999999999997,3.459318853315717e-06
3.716,3.478876956896474e-06
3.72,3.497918942767926e-06
3.7239999999999998,3.5164184931435822e-06
3.728,3.5343510186463983e-06
3.7319999999999998,3.5516936769135396e-06
3.736,3.5684253906725437e-06
3.74,3.5845268650584983e-06
3.7439999999999998,3.5999806039212164e-06
3.748,3.614770924998849e-06
3.752,3.6288839740843922e-06
3.756,3.642307738544049e-06
3.76,3.655032060559215e-06
3.764,3.6670486501867003e-06
3.768,3.678351097925621e-06
3.772,3.688934886241286e-06
3.776,3.698797399619226e-06
3.78,3.7079379330854033e-06
3.784,3.716357699391064e-06
3.788,3.7240598350110273e-06
3.792,3.7310494048361045e-06
3.796,3.7373334051930093e-06
3.8,3.7429207647420967e-06
3.804,3.7478223428397386e-06
3.808,3.7520509249692686e-06
3.812,3.755621214772503e-06
3.816,3.758549822092399e-06
3.82,3.760855246315768e-06
3.824,3.7625578541778566e-06
3.828,3.763679851048056e-06
3.832,3.7642452445922417e-06
3.836,3.7642797996487868e-06
3.84,3.7638109831898794e-06
3.844,3.7628678984008535e-06
3.8480000000000003,3.761481207216002e-06
3.852,3.7596830410241705e-06
3.8560000000000003,3.7575068995655094e-06
3.86,3.7549875382452422e-06
3.864,3.7521608442882056e-06
3.8680000000000003,3.7490637024292052e-06
3.872,3.745733851151373e-06
3.8760000000000003,3.742209730773763e-06
3.88,3.7385303248895665e-06
3.884,3.7347349967338646e-06
3.888,3.730863322017871e-06
3.892,3.726954919617941e-06
3.8960000000000004,3.7230492812478525e-06
3.9,3.719185600893982e-06
3.904,3.7154026044493304e-06
3.908,3.7117383797800165e-06
3.912,3.7082302075131752e-06
3.9160000000000004,3.7049143931770124e-06
3.92,3.7018261018197386e-06
3.924,3.698999196627794e-06
3.928,3.6964660831772963e-06
3.932,3.6942575608431516e-06
3.9360000000000004,3.6924026827619144e-06
3.94,3.690928625722454e-06
3.944,3.6898605713729264e-06
3.948,3.6892216000255183e-06
3.952,3.6890325980546667e-06
3.9560000000000004,3.6893121795002545e-06
3.96,3.690076622089647e-06
3.964,3.6913398174814472e-06
3.968,3.6931132350923873e-06
3.972,3.6954058984649654e-06
3.9760000000000004,3.698224372891305e-06
3.98,3.701572762964363e-06
3.984,3.705452718764933e-06
3.988,3.7098634493631947e-06
3.992,3.7148017421653715e-06
3.9960000000000004,3.7202619863923916e-06
4.0,3.7262361986905006e-06
4.004,3.7327140486996827e-06
4.008,3.73968288261687e-06
4.0120000000000005,3.7471277435162658e-06
4.016,3.7550313881554754e-06
4.0200000000000005,3.7633743007192527e-06
4.024,3.7721347041948667e-06
4.0280000000000005,3.781288569977438e-06
4.032,3.790809626140158e-06
4.0360000000000005,3.8006693647432847e-06
4.04,3.8108370486539917e-06
4.0440000000000005,3.821279718596848e-06
4.048,3.8319622014883665e-06
4.0520000000000005,3.842847121458946e-06
4.056,3.8538949152982385e-06
4.0600000000000005,3.865063854312064e-06
4.064,3.876310074632912e-06
4.0680000000000005,3.887587617827177e-06
4.072,3.8988484832716355e-06
4.0760000000000005,3.910042693400823e-06
4.08,3.921118372723758e-06
4.0840000000000005,3.932021841510428e-06
4.088,3.942697725116546e-06
4.0920000000000005,3.953089079861701e-06
4.096,3.963137536123475e-06
4.1,3.972783458912818e-06
4.104,3.981966125773015e-06
4.1080000000000005,3.990623921532231e-06
4.112,3.998694549334098e-06
4.1160000000000005,4.006115257444998e-06
4.12,4.012823081446197e-06
4.124,4.0187551014119105e-06
4.128,4.023848713481253e-06
4.132,4.028041914886051e-06
4.136,4.0312736010860375e-06
4.14,4.0334838732538006e-06
4.144,4.034614353967647e-06
4.148,4.034608508619912e-06
4.152,4.033411969747729e-06
4.156000000000001,4.030972861279851e-06
4.16,4.02724211959601e-06
4.164,4.022173808288315e-06
4.168,4.015725423549641e-06
4.172,4.007858187201485e-06
4.176,3.998537324571018e-06
4.18,3.987732324749161e-06
4.184,3.975417181117629e-06
4.188,3.961570610274484e-06
4.192,3.946176247535883e-06
4.196000000000001,3.929222817116303e-06
4.2,3.910704275048621e-06
4.204,3.890619922993235e-06
4.208,3.868974491255729e-06
4.212,3.845778189503707e-06
4.216,3.8210467238615194e-06
4.22,3.7948012793700337e-06
4.224,3.7670684673046074e-06
4.228,3.7378802375078945e-06
4.232,3.707273756571064e-06
4.236000000000001,3.6752912532437e-06
4.24,3.641979832825849e-06
4.244,3.6073912625945335e-06
4.248,3.5715817306951246e-06
4.252,3.5346115813949096e-06
4.256,3.496545029978029e-06
4.26,3.4574498607142124e-06
4.263999999999999,3.417397111293866e-06
4.268,3.3764607469931757e-06
4.272,3.3347173276376895e-06
4.276,3.2922456701421494e-06
4.28,3.249126509067137e-06
4.284,3.2054421573738056e-06
4.288,3.1612761694157204e-06
4.292,3.1167130080724877e-06
4.296,3.071837717686638e-06
4.3,3.026735604109686e-06
4.303999999999999,2.9814919227785197e-06
4.308,2.9361915754352584e-06
4.312,2.890918815949696e-06
4.316,2.845756965704262e-06
4.32,2.8007881391009792e-06
4.324,2.7560929798970047e-06
4.328,2.71175040921655e-06
4.332,2.667837386140004e-06
4.336,2.6244286816911945e-06
4.34,2.581596666891629e-06
4.343999999999999,2.5394111154217898e-06
4.348,2.4979390213376217e-06
4.352,2.457244432186639e-06
4.356,2.4173882977532123e-06
4.36,2.3784283346014913e-06
4.364,2.3404189066159724e-06
4.368,2.3034109218383436e-06
4.372,2.267451746007705e-06
4.376,2.2325851332579137e-06
4.38,2.198851174347956e-06
4.3839999999999995,2.1662862626160185e-06
4.388,2.13492307766516e-06
4.3919999999999995,2.1047905867013383e-06
4.396,2.0759140634304573e-06
4.4,2.0483151243898462e-06
4.404,2.0220117825043163e-06
4.408,1.997018517549142e-06
4.412,1.973346363086068e-06
4.416,1.951003009296573e-06
4.42,1.9299929209896147e-06
4.4239999999999995,1.910317469954474e-06
4.428,1.8919750807432097e-06
4.4319999999999995,1.8749613888215349e-06
4.436,1.8592694097872405e-06
4.44,1.8448897180729862e-06
4.444,1.831810633302861e-06
4.448,1.8200184123028056e-06
4.452,1.8094974446618947e-06
4.456,1.800230449650606e-06
4.46,1.7921986721833583e-06
4.4639999999999995,1.7853820753923926e-06
4.468,1.7797595273252426e-06
4.4719999999999995,1.7753089793159467e-06
4.476,1.7720076336834815e-06
4.48,1.7698320985736689e-06
4.484,1.768758528033749e-06
4.488,1.7687627458068116e-06
4.492,1.7698203517526337e-06
4.496,1.771906810102845e-06
4.5,1.7749975189193287e-06
4.504,1.779067860272843e-06
4.508,1.7840932309695012e-06
4.5120000000000005,1.790049054212576e-06
4.516,1.7969107733162685e-06
4.5200000000000005,1.804653829298995e-06
4.524,1.8132536247207805e-06
4.5280000000000005,1.8226854764294467e-06
4.532,1.8329245599446718e-06
4.5360000000000005,1.843945848089279e-06
4.54,1.8557240462635457e-06
4.5440000000000005,1.8682335265326304e-06
4.548,1.8814482624971101e-06
4.5520000000000005,1.8953417667395565e-06
4.556,1.909887032471268e-06
4.5600000000000005,1.92505648084303e-06
4.564,1.9408219152492755e-06
4.5680000000000005,1.9571544838580815e-06
4.572,1.97402465152438e-06
4.5760000000000005,1.9914021821528295e-06
4.58,2.009256132447146e-06
4.5840000000000005,2.027554857821401e-06
4.588,2.0462660310605035e-06
4.5920000000000005,2.0653566740896037e-06
4.596,2.0847932029484974e-06
4.6000000000000005,2.104541485815698e-06
4.604,2.124566913768244e-06
4.6080000000000005,2.144834483938007e-06
4.612,2.1653088947674895e-06
4.6160000000000005,2.1859546530661605e-06
4.62,2.206736192495323e-06
4.624,2.2276180030158724e-06
4.628,2.248564770719622e-06
4.632,2.2695415272655677e-06
4.636,2.290513807846539e-06
4.64,2.3114478163152824e-06
4.644,2.332310595910498e-06
4.648,2.3530702039574704e-06
4.652,2.373695888912701e-06
4.656000000000001,2.3941582681340257e-06
4.66,2.4144295047887698e-06
4.664,2.434483482349335e-06
4.668,2.4542959751193447e-06
4.672,2.4738448131506823e-06
4.676,2.493110039768524e-06
4.68,2.5120740597636456e-06
4.684,2.530721776193593e-06
4.688,2.5490407137314323e-06
4.692,2.5670211267043713e-06
4.696000000000001,2.58465609038657e-06
4.7,2.601941574579648e-06
4.704,2.6188764987857744e-06
4.708,2.635462768288073e-06
4.712,2.65170529037738e-06
4.716,2.6676119700171436e-06
4.72,2.68319368449757e-06
4.724,2.6984642370499574e-06
4.728,2.7134402898749495e-06
4.732,2.7281412774602746e-06
4.736000000000001,2.74258930131373e-06
4.74,2.7568090072990303e-06
4.744,2.7708274467381486e-06
4.748,2.784673922473203e-06
4.752,2.7983798212133245e-06
4.756,2.811978433648095e-06
4.76,2.825504763889618e-06
4.763999999999999,2.8389953297979475e-06
4.768,2.8524879557001585e-06
4.772,2.8660215589749436e-06
4.776,2.8796359319455606e-06
4.78,2.8933715204739926e-06
4.784,2.9072692005799984e-06
4.788,2.921370054392666e-06
4.792,2.935715146809311e-06
4.796,2.950345304270014e-06
4.8,2.9653008969006934e-06
4.803999999999999,2.9806216249066352e-06
4.808,2.9963463096078683e-06
4.812,3.012512689012333e-06
4.816,3.0291572174019915e-06
4.82,3.0463148681122663e-06
4.824,3.0640189385853325e-06
4.828,3.0823008569761066e-06
4.832,3.101189990120705e-06
4.836,3.120713453383652e-06
4.84,3.1408959235109946e-06
4.843999999999999,3.1617594559717255e-06
4.848,3.1833233084150334e-06
4.852,3.205603771935492e-06
4.856,3.2286140118742507e-06
4.86,3.2523639198464227e-06
4.864,3.276859978541146e-06
4.868,3.3021051406321823e-06
4.872,3.328098722917048e-06
4.876,3.354836316572565e-06
4.88,3.38230971412949e-06
4.8839999999999995,3.410506853400067e-06
4.888,3.4394117782074945e-06
4.8919999999999995,3.4690046155249894e-06
4.896,3.4992615686417605e-06
4.9,3.5301549261711475e-06
4.904,3.5616530869641988e-06
4.908,3.5937206012239243e-06
4.912,3.6263182283026952e-06
4.916,3.6594030117386327e-06
4.92,3.6929283720099533e-06
4.9239999999999995,3.726844217322898e-06
4.928,3.76109707257262e-06
4.9319999999999995,3.7956302264119425e-06
4.936,3.830383896094491e-06
4.94,3.865295409509662e-06
4.944,3.900299403742783e-06
4.948,3.935328039554257e-06
4.952,3.970311231181966e-06
4.956,4.005176890744542e-06
4.96,4.039851186397342e-06
4.9639999999999995,4.074258813407987e-06
4.968,4.108323277409555e-06
4.9719999999999995,4.141967189073553e-06
4.976,4.17511256925299e-06
4.98,4.207681163403689e-06
4.984,4.239594763958209e-06
4.988,4.270775539336737e-06
4.992,4.301146368368153e-06
4.996,4.330631178959518e-06
5.0,4.359155289764616e-06
5.004,4.386645753277243e-06
5.008,4.413031698258281e-06
5.0120000000000005,4.4382446688347314e-06
5.016,4.462218957092283e-06
5.0200000000000005,4.484891925554121e-06
5.024,4.506204315626572e-06
5.0280000000000005,4.5261005379951785e-06
5.032,4.544528941196888e-06
5.0360000000000005,4.561442055191377e-06
5.04,4.576796807545018e-06
5.0440000000000005,4.590554710576733e-06
5.048,4.602682018323998e-06
5.0520000000000005,4.613149852447081e-06
5.056,4.621934296293967e-06
5.0600000000000005,4.629016456445065e-06
5.064,4.634382491289468e-06
5.0680000000000005,4.6380236066541565e-06
5.072,4.639936019221839e-06
5.0760000000000005,4.6401208893096665e-06
5.08,4.638584225351656e-06
5.0840000000000005,4.635336762995303e-06
5.088,4.630393822039271e-06
5.0920000000000005,4.623775144530937e-06
5.096,4.6155047173111094e-06
5.1000000000000005,4.605610582262713e-06
5.104,4.594124637514965e-06
5.1080000000000005,4.581082432763804e-06
5.112,4.566522961592538e-06
5.1160000000000005,4.550488453242106e-06
5.12,4.533024165774671e-06
5.124,4.514178182058336e-06
5.127999999999999,4.494001209537417e-06
5.132000000000001,4.472546384384625e-06
5.136,4.4498690802959965e-06
5.14,4.426026721781017e-06
5.144,4.4010786013460645e-06
5.148,4.375085699632958e-06
5.152,4.348110507473364e-06
5.156000000000001,4.320216848934223e-06
5.16,4.291469704686638e-06
5.164,4.261935035370219e-06
5.167999999999999,4.231679604963186e-06
5.172000000000001,4.2007708043939254e-06
5.176,4.169276475655251e-06
5.18,4.137264736496723e-06
5.184,4.104803805500176e-06
5.188,4.071961827241769e-06
5.192,4.0388066974684145e-06
5.196000000000001,4.005405888642812e-06
5.2,3.971826276590693e-06
5.204,3.938133969235472e-06
5.207999999999999,3.904394138642125e-06
5.212000000000001,3.870670857896527e-06
5.216,3.837026944632134e-06
5.22,3.8035238131178858e-06
5.224,3.7702213366593874e-06
5.228,3.7371777217035193e-06
5.232,3.704449394612943e-06
5.236000000000001,3.6720909016769444e-06
5.24,3.6401548225508896e-06
5.244,3.608691696977509e-06
5.247999999999999,3.577749964381604e-06
5.252000000000001,3.547375915746668e-06
5.256,3.517613657038939e-06
5.26,3.488505083328625e-06
5.263999999999999,3.4600898626567546e-06
5.268,3.432405428559182e-06
5.272,3.405486979968262e-06
5.276,3.3793674870164575e-06
5.28,3.3540777011064073e-06
5.284,3.3296461675166585e-06
5.287999999999999,3.3060992388571025e-06
5.292000000000001,3.2834610879356876e-06
5.296,3.261753719017417e-06
5.3,3.2409969769821114e-06
5.303999999999999,3.2212085544422025e-06
5.308,3.2024039973268074e-06
5.312,3.1845967096601463e-06
5.316,3.1677979583131595e-06
5.32,3.152016878547769e-06
5.324,3.1372604812967454e-06
5.327999999999999,3.123533663270342e-06
5.332000000000001,3.110839221013211e-06
5.336,3.099177869867069e-06
5.34,3.0885482684552933e-06
5.343999999999999,3.078947048894517e-06
5.348,3.0703688525806927e-06
5.352,3.062806371191864e-06
5.356,3.0562503924833847e-06
5.36,3.050689850396079e-06
5.364,3.0461118788475882e-06
5.367999999999999,3.042501868355219e-06
5.372000000000001,3.0398435244555297e-06
5.376,3.0381189268427266e-06
5.38,3.037308588294247e-06
5.3839999999999995,3.0373915127537446e-06
5.388,3.038345252248778e-06
5.392,3.04014596244995e-06
5.396,3.042768456593845e-06
5.4,3.04618625734111e-06
5.404,3.050371646078308e-06
5.4079999999999995,3.0552957092085296e-06
5.412000000000001,3.0609283810295324e-06
5.416,3.067238482825657e-06
5.42,3.0741937578180795e-06
5.4239999999999995,3.0817609016626244e-06
5.428,3.089905588324698e-06
5.432,3.0985924915038476e-06
5.436,3.1077853023499194e-06
5.44,3.117446744844792e-06
5.444,3.127538590678261e-06
5.4479999999999995,3.138021675623711e-06
5.452000000000001,3.1488559194074507e-06
5.456,3.160000351005461e-06
5.46,3.1714131412419113e-06
5.4639999999999995,3.1830516444381557e-06
5.468,3.1948724505822842e-06
5.472,3.206831449058215e-06
5.476,3.218883904473781e-06
5.48,3.2309845446591868e-06
5.484,3.2430876605615846e-06
5.4879999999999995,3.2551472176116108e-06
5.492000000000001,3.267116978178606e-06
5.496,3.278950634824735e-06
5.5,3.290601954014868e-06
5.504,3.3020249296490293e-06
5.507999999999999,3.3131739453512524e-06
5.5120000000000005,3.3240039440374666e-06
5.516,3.334470602981741e-06
5.5200000000000005,3.344530512390579e-06
5.524,3.354141355356153e-06
5.5280000000000005,3.3632620870246654e-06
5.532,3.371853110911865e-06
5.5360000000000005,3.3798764504538465e-06
5.54,3.3872959139995226e-06
5.5440000000000005,3.394077251573409e-06
5.547999999999999,3.4001883020195302e-06
5.5520000000000005,3.4055991295956846e-06
5.556,3.4102821495143795e-06
5.5600000000000005,3.4142122421767872e-06
5.564,3.4173668560480845e-06
5.5680000000000005,3.4197260994551574e-06
5.572,3.4212728219990264e-06
5.5760000000000005,3.4219926865828713e-06
5.58,3.421874233169847e-06
5.5840000000000005,3.420908935286252e-06
5.587999999999999,3.419091249960563e-06
5.5920000000000005,3.4164186612752017e-06
5.596,3.4128917171347226e-06
5.6000000000000005,3.4085140583963204e-06
5.604,3.403292439307934e-06
5.6080000000000005,3.3972367382784756e-06
5.612,3.3903599582678017e-06
5.6160000000000005,3.3826782164167034e-06
5.62,3.374210722834229e-06
5.6240000000000006,3.3649797485818708e-06
5.627999999999999,3.3550105827391134e-06
5.632000000000001,3.344331478045172e-06
5.636,3.3329735841393136e-06
5.64,3.3209708670289414e-06
5.644,3.30836001323203e-06
5.648,3.2951803171491484e-06
5.652,3.2814735506174203e-06
5.656000000000001,3.267283814206409e-06
5.66,3.252657370540276e-06
5.664,3.2376424606776242e-06
5.667999999999999,3.2222891052062794e-06
5.672000000000001,3.206648892049512e-06
5.676,3.190774752985943e-06
5.68,3.174720730690324e-06
5.684,3.158541737903041e-06
5.688,3.1422933102356247e-06
5.692,3.126031354109467e-06
5.696000000000001,3.1098118913924036e-06
5.7,3.093690802461129e-06
5.704,3.077723569643778e-06
5.707999999999999,3.061965023186185e-06
5.712000000000001,3.046469091966008e-06
5.716,3.031288561156178e-06
5.72,3.0164748389362846e-06
5.724,3.002077734165303e-06
5.728,2.9881452466667384e-06
5.732,2.9747233714801837e-06
5.736000000000001,2.961855918139867e-06
5.74,2.949584345736983e-06
5.744,2.9379476141793364e-06
5.747999999999999,2.926982051711069e-06
5.752000000000001,2.9167212384727805e-06
5.756,2.907195905686858e-06
5.76,2.898433849888843e-06
5.763999999999999,2.890459861459005e-06
5.768,2.883295666556788e-06
5.772,2.87695988144247e-06
5.776,2.871467978118953e-06
5.78,2.8668322603146053e-06
5.784,2.8630618490678767e-06
5.787999999999999,2.860162677459054e-06
5.792000000000001,2.8581374942508895e-06
5.796,2.856985876339223e-06
5.8,2.8567042500423466e-06
5.803999999999999,2.8572859214106143e-06
5.808,2.8587211158662003e-06
5.812,2.8609970274990186e-06
5.816,2.8640978782020575e-06
5.82,2.868004986531009e-06
5.824,2.8726968457560937e-06
5.827999999999999,2.8781492101325895e-06
5.832000000000001,2.884335188127155e-06
5.836,2.891225341413032e-06
5.84,2.89878778897103e-06
5.843999999999999,2.90698831639261e-06
5.848,2.915790491086564e-06
5.852,2.9251557843183367e-06
5.856,2.935043700955688e-06
5.86,2.9454119176839183e-06
5.864,2.9562164304057185e-06
5.867999999999999,2.9674117114949243e-06
5.872000000000001,2.9789508774056417e-06
5.876,2.990785866810072e-06
5.88,3.0028676290276326e-06
5.8839999999999995,3.0151463221383614e-06
5.888,3.02757151995583e-06
5.892,3.0400924270023248e-06
5.896,3.052658100670523e-06
5.9,3.065217679682915e-06
5.904,3.077720617697499e-06
5.9079999999999995,3.0901169205787804e-06
5.912000000000001,3.1023573856592055e-06
5.916,3.1143938413472668e-06
5.92,3.1261793856031166e-06
5.9239999999999995,3.1376686219575543e-06
5.928,3.148817891846205e-06
5.932,3.1595855020851153e-06
5.936,3.1699319463248435e-06
5.94,3.1798201192690705e-06
5.944,3.1892155223228264e-06
5.9479999999999995,3.198086459138749e-06
5.952000000000001,3.2064042192529707e-06
5.956,3.2141432476664753e-06
5.96,3.2212812979206526e-06
5.9639999999999995,3.2277995661009097e-06
5.968,3.233682803421035e-06
5.972,3.2389194055725252e-06
5.976,3.2435014776736742e-06
5.98,3.247424874201955e-06
5.984,3.2506892136338807e-06
5.9879999999999995,3.253297867674934e-06
5.992000000000001,3.255257925031018e-06
5.996,3.2565801297391084e-06
6.0,3.257278794168025e-06
6.004,3.2573716869194915e-06
6.007999999999999,3.256879896048931e-06
6.0120000000000005,3.255827668347584e-06
6.016,3.2542422258589853e-06
6.0200000000000005,3.2521535612371645e-06
6.024,3.2495942139028014e-06
6.0280000000000005,3.2465990291911924e-06
6.032,3.2432049028152293e-06
6.0360000000000005,3.2394505129962417e-06
6.04,3.235376042578711e-06
6.0440000000000005,3.2310228934019925e-06
6.047999999999999,3.226433395207073e-06
6.0520000000000005,3.221650511420412e-06
6.056,3.216717544224149e-06
6.0600000000000005,3.2116778412959534e-06
6.064,3.2065745064488334e-06
6.0680000000000005,3.2014501162050168e-06
6.072,3.1963464442139115e-06
6.0760000000000005,3.1913041954169947e-06
6.08,3.1863627519326453e-06
6.0840000000000005,3.1815599326790567e-06
6.087999999999999,3.17693176865641e-06
6.0920000000000005,3.172512295544432e-06
6.096,3.1683333649546605e-06
6.1000000000000005,3.1644244754540754e-06
6.104,3.1608126243737935e-06
6.1080000000000005,3.157522181335969e-06
6.112,3.1545747842662807e-06
6.1160000000000005,3.1519892583819143e-06
6.12,3.1497815583263094e-06
6.1240000000000006,3.147964733358834e-06
6.127999999999999,3.1465489153238833e-06
6.1320000000000014,3.1455413289734825e-06
6.136,3.1449463240717997e-06
6.1400000000000015,3.1447654285720398e-06
6.144,3.1449974220058125e-06
6.148,3.145638428037975e-06
6.152,3.1466820249534244e-06
6.156000000000001,3.1481193727205107e-06
6.16,3.149939355216897e-06
6.164,3.1521287361471698e-06
6.167999999999999,3.154672327078646e-06
6.172000000000001,3.1575531658475004e-06
6.176,3.1607527033435175e-06
6.18,3.1642509964565224e-06
6.184,3.168026904923371e-06
6.188,3.1720582900288218e-06
6.192,3.1763222134642642e-06
6.196000000000001,3.1807951349245136e-06
6.2,3.18545310712628e-06
6.204,3.190271966935141e-06
6.207999999999999,3.1952275213259918e-06
6.212000000000001,3.200295727013442e-06
6.216,3.205452862664329e-06
6.22,3.210675692509865e-06
6.224,3.21594161989557e-06
6.228,3.2212288289781995e-06
6.232,3.2265164126262684e-06
6.236000000000001,3.2317844847979565e-06
6.24,3.2370142762610503e-06
6.244,3.2421882132628847e-06
6.247999999999999,3.2472899793714028e-06
6.252000000000001,3.2523045610622426e-06
6.256,3.257218277808538e-06
6.26,3.262018797607597e-06
6.263999999999999,3.2666951391303197e-06
6.268,3.271237661961417e-06
6.272,3.275638046603305e-06
6.276,3.2798892659308397e-06
6.28,3.2839855495614115e-06
6.284,3.287922342218576e-06
6.287999999999999,3.291696256774733e-06
6.292000000000001,3.295305022389306e-06
6.296,3.2987474280295445e-06
6.3,3.3020232616093092e-06
6.303999999999999,3.305133244951529e-06
6.308,3.308078964731414e-06
6.312,3.310862799460359e-06
6.316,3.3134878424705466e-06
6.32,3.3159578209049043e-06
6.324,3.318277011048796e-06
6.327999999999999,3.3204501509204872e-06
6.332000000000001,3.322482351609776e-06
6.336,3.324379009155971e-06
6.34,3.3261457187324347e-06
6.343999999999999,3.3277881926401935e-06
6.348,3.32931218317222e-06
6.352,3.33072341084553e-06
6.356,3.332027497926277e-06
6.36,3.3332299067347905e-06
6.364,3.334335881979119e-06
6.367999999999999,3.3353503963030683e-06
6.372000000000001,3.336278098314843e-06
6.376,3.3371232625857344e-06
6.38,3.3378897414603783e-06
6.3839999999999995,3.338580918943819e-06
6.388,3.339199667369928e-06
6.392,3.339748307965441e-06
6.396,3.3402285767156854e-06
6.4,3.340641596997028e-06
6.404,3.3409878602405293e-06
6.4079999999999995,3.3412672155266536e-06
6.412000000000001,3.3414788685916217e-06
6.416,3.3416213903127066e-06
6.42,3.341692734396647e-06
6.4239999999999995,3.341690263784813e-06
6.428,3.341610785166619e-06
6.432,3.341450590806636e-06
6.436,3.341205506550384e-06
6.44,3.340870944489017e-06
6.444,3.3404419585654574e-06
6.4479999999999995,3.3399133015085622e-06
6.452000000000001,3.3392794817484412e-06
6.456,3.3385348191480496e-06
6.46,3.3376734983827852e-06
6.4639999999999995,3.3366896187137316e-06
6.468,3.335577238908288e-06
6.472,3.3343304162944297e-06
6.476,3.33294323940731e-06
6.48,3.3314098542773956e-06
6.484,3.32972448492279e-06
6.4879999999999995,3.3278814488980264e-06
6.492000000000001,3.3258751688145792e-06
6.496,3.323700180724116e-06
6.5,3.3213511402969184e-06
6.504,3.3188228278574538e-06
6.507999999999999,3.3161101534636876e-06
6.5120000000000005,3.313208163273848e-06
6.516,3.310112048461833e-06
6.5200000000000005,3.306817157940613e-06
6.524,3.3033190160749914e-06
6.5280000000000005,3.299613346360734e-06
6.532,3.295696101777214e-06
6.5360000000000005,3.2915635023106175e-06
6.54,3.287212080029819e-06
6.5440000000000005,3.282638731980247e-06
6.547999999999999,3.277840780959879e-06
6.5520000000000005,3.2728160439976474e-06
6.556,3.26756290814557e-06
6.5600000000000005,3.262080413022248e-06
6.564,3.256368339364724e-06
6.5680000000000005,3.250427302659594e-06
6.572,3.2442588507711833e-06
6.5760000000000005,3.2378655643675263e-06
6.58,3.23125115880404e-06
6.5840000000000005,3.224420585895286e-06
6.587999999999999,3.217380133702967e-06
6.5920000000000005,3.2101375222155613e-06
6.596,3.2027019927508527e-06
6.6000000000000005,3.195084389142997e-06
6.604,3.1872972291544035e-06
6.6080000000000005,3.1793547648276094e-06
6.612,3.171273030513143e-06
6.6160000000000005,3.1630698771634686e-06
6.62,3.1547649913625335e-06
6.6240000000000006,3.146379897543177e-06
6.627999999999999,3.1379379418819357e-06
6.6320000000000014,3.129464256445696e-06
6.636,3.1209857023862215e-06
6.6400000000000015,3.1125307913819405e-06
6.644,3.104129585044869e-06
6.6480000000000015,3.0958135725511412e-06
6.652,3.0876155272247767e-06
6.6560000000000015,3.0795693431002095e-06
6.66,3.0717098525897042e-06
6.664,3.064072626417631e-06
6.667999999999999,3.0566937571063043e-06
6.672000000000001,3.049609627551654e-06
6.676,3.042856666563367e-06
6.68,3.036471093567554e-06
6.684,3.0304886548785643e-06
6.688,3.024944354033016e-06
6.692,3.019872178765223e-06
6.696000000000001,3.0153048274038416e-06
6.7,3.011273437754857e-06
6.704,3.0078073217573245e-06
6.707999999999999,3.0049337092150786e-06
6.712000000000001,3.0026775036930753e-06
6.716,3.0010610533182222e-06
6.72,3.0001039388605194e-06
6.724,2.999822781125917e-06
6.728,3.0002310693421747e-06
6.732,3.00133901189318e-06
6.736000000000001,3.0031534105736493e-06
6.74,3.0056775595689727e-06
6.744,3.00891117050717e-06
6.747999999999999,3.012850324967539e-06
6.752000000000001,3.0174874556463084e-06
6.756,3.0228113570079127e-06
6.76,3.0288072257691254e-06
6.763999999999999,3.0354567310268427e-06
6.768,3.0427381132880274e-06
6.772,3.0506263111105153e-06
6.776,3.05909311351339e-06
6.78,3.068107335795061e-06
6.784,3.0776350160101745e-06
6.787999999999999,3.0876396292093907e-06
6.792000000000001,3.098082316600672e-06
6.796,3.1089221268586445e-06
6.8,3.1201162667580203e-06
6.803999999999999,3.1316203582187058e-06
6.808,3.1433886989118574e-06
6.812,3.1553745238634725e-06
6.816,3.1675302658859822e-06
6.82,3.179807812984047e-06
6.824,3.1921587610882836e-06
6.827999999999999,3.204534660735955e-06
6.832000000000001,3.216887256760551e-06
6.836,3.2291687205446566e-06
6.84,3.2413318747005843e-06
6.843999999999999,3.2533304101010703e-06
6.848,3.2651190951103487e-06
6.852,3.2766539768099865e-06
6.856,3.2878925740003624e-06
6.86,3.298794061692834e-06
6.864,3.30931944660509e-06
6.867999999999999,3.3194317328995963e-06
6.872000000000001,3.329096077273412e-06
6.876,3.33827993268865e-06
6.88,3.3469531804535005e-06
6.8839999999999995,3.3550882507312522e-06
6.888,3.3626602316377127e-06
6.892,3.369646966921291e-06
6.896,3.376029141994545e-06
6.9,3.381790357919329e-06
6.904,3.386917192848949e-06
6.9079999999999995,3.3913992504122106e-06
6.912000000000001,3.395229194619281e-06
6.916,3.3984027710405906e-06
6.92,3.400918814135787e-06
6.9239999999999995,3.4027792405797677e-06
6.928,3.4039890282282766e-06
6.932,3.4045561800856607e-06
6.936,3.404491672460239e-06
6.94,3.4038093865319052e-06
6.944,3.4025260227596625e-06
6.9479999999999995,3.400660997811709e-06
6.952000000000001,3.3982363239734743e-06
6.956,3.3952764712835394e-06
6.96,3.3918082129245966e-06
6.9639999999999995,3.3878604546104246e-06
6.968,3.3834640488525254e-06
6.972,3.3786515950627658e-06
6.976,3.3734572264524795e-06
6.98,3.36791638468266e-06
6.984,3.362065583337858e-06
6.9879999999999995,3.3559421616465905e-06
6.992000000000001,3.349584030401851e-06
6.996,3.343029412535168e-06
7.0,3.3363165810525673e-06
7.004,3.329483596982446e-06
7.007999999999999,3.322568049707293e-06
7.0120000000000005,3.31560680173437e-06
7.016,3.3086357397993083e-06
7.0200000000000005,3.301689534317346e-06
7.024,3.294801409538595e-06
7.0280000000000005,3.2880029270748085e-06
7.032,3.281323785525251e-06
7.0360000000000005,3.2747916387366624e-06
7.04,3.268431934917452e-06
7.0440000000000005,3.262267778481567e-06
7.047999999999999,3.256319816152506e-06
7.0520000000000005,3.2506061485282594e-06
7.056,3.245142267999761e-06
7.0600000000000005,3.23994102360965e-06
7.064,3.2350126130969716e-06
7.0680000000000005,3.2303646019733898e-06
7.072,3.2260019690499232e-06
7.0760000000000005,3.2219271774528575e-06
7.08,3.218140269859859e-06
7.0840000000000005,3.214638986407456e-06
7.087999999999999,3.211418903454631e-06
7.0920000000000005,3.2084735912025665e-06
7.096,3.205794788109309e-06
7.1000000000000005,3.203372590018747e-06
7.104,3.201195651806448e-06
7.1080000000000005,3.199251399068344e-06
7.112,3.1975262470109783e-06
7.1160000000000005,3.196005823372353e-06
7.12,3.1946751919956656e-06
7.1240000000000006,3.1935190736286666e-06
7.127999999999999,3.192522060653918e-06
7.1320000000000014,3.191668822765716e-06
7.136,3.1909443010218923e-06
7.1400000000000015,3.190333888078647e-06
7.144,3.189823592624298e-06
7.1480000000000015,3.189400185976497e-06
7.152,3.1890513285160084e-06
7.1560000000000015,3.1887656732549977e-06
7.16,3.1885329436534794e-06
7.1640000000000015,3.1883439830911577e-06
7.167999999999999,3.18819077431505e-06
7.172000000000001,3.188066428615958e-06
7.176,3.1879651461473962e-06
7.18,3.1878821503692884e-06
7.184,3.1878136008502665e-06
7.188,3.187756489475597e-06
7.192,3.187708525465798e-06
7.196000000000001,3.187668014612192e-06
