3.8101613668313103e-07,6.162899622510764e-07,8.119477079708494e-07,1.612179743795388e-05
3.8641082033361895e-07,6.23424552792114e-07,8.249628044085996e-07,1.5973533436719873e-05
3.9170516537296993e-07,6.30460877541831e-07,8.382606289460547e-07,1.5837531149649007e-05
3.968776204518858e-07,6.373569407180233e-07,8.518128029575655e-07,1.5713879769636607e-05
4.019101461702536e-07,6.440714118988747e-07,8.655868446721709e-07,1.5602471773691477e-05
4.0678853087263385e-07,6.505657018939577e-07,8.795428832568079e-07,1.550304993297124e-05
4.115017309026399e-07,6.568040130198919e-07,8.936335738113035e-07,1.5415290451540783e-05
4.160392192453891e-07,6.62752809121755e-07,9.078049769762741e-07,1.5338937582963285e-05
4.2038891521541573e-07,6.683810705862018e-07,9.21997802439969e-07,1.5273922285798176e-05
4.2453718345541273e-07,6.736596661550792e-07,9.3614874264772e-07,1.5220359413887165e-05
4.2846926938916e-07,6.78559605926955e-07,9.501907959530416e-07,1.5178448280285093e-05
4.321698238024245e-07,6.830516219389586e-07,9.640533343225643e-07,1.5148384068739187e-05
4.356248632840494e-07,6.871084353007856e-07,9.776646920258474e-07,1.5130304870332288e-05
4.3882387997837493e-07,6.907087506195716e-07,9.90958774300711e-07,1.5124227320275345e-05
4.4175909092937745e-07,6.938407826031747e-07,1.003883630773113e-06,1.512997032679307e-05
4.4442258156994533e-07,6.965043947970411e-07,1.0164081927055498e-06,1.5147115936930987e-05
4.4680503135652246e-07,6.98712379710464e-07,1.02852239359753e-06,1.5175025548812494e-05
4.488968322185268e-07,7.004895750647487e-07,1.0402280164339356e-06,1.5212891168547312e-05
4.5068915731235894e-07,7.018679732724507e-07,1.0515265045920902e-06,1.525979280901428e-05
4.521741554588285e-07,7.028813884729318e-07,1.0624135775363978e-06,1.531474174384825e-05
4.5334523835922355e-07,7.035647096075598e-07,1.0728822358067567e-06,1.5376706513743563e-05
4.5419699074534205e-07,7.039544567607006e-07,1.0829271098647163e-06,1.5444628331272296e-05
4.547244265253524e-07,7.040865670832702e-07,1.0925432517831571e-06,1.5517461919834204e-05
4.5492246199986287e-07,7.039974001100231e-07,1.1017201389029074e-06,1.5594338356313528e-05
4.547856262461321e-07,7.037326750444967e-07,1.110436969919945e-06,1.5674882027501417e-05
4.5430803828349857e-07,7.033555221256531e-07,1.1186624178401812e-06,1.5759468618871744e-05
4.534841029639741e-07,7.029433297683753e-07,1.1263576024367214e-06,1.5849172153529273e-05
4.523095099851288e-07,7.025774406558079e-07,1.1334794655845512e-06,1.5945458393830724e-05
4.507822624420676e-07,7.023353795914815e-07,1.1399823386081603e-06,1.6049847895583062e-05
4.4890440797521746e-07,7.022869182819164e-07,1.1458189036085053e-06,1.616369179826633e-05
4.466835798328512e-07,7.024921195219757e-07,1.1509432962251793e-06,1.628821315245517e-05
4.441327501473544e-07,7.030010407447394e-07,1.1553154307909446e-06,1.6424829492052523e-05
4.4127023922861536e-07,7.038529381257198e-07,1.1589032494422878e-06,1.6575397903349893e-05
4.381214778264201e-07,7.05074118734618e-07,1.1616826061220058e-06,1.6742104362291073e-05
4.347191794122549e-07,7.066771956307438e-07,1.1636364097095942e-06,1.6927192757941772e-05
4.3110045576621467e-07,7.08662879408878e-07,1.1647538068444222e-06,1.7132787537263272e-05
4.273039496534575e-07,7.110220988159637e-07,1.165031895012008e-06,1.7360789238273815e-05
4.2336880256058843e-07,7.1373731782199e-07,1.164481437536294e-06,1.761274038449304e-05
4.1933478164087843e-07,7.167835136787496e-07,1.1631324775127877e-06,1.7889656784669708e-05
4.152431145704818e-07,7.201287427994336e-07,1.1610353610872908e-06,1.8191889853605426e-05
4.111367673939397e-07,7.237358084690821e-07,1.1582575709696327e-06,1.8519078225171305e-05
4.070582101111113e-07,7.275668852200764e-07,1.1548782871517649e-06,1.88701941592743e-05
4.030458765120699e-07,7.315883382626515e-07,1.1509803723999931e-06,1.9243644169789042e-05
3.991330928513986e-07,7.357725635488927e-07,1.1466426845249764e-06,1.9637381644497504e-05
3.953503981515994e-07,7.400989443317217e-07,1.1419393082224634e-06,2.004901330236187e-05
3.917271664283061e-07,7.445546110643351e-07,1.136943946389836e-06,2.047589901972139e-05
3.882896664715007e-07,7.491320399352128e-07,1.1317305496544012e-06,2.0915253030978493e-05
3.8505859724126895e-07,7.538243898934995e-07,1.1263693118024816e-06,2.136424281937057e-05
3.820496915898329e-07,7.586211443273301e-07,1.120925411902245e-06,2.182007085726808e-05
3.792765323181062e-07,7.635044678537585e-07,1.1154617191798167e-06,2.2280040695291765e-05
3.767517483557085e-07,7.684475236550205e-07,1.1100389989559031e-06,2.274160302882569e-05
3.744853405543855e-07,7.734160856872905e-07,1.1047128332917394e-06,2.3202359364847547e-05
3.724834799979449e-07,7.783730975640554e-07,1.0995339538334985e-06,2.366002442305332e-05
3.707498949942008e-07,7.832835631566607e-07,1.0945554303398669e-06,2.411236722425073e-05
3.692885139551409e-07,7.88115423422078e-07,1.0898424422039987e-06,2.455714481956495e-05
3.681050063764623e-07,7.928359979737709e-07,1.0854771446974282e-06,2.4992052315742362e-05
3.672050325372183e-07,7.974087693745218e-07,1.0815547434099987e-06,2.541474486770071e-05
3.665906242536214e-07,8.017932499627741e-07,1.078173040417689e-06,2.5822970242455288e-05
3.662583619529514e-07,8.059461225580792e-07,1.0754204987497651e-06,2.62147243848898e-05
3.661993081887378e-07,8.098217376598207e-07,1.0733665885592225e-06,2.6588289432837767e-05
3.6639920976419407e-07,8.133725045602971e-07,1.072056076969673e-06,2.69421759736284e-05
3.6683936448676436e-07,8.165503764573455e-07,1.0715085145936731e-06,2.727509177987649e-05
3.674980830387021e-07,8.193089240077829e-07,1.0717241082262584e-06,2.758594543807489e-05
3.6835196938089386e-07,8.216056514313277e-07,1.0726931772167378e-06,2.7873818855278315e-05
3.6937730120988105e-07,8.234050970288945e-07,1.074401887759536e-06,2.813789113838341e-05
3.70551687166012e-07,8.246810424637103e-07,1.076831084413507e-06,2.8377354899006456e-05
3.7185432051077753e-07,8.2541665739072e-07,1.0799525572863528e-06,2.8591386422597938e-05
3.732644066860961e-07,8.256046858280555e-07,1.0837272719436612e-06,2.877917727853014e-05
3.747603089138477e-07,8.25247519724939e-07,1.0881059696827714e-06,2.8939979272975957e-05
3.763201254885496e-07,8.243544395330051e-07,1.093030690230557e-06,2.907316685036611e-05
3.779227808469298e-07,8.229375225884929e-07,1.098436463471596e-06,2.9178364740348748e-05
3.795498311174741e-07,8.210093778689329e-07,1.104252503126112e-06,2.9255584288098766e-05
3.811861492734953e-07,8.185833920298173e-07,1.1104029801841295e-06,2.9305237952468183e-05
3.8281808411322286e-07,8.156779485842431e-07,1.116808958371442e-06,2.9328013659036888e-05
3.844317750861901e-07,8.123219097104468e-07,1.1233898832708777e-06,2.9324702639317103e-05
3.8601290491337977e-07,8.085538332827424e-07,1.130062162806401e-06,2.929605800766316e-05
3.8754717161068e-07,8.044162112532406e-07,1.1367383839679292e-06,2.9242713745616994e-05
3.890222389424749e-07,7.999527619950871e-07,1.1433313219322368e-06,2.91651644344185e-05
3.904301720049557e-07,7.952111147234231e-07,1.1497609991820908e-06,2.9063797818383196e-05
3.9176713505344985e-07,7.902491078554015e-07,1.1559593636596965e-06,2.8939038444826995e-05
3.930309145056819e-07,7.851414514645564e-07,1.1618684026909235e-06,2.8791665178615808e-05
3.942198915980474e-07,7.799788938395882e-07,1.1674333839746572e-06,2.862312545445083e-05
3.953330385813503e-07,7.748556191222438e-07,1.1725976664213646e-06,2.843555281426082e-05
3.963684639729772e-07,7.698554873551423e-07,1.1773033026575337e-06,2.823149699304637e-05
3.9732174307197645e-07,7.650487814584131e-07,1.1814968247593288e-06,2.8013607759897443e-05
3.98186585503013e-07,7.604952076807443e-07,1.1851380315370006e-06,2.7784425213876476e-05
3.989574516307972e-07,7.562449746118763e-07,1.1882081283985129e-06,2.7546369076103572e-05
3.9963079559156936e-07,7.523385655525861e-07,1.1907109220561792e-06,2.730197085419383e-05
4.0020355207435156e-07,7.488068860947415e-07,1.1926639379939557e-06,2.7054153778162044e-05
4.006715033592193e-07,7.45669992337932e-07,1.1940850780930798e-06,2.6806290899456986e-05
4.010292358974029e-07,7.42935782852637e-07,1.1949844006397192e-06,2.6562050635061943e-05
4.012709336988087e-07,7.406025597257012e-07,1.1953652007721059e-06,2.6325194334896e-05
4.0139135876223407e-07,7.386640727684784e-07,1.1952303192473465e-06,2.6099394170729346e-05
4.0138650367177684e-07,7.371138824908755e-07,1.1945866972377131e-06,2.5888078347023795e-05
4.012532811787024e-07,7.35950832807355e-07,1.193444411482621e-06,2.569430005584425e-05
4.009890385325976e-07,7.351843790188584e-07,1.191811566735801e-06,2.552062661524632e-05
4.00592096980639e-07,7.348331845465965e-07,1.189689774346497e-06,2.536907683490837e-05
4.000621428362269e-07,7.349171372238482e-07,1.1870736498528178e-06,2.5241120232384085e-05
3.9939896322524537e-07,7.354490981585231e-07,1.1839538039769894e-06,2.513768667892234e-05
3.986012537073781e-07,7.364301899944599e-07,1.1803202387767422e-06,2.5059153143935228e-05
3.976683491964696e-07,7.378502336655349e-07,1.1761635753967765e-06,2.500534173291429e-05
3.966032791464775e-07,7.396919889490866e-07,1.171476761248025e-06,2.4975553693767824e-05
3.9541257559211186e-07,7.419338160557982e-07,1.1662622094388628e-06,2.496865828652309e-05
3.941034660246773e-07,7.445493724719609e-07,1.1605416038829984e-06,2.4983257674296452e-05
3.926826071660898e-07,7.475087355040277e-07,1.1543596251370009e-06,2.5017866102902303e-05
3.911563442999262e-07,7.507814642302972e-07,1.1477773808991743e-06,2.507100933034356e-05
3.895305311100696e-07,7.54338827383607e-07,1.1408604733249833e-06,2.514124828547085e-05
3.878103807023056e-07,7.58155594637841e-07,1.133672239222578e-06,2.5227186539457005e-05
3.860016100030421e-07,7.622115144647949e-07,1.126276845006314e-06,2.5327474268114866e-05
3.841117892534514e-07,7.664911698125466e-07,1.1187462473702852e-06,2.544079471542131e-05
3.821493983152939e-07,7.709836885762705e-07,1.1111638964957925e-06,2.5565838256632395e-05
3.8012157674972315e-07,7.756835716327213e-07,1.1036232190792151e-06,2.570126299789761e-05
3.7803372236055615e-07,7.805896073089456e-07,1.096223649040671e-06,2.584563301478569e-05
3.758905950797389e-07,7.856993051893635e-07,1.089067870107936e-06,2.599737096635167e-05
3.736966751662065e-07,7.910021134485151e-07,1.0822589393366418e-06,2.615477214312323e-05
3.7145588240835475e-07,7.964774881429275e-07,1.075894174277923e-06,2.6316052393415578e-05
3.691715871605714e-07,8.020995930570665e-07,1.0700576442907792e-06,2.6479378558217263e-05
3.6684632446050406e-07,8.078443393330274e-07,1.0648159220344494e-06,2.6642882486156948e-05
3.6448166525436637e-07,8.136941882542352e-07,1.0602192714909582e-06,2.680468888198036e-05
3.6207996935599325e-07,8.196391989048055e-07,1.0563068460677453e-06,2.6962969749270584e-05
3.5964639968720094e-07,8.256740471254402e-07,1.0531118578692926e-06,2.711597607528425e-05
3.5718812274128205e-07,8.317924994136241e-07,1.0506623152377286e-06,2.726198849630924e-05
3.5471218490886213e-07,8.379818753404204e-07,1.0489772577055175e-06,2.7399245685863065e-05
3.5222500165937025e-07,8.442196034954003e-07,1.0480630850830535e-06,2.7525958135234636e-05
3.497329702966337e-07,8.504733078080394e-07,1.047912087767588e-06,2.7640396956051905e-05
3.472430586256629e-07,8.567030983113055e-07,1.0485013604839955e-06,2.774099325077211e-05
3.447631156867612e-07,8.628638550849627e-07,1.04979266271407e-06,2.782646761389743e-05
3.423021026766639e-07,8.689067967627209e-07,1.0517346179016864e-06,2.7895984560466863e-05
3.398711812623245e-07,8.747816618807501e-07,1.0542651182838656e-06,2.794919721914204e-05
3.374847369996571e-07,8.804425422930979e-07,1.0573123153629988e-06,2.7986100070576506e-05
3.351590612674592e-07,8.858543008341698e-07,1.0607952264091384e-06,2.8006805852518605e-05
3.329093860323503e-07,8.909921054764048e-07,1.0646248935677877e-06,2.8011421204854967e-05
3.3074820727307646e-07,8.958361810162926e-07,1.06870643015763e-06,2.8000055748751464e-05
3.286860909770204e-07,9.003694928084273e-07,1.072941693320146e-06,2.797286231032638e-05
3.2673341788436605e-07,9.045793224264984e-07,1.0772313444759815e-06,2.793001763764596e-05
3.2490057934225037e-07,9.084598726530823e-07,1.0814765516890392e-06,2.7871691173714147e-05
3.2319637812973424e-07,9.12013464632001e-07,1.0855833265308935e-06,2.7798171137885436e-05
3.2162693513908683e-07,9.15248196738289e-07,1.0894690739008086e-06,2.7710147331798858e-05
3.201958048491245e-07,9.181727334696324e-07,1.0930650552003e-06,2.7608865210789723e-05
3.189043428283147e-07,9.207919740652722e-07,1.09631232892199e-06,2.7495992334914802e-05
3.1775261768391125e-07,9.231073475917145e-07,1.0991575320806493e-06,2.737335715541463e-05
3.167404503834102e-07,9.251204557876324e-07,1.1015544846221512e-06,2.724274178733636e-05
3.1586745275324915e-07,9.268348707215336e-07,1.1034694697324196e-06,2.710581908955343e-05
3.1513309669848306e-07,9.282547496724272e-07,1.104884735812598e-06,2.696431053272105e-05
3.145376908649032e-07,9.29382109020368e-07,1.105798175965e-06,2.682025772161527e-05
3.140828796111516e-07,9.302139829675184e-07,1.106219480687724e-06,2.6676121938058937e-05
3.137701328072794e-07,9.307409271668301e-07,1.1061641062256908e-06,2.6534648581676115e-05
3.135984895698072e-07,9.309478326567615e-07,1.1056482121694905e-06,2.6398676455039e-05
3.1356464424141256e-07,9.308171629182348e-07,1.1046865108378392e-06,2.627099407490564e-05
3.136645556995181e-07,9.303332010822245e-07,1.1032925253562629e-06,2.615422734475533e-05
3.1389323641812246e-07,9.294837586403999e-07,1.1014810017209806e-06,2.6050732252129567e-05
3.142435497337145e-07,9.282580098958543e-07,1.0992710617523621e-06,2.5962503217725752e-05
3.147066438594431e-07,9.266436646379084e-07,1.0966881492004937e-06,2.5891134521318923e-05
3.1527361658810586e-07,9.246267113994619e-07,1.0937652981673228e-06,2.5837837222417675e-05
3.1593685209357837e-07,9.221927120412199e-07,1.0905426903810348e-06,2.580345669452651e-05
3.166903635500748e-07,9.193279462353723e-07,1.0870634571038507e-06,2.5788442501037e-05
3.175290645406485e-07,9.160220636871021e-07,1.0833681564936268e-06,2.579278720795917e-05
3.184478657765139e-07,9.122717545121019e-07,1.079491941451018e-06,2.5815987364327054e-05
3.194411272599792e-07,9.08080641540052e-07,1.075464675892642e-06,2.5857076401362355e-05
3.2050198523832536e-07,9.034550048048964e-07,1.0713105210888008e-06,2.5914751570655967e-05
3.216223101438234e-07,8.98401212536035e-07,1.0670462191691808e-06,2.598754813170951e-05
3.227936804295345e-07,8.929271116274074e-07,1.0626824400314445e-06,2.607397450246102e-05
3.24007855145413e-07,8.870441010084173e-07,1.0582285221798691e-06,2.617258937929337e-05
3.2525634674964514e-07,8.80768130314041e-07,1.053695536575242e-06,2.628206853244743e-05
3.2653032218997546e-07,8.741196327781317e-07,1.0490969773625195e-06,2.640126260406457e-05
3.278215991979388e-07,8.671225422219584e-07,1.0444496604087864e-06,2.6529208205050104e-05
3.2912417336181533e-07,8.598031684582716e-07,1.039773985453586e-06,2.6665099918204823e-05
3.304352184141303e-07,8.5218886184212e-07,1.035091572724897e-06,2.680823972546295e-05
3.3175505460571226e-07,8.443064548427867e-07,1.030420522033284e-06,2.6957939423492785e-05
3.330856999223718e-07,8.36181295412613e-07,1.0257709850617545e-06,2.7113386691527004e-05
3.3442829866597296e-07,8.278361712999848e-07,1.0211440332533308e-06,2.727357845989959e-05
3.357809116846258e-07,8.192894651855018e-07,1.0165326902305208e-06,2.7437372700735283e-05
3.3713776962103574e-07,8.105544071050947e-07,1.0119224573145462e-06,2.7603557906675966e-05
3.384900623559809e-07,8.016406016202285e-07,1.0072932976073976e-06,2.7770863572859442e-05
3.398274889457045e-07,7.925580008080309e-07,1.0026257758175794e-06,2.7937955501717567e-05
3.411393994237816e-07,7.833241144217617e-07,9.979071445074082e-07,2.810345483206312e-05
3.424153071762103e-07,7.739709400706804e-07,9.93131240890867e-07,2.8265966500507788e-05
3.436457726856077e-07,7.64544203477426e-07,9.882955079857806e-07,2.842413502386424e-05
3.4482419638418705e-07,7.550943860524556e-07,9.834015507492882e-07,2.857674999465037e-05
3.459484442452384e-07,7.45668023230118e-07,9.784566900349978e-07,2.8722828585771905e-05
3.470213199455997e-07,7.363048678508559e-07,9.73473553306002e-07,2.8861612397939766e-05
3.480497220730096e-07,7.270378196168732e-07,9.684699026540623e-07,2.8992515219988014e-05
3.490422966453226e-07,7.178918776914038e-07,9.634678707168144e-07,2.9115056643259858e-05
3.500067264324192e-07,7.088831714737341e-07,9.584908391239037e-07,2.922877667867992e-05
3.509480602224116e-07,7.000196402835082e-07,9.535593463351593e-07,2.9333135143382787e-05
3.518680672254174e-07,6.913032133576378e-07,9.48687360793256e-07,2.9427441315273328e-05
3.5276633127544154e-07,6.827343142074699e-07,9.43880290782984e-07,2.9510873106380066e-05
3.5364320102646777e-07,6.743186294969815e-07,9.391352716879408e-07,2.958258002226109e-05
3.5450225369303216e-07,6.660710969303122e-07,9.344425267332008e-07,2.9641795977599743e-05
3.5535059571289427e-07,6.580122864389322e-07,9.297885473059904e-07,2.968790190802207e-05
3.5619741569688907e-07,6.501611200405007e-07,9.251620182880301e-07,2.97204279764313e-05
3.570518350381874e-07,6.425338371984795e-07,9.205587386530232e-07,2.9739029389950185e-05
3.5792149781241386e-07,6.351527747688866e-07,9.159812880480076e-07,2.974351458772344e-05
3.588128841112565e-07,6.28054599668806e-07,9.114346921663857e-07,2.973392987606048e-05
3.597316788812711e-07,6.212867867756429e-07,9.069218269124279e-07,2.971058321169768e-05
3.606820798704282e-07,6.148977271804582e-07,9.02440718531335e-07,2.9673977104008563e-05
3.6166786171000796e-07,6.089316520297616e-07,8.979851164294815e-07,2.9624733168042658e-05
3.626961325388547e-07,6.034279930536962e-07,8.935470792348606e-07,2.9563532897350543e-05
3.637798690169765e-07,5.984192309218039e-07,8.891181534263806e-07,2.9491058545732677e-05
3.649365186453407e-07,5.93927339437183e-07,8.846898045216234e-07,2.940794518278252e-05
3.661847238559072e-07,5.899631020479407e-07,8.802544157627025e-07,2.931475014746578e-05
3.6754186527808924e-07,5.865288663074163e-07,8.758045338501573e-07,2.9211931432449543e-05
3.6902249410117226e-07,5.836218680139055e-07,8.713321140811517e-07,2.9099839493216686e-05
3.706372434082575e-07,5.812369851298842e-07,8.668321863046189e-07,2.89787186248658e-05
3.723918009574013e-07,5.793679681547861e-07,8.623085715497423e-07,2.884869312146601e-05
3.7428612026049625e-07,5.780055651721622e-07,8.577767850277627e-07,2.8709739907108814e-05
3.7631532872241933e-07,5.771345390490197e-07,8.532638283317918e-07,2.8561675228040246e-05
3.78472066145681e-07,5.767320035953705e-07,8.488050847906499e-07,2.8404169230384386e-05
3.8074807783985686e-07,5.767673066183133e-07,8.444373040472801e-07,2.82367981306337e-05
3.831337142040325e-07,5.772048630158229e-07,8.40190974684548e-07,2.805912417890628e-05
3.856165324211836e-07,5.780095507992534e-07,8.360867291124129e-07,2.7870744436619207e-05
3.8818168080452966e-07,5.79151187905389e-07,8.321351566678264e-07,2.767128412015517e-05
3.9081422212447536e-07,5.806070902741919e-07,8.283379087207373e-07,2.7460391705914125e-05
3.935004337688146e-07,5.823632051603649e-07,8.246895490333659e-07,2.723777592407712e-05
3.9622657839433457e-07,5.844116628937293e-07,8.211796638056271e-07,2.700325175940748e-05
3.9897726935822e-07,5.867445823255375e-07,8.17794532818051e-07,2.675674676718327e-05
4.017352931845843e-07,5.893486586715119e-07,8.145173101552337e-07,2.649827103092811e-05
4.0448228173430117e-07,5.922040398332896e-07,8.113275354202388e-07,2.6227893063920607e-05
4.071994113015525e-07,5.952872973394807e-07,8.082020432348581e-07,2.594574979580259e-05
4.0986763582636397e-07,5.985753060066352e-07,8.051169663361134e-07,2.5652088660698084e-05
4.124675164690196e-07,6.020471108970688e-07,8.020502919332462e-07,2.5347312773426682e-05
4.1497948962240344e-07,6.056836895380042e-07,7.989856341734011e-07,2.503199043651305e-05
4.17384678540145e-07,6.094659183478235e-07,7.959164694487169e-07,2.470681863132988e-05
4.196652418083778e-07,6.133726361626459e-07,7.928495225556112e-07,2.437256724817328e-05
4.21803844590472e-07,6.173811005571738e-07,7.898068338347348e-07,2.4030029951817694e-05
4.2378401877959945e-07,6.214679233347007e-07,7.868255257205379e-07,2.368000851291693e-05
4.255918218176092e-07,6.256086304258517e-07,7.839538812825881e-07,2.332334734490936e-05
4.2721602830028035e-07,6.297768318853497e-07,7.812436634723955e-07,2.2960948235434685e-05
4.286470732993733e-07,6.339436247976461e-07,7.787414864987584e-07,2.259370105598796e-05
4.2987795006986075e-07,6.380775829394847e-07,7.76483225473285e-07,2.2222406699548786e-05
4.309067421508073e-07,6.421476251037949e-07,7.74492437357028e-07,2.1847766235457637e-05
4.317374562469368e-07,6.461316194371501e-07,7.727816187080712e-07,2.1470394535594884e-05
4.323779356478193e-07,6.500264792447902e-07,7.713552020961905e-07,2.1090823479687898e-05
4.328374873720234e-07,6.538492803049589e-07,7.702120792458028e-07,2.0709526898145775e-05
4.3312632593662264e-07,6.576276162214474e-07,7.693455953135179e-07,2.0326983926465522e-05
4.3325524043177816e-07,6.613890207608248e-07,7.687419545572542e-07,1.9943750377771928e-05
4.3323434134347656e-07,6.651563491969679e-07,7.68379918091386e-07,1.956051172754344e-05
4.330720557906626e-07,6.689464332914065e-07,7.682326903856392e-07,1.917810215107268e-05
4.3277476199954794e-07,6.727685248070222e-07,7.682707389388523e-07,1.8797468032595183e-05
4.323466075835802e-07,6.766231697513554e-07,7.684646499058673e-07,1.8419579378647612e-05
4.317898664240833e-07,6.805027495687767e-07,7.687872254201784e-07,1.804532894835664e-05
4.3110624817697975e-07,6.84395889549334e-07,7.692144712954814e-07,1.7675476181528368e-05
4.302980627424197e-07,6.882962034572814e-07,7.697254247861634e-07,1.731068497176794e-05
4.2936784613629756e-07,6.922079828775243e-07,7.703010589395477e-07,1.695163101733551e-05
4.283171326479625e-07,6.961421850324e-07,7.709249494286933e-07,1.659907967115337e-05
4.271455918425572e-07,7.001077187634033e-07,7.715859750072158e-07,1.6253888819709366e-05
4.2585065258366923e-07,7.041069614450993e-07,7.722779952989294e-07,1.5916981613585512e-05
4.244278950119724e-07,7.081395029213803e-07,7.729965878691184e-07,1.5589315350352398e-05
4.228725260172182e-07,7.122144738917111e-07,7.737386091019195e-07,1.5271839056315933e-05
4.2118132500150815e-07,7.163647903410539e-07,7.74504056073565e-07,1.4965455134229057e-05
4.1935396402952597e-07,7.206493411792716e-07,7.752953391347381e-07,1.4671009157767966e-05
4.173929792132242e-07,7.251389225558448e-07,7.761132826994187e-07,1.4389307277913779e-05
4.153030462361286e-07,7.2989974795338e-07,7.769528810046251e-07,1.4121123324379825e-05
4.130914158881014e-07,7.349863129496261e-07,7.778019191115278e-07,1.3867156275318964e-05
4.107689678423356e-07,7.404397195110659e-07,7.78643003528176e-07,1.362795731252754e-05
4.0834934949174656e-07,7.462850579143037e-07,7.794562705218901e-07,1.3403874647365026e-05
4.0584742085042813e-07,7.525288682269181e-07,7.802203238471976e-07,1.31950258921343e-05
4.0327892988879096e-07,7.591591715841156e-07,7.809120921184656e-07,1.3001303321314881e-05
4.0066035658764685e-07,7.661478718257409e-07,7.815067268863389e-07,1.282244991250685e-05
3.98009345846416e-07,7.734548131241362e-07,7.81977253438444e-07,1.2658175783476755e-05
3.9534531408678477e-07,7.810321847806927e-07,7.822944990206408e-07,1.2508193808814164e-05
3.926880072564689e-07,7.888267225287256e-07,7.824287805768051e-07,1.2372154388071852e-05
3.900558925098742e-07,7.967799764982845e-07,7.823525715092694e-07,1.2249607572605361e-05
3.8746724991168707e-07,8.0482940641007e-07,7.820422212451515e-07,1.2140061660585535e-05
3.84942498817441e-07,8.129095230078431e-07,7.814796709854795e-07,1.2043100301145364e-05
3.825048979516039e-07,8.209519902709194e-07,7.806546685851239e-07,1.1958521249616955e-05
3.801796854516778e-07,8.288881587714063e-07,7.795645036535401e-07,1.1886426704114545e-05
3.7799363177969256e-07,8.366543994084565e-07,7.782107458325569e-07,1.1827187096776574e-05
3.7597472043679617e-07,8.441955292947844e-07,7.765981487501457e-07,1.1781312901408307e-05
3.741496920757838e-07,8.514662803741551e-07,7.747383316285355e-07,1.1749311965694577e-05
3.725400308073044e-07,8.584336120767913e-07,7.726527145749619e-07,1.1731560681983087e-05
3.711600525963128e-07,8.650769442167614e-07,7.703697025851081e-07,1.1728210945078962e-05
3.700189436344439e-07,8.713828129114259e-07,7.679183986228215e-07,1.1739160957128433e-05
3.691245299820714e-07,8.773373170154958e-07,7.653231732202827e-07,1.1764108478049075e-05
3.6848454139688384e-07,8.829215600406076e-07,7.626008272571346e-07,1.1802730253960264e-05
3.681045141026005e-07,8.881106276356042e-07,7.597606392308412e-07,1.1854989626059282e-05
3.679854807606878e-07,8.928745470749066e-07,7.568066288504664e-07,1.1921379142472227e-05
3.681231721096754e-07,8.971811494908638e-07,7.537400095284001e-07,1.2002877533447452e-05
3.685089819418052e-07,9.009998411738644e-07,7.505606166833849e-07,1.2100677241396028e-05
3.6913226901967604e-07,9.043039962913946e-07,7.472679026552241e-07,1.2215878864222945e-05
3.699817311968628e-07,9.070715801253323e-07,7.438619062092558e-07,1.2349293193731917e-05
3.7104455094415216e-07,9.092846335311676e-07,7.403435623224112e-07,1.250151191805756e-05
3.723046708516893e-07,9.109278582211121e-07,7.367137483785156e-07,1.2673251172991608e-05
3.7374253663781406e-07,9.119877176605572e-07,7.329733381168266e-07,1.2865646418196346e-05
3.7533693579139964e-07,9.124534131158107e-07,7.29128859033105e-07,1.3080255370455475e-05
3.770664961997322e-07,9.123175160377744e-07,7.252023226919609e-07,1.3318868424246456e-05
3.789091279730681e-07,9.115741740625224e-07,7.212359171097757e-07,1.3583292693336528e-05
3.8084123259043383e-07,9.102186108883634e-07,7.172861969710689e-07,1.3875166430788171e-05
3.8283843233214775e-07,9.082503805970345e-07,7.134126345919548e-07,1.4195813553622968e-05
3.8487732079567407e-07,9.056753848889698e-07,7.096691409009727e-07,1.454613370769008e-05
3.869366927204307e-07,9.025037261919887e-07,7.061035279746753e-07,1.4926517223409397e-05
3.889972970134871e-07,8.987486081171131e-07,7.027614437748385e-07,1.5336782513604346e-05
3.9104144843048787e-07,8.944293879905796e-07,6.996869399680547e-07,1.577614036294167e-05
3.930532667235682e-07,8.895732275229269e-07,6.96919120590946e-07,1.6243196344373323e-05
3.950178811855606e-07,8.84210820791382e-07,6.944906331406892e-07,1.6735993442364232e-05
3.969197880607132e-07,8.783702454417788e-07,6.924292463104104e-07,1.7252075894230208e-05
3.9874218447139725e-07,8.720758427765991e-07,6.907586682878197e-07,1.7788565347842552e-05
4.004670934371591e-07,8.653554333596385e-07,6.894978647495164e-07,1.834226498367189e-05
4.020753669775097e-07,8.582531163763756e-07,6.886621564881232e-07,1.8909806673146224e-05
4.0354676116547253e-07,8.508377514101549e-07,6.882654812574191e-07,1.948781405757582e-05
4.048604822570816e-07,8.431984281744682e-07,6.883194307360064e-07,2.0073017602367188e-05
4.059960415541007e-07,8.35430918869146e-07,6.88830509947819e-07,2.0662292287029266e-05
4.069346459829716e-07,8.276274022464413e-07,6.898005763512131e-07,2.125263740888741e-05
4.076616865659775e-07,8.198764117218567e-07,6.912286534326656e-07,2.184112766728122e-05
4.08168610646026e-07,8.122701889461956e-07,6.931124359964802e-07,2.2424870303144927e-05
4.0845158533753073e-07,8.049108896864657e-07,6.954545737065095e-07,2.3000988641868445e-05
4.0850873633398855e-07,7.979069509159559e-07,6.982729122244564e-07,2.356661092125761e-05
4.083393849944133e-07,7.913599976754224e-07,7.016049387842191e-07,2.411886597483205e-05
4.079442335940649e-07,7.853533997440384e-07,7.055014542041149e-07,2.46549421514855e-05
4.073246806165235e-07,7.799490025564546e-07,7.100150296897431e-07,2.517220591617488e-05
4.0648274108097356e-07,7.751878966903155e-07,7.151923302973675e-07,2.5668290628030995e-05
4.054224810941247e-07,7.710917895430844e-07,7.210723932598094e-07,2.614111673038933e-05
4.041511738389631e-07,7.676649390477164e-07,7.276846135826455e-07,2.6588873556962413e-05
4.0267842199411306e-07,7.648963539276297e-07,7.350432647486066e-07,2.700997696805248e-05
4.010138073817557e-07,7.627633397086317e-07,7.431431969099712e-07,2.740300711006626e-05
3.991651720431368e-07,7.612363962785433e-07,7.519607721673042e-07,2.776664844550145e-05
3.971388965136535e-07,7.602820472134746e-07,7.614596181151713e-07,2.80996957311396e-05
3.9494194296339025e-07,7.598624428575761e-07,7.715982240349888e-07,2.8401196627703053e-05
3.9258396656109143e-07,7.599348625747846e-07,7.823350047747019e-07,2.8670657375580706e-05
3.9007755492960117e-07,7.604529493005094e-07,7.936281815714975e-07,2.8908129155784966e-05
3.8743671579818676e-07,7.613681472801471e-07,8.05432163001013e-07,2.9114129364114818e-05
3.8467508438274156e-07,7.626306116119794e-07,8.176957435089971e-07,2.9289497926270477e-05
3.818046497772987e-07,7.641902834421955e-07,8.303659311066353e-07,2.943525138867952e-05
3.788354031791644e-07,7.659969283527013e-07,8.433945493131285e-07,2.955244018075436e-05
3.757764681095004e-07,7.67999687561052e-07,8.56742400492699e-07,2.9642034355612842e-05
3.7263878769430203e-07,7.701501108979174e-07,8.703789605246546e-07,2.9704889543922387e-05
3.694374747467747e-07,7.724075433723285e-07,8.842776356400267e-07,2.9741788667769118e-05
3.661915309892845e-07,7.747408925345904e-07,8.984091483978252e-07,2.975347441791945e-05
3.629214346034204e-07,7.771251477247398e-07,9.127366661371452e-07,2.9740627389568323e-05
3.5964679367088147e-07,7.795356419685155e-07,9.272138903828529e-07,2.970383542349519e-05
3.5638568980016265e-07,7.819438283904221e-07,9.41787414392846e-07,2.9643662835790192e-05
3.531553977240633e-07,7.843176897542069e-07,9.564026409037536e-07,2.956090382991032e-05
3.499726196973683e-07,7.86626600240951e-07,9.710083999533027e-07,2.9456852752223744e-05
3.468527763954783e-07,7.888453738625461e-07,9.855580849466842e-07,2.933329377330255e-05
3.438091527775853e-07,7.909522181971044e-07,1.0000097072627436e-06,2.9192280238505274e-05
3.408522368283918e-07,7.929230621561966e-07,1.0143285761734523e-06,2.9036008515889875e-05
3.379893224414388e-07,7.947284517112199e-07,1.0284913043874951e-06,2.886679000391756e-05
3.352242574606793e-07,7.963342238119663e-07,1.0424833281044176e-06,2.8686977340031824e-05
3.325577027638285e-07,7.977040517637128e-07,1.0562892607936258e-06,2.849886228106533e-05
3.299885336875789e-07,7.988022201563887e-07,1.069884585471636e-06,2.830459072750983e-05
3.2751608865200034e-07,7.995947004220974e-07,1.0832331952249716e-06,2.8106100228374847e-05
3.251421345455185e-07,8.000483161828559e-07,1.0962899328671456e-06,2.790509479047851e-05
3.2287104561905753e-07,8.001301830301238e-07,1.1090053906692223e-06,2.770305082060064e-05
3.207081479639057e-07,7.99808418431917e-07,1.1213285903669405e-06,2.7501221354914568e-05
3.186580693524538e-07,7.990532306681151e-07,1.1332062812537605e-06,2.7300621786765545e-05
3.167240611003835e-07,7.978377133713934e-07,1.144582116851226e-06,2.7102017242072447e-05
3.149084744065105e-07,7.961389147991089e-07,1.1553981123275395e-06,2.6905937523047494e-05
3.13213974222887e-07,7.939406457250888e-07,1.165598289693179e-06,2.6712725927431408e-05
3.1164327426586863e-07,7.912369644331044e-07,1.1751330306667826e-06,2.652261290377918e-05
3.1019761022842326e-07,7.88032216914607e-07,1.18396199158683e-06,2.6335770224626582e-05
3.0887729142342136e-07,7.843374749732901e-07,1.1920546630716172e-06,2.615228865040532e-05
3.076835575868033e-07,7.801683129395491e-07,1.1993884489097391e-06,2.5972108351089292e-05
3.066179465571254e-07,7.755458771028964e-07,1.2059451444095218e-06,2.579499086376012e-05
3.056797812965793e-07,7.705000896073102e-07,1.211709018113168e-06,2.562055258473977e-05
3.0486564545144445e-07,7.650745332908619e-07,1.2166683593688596e-06,2.544831878160696e-05
3.041722486334221e-07,7.5932921136716e-07,1.2208180495864695e-06,2.527776594201989e-05
3.035995316902924e-07,7.533364886882331e-07,1.2241588223815843e-06,2.510834506254802e-05
3.031503104375017e-07,7.471730670999782e-07,1.2266921320483606e-06,2.493950748424965e-05
3.028275208800831e-07,7.409138097328404e-07,1.228415608056957e-06,2.4770749568905248e-05
3.0263194983848504e-07,7.346293586498806e-07,1.2293240869794381e-06,2.460164032892266e-05
3.025609333474764e-07,7.283880660561363e-07,1.2294146581723075e-06,2.44317928505155e-05
3.0260835656084926e-07,7.222597331375076e-07,1.2286904313915519e-06,2.4260809160415505e-05
3.027664444847456e-07,7.163144777764111e-07,1.227159850342039e-06,2.408824304328413e-05
3.0302746631255696e-07,7.106167882648217e-07,1.224833314102079e-06,2.3913593247904966e-05
3.033833102887537e-07,7.052230326968573e-07,1.2217226002424536e-06,2.373636304274643e-05
3.0382432101992357e-07,7.001844388562464e-07,1.2178454668058654e-06,2.355618850275471e-05
3.043396125757991e-07,6.955504581402366e-07,1.2132308166428284e-06,2.337290853145528e-05
3.049188371398704e-07,6.913709532043654e-07,1.2079193524409e-06,2.3186485152236952e-05
3.0555470411307265e-07,6.876974416943702e-07,1.2019591768963095e-06,2.299688334043537e-05
3.062452493055309e-07,6.845805461870423e-07,1.195399214625335e-06,2.2804030277191545e-05
3.069948028334096e-07,6.820644056753297e-07,1.1882847077354326e-06,2.260783971623425e-05
3.0781403719490014e-07,6.801831670707774e-07,1.1806575312609295e-06,2.240826638144078e-05
3.087193730498443e-07,6.789594090392192e-07,1.172561313415016e-06,2.2205338864070496e-05
3.097305263959302e-07,6.784023165044027e-07,1.164047639028516e-06,2.199911464491572e-05
3.108659610748182e-07,6.785076157578385e-07,1.155177381461969e-06,2.17896076996046e-05
3.12138924875912e-07,6.792601335615696e-07,1.1460156445531452e-06,2.1576781185819924e-05
3.1355686657903926e-07,6.806373796589652e-07,1.1366262198959105e-06,2.1360636675134162e-05
3.151229892123321e-07,6.826134953485522e-07,1.127071203088036e-06,2.1141386502021404e-05
3.1683658401280843e-07,6.851627778146538e-07,1.117412470291398e-06,2.0919623481113174e-05
3.1869216967872854e-07,6.882621924825068e-07,1.107708784553295e-06,2.069634425345081e-05
3.206800620376957e-07,6.918944563064245e-07,1.0980104752844723e-06,2.0472793283862783e-05
3.227887844297957e-07,6.960521174281071e-07,1.0883578773302514e-06,2.0250231847597243e-05
3.250074852422112e-07,7.007387382933929e-07,1.0787834870650302e-06,2.0029743308257346e-05
3.2732733210774144e-07,7.059634461009553e-07,1.069313584113623e-06,1.981214960731685e-05
3.297421255010172e-07,7.117317583738512e-07,1.0599688311682279e-06,1.959804470139303e-05
3.322493261900379e-07,7.180391490105445e-07,1.0507659189787156e-06,1.9387873469294766e-05
3.348523520097735e-07,7.2486991898816e-07,1.041719841289554e-06,1.9182029562360027e-05
3.3756213762652823e-07,7.321993212183745e-07,1.0328449241768111e-06,1.898102681836181e-05
3.403951885299014e-07,7.399949740968876e-07,1.0241551571249521e-06,1.878568190575063e-05
3.433684541715455e-07,7.482164769745719e-07,1.0156653954399432e-06,1.859712108765847e-05
3.464941730613206e-07,7.568163845981067e-07,1.007392147916753e-06,1.8416593529127967e-05
3.4977764509063674e-07,7.657426850315991e-07,9.99352083633165e-07,1.824525041293873e-05
3.5321828872720867e-07,7.749395198377092e-07,9.915593373143557e-07,1.8084012901509368e-05
3.5681209477966773e-07,7.843470863955509e-07,9.840234402731985e-07,1.7933622150003346e-05
3.6055350179584646e-07,7.939026683251923e-07,9.767475463808324e-07,1.7794917244536702e-05
3.6443634084962313e-07,8.035417189909573e-07,9.697262624405924e-07,1.766916480083876e-05
3.684544850928014e-07,8.131993767400263e-07,9.629447139806113e-07,1.7558164648388307e-05
3.72602921455501e-07,8.228120157526741e-07,9.5638075161618e-07,1.746410827062705e-05
3.7687913388097684e-07,8.323178460239273e-07,9.500085509266348e-07,1.738936520538367e-05
3.8128271169836953e-07,8.416597689150518e-07,9.438003648048985e-07,1.7336292965811453e-05
3.8581243062578795e-07,8.5078997188145e-07,9.377269073554352e-07,1.7307076375457606e-05
3.904637836434353e-07,8.596696740723972e-07,9.317577109383871e-07,1.7303600903022477e-05
3.952285584699708e-07,8.682637611505022e-07,9.258604971386759e-07,1.7327364145195455e-05
4.000945488132072e-07,8.765363874321518e-07,9.200009724370323e-07,1.7379425792198738e-05
4.0504470427635815e-07,8.84450184610379e-07,9.141460332608394e-07,1.746040176902516e-05
4.1005689067753573e-07,8.919683140780851e-07,9.082696328976252e-07,1.7570480805383286e-05
4.151047821182929e-07,8.990565036613605e-07,9.023586192826071e-07,1.7709413753934037e-05
4.201596408027758e-07,9.056814423265164e-07,8.96415223906717e-07,1.7876473118273633e-05
4.25191849490052e-07,9.118072047672631e-07,8.904522861554348e-07,1.8070442540166145e-05
4.3017101512342347e-07,9.173949155750484e-07,8.844837992037592e-07,1.828968800439376e-05
4.350654850210585e-07,9.224073851590792e-07,8.785199933532742e-07,1.8532311169666258e-05
4.3984279305790393e-07,9.268145202364859e-07,8.725703096640173e-07,1.8796335018732016e-05
4.444703332628829e-07,9.305938386877752e-07,8.666481353172179e-07,1.907984742781836e-05
4.489154285537671e-07,9.337269802742504e-07,8.60770748000364e-07,1.9381069370202124e-05
4.531458591112631e-07,9.361980809470321e-07,8.549544195372447e-07,1.9698381602464848e-05
4.5713080121060237e-07,9.379984960250259e-07,8.492101495681664e-07,2.0030341618055506e-05
4.608411823795643e-07,9.391363591987112e-07,8.435441248865453e-07,2.03756616048362e-05
4.642497012379917e-07,9.396410258599688e-07,8.379609755368961e-07,2.0733107076268868e-05
4.673305465563491e-07,9.395561758945324e-07,8.32465862270489e-07,2.1101352715129605e-05
4.7005909936019714e-07,9.389288196266474e-07,8.270665781438319e-07,2.147887284670955e-05
4.724126174836565e-07,9.378033723160549e-07,8.217792515148863e-07,2.1863897913891085e-05
4.7437118655566827e-07,9.362215223720707e-07,8.166344294418468e-07,2.225443748235355e-05
4.7591809457235367e-07,9.342230939355692e-07,8.116781815832234e-07,2.2648345484272105e-05
4.77040592109704e-07,9.318441958425695e-07,8.069690580973327e-07,2.304337279231715e-05
4.777315957963991e-07,9.291137573334759e-07,8.025728302193764e-07,2.343718942784945e-05
4.779917311922694e-07,9.260521288101559e-07,7.985563426380952e-07,2.3827413700457345e-05
4.778306783131634e-07,9.226728859592544e-07,7.949836324222235e-07,2.4211684724985142e-05
4.772673722058171e-07,9.18984671101172e-07,7.919130962288243e-07,2.458774486027734e-05
4.7632873515822935e-07,9.149907965678987e-07,7.893920778534086e-07,2.49534403225172e-05
4.7504578400537216e-07,9.106891971162395e-07,7.874518652350793e-07,2.5306638035296256e-05
4.7344893575833075e-07,9.060751663895657e-07,7.861066279699442e-07,2.564517661617397e-05
4.7156708850225274e-07,9.011458167327046e-07,7.853543923505373e-07,2.596692519911536e-05
4.694306429673317e-07,8.959041384636932e-07,7.851786995473689e-07,2.626991415989249e-05
4.6707394594136667e-07,8.903604316058809e-07,7.855516698442628e-07,2.655247656356129e-05
4.6453406398331956e-07,8.845307899279768e-07,7.864383470124988e-07,2.6813344990694143e-05
4.618475895455267e-07,8.784356288657602e-07,7.878016198875624e-07,2.705163953271346e-05
4.590499042064882e-07,8.720999010005655e-07,7.896074154978592e-07,2.7266736714937146e-05
4.561770039709715e-07,8.655534064840341e-07,7.918292885989738e-07,2.7458105132475158e-05
4.5326561863397247e-07,8.588293401029542e-07,7.944505434067422e-07,2.762521022361198e-05
4.5035180196853027e-07,8.519602486669829e-07,7.974632047056677e-07,2.7767508230567e-05
4.4747179228499907e-07,8.449733197798003e-07,8.008655160129875e-07,2.788447451653717e-05
4.446651329864379e-07,8.378882310289934e-07,8.046596289760549e-07,2.797562093438515e-05
4.419764391514578e-07,8.307175913636855e-07,8.088494551887636e-07,2.804052748257539e-05
4.394532369424677e-07,8.234684717891846e-07,8.134391603400312e-07,2.8078985320406152e-05
4.371416153831011e-07,8.161443881764806e-07,8.184332913083967e-07,2.8091253788269604e-05
4.350828590806514e-07,8.087463029233837e-07,8.238379249029015e-07,2.8078220313677388e-05
4.3331120498500814e-07,8.012729759507928e-07,8.296608354912163e-07,2.8041311560955547e-05
4.3185210303507357e-07,7.937238969553265e-07,8.359080505956096e-07,2.7982258124499152e-05
4.3072188925100144e-07,7.861036232343841e-07,8.425773718836167e-07,2.79028623414606e-05
4.299299533181139e-07,7.784219106872297e-07,8.496543936403396e-07,2.7804885639021413e-05
4.294834787187477e-07,7.706895334302987e-07,8.571147937118441e-07,2.769018284183217e-05
4.293923637747797e-07,7.629158494699689e-07,8.649301179223166e-07,2.7561000554410084e-05
4.296701204303621e-07,7.551103281289562e-07,8.730718343336296e-07,2.742012856033513e-05
4.3032946611764757e-07,7.472842197476756e-07,8.815133605124123e-07,2.727077531204036e-05
4.3137663294548713e-07,7.394514759962129e-07,8.902338817064304e-07,2.7116312228012355e-05
4.32808999232221e-07,7.316317406959325e-07,8.992233008276521e-07,2.696003481164729e-05
4.346157124180825e-07,7.23853663095975e-07,9.084830440956774e-07,2.6805001219379915e-05
4.367785768577818e-07,7.16153893077448e-07,9.180199532791966e-07,2.665394802519857e-05
4.39272694190159e-07,7.085713422534099e-07,9.278361285699854e-07,2.6509243079405803e-05
4.42067445338505e-07,7.011408896501005e-07,9.379225402226336e-07,2.637285365059898e-05
4.4512851390350476e-07,6.93891304002004e-07,9.482613314775327e-07,2.6246342468406257e-05
4.484208723478147e-07,6.86847160226601e-07,9.588321800625412e-07,2.6130893307018146e-05
4.5191021265936507e-07,6.800304900085114e-07,9.696162373998607e-07,2.6027343266820787e-05
4.5556168318588207e-07,6.73460578136092e-07,9.805956819908986e-07,2.593619704043481e-05
4.593385169331895e-07,6.671530648655492e-07,9.91748997549016e-07,2.585760431857663e-05
4.632019114753684e-07,6.611207508307307e-07,1.0030451937461665e-06,2.579132335253934e-05
4.6711112797930965e-07,6.553780083183156e-07,1.0144418649988352e-06,2.5736746055363466e-05
4.7102483471315315e-07,6.499453895886768e-07,1.0258871660178218e-06,2.569302108163213e-05
4.749051858440811e-07,6.448492438587279e-07,1.0373228450017705e-06,2.5659218827052764e-05
4.787213844724862e-07,6.401164303356953e-07,1.0486874482153958e-06,2.563446482994286e-05
4.824487962061242e-07,6.357686749512357e-07,1.059917977739237e-06,2.561802316779938e-05
4.860657075813949e-07,6.318220785982571e-07,1.0709484512217292e-06,2.560933771368705e-05
4.895518349748812e-07,6.282937270554877e-07,1.0817083425313903e-06,2.5608023762380162e-05
4.928885445941565e-07,6.252089212065071e-07,1.0921237116185958e-06,2.5613806149379168e-05
4.960582467013809e-07,6.22600322156255e-07,1.102121306666252e-06,2.56264240621591e-05
4.990426652663987e-07,6.205004116549649e-07,1.1116350806451802e-06,2.5645524022912515e-05
5.018224489538355e-07,6.189350824919885e-07,1.1206116206263785e-06,2.5670567707196814e-05
5.043787341746878e-07,6.179209602172388e-07,1.1290121809155552e-06,2.570082205854268e-05
5.06694418002586e-07,6.174645945775547e-07,1.1368140660885472e-06,2.5735440440508497e-05
5.08754861017485e-07,6.17562099324339e-07,1.1440124047465419e-06,2.5773516971714405e-05
5.105499402682593e-07,6.181988092723588e-07,1.1506187651047302e-06,2.58140577944276e-05
5.120762746737035e-07,6.19349750218204e-07,1.156655404338888e-06,2.5855955627475697e-05
5.133359948039265e-07,6.209821264444572e-07,1.1621482355786233e-06,2.5898030186566e-05
5.143325163781314e-07,6.230587074524558e-07,1.1671205478058264e-06,2.593908236075478e-05
5.150675953859807e-07,6.255394323469024e-07,1.1715889799271613e-06,2.597788802974353e-05
5.155412503516579e-07,6.283807576456136e-07,1.1755649053011849e-06,2.6013155720193067e-05
5.1575227488118e-07,6.315349418854508e-07,1.1790606443850413e-06,2.604352530322408e-05
5.15697807147528e-07,6.349518964165524e-07,1.182095244343082e-06,2.6067621590957793e-05
5.153728660506284e-07,6.385837394585144e-07,1.1846977325409151e-06,2.6084134597108066e-05
5.147705357444783e-07,6.423887695868993e-07,1.1869084858425881e-06,2.609193989490231e-05
5.138827784736378e-07,6.463320219028183e-07,1.1887761569787956e-06,2.609026305361052e-05
5.127024048332297e-07,6.50383700590251e-07,1.190350325636842e-06,2.607877842359718e-05
5.112258967290055e-07,6.5451806641737e-07,1.191675691532494e-06,2.605753497288605e-05
5.094554283715485e-07,6.587128714204661e-07,1.192789052073017e-06,2.602675384710297e-05
5.07398638190099e-07,6.629492008371737e-07,1.1937158269822759e-06,2.5986620727469298e-05
5.050660759233914e-07,6.672111395755839e-07,1.194467349614968e-06,2.593717751101637e-05
5.024689879271071e-07,6.714837155114392e-07,1.19504193967541e-06,2.587834430876322e-05
4.996204034978458e-07,6.75750174567254e-07,1.1954280024650825e-06,2.5810001299359795e-05
4.965375398827014e-07,6.799899901706304e-07,1.19560597596846e-06,2.57320580498815e-05
4.932416022874506e-07,6.841776850407285e-07,1.1955501784930241e-06,2.5644558320844422e-05
4.897553704992182e-07,6.882830936783152e-07,1.1952322862234257e-06,2.5547885277009547e-05
4.861010252742115e-07,6.922727789568722e-07,1.1946243907682086e-06,2.5442924997307152e-05
4.822987714938825e-07,6.96111569284609e-07,1.193700364180756e-06,2.5330998423290146e-05
4.783659882589036e-07,6.997653561807582e-07,1.1924371968689786e-06,2.5213623726893804e-05
4.74317068243164e-07,7.032073547527375e-07,1.190816141242394e-06,2.5092271367459285e-05
4.701641157994028e-07,7.064243872059803e-07,1.1888217460283363e-06,2.4968231226330623e-05
4.659180837476656e-07,7.094172151828017e-07,1.1864389012984071e-06,2.484274314493702e-05
4.6158904905022104e-07,7.121965772490552e-07,1.183650295226552e-06,2.471734584927225e-05
4.571853923136379e-07,7.147787909771994e-07,1.180435939906266e-06,2.459410344514604e-05
4.527133657829089e-07,7.171809779566595e-07,1.1767739070950394e-06,2.4475535697362007e-05
4.481776768703615e-07,7.194176765653587e-07,1.1726413225982636e-06,2.436442460832376e-05
4.4358297196115474e-07,7.215023798895652e-07,1.1680155585082797e-06,2.4263649456803964e-05
4.3893554408647044e-07,7.234531772460856e-07,1.1628758162515119e-06,2.4176032961657096e-05
4.3424332110165426e-07,7.252957000563859e-07,1.1572061765822234e-06,2.410417638825729e-05
4.2951420659721815e-07,7.270590571756341e-07,1.1510000831350436e-06,2.4050313565579143e-05
4.247555328384313e-07,7.287692302013824e-07,1.1442633573509208e-06,2.401620655613176e-05
4.199755372724896e-07,7.304454313210849e-07,1.137012559508465e-06,2.4003096756993687e-05
4.151843388669583e-07,7.320992627370245e-07,1.129270054204312e-06,2.4011706275227732e-05
4.103925829007004e-07,7.337353244612539e-07,1.121062752239168e-06,2.404223659424267e-05
4.0560983842319607e-07,7.353540814937844e-07,1.1124287901839147e-06,2.409434670300718e-05
4.0084517504393747e-07,7.369558460467653e-07,1.1034268283139786e-06,2.416717940125755e-05
3.961086271577347e-07,7.385440511052348e-07,1.0941390646576784e-06,2.4259486533417012e-05
3.9141109609043743e-07,7.401303369678356e-07,1.0846651983969736e-06,2.436982091131385e-05
3.8676348550815306e-07,7.417404856935233e-07,1.075112216510615e-06,2.4496730465099592e-05
3.8217839717779286e-07,7.43412421628669e-07,1.0655849263839547e-06,2.463889584071205e-05
3.7767525318482213e-07,7.451846782828866e-07,1.056177913579402e-06,2.4795183031529026e-05
3.7328442935132633e-07,7.470873734755576e-07,1.0469708338115464e-06,2.496465221152745e-05
3.6904548287979656e-07,7.49146300590063e-07,1.0380291584034595e-06,2.5146572637273723e-05
3.650002938088975e-07,7.513968710739838e-07,1.029406069521068e-06,2.5340411987061028e-05
3.611864415050738e-07,7.538936154102027e-07,1.0211412848640764e-06,2.5545754236504856e-05
3.5763472612810346e-07,7.567048670001114e-07,1.0132592788295506e-06,2.576217224718944e-05
3.543694753164979e-07,7.598983551816612e-07,1.0057697014608773e-06,2.5989091624288297e-05
3.514086025202197e-07,7.635305760627406e-07,9.986696587336308e-07,2.6225672965762367e-05
3.487632797997948e-07,7.676446260533732e-07,9.919474616484337e-07,2.647080616176103e-05
3.4643789717266943e-07,7.722726023357724e-07,9.855880244906962e-07,2.672325381708264e-05
3.4443042825230516e-07,7.774380293219913e-07,9.795789778753552e-07,2.698179767334153e-05
3.4273351452168213e-07,7.831566547830009e-07,9.739149899024591e-07,2.724526934784759e-05
3.413359275440115e-07,7.89434761728697e-07,9.68598425173756e-07,2.751252224189579e-05
3.4022327825056356e-07,7.962661988058315e-07,9.636365934203363e-07,2.7782441271669865e-05
3.393777100490865e-07,8.036311745651606e-07,9.590367296304623e-07,2.8053990608290252e-05
3.387782275190967e-07,8.114963311470784e-07,9.548007740264609e-07,2.8326203690309282e-05
3.384033891245008e-07,8.198153662465062e-07,9.509223020592777e-07,2.8598069361360493e-05
3.3823491294857537e-07,8.28532340838083e-07,9.473862393975036e-07,2.886840037722353e-05
3.3825813432180536e-07,8.375876849825846e-07,9.441709916142469e-07,2.9135768747126552e-05
3.3845945117548066e-07,8.469248265918811e-07,9.412515206019128e-07,2.9398520231257726e-05
3.3882552886973507e-07,8.564948608595193e-07,9.386006009632696e-07,2.965489423108697e-05
3.393452618979364e-07,8.662556759457851e-07,9.36188243265398e-07,2.990324681213034e-05
3.4001165333353876e-07,8.761657384430126e-07,9.339836576822487e-07,3.0142246523078712e-05
3.408219632473003e-07,8.861795658780571e-07,9.319606980489641e-07,3.0370901374653332e-05
3.4177631442947625e-07,8.962501883438784e-07,9.301004931715052e-07,3.0588414351686885e-05
3.428763517299364e-07,9.063345948855856e-07,9.283887084481753e-07,3.0793974958133806e-05
3.441247638632405e-07,9.16395298485989e-07,9.268135224407843e-07,3.0986620760492025e-05
3.4552435517197e-07,9.263963785352379e-07,9.253680285822972e-07,3.1165233872432675e-05
3.4707701494205927e-07,9.362980466273114e-07,9.240517967986296e-07,3.1328607980714434e-05
3.4878511727788293e-07,9.460553140888195e-07,9.228663170979206e-07,3.147550161882392e-05
3.506532873556522e-07,9.55620842349337e-07,9.2180835019076e-07,3.160472654544112e-05
3.5268600161185114e-07,9.649474417190053e-07,9.208681950632787e-07,3.1715369482814045e-05
3.5488326164566154e-07,9.73988622222283e-07,9.200329279793969e-07,3.180703414779866e-05
3.572388949259693e-07,9.826984869422589e-07,9.192889328616396e-07,3.187986614996454e-05
3.597412538917718e-07,9.910323635751168e-07,9.186205040221972e-07,3.193436749717183e-05
3.623747105037573e-07,9.98947980541592e-07,9.180077376806379e-07,3.1971191471781046e-05
3.6512105878715365e-07,1.0064054676425724e-06,9.174267243632423e-07,3.1991022094968195e-05
3.679605205646544e-07,1.013367901147177e-06,9.168503238625162e-07,3.199460878929282e-05
3.7087309991854725e-07,1.019803424799132e-06,9.162480175562887e-07,3.198297946085393e-05
3.738406928529189e-07,1.0256845940507773e-06,9.155853993569036e-07,3.1957635298061797e-05
3.768495185340994e-07,1.0309846818318172e-06,9.148241594057457e-07,3.192052364809983e-05
3.798918090006874e-07,1.0356749892168454e-06,9.139242961251015e-07,3.187385912254217e-05
3.829665162579137e-07,1.0397241219704316e-06,9.128500241038369e-07,3.1819937498708555e-05
3.860798189807121e-07,1.0430999992286569e-06,9.115771347598908e-07,3.176096891742265e-05
3.892436735564698e-07,1.0457749449196022e-06,9.100959766336516e-07,3.1698947464552114e-05
3.92470741488344e-07,1.0477300305129937e-06,9.08406766919325e-07,3.163559114998802e-05
3.957693119326418e-07,1.0489550012649364e-06,9.065115572577663e-07,3.157233252246682e-05
3.991416918181511e-07,1.0494451997522265e-06,9.044102015178858e-07,3.151032290773908e-05
4.025845350861705e-07,1.0491987772332574e-06,9.021018571114215e-07,3.145044600828796e-05
4.060892117088246e-07,1.0482148511426132e-06,8.9958753949457e-07,3.139333111578213e-05
4.096421714155996e-07,1.0464924344757102e-06,8.968704269148676e-07,3.133933391177832e-05
4.132255087648106e-07,1.04403029089678e-06,8.939547405438412e-07,3.1288482748331154e-05
4.168182011412263e-07,1.0408280503831602e-06,8.908453592577375e-07,3.1240439720302595e-05
4.203974423826715e-07,1.036891659450135e-06,8.875480863316574e-07,3.119454215224428e-05
4.239389875215059e-07,1.0322430905488158e-06,8.840681914254995e-07,3.114994186116068e-05
4.274173673885552e-07,1.0269250748176479e-06,8.804073170479134e-07,3.110577102579858e-05
4.3080632213302004e-07,1.0209944810444388e-06,8.765619093780245e-07,3.1061250798436157e-05
4.340786293197829e-07,1.01451027136484e-06,8.725238540769907e-07,3.101574648538976e-05
4.37206232922303e-07,1.0075252097587481e-06,8.68281729545987e-07,3.096881581575931e-05
4.4016124679348105e-07,1.0000863092468791e-06,8.63822946626742e-07,3.0920246148369064e-05
4.4291634054053133e-07,9.922435835034588e-07,8.591373661139929e-07,3.087005016776133e-05
4.454442383504308e-07,9.84058358009923e-07,8.542209312295776e-07,3.081842337368767e-05
4.4771803751118403e-07,9.756023136034858e-07,8.490771368494969e-07,3.0765674723834897e-05
4.497127925483491e-07,9.66950013126047e-07,8.437164126223349e-07,3.0712111062062765e-05
4.514070508263176e-07,9.581722866182295e-07,8.381551901286943e-07,3.065788019741413e-05
4.527842917959427e-07,9.493330767444986e-07,8.324138088315073e-07,3.0602851342642246e-05
4.53834982261435e-07,9.404895504265741e-07,8.265128687927731e-07,3.054659081851662e-05
4.545573853465493e-07,9.316934175739893e-07,8.204711639627775e-07,3.0488407444789178e-05
4.5495529042478285e-07,9.229901018354178e-07,8.143053823565687e-07,3.0427431117882715e-05
4.5503524915901244e-07,9.14415934144338e-07,8.080287646172959e-07,3.0362700050770226e-05
4.548063482912111e-07,9.059970756967956e-07,8.016493003144062e-07,3.029322926388596e-05
4.542807017688903e-07,8.977511990364019e-07,7.95170668549139e-07,3.0218034351692383e-05
4.5347227213410213e-07,8.896891002205096e-07,7.885972256469871e-07,3.013610446880641e-05
4.523956363613382e-07,8.81814702353355e-07,7.819400241745405e-07,3.00463692030772e-05
4.5106637267915594e-07,8.741246741671562e-07,7.752181710542288e-07,2.994769773879049e-05
4.4950223428941353e-07,8.666088164865306e-07,7.684548419181413e-07,2.983892581197356e-05
4.4772465500275496e-07,8.592516452570738e-07,7.616754672061555e-07,2.971893322299679e-05
4.457600751983011e-07,8.520351108376746e-07,7.549121661851898e-07,2.9586805651145343e-05
4.4363811219921246e-07,8.449405985071603e-07,7.482089970012333e-07,2.9442008829214155e-05
4.4138629066784657e-07,8.379485818145023e-07,7.416233849575756e-07,2.928443236834813e-05
4.39026301873417e-07,8.310384570085196e-07,7.352237612391409e-07,2.911426793370162e-05
4.3657420446296693e-07,8.24191608755362e-07,7.290836201693709e-07,2.893182203366695e-05
4.340427183687053e-07,8.173949914667733e-07,7.232727762017619e-07,2.873739519429546e-05
4.314446305222275e-07,8.10640576883324e-07,7.178491612000335e-07,2.853127907454005e-05
4.2879603700833613e-07,8.0392141980167e-07,7.128548929214e-07,2.8313794977608812e-05
4.2611645278890955e-07,7.972282601570545e-07,7.083167925872802e-07,2.8085288522636212e-05
4.234262718069565e-07,7.905481241552252e-07,7.04249036205295e-07,2.7846124205173663e-05
4.207446737645301e-07,7.838647903200499e-07,7.006559156281381e-07,2.7596819830445564e-05
4.1808807800202216e-07,7.771616537093422e-07,6.9753332299912e-07,2.733828693272265e-05
4.154694109013071e-07,7.70425483420466e-07,6.948699500067635e-07,2.7071910658779127e-05
4.1289995246341076e-07,7.636472216715961e-07,6.926492390263268e-07,2.6799385961910614e-05
4.103926671796569e-07,7.568204587208995e-07,6.908499227628969e-07,2.652248540926248e-05
4.079642746575061e-07,7.499418910130106e-07,6.894447000555045e-07,2.624289280640133e-05
4.0563489091043756e-07,7.430136641853207e-07,6.883997761742389e-07,2.596221982035001e-05
4.0342603246638387e-07,7.36044842412684e-07,6.876768745480324e-07,2.568227876694956e-05
4.013583097799793e-07,7.290518778342734e-07,6.872379251959272e-07,2.540539683247533e-05
3.9944920105439593e-07,7.220592154494025e-07,6.870513500327425e-07,2.513447128905004e-05
3.977114534241213e-07,7.150991321282276e-07,6.870966645384579e-07,2.487277755397133e-05
3.9615358801314405e-07,7.082087449562378e-07,6.873642394674461e-07,2.4623730261769564e-05
3.947830193200961e-07,7.014250998792276e-07,6.878511585937727e-07,2.439069024109653e-05
3.936090707361974e-07,6.947813894778692e-07,6.885579314060153e-07,2.417680970824087e-05
3.926417619600575e-07,6.883049595025985e-07,6.894878109005024e-07,2.3984904918791446e-05
3.9188743259674747e-07,6.820168817736202e-07,6.906449342211176e-07,2.3817364325902406e-05
3.9134633112101655e-07,6.759346052443165e-07,6.920303036926778e-07,2.3676107898349826e-05
3.9101301916343945e-07,6.700760353542501e-07,6.936422234445448e-07,2.3562588588359054e-05
3.90877326031582e-07,6.644593000280196e-07,6.954863165864389e-07,2.3477785781362964e-05
3.909257876121974e-07,6.590986161983701e-07,6.975887304517938e-07,2.3422158496652266e-05
3.911440442646701e-07,6.540033346790321e-07,7.00000599759573e-07,2.339559891782912e-05
3.91519049793174e-07,6.491803997482989e-07,7.027891479467223e-07,2.3397458713668144e-05
3.9203962212715893e-07,6.44634946776096e-07,7.060216928683261e-07,2.3426674027576865e-05
3.9269503629844254e-07,6.403697620969911e-07,7.097551116413453e-07,2.3481946244087813e-05
3.934728079072787e-07,6.363860381894448e-07,7.140363252627332e-07,2.356192212435356e-05
3.943577709214089e-07,6.326856038562821e-07,7.189056716920543e-07,2.366533409430748e-05
3.953338385685438e-07,6.292761943272812e-07,7.243951469098694e-07,2.3791070423905968e-05
3.9638691621791024e-07,6.261772426955244e-07,7.305229478965773e-07,2.3938176672930788e-05
3.9750630988301027e-07,6.234199095969335e-07,7.372896953635654e-07,2.41058144999463e-05
3.9868475244256365e-07,6.210408457798782e-07,7.4467898082709e-07,2.4293199704083226e-05
3.9991846174223573e-07,6.190737264813566e-07,7.526597663730776e-07,2.449954010667764e-05
4.01206148637641e-07,6.175424368675642e-07,7.611875858397777e-07,2.472397834721132e-05
4.0254597092559293e-07,6.164588093778083e-07,7.702058976232365e-07,2.496551555945356e-05
4.039330944242068e-07,6.158240300878045e-07,7.79650391553448e-07,2.522292550754007e-05
4.053595450114674e-07,6.156302371274537e-07,7.894554314471538e-07,2.549473691901269e-05
4.0681465431116536e-07,6.158612782329033e-07,7.99558826455011e-07,2.577929263997723e-05
4.082856215282463e-07,6.164932440604394e-07,8.099025584772538e-07,2.6074790956514333e-05
4.097586176781685e-07,6.17495277697348e-07,8.20430461924287e-07,2.637929493552551e-05
4.1121947495258754e-07,6.188317723302579e-07,8.310859003359177e-07,2.669077599793521e-05
4.126532834103089e-07,6.204646290723232e-07,8.418140358243136e-07,2.700719150743597e-05
4.140440825648824e-07,6.223530806717429e-07,8.525697358981166e-07,2.732652866607327e-05
4.1537630257920974e-07,6.244531040240185e-07,8.63323043856951e-07,2.7646771097863227e-05
4.166365584439032e-07,6.26719354867819e-07,8.740555612674852e-07,2.7965823168911152e-05
4.1781381254411117e-07,6.29108714903517e-07,8.847519417024656e-07,2.828145981172395e-05
4.18899284868312e-07,6.315832399468404e-07,8.953927661529854e-07,2.8591346383262603e-05
4.198864702579546e-07,6.341116312959874e-07,9.059507394525677e-07,2.8893150666961803e-05
4.207697302750296e-07,6.3666946307553e-07,9.163902606125256e-07,2.9184731596882136e-05
4.215425468217115e-07,6.392376482154758e-07,9.266692293580869e-07,2.9464319351919825e-05
4.221968326561061e-07,6.417987767622307e-07,9.367418766799078e-07,2.9730573340676122e-05
4.227225301480147e-07,6.443346643124216e-07,9.465613363659845e-07,2.998249231748245e-05
4.23107355742176e-07,6.468284275467068e-07,9.560801980821872e-07,3.021923976238972e-05
4.233373780530054e-07,6.492678585547681e-07,9.652509348164248e-07,3.0439957967504277e-05
4.233981569384319e-07,6.516452081125053e-07,9.740292856977556e-07,3.064365622985268e-05
4.2327540083089036e-07,6.539536484286177e-07,9.823791466725629e-07,3.082921187708417e-05
4.22954762619571e-07,6.5618344090475e-07,9.902762720153234e-07,3.099542040381581e-05
4.224223109860174e-07,6.583204832841575e-07,9.977096989473869e-07,3.1141082649760495e-05
4.216671205409649e-07,6.60348116233854e-07,1.004680623408016e-06,3.126522653435552e-05
4.206838487853189e-07,6.622494244018366e-07,1.0111979838632485e-06,3.136740191069144e-05
4.194723865351123e-07,6.640071067475804e-07,1.0172705793373314e-06,3.144777699190353e-05
4.1803586523647777e-07,6.65602500856045e-07,1.0228998093706868e-06,3.150694878737195e-05
4.163797993178858e-07,6.67015928273609e-07,1.0280773245950693e-06,3.1545676534499324e-05
4.145127646870761e-07,6.682273956839839e-07,1.032787079281522e-06,3.1564715456220443e-05
4.1244803770303845e-07,6.692170240727755e-07,1.037010301192991e-06,3.156480552071293e-05
4.102047713559411e-07,6.699667540562536e-07,1.0407309473282312e-06,3.1546867995739594e-05
4.078060856849774e-07,6.704645851344633e-07,1.043937830429665e-06,3.151230652512065e-05
4.052746577713056e-07,6.707087919667901e-07,1.0466258845410691e-06,3.1463133921837155e-05
4.026299967411878e-07,6.707069824266487e-07,1.0487996018899379e-06,3.1401853276803536e-05
3.9988856137662344e-07,6.704699950933652e-07,1.0504722725157437e-06,3.133126522405492e-05
3.970641682803092e-07,6.700067918676732e-07,1.0516590583631236e-06,3.125429861241976e-05
3.941676980798335e-07,6.693244886515667e-07,1.052373126363364e-06,3.117385351013377e-05
3.912071747595253e-07,6.684321204083272e-07,1.0526290414311858e-06,3.109266375537907e-05
3.881882961286697e-07,6.673431077253836e-07,1.0524479650526288e-06,3.1013204214499954e-05
3.851146887708529e-07,6.660730799704583e-07,1.05186011698222e-06,3.0937640769321255e-05
3.819882546963453e-07,6.646368934647095e-07,1.050904985625384e-06,3.0867801486504404e-05
3.7881002173964633e-07,6.630487485719328e-07,1.0496293989848156e-06,3.0805140617192275e-05
3.7558138310331776e-07,6.613225541470475e-07,1.0480817631384704e-06,3.075067234617923e-05
3.7230586374473075e-07,6.594718890112953e-07,1.0463051446896295e-06,3.070489760361404e-05
3.689900308868124e-07,6.575127107165255e-07,1.0443345026874334e-06,3.0667785916507894e-05
3.656418725271729e-07,6.554658554589276e-07,1.0421977005074169e-06,3.063885423264183e-05
3.622686854575642e-07,6.533551604183131e-07,1.0399157880017691e-06,3.061733141031505e-05
3.5887735624588386e-07,6.512041285475264e-07,1.0375017822983764e-06,3.060234544630366e-05
3.5547577200883653e-07,6.490350162847505e-07,1.034961123938496e-06,3.0593058048317994e-05
3.5207266050853546e-07,6.468698262156521e-07,1.032294209949036e-06,3.0588724687084334e-05
3.486767370752651e-07,6.4472996788824e-07,1.029498010185923e-06,3.058872668541885e-05
3.452968814341558e-07,6.426348285411527e-07,1.0265659593579156e-06,3.059261708917863e-05
3.4194181666636836e-07,6.406043184159858e-07,1.0234883344622367e-06,3.060015898056236e-05
3.386187745116718e-07,6.386653373409254e-07,1.0202547648216768e-06,3.0611307891700195e-05
3.353333032237544e-07,6.368544795203736e-07,1.0168580796265418e-06,3.062612055966942e-05
3.320905134531819e-07,6.352125258991849e-07,1.0132978663473642e-06,3.064460833867005e-05
3.2889717829673165e-07,6.337765250524423e-07,1.0095831711022831e-06,3.066658610429771e-05
3.257638451659812e-07,6.325768425238473e-07,1.0057346014669796e-06,3.069159846967088e-05
3.2270458190026737e-07,6.316374360345745e-07,1.001785302001318e-06,3.071895103363186e-05
3.197349609031832e-07,6.309752053147969e-07,9.97778371744752e-07,3.074777242610164e-05
3.1687079190276646e-07,6.305999604485257e-07,9.937606830484337e-07,3.0777045946649155e-05
3.1412712817260465e-07,6.305157628734903e-07,9.897768138280055e-07,3.0805633620799465e-05
3.115169285971876e-07,6.307215729801723e-07,9.858643194809186e-07,3.083233149864246e-05
3.090504066332436e-07,6.31212327616566e-07,9.820497157614514e-07,3.085592909921356e-05
3.067358215903451e-07,6.319817741594546e-07,9.783469888283597e-07,3.087520346365088e-05
3.045810034910948e-07,6.330243007320279e-07,9.747608288563594e-07,3.0888855621771994e-05
3.025937559743143e-07,6.343339220081382e-07,9.71293203341375e-07,3.089547889092877e-05
3.007806014923689e-07,6.359027075210254e-07,9.679476816510606e-07,3.089360752887125e-05
2.9914563157926414e-07,6.377198024064474e-07,9.64727610865249e-07,3.088182058755048e-05
2.976910765089036e-07,6.397698018842352e-07,9.616311777151986e-07,3.085886860859739e-05
2.964185291426287e-07,6.420314094991544e-07,9.58648593572669e-07,3.0823790050883316e-05
2.953289960796655e-07,6.44477370925036e-07,9.557620852257178e-07,3.077594457466408e-05
2.944223508644093e-07,6.470757558967915e-07,9.529473090702505e-07,3.0714917569941636e-05
2.93697661941537e-07,6.497942607038838e-07,9.501762041621613e-07,3.064036368739366e-05
2.931542073997146e-07,6.526053583667345e-07,9.474201634231712e-07,3.0551912977254004e-05
2.9279243924800137e-07,6.554865662979212e-07,9.446535692792036e-07,3.044918378148435e-05
2.926145790894239e-07,6.58416679210481e-07,9.418591513277328e-07,3.0331837797437506e-05
2.926245526224927e-07,6.613730091408179e-07,9.39031434107086e-07,3.0199612208758985e-05
2.9282883219354704e-07,6.643304386220005e-07,9.361736294943704e-07,3.005233984066471e-05
2.932388182911692e-07,6.67260666911221e-07,9.332910380499882e-07,2.989004933156618e-05
2.938711738527004e-07,6.701315312636012e-07,9.303882065708163e-07,2.9713185694732226e-05
2.947446532941254e-07,6.729076343243071e-07,9.274712464986359e-07,2.9522766176467048e-05
2.958760111232525e-07,6.75552640672158e-07,9.245492004557405e-07,2.9320290605239007e-05
2.972772377676435e-07,6.780327713878104e-07,9.216309630209269e-07,2.910750662603532e-05
2.9895542069396693e-07,6.803196049988339e-07,9.187212581854794e-07,2.8886188209448976e-05
3.009144385550593e-07,6.823891697882969e-07,9.158186943408657e-07,2.865801861222926e-05
3.031557584138884e-07,6.842201610645355e-07,9.129165734585369e-07,2.8424709563262396e-05
3.056771902096997e-07,6.857968576301661e-07,9.100068184548336e-07,2.8188279496224828e-05
3.084715168296109e-07,6.871135186483663e-07,9.070837028281661e-07,2.7951164172756262e-05
3.1152757675675287e-07,6.881736869458243e-07,9.041436795326107e-07,2.7716078868176137e-05
3.14832784128022e-07,6.889860610298179e-07,9.011829711256253e-07,2.748583462904371e-05
3.1837401174840327e-07,6.895621956132944e-07,8.981956850172382e-07,2.7263206592296306e-05
3.221371562193073e-07,6.89916293446194e-07,8.951730109515615e-07,2.7050822562719226e-05
3.2610717853833563e-07,6.900644036572256e-07,8.921044511557962e-07,2.6851061569900563e-05
3.302684793630025e-07,6.900221785089142e-07,8.889811599144167e-07,2.666598116277983e-05
3.346048255822368e-07,6.898025003635543e-07,8.857976945508444e-07,2.6497289248097896e-05
3.390986186197763e-07,6.894152269583052e-07,8.825508232560807e-07,2.6346366270796802e-05
3.437307391968918e-07,6.888700933105061e-07,8.79240395323567e-07,2.621430367799201e-05
3.4848154844992364e-07,6.881793280332247e-07,8.758736702789827e-07,2.6101886608832425e-05
3.533311024905257e-07,6.873562765295174e-07,8.724666047356062e-07,2.600950465637321e-05
3.582579197917752e-07,6.864125588322928e-07,8.69038382971314e-07,2.5937066696208648e-05
3.632382577962114e-07,6.853576846723461e-07,8.656038496957155e-07,2.58840085820066e-05
3.682471834209584e-07,6.84201107377973e-07,8.621699208831997e-07,2.584942305414421e-05
3.7326013235090436e-07,6.829545012340954e-07,8.587373790242701e-07,2.5832259252100164e-05
3.782525328269863e-07,6.81633115154565e-07,8.553056055541048e-07,2.5831490246079982e-05
3.831979103862098e-07,6.802568204118412e-07,8.518766333143516e-07,2.584618984887464e-05
3.8806721591283175e-07,6.788502227018401e-07,8.484562518706741e-07,2.5875542459768506e-05
3.9282963640175393e-07,6.774406866012847e-07,8.450528489022057e-07,2.5918823176970085e-05
3.9745326144683495e-07,6.760548583270779e-07,8.416773743483222e-07,2.597536042179791e-05
4.019054307451611e-07,6.747152173381024e-07,8.383465292035071e-07,2.6044496865928328e-05
4.061534062907473e-07,6.73437924216713e-07,8.350848730943129e-07,2.6125558797438244e-05
4.101654585131793e-07,6.722317339316968e-07,8.319209582873044e-07,2.621781229540672e-05
4.139120379254768e-07,6.710975591066972e-07,8.288815777002183e-07,2.6320391002391847e-05
4.1736677560655726e-07,6.700290612015814e-07,8.259901769044653e-07,2.643224060172049e-05
4.205071232705838e-07,6.690140552009224e-07,8.232667830103922e-07,2.655212751708172e-05
4.233143821423318e-07,6.68036231482518e-07,8.207256718293094e-07,2.667868714830578e-05
4.2577364320234814e-07,6.670777610408167e-07,8.183749079359142e-07,2.6810476000601425e-05
4.2787437236507396e-07,6.661230496920207e-07,8.162219307823732e-07,2.694602704620805e-05
4.2961167023871566e-07,6.65160340090636e-07,8.142813190036253e-07,2.7083903205822245e-05
4.3098776203789213e-07,6.641785586334492e-07,8.125785026580621e-07,2.722272119715597e-05
4.320119522848383e-07,6.631634450257067e-07,8.111484348715408e-07,2.7361114514316376e-05
4.326975635856382e-07,6.620967755624499e-07,8.100336727117012e-07,2.7497651396191948e-05
4.3305809614882725e-07,6.609569581408883e-07,8.092872927576543e-07,2.7630784022997466e-05
4.331063515124507e-07,6.597193731039544e-07,8.089791774659924e-07,2.775890329185732e-05
4.3285592761045296e-07,6.583571107783887e-07,8.0919603980189e-07,2.7880504743572883e-05
4.3232138891823396e-07,6.568425349062659e-07,8.10029804325631e-07,2.799438911213773e-05
4.315171176722757e-07,6.551497341422505e-07,8.115608773666274e-07,2.809978569758537e-05
4.30457126234649e-07,6.53257966879128e-07,8.138462277257182e-07,2.8196328152700348e-05
4.2915548529296105e-07,6.511549313602057e-07,8.169160224163691e-07,2.8283900070329683e-05
4.2762717256095316e-07,6.488371177295064e-07,8.207775044652133e-07,2.8362424602997602e-05
4.25889179201005e-07,6.463064314363438e-07,8.25423758644925e-07,2.8431694924031103e-05
4.2395960052145076e-07,6.435660155711208e-07,8.308434995148494e-07,2.8491317629229107e-05
4.218553312959353e-07,6.406176374493026e-07,8.370278843637901e-07,2.8540745691784557e-05
4.19590992324784e-07,6.374608152329039e-07,8.439738078527091e-07,2.857933068185135e-05
4.171788308345801e-07,6.340942957054424e-07,8.516836510554636e-07,2.8606376899487365e-05
4.146292281607143e-07,6.305190854338987e-07,8.601597151985634e-07,2.8621265855422765e-05
4.1195280021895254e-07,6.267395157719668e-07,8.693960369539127e-07,2.862369758120368e-05
4.091634346778281e-07,6.22761027512066e-07,8.793747580073218e-07,2.861388834999992e-05
4.0627961462685704e-07,6.185874266776828e-07,8.900698692023592e-07,2.8592521610066334e-05
4.0332321546893073e-07,6.142199942567578e-07,9.014547732573423e-07,2.8560522424329787e-05
4.0031749086797687e-07,6.096578136162743e-07,9.135071789827988e-07,2.8518851542620228e-05
3.9728501578666e-07,6.048979511273112e-07,9.262060623892374e-07,2.846842897796377e-05
3.942463436238674e-07,5.999362276385928e-07,9.395239040479231e-07,2.841025785066344e-05
3.912202975414257e-07,5.947698141824796e-07,9.534236693616941e-07,2.8345653175005078e-05
3.882244832555719e-07,5.894004735232632e-07,9.678621421339563e-07,2.827632364221549e-05
3.852751852894957e-07,5.838362858607064e-07,9.827931204456553e-07,2.820425396727429e-05
3.823879652634857e-07,5.780913960369809e-07,9.981688112188169e-07,2.8131543203717046e-05
3.7957896698644586e-07,5.721855703870849e-07,1.0139409568177437e-06,2.806029014890279e-05
3.7686594099502686e-07,5.661455300736975e-07,1.030058908031277e-06,2.799250741714652e-05
3.742690136898839e-07,5.600070382248508e-07,1.0464637774506705e-06,2.7930024830130745e-05
3.7181070723747507e-07,5.538145639024814e-07,1.063083765285918e-06,2.787438365673949e-05
3.695142223389071e-07,5.47617383143326e-07,1.079834479511297e-06,2.7826760575396918e-05
3.6740135007282953e-07,5.414649232762056e-07,1.0966231551636214e-06,2.7787946097937562e-05
3.6549260507101826e-07,5.354040569641058e-07,1.113352781802433e-06,2.7758359935116706e-05
3.638082182931221e-07,5.294773775850942e-07,1.1299226151806937e-06,2.773807133486838e-05
3.62366722665449e-07,5.237216467779227e-07,1.1462264566790595e-06,2.7726821377502667e-05
3.611821086393108e-07,5.181674069262372e-07,1.1621527304152695e-06,2.772405729489917e-05
3.6026238691490813e-07,5.12839510372287e-07,1.1775866119060616e-06,2.772896481211227e-05
3.596096873924961e-07,5.077577056651222e-07,1.1924121941251436e-06,2.7740496469473492e-05
3.5922049503411796e-07,5.029378726727304e-07,1.2065149291947063e-06,2.7757434485128857e-05
3.590860049588664e-07,4.983944511642908e-07,1.2197853309895722e-06,2.77784906537458e-05
3.591933417457287e-07,4.941421913190145e-07,1.2321227943325457e-06,2.7802393448170032e-05
3.595274299856128e-07,4.901957962831078e-07,1.2434376888055285e-06,2.7827949734926093e-05
3.600726369239013e-07,4.865685604116067e-07,1.2536516301108328e-06,2.7854097225583227e-05
3.6081270994334673e-07,4.832707696735197e-07,1.262697334815628e-06,2.787992864650956e-05
3.617291125415756e-07,4.803109889109042e-07,1.270519299102589e-06,2.790465997440332e-05
3.628003602196451e-07,4.777039287556589e-07,1.2770745944195195e-06,2.792755599964245e-05
3.6400288024978953e-07,4.7547704299360674e-07,1.2823320907150872e-06,2.7947848960515533e-05
3.653116467172412e-07,4.7366645284726495e-07,1.2862712296492436e-06,2.796469239724674e-05
3.66700789943365e-07,4.7230981241037495e-07,1.2888821985342341e-06,2.7977217644271746e-05
3.68144883311012e-07,4.714439508174012e-07,1.2901651090230532e-06,2.7984677719476305e-05
3.696196440276099e-07,4.711017299134306e-07,1.2901259300302829e-06,2.7986529493637506e-05
3.711018441803048e-07,4.7130754673437137e-07,1.2887725950078836e-06,2.798239472752285e-05
3.7256970035536926e-07,4.7207763034482993e-07,1.2861152072854038e-06,2.797199642347061e-05
3.7400315829393357e-07,4.7342255237358897e-07,1.2821685356854155e-06,2.7955121475710932e-05
3.753834855933141e-07,4.753464406083707e-07,1.2769527776523953e-06,2.7931575380159453e-05
3.7669286520942454e-07,4.778449049255239e-07,1.2704921010353494e-06,2.7901115502901283e-05
3.77913917032838e-07,4.809046842414306e-07,1.262813339348082e-06,2.7863402021592022e-05
3.7902961922032573e-07,4.845045141839072e-07,1.2539459884693805e-06,2.7818051644275733e-05
3.8002437482947175e-07,4.886172399606113e-07,1.2439224884523786e-06,2.7764838795140266e-05
3.8088540202349046e-07,4.932123989270736e-07,1.2327785229703464e-06,2.770392106206252e-05
3.8160402347140434e-07,4.982566694545836e-07,1.2205533917297094e-06,2.7635916633944548e-05
3.8217744147052594e-07,5.037122106472037e-07,1.207289663468583e-06,2.7561821016674828e-05
3.8261033936455543e-07,5.095354139593215e-07,1.1930328874717036e-06,2.748285491292099e-05
3.829145075124288e-07,5.1567798505761e-07,1.1778333871833245e-06,2.7400299646325783e-05
3.8310613960759417e-07,5.22091109586458e-07,1.1617497739634482e-06,2.7315331114252826e-05
3.8320228491957726e-07,5.287307203168564e-07,1.1448501823665323e-06,2.7228879435032346e-05
3.832180291930615e-07,5.355587080198803e-07,1.127208688770737e-06,2.714156441109688e-05
3.831656742461414e-07,5.425385035754087e-07,1.108899899581401e-06,2.705369679860763e-05
3.830555611899777e-07,5.49631311501561e-07,1.0899953627658443e-06,2.6965290890152427e-05
3.8289617955552505e-07,5.567977375520211e-07,1.0705621640285648e-06,2.687610807581363e-05
3.8269299842820985e-07,5.64000768188959e-07,1.0506633352518892e-06,2.678582037182713e-05
3.82447829324935e-07,5.712064488136155e-07,1.030360029822747e-06,2.669429680506765e-05
3.821594110877342e-07,5.783856255017646e-07,1.0097145010384363e-06,2.6601811554675148e-05
3.818246041335178e-07,5.855178800486251e-07,9.88792350143476e-07,2.6508982891328932e-05
3.8144038139533713e-07,5.925917166023798e-07,9.676639260047149e-07,2.641659643098465e-05
3.8100665338500033e-07,5.995984495940285e-07,9.464071697621664e-07,2.632558648170304e-05
3.805275482551229e-07,6.065257791687982e-07,9.251116099800324e-07,2.6237129792665727e-05
3.800092164489792e-07,6.133559892904273e-07,9.038779679729566e-07,2.6152658108233843e-05
3.7945655910503494e-07,6.200672546770151e-07,8.828121317184364e-07,2.6073768320598318e-05
3.7887173553962494e-07,6.266353809931806e-07,8.620196599198952e-07,2.6002097531370088e-05
3.7825451369240523e-07,6.330353311813596e-07,8.416022384024619e-07,2.5939201248327e-05
3.7760391129664385e-07,6.392428897743663e-07,8.216527777432068e-07,2.5886445728979776e-05
3.769197186369721e-07,6.452363530662708e-07,8.022522695805183e-07,2.5844910884823567e-05
3.762032028255417e-07,6.509977612878053e-07,7.834725778162012e-07,2.5815318457354043e-05
3.7545809399126547e-07,6.565144032353986e-07,7.653826683054255e-07,2.57980159340245e-05
3.7469097462467797e-07,6.617800381991307e-07,7.480553407446226e-07,2.5793002944942045e-05
3.739106072422935e-07,6.667928438853164e-07,7.315735792185586e-07,2.5799946074731053e-05
3.73128176438136e-07,6.71550652849311e-07,7.160337626941577e-07,2.581817379060024e-05
3.7235796245788616e-07,6.760475057821461e-07,7.015420576279718e-07,2.5846687621357785e-05
3.716168239843568e-07,6.80272953410694e-07,6.88204069720743e-07,2.5884198996580442e-05
3.7092333207442323e-07,6.842133831682063e-07,6.761131653691971e-07,2.592918614383453e-05
3.702973106490717e-07,6.878541155506276e-07,6.653435325179496e-07,2.59799802352635e-05
3.697588485004235e-07,6.911805927014598e-07,6.559492635553259e-07,2.6034866069753852e-05
3.6932583576276923e-07,6.941790834664528e-07,6.47966843367172e-07,2.6092157279099395e-05
3.6901114187136424e-07,6.96840011020295e-07,6.41418911056698e-07,2.6150236416445755e-05
3.6882170107723407e-07,6.991637662382924e-07,6.36317958297556e-07,2.620757279354531e-05
3.687595946838665e-07,7.01162461854705e-07,6.326673883931333e-07,2.6262729962014388e-05
3.688239701994471e-07,7.02854603363739e-07,6.304584108625658e-07,2.631438601126679e-05
3.690126085236865e-07,7.042579906921295e-07,6.296663105263806e-07,2.6361368542125e-05
3.693215085722407e-07,7.053871816626035e-07,6.302521507648474e-07,2.6402662618586925e-05
3.697436060829464e-07,7.062600354001453e-07,6.321706930140332e-07,2.643737499049444e-05
3.702692543569336e-07,7.069105151930331e-07,6.353793914662709e-07,2.646468998097419e-05
3.708882498230985e-07,7.073941442248752e-07,6.3984461641532e-07,2.6483827561516368e-05
3.71592610514635e-07,7.077798882070563e-07,6.455448472184193e-07,2.649401046984487e-05
3.7237999543674727e-07,7.081392006007037e-07,6.524713409289004e-07,2.649451687887588e-05
3.7325645466690715e-07,7.085398682084339e-07,6.606260521734511e-07,2.648482074236361e-05
3.742369399095775e-07,7.090408512668365e-07,6.700153693661428e-07,2.646465901710385e-05
3.7534238726931466e-07,7.096868414005282e-07,6.80639808664711e-07,2.6433936287260934e-05
3.7659359798152043e-07,7.105064126387244e-07,6.924842778418334e-07,2.639257150670331e-05
3.780055900953848e-07,7.115146181446551e-07,7.055127684412129e-07,2.6340407919862373e-05
3.795863540036152e-07,7.127164731688831e-07,7.196666977265709e-07,2.627720037096887e-05
3.813391182615979e-07,7.141080729808971e-07,7.348658937487099e-07,2.620264906357998e-05
3.8326473025905524e-07,7.156763710502331e-07,7.510119494199374e-07,2.611647051016284e-05
3.853639716161106e-07,7.174000221891107e-07,7.679925824706544e-07,2.601847169516344e-05
3.876401661710629e-07,7.192511657775097e-07,7.856863987650305e-07,2.590857353939416e-05
3.900990393261312e-07,7.211976749922047e-07,8.039674189529556e-07,2.5786799141155746e-05
3.927454533861092e-07,7.232054769641275e-07,8.227079857362923e-07,2.565326127119895e-05
3.955810359995149e-07,7.252397567489782e-07,8.417816951214405e-07,2.550814054879716e-05
3.986039152057748e-07,7.272650186110955e-07,8.610683547060844e-07,2.5351654593559423e-05
4.0180870262998147e-07,7.29244426364533e-07,8.80458396832263e-07,2.518402767122387e-05
4.0518632306277424e-07,7.311389419927622e-07,8.998538515336039e-07,2.5005471705068288e-05
4.087248017872494e-07,7.329088435745254e-07,9.191669523563947e-07,2.4816209686112672e-05
4.124112897992758e-07,7.345188853766479e-07,9.383194214696319e-07,2.461652610629099e-05
4.162338834533999e-07,7.359424670479155e-07,9.572422364863992e-07,2.440676336896362e-05
4.201817379629305e-07,7.371605178728985e-07,9.758722098386487e-07,2.418724585324075e-05
4.24244284428782e-07,7.381579037418848e-07,9.941456535613851e-07,2.3958222790026502e-05
4.2841198584105576e-07,7.389207125477984e-07,1.0119935784308577e-06,2.371992294691363e-05
4.32678044948565e-07,7.394349523032444e-07,1.0293405241419323e-06,2.3472688776149192e-05
4.370375142487422e-07,7.396883270904266e-07,1.046106282637527e-06,2.321704662823977e-05
4.414840882408146e-07,7.396736632761484e-07,1.062209292896464e-06,2.295367269972297e-05
4.460087401930693e-07,7.393890307937601e-07,1.0775700913359905e-06,2.2683342606833026e-05
4.5060153453131283e-07,7.388344971689478e-07,1.0921126933766752e-06,2.2406890737317725e-05
4.5525447452426674e-07,7.38009410975303e-07,1.1057633229588205e-06,2.2125159367581563e-05
4.5996419228532173e-07,7.369118600142371e-07,1.1184490423562707e-06,2.1838954722282453e-05
4.6473392360456685e-07,7.355395735560875e-07,1.1300994028328322e-06,2.1549030322386583e-05
4.695720413742773e-07,7.338908187352166e-07,1.1406515644251792e-06,2.125609221400253e-05
4.7448602817261637e-07,7.319651979663754e-07,1.1500560223581555e-06,2.0960809566618688e-05
4.794763420989818e-07,7.297667279517478e-07,1.1582787635882419e-06,2.0663821401147192e-05
4.845345694262554e-07,7.273083950297913e-07,1.1652983115634806e-06,2.036573798449433e-05
4.896448607727602e-07,7.246127573777635e-07,1.1711003342901505e-06,2.0067137396868483e-05
4.947856860733089e-07,7.217098762758444e-07,1.1756735672982928e-06,1.976855194858704e-05
4.999307495823929e-07,7.186395295533422e-07,1.1790081893845966e-06,1.9470440968337425e-05
5.050496946840054e-07,7.154541249408331e-07,1.1810955077387712e-06,1.917317137560233e-05
5.101098295266858e-07,7.12213256572967e-07,1.1819280976197408e-06,1.8877036997563053e-05
5.150783765649204e-07,7.089725428694482e-07,1.1815005757079846e-06,1.858230039502851e-05
5.199233306734632e-07,7.057758858543657e-07,1.1798118209093337e-06,1.828920354659368e-05
5.246136139875594e-07,7.026542972956063e-07,1.1768686483166149e-06,1.7997944334123452e-05
5.291202889869548e-07,6.996298905686941e-07,1.1726879213355459e-06,1.7708672981880025e-05
5.33416968013568e-07,6.967221112009508e-07,1.1672947512664598e-06,1.7421529200448753e-05
5.374782806965457e-07,6.939518592102592e-07,1.1607198761639808e-06,1.7136685885604528e-05
5.41279345952081e-07,6.913432708208675e-07,1.1529987332404036e-06,1.6854370999035063e-05
5.447971710265645e-07,6.889254358126295e-07,1.1441703656545171e-06,1.6574866201247988e-05
5.480116703861385e-07,6.867309805320078e-07,1.134275946002392e-06,1.629849510281268e-05
5.509057077304418e-07,6.847897373882703e-07,1.123358030881977e-06,1.602562883333979e-05
5.534647639913096e-07,6.831237966414218e-07,1.1114598548415098e-06,1.5756728707704936e-05
5.556762729397954e-07,6.817501116044186e-07,1.0986253931089935e-06,1.5492401515539912e-05
5.575302400719752e-07,6.806896034656227e-07,1.084902292966733e-06,1.5233403936205029e-05
5.590215487329154e-07,6.799765255702085e-07,1.0703458658682405e-06,1.4980553143003836e-05
5.60150657604978e-07,6.796621635109964e-07,1.0550194516738355e-06,1.4734584314349952e-05
5.609222839186619e-07,6.798115390318451e-07,1.0389907304117266e-06,1.4496054907278158e-05
5.61344417296373e-07,6.804970683966511e-07,1.022327526296189e-06,1.4265341957999158e-05
5.614266362909914e-07,6.817934294350243e-07,1.0050955697947691e-06,1.4042680368262396e-05
5.611777714979335e-07,6.83772272949183e-07,9.873602904670195e-07,1.3828191567102097e-05
5.60606445576328e-07,6.864938490507465e-07,9.691933757154101e-07,1.3621899214104496e-05
5.597238634981085e-07,6.899984179918049e-07,9.506786185624851e-07,1.3423733682732715e-05
5.585440563000458e-07,6.943023842780043e-07,9.319103572972501e-07,1.3233555338046409e-05
5.570809445960224e-07,6.993993033623454e-07,9.129875547188677e-07,1.3051246219626176e-05
5.5534583859405e-07,7.052630403077531e-07,8.940115734862656e-07,1.287683468243712e-05
5.533471373929587e-07,7.11852036585362e-07,8.750871275621235e-07,1.2710523450160287e-05
5.510913472353892e-07,7.191145815818759e-07,8.563203140566577e-07,1.2552590228646774e-05
5.485841163843563e-07,7.269937609846425e-07,8.378129190457561e-07,1.2403296268082422e-05
5.458311796167215e-07,7.354303979971088e-07,8.196577753170071e-07,1.2262880041805922e-05
5.428403802050108e-07,7.443636909087585e-07,8.019400395026673e-07,1.2131568479104578e-05
5.396241266848397e-07,7.537307838300591e-07,7.847435462638053e-07,1.2009546156037335e-05
5.361995249402289e-07,7.634657842163423e-07,7.681561895552326e-07,1.1896912099314536e-05
5.325860347620582e-07,7.734980385464761e-07,7.52270177613467e-07,1.1793684874631454e-05
5.288041255589568e-07,7.837520317292102e-07,7.371770681617462e-07,1.169985544977556e-05
5.248769743934037e-07,7.941517721378903e-07,7.229599720936993e-07,1.1615424913489688e-05
5.208329247414074e-07,8.046266531022703e-07,7.096866480044273e-07,1.1540387464170235e-05
5.1670532358739e-07,8.151117586095311e-07,6.974064699500569e-07,1.1474682707385032e-05
5.125292461513778e-07,8.25542826011626e-07,6.861517311831385e-07,1.1418157528438393e-05
5.083373378785205e-07,8.358537437352731e-07,6.759409268267916e-07,1.137054333778732e-05
5.041572736974378e-07,8.459793538550485e-07,6.667812439470006e-07,1.1331485791464e-05
5.000116960465882e-07,8.558586464890343e-07,6.586702095627214e-07,1.1300713613720074e-05
4.959191297602947e-07,8.654345508244924e-07,6.515978724313743e-07,1.1278238194422702e-05
4.918937657087088e-07,8.746520904716318e-07,6.45548260698605e-07,1.126432933084202e-05
4.879444566413965e-07,8.834588255369181e-07,6.404978502578517e-07,1.1259338075964135e-05
4.840752568708403e-07,8.918085047481899e-07,6.364125207625576e-07,1.1263615629752507e-05
4.802879525833065e-07,8.996637500605805e-07,6.332463376333753e-07,1.1277500303384315e-05
4.7658410181112653e-07,9.06993586035618e-07,6.309428157174922e-07,1.130127463449578e-05
4.729644251528325e-07,9.137686379903154e-07,6.294375692296282e-07,1.1335113336803112e-05
4.694267596438896e-07,9.199594252210536e-07,6.286625557276172e-07,1.1379032497726485e-05
4.659656927247096e-07,9.255380409954065e-07,6.285523259797662e-07,1.143288259209866e-05
4.62574921881411e-07,9.304802924458895e-07,6.290505432685814e-07,1.149645172585668e-05
4.592505590911825e-07,9.347671459990402e-07,6.301149883413123e-07,1.1569617703915084e-05
4.559923125877613e-07,9.383874919145128e-07,6.317208827188129e-07,1.1652414603865684e-05
4.5280141834704686e-07,9.413441150781206e-07,6.338617124898078e-07,1.1744986855334994e-05
4.496784294511111e-07,9.436587618672119e-07,6.365460636457624e-07,1.184749476552632e-05
4.4662334046859255e-07,9.45368520586977e-07,6.397896431911198e-07,1.1960015911424741e-05
4.436364550521731e-07,9.46514658872744e-07,6.436044124234459e-07,1.2082472030141756e-05
4.4071840870860827e-07,9.471351590237616e-07,6.479917485474353e-07,1.2214625461871836e-05
4.3786957170469416e-07,9.472653617379534e-07,6.529445805492288e-07,1.2356141833949541e-05
4.3508922673369826e-07,9.469398411290493e-07,6.584546216741766e-07,1.2506653304175274e-05
4.323748647869521e-07,9.461914429566292e-07,6.645172496501157e-07,1.2665791867591694e-05
4.2972207841652573e-07,9.450493926519287e-07,6.711299399580145e-07,1.2833197701596475e-05
4.271258132378711e-07,9.435376059083594e-07,6.782865634648521e-07,1.3008494195089893e-05
4.245828742729016e-07,9.416745334697551e-07,6.859731492249985e-07,1.3191253325358687e-05
4.2209309808352756e-07,9.394770967396944e-07,6.94166641533016e-07,1.3381001743987055e-05
4.19657735598849e-07,9.369662454480608e-07,7.028349832976437e-07,1.3577304480434672e-05
4.172777659661769e-07,9.341672061053528e-07,7.119384674279413e-07,1.3779964624918759e-05
4.149536710076748e-07,9.311041289858065e-07,7.214332912295484e-07,1.3989288356996764e-05
4.126851955597725e-07,9.27795853447353e-07,7.312769426459844e-07,1.4206212486850598e-05
4.104708767785592e-07,9.242584058729672e-07,7.414323528471055e-07,1.4432183907839132e-05
4.083079107349077e-07,9.205159664011014e-07,7.518671235574584e-07,1.4668911726676312e-05
4.0619225481396275e-07,9.166131925665316e-07,7.625485629133909e-07,1.4918101545452685e-05
4.041185487628169e-07,9.126172206562182e-07,7.734385935497319e-07,1.5181235187755832e-05
4.020798228948318e-07,9.086090366037209e-07,7.844908374920967e-07,1.5459596716285798e-05
4.00067600224138e-07,9.046735553593094e-07,7.956500361701874e-07,1.5754577716899613e-05
3.9807201798349094e-07,9.008931083559929e-07,8.068534337926298e-07,1.6067868589455048e-05
3.960815935852388e-07,8.97342560516872e-07,8.180335378059974e-07,1.6401281403530402e-05
3.940834955491782e-07,8.940844267087685e-07,8.291202723951641e-07,1.6756444453765018e-05
3.920646188119233e-07,8.9116512269588e-07,8.400408486438123e-07,1.7134633795680752e-05
3.9001320962742746e-07,8.886138341919412e-07,8.507192731271663e-07,1.7536727077014602e-05
3.8792033399533046e-07,8.864436811634226e-07,8.610773457463505e-07,1.796318077097074e-05
3.857795773614946e-07,8.846540365039641e-07,8.710361434739798e-07,1.8414011578217955e-05
3.835853870021954e-07,8.832337695878301e-07,8.805173056447883e-07,1.8888806611028302e-05
3.8133242828917033e-07,8.821650807135989e-07,8.894445656378345e-07,1.938675912896228e-05
3.790166163624111e-07,8.814257374506412e-07,8.9774584344606e-07,1.990669151972938e-05
3.766373487344274e-07,8.809883232836435e-07,9.053553224170292e-07,2.044705039267341e-05
3.741997904015253e-07,8.808190205301029e-07,9.122142920331092e-07,2.1005899942312565e-05
3.717149065318179e-07,8.808796517461101e-07,9.182705105836576e-07,2.1580929547167707e-05
3.691965676551208e-07,8.811331282673814e-07,9.234772258945824e-07,2.2169471081372533e-05
3.666584732033826e-07,8.815485792292995e-07,9.277939807631859e-07,2.2768525262896674e-05
3.641144242234119e-07,8.821032810250959e-07,9.31190427038575e-07,2.3374819552457654e-05
3.615810444381912e-07,8.82781087060572e-07,9.336509612219088e-07,2.398492853323338e-05
3.590791986021773e-07,8.835675695581171e-07,9.351764244661429e-07,2.459544046531777e-05
