3.456230969581262e-07,8.404772249177517e-07,2.9820176026523216e-07,2.6409000001997738e-05
3.459100394153333e-07,8.386569862709053e-07,3.021237147463743e-07,2.628800225114939e-05
3.463276856127786e-07,8.364284491477938e-07,3.0602525980262396e-07,2.618134768202381e-05
3.468773170453415e-07,8.338091168018829e-07,3.09899384035387e-07,2.6089673588679213e-05
3.47556738095869e-07,8.308141599228906e-07,3.1373625684528014e-07,2.6013111993371702e-05
3.4836148080545003e-07,8.274579906664667e-07,3.1752509758609017e-07,2.595132171076057e-05
3.4928572036686285e-07,8.237549904136131e-07,3.2125588698071387e-07,2.590359956891085e-05
3.503228937251475e-07,8.197216482998799e-07,3.24920192126307e-07,2.586904035314017e-05
3.51465092838847e-07,8.15378493485437e-07,3.285113418528664e-07,2.584667939853364e-05
3.5270201946180977e-07,8.107480799607752e-07,3.320231732097917e-07,2.5835575662273762e-05
3.540211677217297e-07,8.058512756360806e-07,3.3544829316378214e-07,2.583485657709188e-05
3.5540851674297764e-07,8.007062686583091e-07,3.387797629222616e-07,2.5843744332759446e-05
3.56848604306208e-07,7.953331181554787e-07,3.420153731038859e-07,2.5861545415884408e-05
3.5832455847060924e-07,7.897659387225087e-07,3.4515816100097716e-07,2.5887606490816893e-05
3.5981881073445393e-07,7.840655625066479e-07,3.482120348813813e-07,2.5921254653930326e-05
3.6131424579458106e-07,7.783198704825989e-07,3.511780454944064e-07,2.596172116656621e-05
3.6279543808322884e-07,7.726322343589993e-07,3.5405439399026476e-07,2.600807919149777e-05
3.642490511221432e-07,7.67108240146462e-07,3.5683786210504774e-07,2.605925474005477e-05
3.6566235610940953e-07,7.618464065954714e-07,3.5952411870882797e-07,2.6114090586491783e-05
3.670212033575444e-07,7.569331226158775e-07,3.621074252391114e-07,2.617138540020505e-05
3.683095916620218e-07,7.524391189701346e-07,3.645805988919266e-07,2.622990711994285e-05
3.695106420417882e-07,7.484167856129824e-07,3.6693506177917577e-07,2.628842576068301e-05
3.706078185700315e-07,7.449004823028925e-07,3.691615012226943e-07,2.634575400182081e-05
3.7158702675526573e-07,7.419098731195702e-07,3.7125091008815825e-07,2.640073990094751e-05
3.724398989687892e-07,7.394536047820601e-07,3.73194608355048e-07,2.6452197101884053e-05
3.731651758934498e-07,7.375311513263833e-07,3.749836384756614e-07,2.6498842615152697e-05
3.737661269014924e-07,7.361343694569865e-07,3.766088317618409e-07,2.6539315247790195e-05
3.742472059168189e-07,7.352516468942221e-07,3.7806195191606187e-07,2.6572264079141667e-05
3.7461300228701524e-07,7.348722069982203e-07,3.793378107026785e-07,2.6596461497887395e-05
3.7486866183615607e-07,7.349856076151893e-07,3.80435790917597e-07,2.661093725218621e-05
3.750216960118283e-07,7.355793387684734e-07,3.813589542188017e-07,2.661511123382286e-05
3.750856358389028e-07,7.366390992219916e-07,3.8211127029056e-07,2.6608829042562092e-05
3.7508186482340997e-07,7.381475355962577e-07,3.8269517513909967e-07,2.659224836152169e-05
3.7503659777193463e-07,7.400799758566037e-07,3.831107117427217e-07,2.656563635869001e-05
3.7497602503365433e-07,7.424035813034155e-07,3.8335565040439937e-07,2.652919087283992e-05
3.7492330312246597e-07,7.45082446127821e-07,3.834263847970635e-07,2.648297240992753e-05
3.748973635645565e-07,7.48084370461639e-07,3.833199984755491e-07,2.642692857540178e-05
3.7491290395877386e-07,7.513831669443215e-07,3.8303609528843927e-07,2.636092309627149e-05
3.7498123107609565e-07,7.549544504274541e-07,3.8257653205049147e-07,2.6284775001381092e-05
3.751105902198485e-07,7.587702932255827e-07,3.8194354994671676e-07,2.6198444106086452e-05
3.753060047431218e-07,7.627983468278547e-07,3.8113811210193773e-07,2.610234266895245e-05
3.75569986531797e-07,7.670040365990518e-07,3.801595098130071e-07,2.599748372683149e-05
3.759035767734864e-07,7.713526958623041e-07,3.7900641760327256e-07,2.588533205657406e-05
3.7630649698697656e-07,7.758110723897255e-07,3.776782753741495e-07,2.5767533307434522e-05
3.7677620525057047e-07,7.803469899530266e-07,3.761753850126226e-07,2.5645680465366308e-05
3.773066398638106e-07,7.849276168960762e-07,3.7449829116197633e-07,2.5521217730246266e-05
3.77889136065857e-07,7.89519888039235e-07,3.726482168116456e-07,2.5395596431768296e-05
3.78516522110116e-07,7.940928918142684e-07,3.706283906972745e-07,2.5270563793680013e-05
3.7918670063295203e-07,7.986192390281348e-07,3.6844458961969656e-07,2.5148272421544782e-05
3.7990263249393967e-07,8.030749938216772e-07,3.661044219545579e-07,2.5031158307193646e-05
3.8067028444583527e-07,8.074393426984987e-07,3.636169780424512e-07,2.492177714931225e-05
3.814959055916848e-07,8.116971880197721e-07,3.6099374392596247e-07,2.482267988814831e-05
3.823829723960728e-07,8.158441992456038e-07,3.582493529035129e-07,2.473629235178514e-05
3.8333118198152905e-07,8.198860174409679e-07,3.5540154922567136e-07,2.466479004009929e-05
3.8433856234058426e-07,8.238301176956276e-07,3.5247072716226655e-07,2.461000684723675e-05
3.854036886103797e-07,8.276798154487129e-07,3.494789415493779e-07,2.457341008156876e-05
3.865252701410272e-07,8.314357759159146e-07,3.464490343582173e-07,2.455612107584364e-05
3.877003305073193e-07,8.351020788957744e-07,3.43403827799262e-07,2.455892554658222e-05
3.8892300042456314e-07,8.38690826413722e-07,3.403648102984015e-07,2.4582243017743562e-05
3.901841042713862e-07,8.422212059856966e-07,3.373508006420056e-07,2.462607886183349e-05
3.9147112522817077e-07,8.457157543849614e-07,3.343774858165174e-07,2.4689990103733914e-05
3.9276843599055975e-07,8.491978539548785e-07,3.314590563353566e-07,2.477308239462965e-05
3.940585100226987e-07,8.526894307994552e-07,3.286105149718211e-07,2.487407663747847e-05
3.953245548485525e-07,8.56209280733638e-07,3.2584747742031477e-07,2.499146070438065e-05
3.9655297700263384e-07,8.597735184246765e-07,3.231842804601834e-07,2.5123656840796065e-05
3.9773315235528495e-07,8.633950563610134e-07,3.206329367528732e-07,2.5269129754045505e-05
3.988547897499325e-07,8.670810642429974e-07,3.182027513799507e-07,2.5426442831934635e-05
3.9990620819776895e-07,8.708327727517208e-07,3.159000759577447e-07,2.559429375393093e-05
4.0087455213598893e-07,8.746534277903258e-07,3.1372919152571504e-07,2.5771518009974733e-05
4.0174645945725906e-07,8.785633485243416e-07,3.116936835678361e-07,2.5957038563163532e-05
4.025091896710643e-07,8.826079736293968e-07,3.097963568353323e-07,2.6149772851781446e-05
4.03152510038737e-07,8.868493820769039e-07,3.080380294182004e-07,2.634853209510365e-05
4.036701713596184e-07,8.913501923499277e-07,3.0641657213013356e-07,2.655195692435285e-05
4.04059697499931e-07,8.961611186590412e-07,3.0492678257168106e-07,2.6758539933129494e-05
4.043204368942129e-07,9.01314757671698e-07,3.0356137027164817e-07,2.696670796430469e-05
4.044512911034122e-07,9.068244753283508e-07,3.023123153945497e-07,2.717485519077908e-05
4.044498197932578e-07,9.12685882552392e-07,3.011715144533076e-07,2.738131536478636e-05
4.043126665136885e-07,9.188785502634224e-07,3.0013132113083446e-07,2.758435663466635e-05
4.0403604535769075e-07,9.253681023441395e-07,2.991852834237646e-07,2.778221966501989e-05
4.0361692319145863e-07,9.3210904141625e-07,2.983277082997053e-07,2.7973150727924328e-05
4.030562957545968e-07,9.390473659351568e-07,2.9755237738040055e-07,2.8155406606148613e-05
4.023632434708035e-07,9.461225748816881e-07,2.968518944530715e-07,2.8327290007329395e-05
4.015562772525075e-07,9.532696436953072e-07,2.962175201649012e-07,2.848725277610608e-05
4.0065951284429604e-07,9.604212294553568e-07,2.9563908365331665e-07,2.863399352688037e-05
3.996961453002473e-07,9.67509541816642e-07,2.951053270540679e-07,2.8766490378260773e-05
3.9868430220913223e-07,9.74468856352593e-07,2.946050869970353e-07,2.8883986516370643e-05
3.976368002904892e-07,9.812403604751686e-07,2.9412927879083536e-07,2.8985954748454932e-05
3.965640934337257e-07,9.877762967899557e-07,2.936722150434481e-07,2.9072053805997932e-05
3.954785449118056e-07,9.94038772544715e-07,2.932307677806949e-07,2.914205922760262e-05
3.9439615683162776e-07,9.999952421839949e-07,2.928024321378392e-07,2.9195760864901537e-05
3.9333450042893426e-07,1.0056167163959735e-06,2.9238389899691355e-07,2.9232906288567763e-05
3.923096265897221e-07,1.0108793603519822e-06,2.9197058156206367e-07,2.9253246719149352e-05
3.913346578984778e-07,1.0157648397237966e-06,2.915570313369209e-07,2.925660151859116e-05
3.9042035923141994e-07,1.0202576067791646e-06,2.911377490806664e-07,2.924284655547293e-05
3.8957600253520023e-07,1.0243409329904595e-06,2.907083084386005e-07,2.9211869777144007e-05
3.888090991699281e-07,1.0279948638525237e-06,2.902661684228424e-07,2.9163643351533595e-05
3.881251623360086e-07,1.0312000522904594e-06,2.898097958515675e-07,2.909841889494444e-05
3.8752980531734e-07,1.0339452878887294e-06,2.893368071264927e-07,2.901680407642063e-05
3.8703261771842323e-07,1.0362300618307394e-06,2.888429042375507e-07,2.891963997314585e-05
3.866494047813805e-07,1.038060183744995e-06,2.8832180792049645e-07,2.880787942334626e-05
3.86400424285846e-07,1.039442549811945e-06,2.8776578629662263e-07,2.8682531508866048e-05
3.863062403979699e-07,1.0403816384991257e-06,2.871664471125516e-07,2.8544607284297447e-05
3.863847098079061e-07,1.0408769516604259e-06,2.8651518459988504e-07,2.839508447095168e-05
3.866496897410022e-07,1.0409221326921552e-06,2.858032791149136e-07,2.8234896690406532e-05
3.871114801901349e-07,1.040505882187386e-06,2.8502225657001646e-07,2.806491339288888e-05
3.877804105630322e-07,1.0396140148458782e-06,2.841645229721005e-07,2.7885916038871843e-05
3.8867078610736274e-07,1.0382321411515908e-06,2.83223837371322e-07,2.769859197488753e-05
3.898014332061133e-07,1.0363488032324009e-06,2.821956245430167e-07,2.7503542466966082e-05
3.9119484686599616e-07,1.0339593227622386e-06,2.810773915820661e-07,2.7301290289048528e-05
3.92876257817114e-07,1.0310684579055612e-06,2.798689528321852e-07,2.7092287658685603e-05
3.9487027567420893e-07,1.0276894405783932e-06,2.7857180906799677e-07,2.6876936662895654e-05
3.9719666026571274e-07,1.023840367257934e-06,2.7718786718733404e-07,2.665561978298588e-05
3.9986849177173746e-07,1.0195407017033422e-06,2.7571893057944716e-07,2.642873057941356e-05
4.0289157272999074e-07,1.0148105110948818e-06,2.741677556527369e-07,2.6196686010516088e-05
4.062639733341986e-07,1.0096730749965463e-06,2.725389892011081e-07,2.5959882194611497e-05
4.099765272338258e-07,1.0041576196123226e-06,2.708384404586977e-07,2.571861007906179e-05
4.1401404062400523e-07,9.982982686603406e-07,2.6907200588126576e-07,2.547301608031813e-05
4.1835760687877047e-07,9.92129668795555e-07,2.672457693425141e-07,2.5223137023600212e-05
4.2298761048553704e-07,9.85684487873458e-07,2.653668924533297e-07,2.496895984912404e-05
4.2788426072357894e-07,9.789962325690837e-07,2.634449326391007e-07,2.4710464974751443e-05
4.3302486912562523e-07,9.721040456014073e-07,2.614930708521121e-07,2.4447639194699647e-05
4.383811248896758e-07,9.65053807642952e-07,2.595273632897049e-07,2.418046910800272e-05
4.439186166567005e-07,9.57894427360974e-07,2.575639738651477e-07,2.3908961303072493e-05
4.495980717147104e-07,9.506736074181034e-07,2.55617051994714e-07,2.363320700661605e-05
4.553778112440671e-07,9.43438767182378e-07,2.5369853495033267e-07,2.335343564612998e-05
4.612167097483043e-07,9.362445702260084e-07,2.518190756125688e-07,2.307000194461593e-05
4.670752494745711e-07,9.291596210462415e-07,2.499896198866092e-07,2.2783314413115798e-05
4.729142941151516e-07,9.22263086280328e-07,2.482232531401533e-07,2.249375165318304e-05
4.78694642667029e-07,9.156333358738821e-07,2.4653601062762904e-07,2.220162347443686e-05
4.843780906689396e-07,9.093380868842804e-07,2.44946179065758e-07,2.1907204907044574e-05
4.899277691342299e-07,9.034308559229776e-07,2.434732309047673e-07,2.1610786782174342e-05
4.953081375278254e-07,8.979517955612859e-07,2.4213704637159844e-07,2.131267955091323e-05
5.004856686356812e-07,8.929282988597292e-07,2.409567794771672e-07,2.1013188181483583e-05
5.054285585022635e-07,8.883740074318882e-07,2.3994897910360804e-07,2.0712586518557684e-05
5.101055797894311e-07,8.842887870376658e-07,2.391259350937041e-07,2.0411122583394016e-05
5.144864018834576e-07,8.806603527705807e-07,2.3849515494585164e-07,2.010910896426832e-05
5.185426794356848e-07,8.774672194331464e-07,2.3806004451278681e-07,1.980705009355825e-05
5.222477692739826e-07,8.746850228748856e-07,2.378214862031057e-07,1.950566487443448e-05
5.255758149314598e-07,8.722938104121895e-07,2.3777908719900173e-07,1.9205771606588533e-05
5.285014384583792e-07,8.702787240087437e-07,2.3793157575667963e-07,1.890815808187883e-05
5.309998557819118e-07,8.686240335435715e-07,2.3827697351475247e-07,1.8613572271524666e-05
5.330481043511982e-07,8.673096848886734e-07,2.3881234587011215e-07,1.8322854974164327e-05
5.346277689987184e-07,8.663151545401451e-07,2.395343302414389e-07,1.8037097469100435e-05
5.357269144387621e-07,8.656241888782958e-07,2.404424513816786e-07,1.7757687518011346e-05
5.363393042887946e-07,8.652238915527494e-07,2.4154290234037254e-07,1.748621437374243e-05
5.364624285693609e-07,8.651007809042696e-07,2.428486009949116e-07,1.7224279283219604e-05
5.360963981700825e-07,8.652376686262731e-07,2.44375229295812e-07,1.697329161569219e-05
5.352437950361011e-07,8.656119372621008e-07,2.461369310783425e-07,1.67343429017688e-05
5.339107599290096e-07,8.66195363262318e-07,2.481447967835676e-07,1.6508181878149076e-05
5.321089429494204e-07,8.669548798242707e-07,2.5040667421909146e-07,1.6295245325409092e-05
5.298552945354396e-07,8.678541820289406e-07,2.5292588734308904e-07,1.6095725515241218e-05
5.271695816977499e-07,8.688551052679747e-07,2.557003510220876e-07,1.590972815870106e-05
5.240732640769167e-07,8.699177327969048e-07,2.587236061505612e-07,1.5737528253264816e-05
5.205900115034063e-07,8.71001842741452e-07,2.6198563002166865e-07,1.557974729225407e-05
5.167466696139829e-07,8.720696602005816e-07,2.6547219522031944e-07,1.543728674840453e-05
5.12575036194749e-07,8.73086214899637e-07,2.6916527121330287e-07,1.531109607899193e-05
5.081127250901824e-07,8.740181649782173e-07,2.7304522597582326e-07,1.5201963417052951e-05
5.034010535275108e-07,8.748344154409119e-07,2.7709211582649245e-07,1.511049666003588e-05
4.984817545579739e-07,8.755076820243555e-07,2.8128566258886126e-07,1.503736758297221e-05
4.933961259142867e-07,8.760148224372634e-07,2.8560595341415497e-07,1.498360814195354e-05
4.881864246548488e-07,8.763355756512138e-07,2.900345817161654e-07,1.4950668129167013e-05
4.828957545219186e-07,8.764503853913255e-07,2.945543884742679e-07,1.4940258896650962e-05
4.775659231710725e-07,8.763394889827554e-07,2.9914842332485505e-07,1.4954174835126815e-05
4.7223632014684046e-07,8.759843151828556e-07,3.038001964400166e-07,1.4994164496761706e-05
4.669446425780882e-07,8.753700243685056e-07,3.084940035022768e-07,1.5061832120117417e-05
4.617278223810767e-07,8.744886253813938e-07,3.1321330788822216e-07,1.5158544493392923e-05
4.566221638666475e-07,8.733401345350519e-07,3.179394095186985e-07,1.528534596055553e-05
4.516627351666594e-07,8.719284728855291e-07,3.2265302874187504e-07,1.5442898892010202e-05
4.4688214209040576e-07,8.7025609065309e-07,3.273366156156474e-07,1.5631447382997053e-05
4.4230868935764257e-07,8.683234646904665e-07,3.3197381077245443e-07,1.5850789866809636e-05
4.3796561683265533e-07,8.661311839919399e-07,3.365470362719232e-07,1.6100248891422166e-05
4.338731600985053e-07,8.636798248050486e-07,3.410361968626566e-07,1.637864391623311e-05
4.300504220906972e-07,8.609687742510092e-07,3.454186898493004e-07,1.6684298582907854e-05
4.2651349999108267e-07,8.579978141574805e-07,3.4967022267280197e-07,1.7015116743799492e-05
4.232729036261945e-07,8.547726848063327e-07,3.5376697092458293e-07,1.7368730834207453e-05
4.2033553533518896e-07,8.513122023463621e-07,3.576878050746675e-07,1.7742675497462108e-05
4.177095892558584e-07,8.476521207539719e-07,3.61414316145554e-07,1.8134512761211613e-05
4.1540622925715816e-07,8.438409341953808e-07,3.649298813482657e-07,1.8541881430383025e-05
4.1343709648377204e-07,8.3992849774721e-07,3.682201489692305e-07,1.8962517547535087e-05
4.118107555721336e-07,8.359567045255022e-07,3.7127344735570786e-07,1.9394287996131023e-05
4.105303532481296e-07,8.319608634297695e-07,3.740795625550469e-07,1.983521225405769e-05
4.0959404882302276e-07,8.279800534047145e-07,3.7662878882708543e-07,2.0283432793691305e-05
4.08997396278845e-07,8.240664290454781e-07,3.7891210722841674e-07,2.0737144891331133e-05
4.087353894692969e-07,8.202853838327057e-07,3.8092136144306643e-07,2.119451941468678e-05
4.088036363506647e-07,8.167072079048848e-07,3.826491967137628e-07,2.1653636113885207e-05
4.0919922070078134e-07,8.133967212926932e-07,3.840889965196076e-07,2.211245784623363e-05
4.099209646760989e-07,8.104060935864109e-07,3.852351099835164e-07,2.256886353472585e-05
4.1096840010176286e-07,8.077720812558993e-07,3.860833083332122e-07,2.3020689874752546e-05
4.123397779491729e-07,8.055169598993015e-07,3.866310579860613e-07,2.3465746318701747e-05
4.140295822283608e-07,8.03651965055634e-07,3.868779245711865e-07,2.390182874305023e-05
4.1602673144234533e-07,8.021811576047616e-07,3.8682620117356527e-07,2.4326730709804744e-05
4.1831573009423705e-07,8.011035067807225e-07,3.8648116034179725e-07,2.4738249995653806e-05
4.208804590418978e-07,8.004130732064384e-07,3.858505087626345e-07,2.5134253476130842e-05
4.237072101051165e-07,8.000987145364942e-07,3.8494326415818953e-07,2.551280347066384e-05
4.2678439799470576e-07,8.001438903224891e-07,3.8376917152022774e-07,2.587223687632745e-05
4.301003541704708e-07,8.005264847998162e-07,3.823392524284381e-07,2.621116566765141e-05
4.336426155101658e-07,8.012193063888732e-07,3.8066588439849536e-07,2.652845807837988e-05
4.373983545542113e-07,8.021922610752857e-07,3.7876158106873974e-07,2.6823183065095835e-05
4.4135313219124775e-07,8.034163976833712e-07,3.766390538550887e-07,2.709449147668288e-05
4.454889060744575e-07,8.048681526481382e-07,3.743132538779632e-07,2.73415107489543e-05
4.4978360380224935e-07,8.065298845763715e-07,3.718020095588221e-07,2.756332980902491e-05
4.542115397436286e-07,8.083849101999337e-07,3.691240511654864e-07,2.775907379529044e-05
4.587438840888629e-07,8.10411558327866e-07,3.6629687756909866e-07,2.7928017513005292e-05
4.6334948172285003e-07,8.125824780894571e-07,3.6333625928303215e-07,2.8069664915258647e-05
4.6799550490025346e-07,8.148693581905345e-07,3.602571391953574e-07,2.8183758905823903e-05
4.726475802635968e-07,8.172462566096249e-07,3.570746535530847e-07,2.8270240713121197e-05
4.772697886587743e-07,8.196870523994551e-07,3.538044224433136e-07,2.8329183873685022e-05
4.818254562147222e-07,8.221616769704873e-07,3.504628599135152e-07,2.8360743384331678e-05
4.862791198593379e-07,8.246370292067532e-07,3.4706799380504777e-07,2.8365172932761353e-05
4.905983746895788e-07,8.270808187906909e-07,3.436398603387054e-07,2.834287892100616e-05
4.947547928251088e-07,8.294624919019707e-07,3.401997130455053e-07,2.829443137743739e-05
4.987240402481576e-07,8.317503399536567e-07,3.3676863796920924e-07,2.8220522049594127e-05
5.024859201880313e-07,8.339096401011584e-07,3.333664973112333e-07,2.8121902952308587e-05
5.060250524651719e-07,8.359037457149644e-07,3.300110288232208e-07,2.7999330840717487e-05
5.09329722250773e-07,8.37695474115828e-07,3.2671707771590207e-07,2.785353282603756e-05
5.123883261312179e-07,8.392490343556296e-07,3.234963823844551e-07,2.7685196404768463e-05
5.151879110571992e-07,8.405339024333306e-07,3.203584662057055e-07,2.7494975905110224e-05
5.177156821742344e-07,8.415265354450763e-07,3.173128614862176e-07,2.728349602518569e-05
5.199604597039561e-07,8.42207280340469e-07,3.143701257603563e-07,2.705133849499974e-05
5.219139655276053e-07,8.425566756484348e-07,3.115400057174467e-07,2.6799025724057025e-05
5.235729123660543e-07,8.42554427911063e-07,3.088298422898073e-07,2.652702497689967e-05
5.249395867658566e-07,8.421812479439223e-07,3.062450493482274e-07,2.623577080650684e-05
5.260186231888587e-07,8.414218157260666e-07,3.037898251761548e-07,2.5925691310060863e-05
5.268134612369268e-07,8.402652181581855e-07,3.014673028451523e-07,2.5597233823073675e-05
5.273270383327111e-07,8.387025272431712e-07,2.992795990460986e-07,2.525088372845398e-05
5.275642117245706e-07,8.367248671658687e-07,2.972275413621013e-07,2.48871695358428e-05
5.275314510546303e-07,8.343237194207231e-07,2.953102103836012e-07,2.4506666970164145e-05
5.272350652069316e-07,8.314923675981729e-07,2.9352479441639464e-07,2.411002073905478e-05
5.266805484161555e-07,8.282264186096994e-07,2.9186654047971677e-07,2.369797594270871e-05
5.25872360699614e-07,8.245232760522042e-07,2.90328888868906e-07,2.3271387415365452e-05
5.248133584386627e-07,8.203830583285483e-07,2.88904748660766e-07,2.2831189838564602e-05
5.235045752818365e-07,8.158126577297007e-07,2.875887623176104e-07,2.2378352205818087e-05
5.219462518488254e-07,8.108321720060145e-07,2.863786546871045e-07,2.19138507601154e-05
5.20140275937556e-07,8.054790045423741e-07,2.8527481155254865e-07,2.1438675680191225e-05
5.180920534721923e-07,7.998029287695741e-07,2.842793149056601e-07,2.095388029156624e-05
5.158099204766497e-07,7.938549147336843e-07,2.833950234147273e-07,2.046065391434744e-05
5.133034276246089e-07,7.876816774183856e-07,2.826240120194056e-07,1.9960357257990466e-05
5.105823032706652e-07,7.813318959920769e-07,2.819656445902794e-07,1.945448633136681e-05
5.076556896581598e-07,7.748669839821204e-07,2.8141569712663523e-07,1.894460068202213e-05
5.045309797813268e-07,7.68363140545505e-07,2.8096710201597253e-07,1.84322590737349e-05
5.012130638225293e-07,7.619019667565855e-07,2.8061109642881644e-07,1.7918983145339855e-05
4.977047600182398e-07,7.555595458994511e-07,2.803378038685175e-07,1.7406274479291877e-05
4.94007817244295e-07,7.494000235761193e-07,2.8013767513676824e-07,1.6895649195742387e-05
4.901239522441251e-07,7.434728984140967e-07,2.800043344780493e-07,1.638860572393135e-05
4.86056659456551e-07,7.378131145397806e-07,2.799358068650678e-07,1.5886549013335028e-05
4.818132265530073e-07,7.324427690070596e-07,2.799328633877234e-07,1.539075988769512e-05
4.774048793787739e-07,7.273730620556354e-07,2.799973229612421e-07,1.490242742769481e-05
4.728461323359218e-07,7.226062152359806e-07,2.801317582202497e-07,1.4422724837529062e-05
4.681548482669837e-07,7.181368900266912e-07,2.803392187504705e-07,1.395288174790829e-05
4.633509164436085e-07,7.139525191831821e-07,2.806220297322986e-07,1.3494176829852993e-05
4.584534238312192e-07,7.100334245949422e-07,2.809802436027857e-07,1.3047886338118127e-05
4.5347925968423043e-07,7.063537274254029e-07,2.814107642401935e-07,1.261528272394319e-05
4.4844380841230393e-07,7.028829694457758e-07,2.819077508503204e-07,1.2197648592269024e-05
4.4336215852612505e-07,6.995888173545782e-07,2.82464027690645e-07,1.1796251160909213e-05
4.382496283815158e-07,6.964414633491791e-07,2.8307212694616014e-07,1.1412305626477839e-05
4.3312100611741216e-07,6.934181106836006e-07,2.837242153652417e-07,1.1046939662415416e-05
4.279890065923762e-07,6.90504444996354e-07,2.8441180410349056e-07,1.070113544803013e-05
4.228634931849559e-07,6.876921378871536e-07,2.851259401871859e-07,1.0375662246304864e-05
4.177515952632497e-07,6.849743005156927e-07,2.858578222347033e-07,1.007104981201877e-05
4.126580750503908e-07,6.823423298040349e-07,2.8660062697939247e-07,9.787606828522446e-06
4.0758669761404547e-07,6.797865825082959e-07,2.8735262422043946e-07,9.525455978968328e-06
4.0254244774011493e-07,6.772986111930575e-07,2.881186665767201e-07,9.284584796370938e-06
3.9753251329614797e-07,6.748717403038309e-07,2.8890814933306825e-07,9.064885605496733e-06
3.925649129914586e-07,6.725011044289867e-07,2.8973149097678907e-07,8.866193371611381e-06
3.876461848917648e-07,6.70184639272861e-07,2.905975697313813e-07,8.688428151544694e-06
3.8278054093033254e-07,6.679255037903903e-07,2.915126075533216e-07,8.531777364287389e-06
3.7797075456399157e-07,6.657350922495759e-07,2.924801732225033e-07,8.396700343287277e-06
3.7321901674862745e-07,6.636321237810101e-07,2.935014875258447e-07,8.28381097678495e-06
3.685275937036642e-07,6.616372218063368e-07,2.9457506071087643e-07,8.19381901343607e-06
3.639001873388141e-07,6.597680103783675e-07,2.956961594782108e-07,8.127487843742879e-06
3.5934281757747566e-07,6.580363645412246e-07,2.9685743615970673e-07,8.085552393105399e-06
3.5486305181344856e-07,6.564468449773964e-07,2.980505700327115e-07,8.068651272759455e-06
3.504687291985721e-07,6.549965676355483e-07,2.992676999446835e-07,8.077284532565167e-06
3.461676545405268e-07,6.536767522904628e-07,3.005023445901514e-07,8.111765617529555e-06
3.419685097523231e-07,6.524751948960497e-07,3.017494800686797e-07,8.17216589932567e-06
3.378819762880091e-07,6.51377740663096e-07,3.0300419145324464e-07,8.258277378583812e-06
3.339203239541298e-07,6.503698349075227e-07,3.042599591062435e-07,8.36960811102604e-06
3.300949028743023e-07,6.494412096231294e-07,3.055078565539086e-07,8.505393605729358e-06
3.264135926882888e-07,6.485899820838793e-07,3.0673683043766954e-07,8.664602153895587e-06
3.228804453494995e-07,6.478214517630532e-07,3.0793460098197587e-07,8.845940640275394e-06
3.194978050056612e-07,6.471446225575739e-07,3.0908843814537645e-07,9.04788804139791e-06
3.162695937500872e-07,6.465696889960048e-07,3.101857930758862e-07,9.268755192129133e-06
3.1320235521739714e-07,6.46106176333476e-07,3.1121509878496625e-07,9.506731638476708e-06
3.1030268280114807e-07,6.457610585757353e-07,3.1216632049503434e-07,9.75991293945162e-06
3.075749266574013e-07,6.455363505715385e-07,3.130306162043808e-07,1.0026337446783253e-05
3.050218539415587e-07,6.454274209710986e-07,3.137996298229768e-07,1.0304031927448002e-05
3.026464541785e-07,6.454246796541489e-07,3.144659213725925e-07,1.0591054320871888e-05
3.004528876730227e-07,6.455201879864986e-07,3.150242762422669e-07,1.0885544772438896e-05
2.9844638101506e-07,6.457161975798854e-07,3.154720412435177e-07,1.1185789831404993e-05
2.966320326018581e-07,6.460273603623475e-07,3.158089335037685e-07,1.149026822407179e-05
2.950134632687353e-07,6.464730456140226e-07,3.1603760231604853e-07,1.1797647115823193e-05
2.93594153155908e-07,6.470673697244496e-07,3.1616352127529657e-07,1.2106744716154093e-05
2.9238169654880163e-07,6.478158160311674e-07,3.161931682956993e-07,1.2416477481121828e-05
2.913907946226329e-07,6.487202978844081e-07,3.161320031816422e-07,1.2725798960352209e-05
2.906413422229284e-07,6.497879111749129e-07,3.1598342675325045e-07,1.3033661355058141e-05
2.901529121117096e-07,6.51034769630167e-07,3.157486961274127e-07,1.3338997613389552e-05
2.899400577258717e-07,6.524817730781927e-07,3.154284381491742e-07,1.3640696812550807e-05
2.9001056591858677e-07,6.541480522799503e-07,3.150256415750957e-07,1.3937617774247582e-05
2.903660675259542e-07,6.560473998678947e-07,3.1454715923123643e-07,1.4228657549520504e-05
2.91003893195636e-07,6.581877030920877e-07,3.140028866724882e-07,1.451277680410225e-05
2.91918288953036e-07,6.605705732213292e-07,3.134052391205706e-07,1.4788957830509467e-05
2.931000995379584e-07,6.631904106488226e-07,3.1276901265362227e-07,1.5056173842087331e-05
2.9453608674709e-07,6.660354283087271e-07,3.121103745424902e-07,1.5313388658659425e-05
2.96208654293746e-07,6.690908585300658e-07,3.1144580726642626e-07,1.5559607336580083e-05
2.9809616135085444e-07,6.723417276762885e-07,3.107915763168449e-07,1.5794016006721964e-05
3.001736261557159e-07,6.757739371943605e-07,3.1016276357745236e-07,1.6016111657563367e-05
3.024137169527991e-07,6.793743061661937e-07,3.095718609465705e-07,1.6225687599167113e-05
3.0478879339544356e-07,6.831300649609364e-07,3.090287471326756e-07,1.6422700344800412e-05
3.0727314015719013e-07,6.870273961438705e-07,3.085422127384438e-07,1.6607134454266045e-05
3.098442297159574e-07,6.910509377217579e-07,3.0812128482811625e-07,1.677896306618386e-05
3.1248324669083263e-07,6.951863357079715e-07,3.0777633855302524e-07,1.6938210946545807e-05
3.1517378541718093e-07,6.994227041150428e-07,3.075198623641447e-07,1.7085005170404567e-05
3.178988493144687e-07,7.03751285275813e-07,3.073651559645429e-07,1.7219537853472374e-05
3.206395715378835e-07,7.081610592139288e-07,3.073238102997093e-07,1.7341989202532402e-05
3.233770605171821e-07,7.126343703602483e-07,3.074045425931104e-07,1.7452477874410556e-05
3.2609421386376075e-07,7.171451012778949e-07,3.07613302887543e-07,1.755105254084979e-05
3.2877580777957624e-07,7.216595336871799e-07,3.0795288817326985e-07,1.763769195739421e-05
3.314099982750381e-07,7.261384969810145e-07,3.084225741174541e-07,1.7712302631819418e-05
3.3399143457318413e-07,7.305398916449703e-07,3.090199319087193e-07,1.7774739683131063e-05
3.365207986537274e-07,7.348206740986371e-07,3.097433696556912e-07,1.7824887650870868e-05
3.390000587864684e-07,7.38938683597599e-07,3.105916518031893e-07,1.7862854337002645e-05
3.4142944406890476e-07,7.428570617217594e-07,3.115615009174092e-07,1.7889213192569095e-05
3.438087553105099e-07,7.465493625154969e-07,3.1264745351936e-07,1.790507849793717e-05
3.4613915466079624e-07,7.499990609821957e-07,3.138435176591097e-07,1.791194983030855e-05
3.4842296182751433e-07,7.531945974884525e-07,3.151430636720075e-07,1.7911485392285056e-05
3.5066243971644074e-07,7.561255594422271e-07,3.165369884913264e-07,1.790535928006683e-05
3.5285832188480283e-07,7.587805927837254e-07,3.18012907081172e-07,1.7895301993531565e-05
3.550089882163389e-07,7.611463194710895e-07,3.195561932093025e-07,1.7883252945209267e-05
3.571120841953737e-07,7.632075832112648e-07,3.21151106272738e-07,1.7871389256517887e-05
3.59168561226668e-07,7.6494905452785e-07,3.227808092804747e-07,1.7861988004761535e-05
3.6118499984369223e-07,7.663586141712078e-07,3.2442767964957707e-07,1.785725875599049e-05
3.631708673433875e-07,7.67430218247399e-07,3.260744868901061e-07,1.7859211634140452e-05
3.651339716681872e-07,7.681629516392655e-07,3.277046167137114e-07,1.7869579733633882e-05
3.67078915315824e-07,7.685581775282616e-07,3.293014105108421e-07,1.7889791349861363e-05
3.6900901145488454e-07,7.686181675893383e-07,3.3084857906144987e-07,1.7920952491719714e-05
3.7092871481455627e-07,7.683461263036191e-07,3.3233100029087004e-07,1.7963829963453836e-05
3.728432443709715e-07,7.677457391428547e-07,3.3373432088608287e-07,1.8018854535786766e-05
3.747560909845051e-07,7.668193941016544e-07,3.350452402710425e-07,1.8086143760120334e-05
3.766675481881789e-07,7.655666221213566e-07,3.3625436425192185e-07,1.8165527882819464e-05
3.785743811487251e-07,7.639838247996558e-07,3.3735839128220823e-07,1.825656282899949e-05
3.804696382135501e-07,7.62064485203583e-07,3.383581126426549e-07,1.8358526750776684e-05
3.8234349421325954e-07,7.598003054716981e-07,3.392549606476205e-07,1.847043394691587e-05
3.841854816274668e-07,7.571842592308363e-07,3.400496969889925e-07,1.859111027099661e-05
3.859860755901384e-07,7.542146984677186e-07,3.407422476729893e-07,1.8719308848650893e-05
3.8773593507637307e-07,7.508998340789795e-07,3.413314413565457e-07,1.8853787483828265e-05
3.894247132553133e-07,7.472605386784748e-07,3.418156371210023e-07,1.899332561836155e-05
3.910419820750975e-07,7.433271754814358e-07,3.4219426916119127e-07,1.9136732773456477e-05
3.9257842272380297e-07,7.39133144657675e-07,3.4246828899468197e-07,1.928288139308492e-05
3.9402516476311593e-07,7.34711884290622e-07,3.4263914780199645e-07,1.9430751774282425e-05
3.953733354207272e-07,7.300962025456366e-07,3.427080715882647e-07,1.9579440041240385e-05
3.966146724703679e-07,7.25317295946862e-07,3.426757153893569e-07,1.972809049439961e-05
3.977416470982914e-07,7.204050211734974e-07,3.4254149470127304e-07,1.9875796172819945e-05
3.98746708007379e-07,7.153886368239288e-07,3.4230292439102297e-07,2.002154201826969e-05
3.996211869499962e-07,7.102950898336467e-07,3.419559376238882e-07,2.016423231989091e-05
4.00355238973034e-07,7.051459190639676e-07,3.4149705365202297e-07,2.030280184013367e-05
4.009388548582642e-07,6.99957460948375e-07,3.409253439991053e-07,2.0436328713636787e-05
4.013621503780275e-07,6.947462142638337e-07,3.402414995949414e-07,2.0564060555515444e-05
4.016150695149288e-07,6.895346163975337e-07,3.394457829436213e-07,2.0685371813644722e-05
4.0168823084203093e-07,6.843507178113896e-07,3.385376111704769e-07,2.0799698290304278e-05
4.015750647010004e-07,6.792229577499654e-07,3.375165035148096e-07,2.0906456647242083e-05
4.0127278672410325e-07,6.741770918940518e-07,3.363830712191327e-07,2.100500125518069e-05
4.007805392278779e-07,6.692370052059265e-07,3.351389464332309e-07,2.109470401272069e-05
4.000969421444804e-07,6.644253676135615e-07,3.337857997560581e-07,2.117511930612017e-05
3.9921943821568315e-07,6.597614368228903e-07,3.3232529326622837e-07,2.124607074790436e-05
3.981447565125196e-07,6.552578549548735e-07,3.307605249292921e-07,2.1307605901643275e-05
3.96869450053401e-07,6.509199480425577e-07,3.290976892626459e-07,2.135990850167192e-05
3.953910398635319e-07,6.467470522068736e-07,3.273471097269749e-07,2.1403214873464346e-05
3.937107070356792e-07,6.427333087582971e-07,3.2552301838264307e-07,2.143774019305513e-05
3.918368517462991e-07,6.38868008866274e-07,3.236428133612454e-07,2.1463628473944488e-05
3.8978677965044175e-07,6.351359697079411e-07,3.2172711610112443e-07,2.148092759256488e-05
3.875846268080981e-07,6.315178767201112e-07,3.197992039287023e-07,2.148959859748856e-05
3.852568955706264e-07,6.279922067464865e-07,3.17882525383275e-07,2.148956490831652e-05
3.8282905445971406e-07,6.245396932432779e-07,3.1599790731584e-07,2.1480778215349147e-05
3.80324756257229e-07,6.211480188193001e-07,3.1416278986977394e-07,2.146326548804387e-05
3.7776621504023217e-07,6.17813356780639e-07,3.123927199462641e-07,2.1437127474912816e-05
3.751750120499974e-07,6.145374669160583e-07,3.1070282972013644e-07,2.1402513232382167e-05
3.7257305757575797e-07,6.113227026977005e-07,3.0910763918100025e-07,2.1359668381052568e-05
3.6998213017633345e-07,6.081690903035166e-07,3.076196111198518e-07,2.130907337169115e-05
3.6742209425426676e-07,6.050746503899132e-07,3.062477668093575e-07,2.125155372207912e-05
3.649101448843716e-07,6.020365835690589e-07,3.049974961191678e-07,2.118827021170822e-05
3.624613451499872e-07,5.990520385912754e-07,3.038714174262229e-07,2.1120590651877398e-05
3.6008828799816493e-07,5.961183188259604e-07,3.028702325588577e-07,2.1049934730114102e-05
3.5780005106225815e-07,5.932319806400936e-07,3.019934411067717e-07,2.0977680842587467e-05
3.5560244301928615e-07,5.903888476982493e-07,3.0124010164589646e-07,2.090512571548867e-05
3.5350005301000633e-07,5.875860577966998e-07,3.006090124709318e-07,2.083347120483997e-05
3.5149920520863673e-07,5.848237657766859e-07,3.0009863544949653e-07,2.0763837321110306e-05
3.4960970335565585e-07,5.821061605963477e-07,2.997076737726014e-07,2.0697261919729868e-05
3.478441553922829e-07,5.794417797535569e-07,2.9943507539118254e-07,2.063463570692039e-05
3.462161987327546e-07,5.768412241196446e-07,2.9927847251837356e-07,2.0576635016461768e-05
3.447387279974751e-07,5.743130264180179e-07,2.992330345278676e-07,2.052374376079207e-05
3.4342251555070673e-07,5.71860338339767e-07,2.992921050905761e-07,2.047631700166883e-05
3.422758211269245e-07,5.694801979140568e-07,2.9944914823895565e-07,2.043461833503629e-05
3.41304065745093e-07,5.67165956181108e-07,2.997005729475394e-07,2.039883268842776e-05
3.405091310207612e-07,5.649104119973179e-07,3.000474337503581e-07,2.0369063390412485e-05
3.39889880379913e-07,5.627062970415648e-07,3.004936352036655e-07,2.0345337450657704e-05
3.3944311617371714e-07,5.605448852488533e-07,3.0104231877781727e-07,2.0327635320037803e-05
3.391631233491232e-07,5.584157268242504e-07,3.0169372792589173e-07,2.0315907821144133e-05
3.390411860494886e-07,5.563082547353646e-07,3.0244463788242864e-07,2.031004983424737e-05
3.390666536114765e-07,5.542138105899093e-07,3.032880859479797e-07,2.0309849615121507e-05
3.39228789237069e-07,5.521268185458389e-07,3.042135972592801e-07,2.031493903938652e-05
3.395177977510229e-07,5.500470439496848e-07,3.0520815677751367e-07,2.0324776078257404e-05
3.399241792169222e-07,5.479837601467672e-07,3.0625713759837534e-07,2.033871550483616e-05
3.4043721121743425e-07,5.459564914705358e-07,3.073449670888877e-07,2.0356180694310988e-05
3.410444906125704e-07,5.439916333485646e-07,3.0845577852959447e-07,2.0376794366445526e-05
3.4173409829466145e-07,5.421193414225585e-07,3.0957334385559395e-07,2.0400291069196226e-05
3.4249782581663606e-07,5.403697277850573e-07,3.106806819660939e-07,2.042630079849207e-05
3.433313067500691e-07,5.387692807870826e-07,3.1176124647830855e-07,2.045424213591289e-05
3.442306610110149e-07,5.373408822770436e-07,3.128010392012164e-07,2.048335764296388e-05
3.451897970960848e-07,5.361053908487461e-07,3.1378869527731386e-07,2.051280491822496e-05
3.4620034834579893e-07,5.350820542917462e-07,3.147134082581135e-07,2.0541813584389043e-05
3.472520776460836e-07,5.342873918002019e-07,3.155633905086594e-07,2.0569876635320974e-05
3.483321970010525e-07,5.337337033894155e-07,3.16325948257101e-07,2.0596806580738384e-05
3.494249565892876e-07,5.334292351430351e-07,3.169882036535375e-07,2.062263660136865e-05
3.5051267713707444e-07,5.333799085332007e-07,3.1753784190713377e-07,2.0647549223486085e-05
3.5157782873475215e-07,5.335907083315913e-07,3.179640880626643e-07,2.0671858707317064e-05
3.5260514029556387e-07,5.34066488418672e-07,3.182588542693035e-07,2.0695935336128798e-05
3.5358206986680265e-07,5.348135916848167e-07,3.1841678680376465e-07,2.0720086211523053e-05
3.544971998750164e-07,5.358404534694344e-07,3.184342234249525e-07,2.0744462319881973e-05
3.5533861311108657e-07,5.371538317372448e-07,3.1830934880209103e-07,2.076901738688781e-05
3.560937364606489e-07,5.387535471445074e-07,3.1804316707477465e-07,2.0793558150562792e-05
3.567506412421507e-07,5.406311903760247e-07,3.1763952053783324e-07,2.0817884298880992e-05
3.573003909650022e-07,5.427729556934992e-07,3.171048300262258e-07,2.084190401204746e-05
3.57738431325356e-07,5.45163415688825e-07,3.1644805651031045e-07,2.086563654678189e-05
3.580635772945813e-07,5.477878601278888e-07,3.156808746808321e-07,2.088914751671113e-05
3.5827625833955823e-07,5.506321367082749e-07,3.148176332069968e-07,2.09124804755989e-05
3.5837795775274024e-07,5.536802400960994e-07,3.138740663992408e-07,2.0935582400957192e-05
3.583717622531346e-07,5.569114845514279e-07,3.1286548738342964e-07,2.095823250687812e-05
3.582627113572421e-07,5.602992495553872e-07,3.118058745878739e-07,2.098005454894697e-05
3.5805751679641035e-07,5.638123343938233e-07,3.107082590805099e-07,2.1000711461513986e-05
3.5776410301750325e-07,5.674184890349157e-07,3.095859648220883e-07,2.102023411625745e-05
3.5739170344789057e-07,5.710871437052888e-07,3.0845314658828933e-07,2.1039224417967458e-05
3.5695266900893844e-07,5.747890624853811e-07,3.073242370390006e-07,2.1058759351598345e-05
3.5646390124174645e-07,5.784943098199537e-07,3.0621400170835237e-07,2.108012727983057e-05
3.559450290428028e-07,5.821714092652839e-07,3.0513783558499645e-07,2.110457941810936e-05
3.554162682452707e-07,5.85789592307954e-07,3.041105815579236e-07,2.1133173738947934e-05
3.548982960904458e-07,5.893223947224263e-07,3.0314529965817584e-07,2.116684638612762e-05
3.544112205451829e-07,5.927496942985197e-07,3.0225339669220065e-07,2.120674537676364e-05
3.53972143609292e-07,5.960579012706876e-07,3.0144495412161133e-07,2.1254497958547267e-05
3.5359432873144864e-07,5.9923748854447e-07,3.007286064777389e-07,2.131213495017245e-05
3.532885180591908e-07,6.022786070101227e-07,3.001113310252375e-07,2.1381834784206642e-05
3.5306461680962594e-07,6.051689733528264e-07,2.995983150808102e-07,2.1465715325272267e-05
3.5293328685114437e-07,6.07894701639169e-07,2.991927716470492e-07,2.1565692553708664e-05
3.5290723866240384e-07,6.104411718599086e-07,2.988959640456496e-07,2.1683382379194784e-05
3.530007153944047e-07,6.127937145722351e-07,2.9870743156432586e-07,2.182003939946101e-05
3.5322669170745617e-07,6.149404900114081e-07,2.98625111034186e-07,2.1976521618924054e-05
3.535935832902542e-07,6.168765801231408e-07,2.98646005179572e-07,2.2153285006668425e-05
3.541042338290273e-07,6.186044941278438e-07,2.9876744919003876e-07,2.2350395364439803e-05
3.547572774351319e-07,6.201300645669387e-07,2.9898818706517574e-07,2.256751323209542e-05
3.5554799405975707e-07,6.214576376796389e-07,2.9930900721871825e-07,2.280384199407897e-05
3.56467940971765e-07,6.225875694734389e-07,2.9973295643705537e-07,2.30581025703078e-05
3.5750508658177404e-07,6.235163612549284e-07,3.002648612884989e-07,2.332859057255267e-05
3.586444335181753e-07,6.242383671447075e-07,3.00909794098952e-07,2.3613288186277185e-05
3.598682762478669e-07,6.247474157069896e-07,3.016710160328797e-07,2.390997379408348e-05
3.6115702987613e-07,6.250372490434875e-07,3.025484733437992e-07,2.4216325320568586e-05
3.6249083507831357e-07,6.25101065499725e-07,3.035392519535528e-07,2.453002539908937e-05
3.638504236879865e-07,6.249314496138977e-07,3.046400621273089e-07,2.484882629839101e-05
3.652171839925186e-07,6.245230915908298e-07,3.058481308494849e-07,2.5170551817326e-05
3.66573593475499e-07,6.23878820123982e-07,3.0715886017106254e-07,2.549308211050433e-05
3.679039375611316e-07,6.230127836481637e-07,3.0856400376024184e-07,2.5814360970869315e-05
3.6919437152096546e-07,6.219464132456903e-07,3.100520634772284e-07,2.6132418802859074e-05
3.704326237469871e-07,6.207048790578053e-07,3.116091351507947e-07,2.644538115930369e-05
3.716083572460618e-07,6.193198154720978e-07,3.1322017076741696e-07,2.675143589006312e-05
3.727135112834983e-07,6.178316974090021e-07,3.148704674531284e-07,2.704878522910408e-05
3.7374143189316724e-07,6.162882689824938e-07,3.165455449748752e-07,2.7335631780751692e-05
3.746859533247728e-07,6.147420887705172e-07,3.182299552255885e-07,2.761018492552968e-05
3.7554197031622703e-07,6.132463899663141e-07,3.199068991060035e-07,2.7870657009246526e-05
3.763061218567448e-07,6.118486447854935e-07,3.215583501782217e-07,2.811526075149956e-05
3.769767189413383e-07,6.105861516244314e-07,3.231653323420629e-07,2.8342226100140008e-05
3.775541687152986e-07,6.09485760566473e-07,3.247090912679292e-07,2.854982863184361e-05
3.780404929907831e-07,6.08565796317779e-07,3.261729170744148e-07,2.8736407034516163e-05
3.784366356386024e-07,6.078398455065765e-07,3.275438871065876e-07,2.8900378160005213e-05
3.787402181964964e-07,6.073217498297654e-07,3.288132572912178e-07,2.904026417987033e-05
3.7894573636600795e-07,6.070280082491753e-07,3.2997455771116145e-07,2.915470829790485e-05
3.7904646029624635e-07,6.069755425367959e-07,3.310224624789533e-07,2.924248226950069e-05
3.79036237719557e-07,6.07176566546843e-07,3.319555488698801e-07,2.930255130406677e-05
3.7891031066127365e-07,6.076351976763882e-07,3.3277962408703926e-07,2.9334248413903364e-05
3.786658446078247e-07,6.083502591944456e-07,3.335067371596843e-07,2.933747284442038e-05
3.783027420963062e-07,6.093214229193068e-07,3.341513609218441e-07,2.9312706461494447e-05
3.778247628695835e-07,6.105510393447071e-07,3.347279548786745e-07,2.9260782288320173e-05
3.7723953039366004e-07,6.120416522818181e-07,3.3524957885215124e-07,2.9182596672734105e-05
3.765562645209666e-07,6.137963231912003e-07,3.357261533951304e-07,2.9078973409233174e-05
3.757830465287068e-07,6.158215876663102e-07,3.361646544299808e-07,2.895069023727656e-05
3.7492514741026026e-07,6.181257078690583e-07,3.365725888294873e-07,2.8798539958057312e-05
3.739843136974963e-07,6.207126524678749e-07,3.369611862855037e-07,2.8623338145951398e-05
3.7295887607698346e-07,6.235791069291765e-07,3.373448674454701e-07,2.8425953720102363e-05
3.7184422135337313e-07,6.267159222703449e-07,3.3773870677827174e-07,2.8207522838036265e-05
3.7063392695893953e-07,6.301104897147133e-07,3.3815722539946153e-07,2.7969763413860718e-05
3.693238747192601e-07,6.337479987896778e-07,3.3861464886081985e-07,2.771505531583827e-05
3.6791996467213224e-07,6.376111936057634e-07,3.3912475769284466e-07,2.744620180380206e-05
3.664434221194664e-07,6.416812940844841e-07,3.396994602885681e-07,2.7166113747770684e-05
3.6492707954710776e-07,6.459425443143853e-07,3.4034752532303483e-07,2.687758004532251e-05
3.634063034607811e-07,6.503852143656093e-07,3.410757972582744e-07,2.6583212136941144e-05
3.6191368533988353e-07,6.550012449700705e-07,3.418914533404716e-07,2.6285655411817168e-05
3.6047967654024614e-07,6.597769408124924e-07,3.4280144375787385e-07,2.5987895804471092e-05
3.5913600738130204e-07,6.646899858122636e-07,3.438100513637431e-07,2.569334926063785e-05
3.579196591182493e-07,6.697117140023473e-07,3.449182342154157e-07,2.540572437303081e-05
3.568747629741156e-07,6.748121734789228e-07,3.461245824745716e-07,2.512883478232091e-05
3.5605090855189594e-07,6.799643625565228e-07,3.474257974094098e-07,2.4866418527949496e-05
3.5549981853690586e-07,6.851444042609576e-07,3.4881666245178237e-07,2.4621964040820887e-05
3.552723171026591e-07,6.903286571064308e-07,3.502902418819648e-07,2.439857467119033e-05
3.554170149624777e-07,6.954915201238519e-07,3.518378072453103e-07,2.41988985731028e-05
3.5598101895678134e-07,7.006060539356923e-07,3.5344850609910827e-07,2.402511570128688e-05
3.570106831217482e-07,7.056461299803466e-07,3.5511041412772095e-07,2.387894698021715e-05
3.5855446981856534e-07,7.105886214781475e-07,3.5681292402330256e-07,2.3761649787547186e-05
3.606732082972304e-07,7.154165399837277e-07,3.585475415970442e-07,2.3673978979830096e-05
3.6345290961110024e-07,7.201210641716166e-07,3.6030659331807506e-07,2.361612574628369e-05
3.670055401371011e-07,7.246983883575937e-07,3.620832514625443e-07,2.3587686546330772e-05
3.7145293077088045e-07,7.291432114089688e-07,3.638727951270192e-07,2.3587715467429347e-05
3.7690530357872463e-07,7.334439077835581e-07,3.656716257944871e-07,2.361486539165464e-05
3.8344714252308564e-07,7.375813496749958e-07,3.67475653115637e-07,2.366756811627145e-05
3.911341536358967e-07,7.415307201024006e-07,3.6928141456249545e-07,2.3744185825249246e-05
3.9999932533504025e-07,7.452652499514719e-07,3.710876247452928e-07,2.3843108789943744e-05
4.100635801961621e-07,7.487603190313734e-07,3.728944514315815e-07,2.3962818306429865e-05
4.21344433299742e-07,7.519970184079432e-07,3.7470167886197523e-07,2.410191456398329e-05
4.338597300894488e-07,7.549647561526322e-07,3.76507605448364e-07,2.4259092144860182e-05
4.476286637831888e-07,7.576605545611645e-07,3.783107916028585e-07,2.443307766622908e-05
4.62670547281434e-07,7.600852527733271e-07,3.8011394006153703e-07,2.4622553379266173e-05
4.790013395701797e-07,7.62240173126666e-07,3.819241211043408e-07,2.4826068362676982e-05
4.966308487052803e-07,7.641260115368617e-07,3.8374856328258576e-07,2.5041968015966602e-05
5.155627599702602e-07,7.657470186194803e-07,3.8559280472551353e-07,2.5268409756285708e-05
5.357968507727522e-07,7.671218346592874e-07,3.874626131640685e-07,2.5503451197856878e-05
5.57330684432333e-07,7.682911962801965e-07,3.893648504214375e-07,2.5745115949819917e-05
5.801578558612453e-07,7.693116312739242e-07,3.913063848516237e-07,2.59914064545606e-05
6.042630921876168e-07,7.702403668294168e-07,3.932926411598414e-07,2.624031210110795e-05
6.296173428508067e-07,7.711260809824635e-07,3.9532588066615855e-07,2.648984944942485e-05
6.561744318235951e-07,7.720102760104314e-07,3.974044730028366e-07,2.6738098384299538e-05
6.838697993965852e-07,7.729315474527819e-07,3.995241026726528e-07,2.698320176803264e-05
7.126214631636455e-07,7.739248629097852e-07,4.0167885879162897e-07,2.7223406329385283e-05
7.423306387440199e-07,7.75017206980253e-07,4.0386057205407255e-07,2.7457178135735463e-05
7.728810662213239e-07,7.762256574637256e-07,4.0605745133540545e-07,2.7683277480007012e-05
8.04139218344135e-07,7.775582952870884e-07,4.082535401046339e-07,2.790072156633699e-05
8.359565402225579e-07,7.790153442975845e-07,4.10429303645359e-07,2.810868408707437e-05
8.681739331089857e-07,7.805908330054555e-07,4.125632577427033e-07,2.8306392669184748e-05
9.006267515247231e-07,7.822748788166855e-07,4.146348479321753e-07,2.849305794322892e-05
9.331474613219204e-07,7.840556756451002e-07,4.1662730134462684e-07,2.8667839556598096e-05
9.655666910409463e-07,7.859201623308643e-07,4.1852770479035174e-07,2.882983901274387e-05
9.977144407211351e-07,7.878538131017945e-07,4.2032497900433845e-07,2.8978138792011134e-05
1.0294210815406408e-06,7.898415994573127e-07,4.2201016000496224e-07,2.9111884613303466e-05
1.0605185979628629e-06,7.918693872175794e-07,4.235790346269396e-07,2.9230334687527668e-05
1.0908428013588207e-06,7.939245390750849e-07,4.2503190110733427e-07,2.9332824976748854e-05
1.1202362516915806e-06,7.959963778055966e-07,4.263697580950114e-07,2.941873994178179e-05
1.1485523527373893e-06,7.980762323744904e-07,4.275921538182917e-07,2.9487672480542285e-05
1.1756602013144305e-06,8.00156832969426e-07,4.286983421393496e-07,2.9539702896202613e-05
1.2014477530258114e-06,8.022310166797002e-07,4.2968770036059045e-07,2.9575416108829827e-05
1.2258220550190297e-06,8.042893641843644e-07,4.305581408828079e-07,2.959560599250728e-05
1.2487088057861826e-06,8.063181470703526e-07,4.313055097199359e-07,2.9601031975642982e-05
1.2700533259602716e-06,8.08298840314738e-07,4.3192430274650925e-07,2.9592367833482e-05
1.2898208523811193e-06,8.102079430724227e-07,4.3240784633627045e-07,2.9570219454612512e-05
1.30799392198076e-06,8.120166541339851e-07,4.3274840202840407e-07,2.953514954528009e-05
1.3245676289450265e-06,8.136920166421163e-07,4.3293881382276497e-07,2.948771147039821e-05
1.3395443380759005e-06,8.151993913132974e-07,4.3297485854512434e-07,2.942851675184688e-05
1.3529300516618386e-06,8.165043175116363e-07,4.3285536245038604e-07,2.9358359504434996e-05
1.3647336691464728e-06,8.175736679403927e-07,4.325801405341592e-07,2.9278323764788593e-05
1.374967271843926e-06,8.183773964161035e-07,4.3214895348419455e-07,2.9189755138685907e-05
1.3836471960543595e-06,8.188922695878995e-07,4.315618334644803e-07,2.909411092950995e-05
1.3907972199321406e-06,8.191060231945713e-07,4.3081852047507237e-07,2.899279911490465e-05
1.3964503853878028e-06,8.190155569617202e-07,4.299171486536112e-07,2.888705091460633e-05
1.4006469422069412e-06,8.186191194339001e-07,4.2885406173641975e-07,2.877782461251683e-05
1.4034317056977935e-06,8.17911114874749e-07,4.2762501237742574e-07,2.866576855842808e-05
1.4048515725202722e-06,8.168821829954251e-07,4.2622605646515657e-07,2.8551246333588373e-05
1.4049516239951157e-06,8.155210396225882e-07,4.246529195599367e-07,2.8434369004282814e-05
1.4037719876446015e-06,8.138171180938669e-07,4.229002092515472e-07,2.831501443881775e-05
1.4013475500092017e-06,8.117633311024066e-07,4.209624881897557e-07,2.8192875389064246e-05
1.3977090611130977e-06,8.093570686045628e-07,4.188365784536117e-07,2.8067556080201848e-05
1.3928835177654119e-06,8.065988580189779e-07,4.165224366561013e-07,2.7938692031525976e-05
1.3868939695116266e-06,8.034898349421428e-07,4.140223344747646e-07,2.780605896904004e-05
1.379759842450631e-06,8.000304343781064e-07,4.113413432740486e-07,2.7669672571393322e-05
1.3714977310506276e-06,7.962213799558963e-07,4.084891669458754e-07,2.752995332643376e-05
1.3621223629704135e-06,7.920672196888958e-07,4.0547938161771633e-07,2.7387961676454585e-05
1.3516476433062941e-06,7.875821745506995e-07,4.0232581553113364e-07,2.724550370802885e-05
1.3400882415240488e-06,7.827942854521448e-07,3.990403441663098e-07,2.7104960965740813e-05
1.3274620397967285e-06,7.777451868019668e-07,3.9563345773980815e-07,2.69689666802036e-05
1.31379159375611e-06,7.724866730997791e-07,3.921148696800654e-07,2.684007713201249e-05
1.2991036518263378e-06,7.6707343031947e-07,3.88493216171705e-07,2.6720535633284188e-05
1.2834290587859977e-06,7.615541396064825e-07,3.8477633642266397e-07,2.6612353795608717e-05
1.2668035070102171e-06,7.559685037086869e-07,3.8097211533560843e-07,2.6517732109532198e-05
1.2492667102222206e-06,7.503523279104185e-07,3.770889399678161e-07,2.643935859636273e-05
1.2308607519201158e-06,7.447444864502125e-07,3.731356893642183e-07,2.638025141211538e-05
1.2116298572480788e-06,7.391900793066115e-07,3.691220512256918e-07,2.6343366027963464e-05
1.1916202326620743e-06,7.337388377268325e-07,3.650599238486245e-07,2.6331292718876694e-05
1.1708788235966384e-06,7.284410218409983e-07,3.6096431113214883e-07,2.634611106003881e-05
1.1494523671739059e-06,7.233449652040881e-07,3.568519000343756e-07,2.6389327253808654e-05
1.1273874355936814e-06,7.184968560327711e-07,3.527389588392537e-07,2.646183560386931e-05
1.104730961294072e-06,7.13938185352283e-07,3.486409128822996e-07,2.656389942017402e-05
1.0815308818990791e-06,7.097011452325462e-07,3.445729465659247e-07,2.669516490551448e-05
1.0578370979134571e-06,7.058067906317353e-07,3.405498295615769e-07,2.6854688460455092e-05
1.0337024788553271e-06,7.02266320485535e-07,3.3658494166240337e-07,2.704096828771753e-05
1.0091834617809877e-06,6.990841791117455e-07,3.3268944513929875e-07,2.725201283487041e-05
9.843414979315358e-07,6.962618199315829e-07,3.2887277182307377e-07,2.748544065945217e-05
9.592465260482894e-07,6.937986062356067e-07,3.2514460809045465e-07,2.7738563773473663e-05
9.339803005380193e-07,6.916892632584107e-07,3.215157520285233e-07,2.8008458550366423e-05
9.086365781522831e-07,6.899217377110894e-07,3.179962006972693e-07,2.829207017969833e-05
8.833189633490566e-07,6.884780563823357e-07,3.1459306025090105e-07,2.8586332636177568e-05
8.581391773408767e-07,6.873371086630793e-07,3.1131081186940486e-07,2.8888248787714868e-05
8.332159876705074e-07,6.864759806916856e-07,3.0815282543087025e-07,2.919493307846048e-05
8.086728731629123e-07,6.85869075826144e-07,3.051219905983212e-07,2.950362911887924e-05
7.846335426182534e-07,6.854885283496791e-07,3.022205089059193e-07,2.9811698934132e-05
7.612162148757091e-07,6.85308236530655e-07,2.994497095138657e-07,3.011660153321921e-05
7.385279197752534e-07,6.853086978717258e-07,2.9680957590507674e-07,3.0415862409789177e-05
7.166602491003339e-07,6.854768647674381e-07,2.942985196226182e-07,3.070703047495881e-05
6.956877044095992e-07,6.858002270830493e-07,2.919150521277116e-07,3.0987667707751435e-05
6.756692260059322e-07,6.862618680460485e-07,2.8965978975600337e-07,3.125541915836801e-05
6.566536580563865e-07,6.86841858626886e-07,2.8753483244119536e-07,3.150811079229308e-05
6.386894786446488e-07,6.875220456968167e-07,2.855422062314653e-07,3.1743770732529946e-05
6.218391988587543e-07,6.882871914452793e-07,2.83684218351172e-07,3.1960579947061104e-05
6.061954839975619e-07,6.891217798138659e-07,2.8196484462145035e-07,3.215684154002968e-05
5.91888039527182e-07,6.900078202066958e-07,2.803902683001112e-07,3.2331006910119604e-05
5.790735791347947e-07,6.909246224892229e-07,2.789681175079626e-07,3.248171288636708e-05
5.679163253660991e-07,6.918481527062608e-07,2.7770665928130284e-07,3.2607751359056666e-05
5.585710115808282e-07,6.927504746663827e-07,2.766147232428257e-07,3.270798154990066e-05
5.511726293852246e-07,6.936003172974737e-07,2.757007073035874e-07,3.2781275430535194e-05
5.45831240306553e-07,6.943637671300514e-07,2.7497066996047895e-07,3.282652591519425e-05
5.4262813895079e-07,6.950043887226517e-07,2.7442792304586237e-07,3.284270591586943e-05
5.416127101986046e-07,6.954835547965543e-07,2.7407399536196704e-07,3.282898788318569e-05
5.428034234402052e-07,6.957615431806794e-07,2.7390875543894484e-07,3.278486981172759e-05
5.461930653402828e-07,6.957998567662642e-07,2.739296382524619e-07,3.2710196795593077e-05
5.517542221684125e-07,6.955654318280135e-07,2.741319938442954e-07,3.26050702796398e-05
5.594420527968917e-07,6.950344825830877e-07,2.745104668795492e-07,3.246973242704628e-05
5.691947354036264e-07,6.941920729963782e-07,2.7505915517723257e-07,3.230448231206616e-05
5.809353089670739e-07,6.930285439075479e-07,2.757718336915295e-07,3.210964096279462e-05
5.94576620600912e-07,6.915376594627077e-07,2.766447913301154e-07,3.188555220461214e-05
6.10026453257848e-07,6.897168103552751e-07,2.776790655608397e-07,3.163260145214679e-05
6.27190599327453e-07,6.875660278489822e-07,2.7887842654091093e-07,3.135129686569116e-05
6.45973944760703e-07,6.850862844124065e-07,2.802455128569373e-07,3.1042497637212496e-05
6.66279848398803e-07,6.822795783580843e-07,2.8178045257398137e-07,3.070777369779062e-05
6.880083107621662e-07,6.791515125490518e-07,2.8348292894426553e-07,3.034966314034292e-05
7.110531237975444e-07,6.757162389834207e-07,2.8535430624326966e-07,2.9971587493226923e-05
7.352981488292846e-07,6.720006016122775e-07,2.873970789074857e-07,2.957749525895625e-05
7.606144244505852e-07,6.680431132586688e-07,2.8961296423941367e-07,2.9171463963836303e-05
7.868596732218018e-07,6.63888943058253e-07,2.920010517636545e-07,2.875743868436353e-05
8.138794905844249e-07,6.595845843361878e-07,2.945564855333054e-07,2.8339262183805957e-05
8.415092839561817e-07,6.551747322996324e-07,2.9727127199255683e-07,2.7920911520809523e-05
8.695767856043693e-07,6.507047858683522e-07,3.001369337346997e-07,2.7506614052660713e-05
8.979045658232929e-07,6.462277234757169e-07,3.031452589961186e-07,2.7100742410251268e-05
9.263125413760041e-07,6.4180760611228e-07,3.062866917280728e-07,2.670763242119525e-05
9.546217617575287e-07,6.375156271032685e-07,3.095504629925277e-07,2.6331411931351645e-05
9.826602287555588e-07,6.334221708670814e-07,3.129262465446022e-07,2.597586600306053e-05
1.010269401909802e-06,6.295914218362329e-07,3.1640382909030707e-07,2.5644354556437633e-05
1.0373092517441832e-06,6.260815302816216e-07,3.1997126808723626e-07,2.533977422833296e-05
1.0636599080098223e-06,6.229460927193979e-07,3.2361339650931594e-07,2.5064547649155746e-05
1.089217734229515e-06,6.202337168109785e-07,3.273112619107345e-07,2.482063438721765e-05
1.1138870780781409e-06,6.179871282745656e-07,3.3104319950156324e-07,2.4609546529560683e-05
1.1375741252564032e-06,6.162408033210283e-07,3.3478694419392944e-07,2.443233038943245e-05
1.160186339306689e-06,6.15016726080802e-07,3.385211451519697e-07,2.4289520413068945e-05
1.1816346592500351e-06,6.143220894933053e-07,3.4222591341132736e-07,2.418111859557276e-05
1.2018370573958305e-06,6.141505925057004e-07,3.4588288361343005e-07,2.4106606074639043e-05
1.220723852656997e-06,6.144853563285889e-07,3.4947476081521725e-07,2.4064972628755576e-05
1.2382413387076616e-06,6.153020421741735e-07,3.5298466040242476e-07,2.4054794296757223e-05
1.2543512703263737e-06,6.165732013283174e-07,3.5639694581146436e-07,2.4074359033699967e-05
1.269029671508155e-06,6.182728591072497e-07,3.596993888386853e-07,2.412178892098415e-05
1.2822664352132214e-06,6.203769452802555e-07,3.628834151295562e-07,2.4195131338730718e-05
1.2940627822707413e-06,6.228601813796707e-07,3.659418975525611e-07,2.4292412110495896e-05
1.3044283871552513e-06,6.256944503699647e-07,3.68867432131951e-07,2.441163613414985e-05
1.313381079355473e-06,6.288500655118724e-07,3.7165173179715674e-07,2.4550745639138934e-05
1.3209449867582894e-06,6.322983504519571e-07,3.7428513132535136e-07,2.4707583573248738e-05
1.327144911179404e-06,6.360135962683786e-07,3.767569218571213e-07,2.4879889072033103e-05
1.332001560028051e-06,6.399734613726318e-07,3.79056278640672e-07,2.5065304819986904e-05
1.335530755504883e-06,6.441587158166112e-07,3.811727306381211e-07,2.526138467630228e-05
1.3377463088376012e-06,6.485527831780251e-07,3.8309702241742046e-07,2.546561687597889e-05
1.3386644984768666e-06,6.531411949210476e-07,3.848222398151338e-07,2.567545395019367e-05
1.3383064056237769e-06,6.57911763637527e-07,3.8634346061499797e-07,2.588832413794466e-05
1.3366967083281202e-06,6.628544091257529e-07,3.8765644070354797e-07,2.610163202737389e-05
1.3338606826895114e-06,6.679587821320232e-07,3.887574787698669e-07,2.631276590686843e-05
1.3298212652924029e-06,6.732107788427191e-07,3.8964421269254665e-07,2.651910797773372e-05
1.3245977921898364e-06,6.785915487680431e-07,3.903153513216336e-07,2.671804783623044e-05
1.3182075153254171e-06,6.840799665933289e-07,3.9076957229169076e-07,2.6907011513171355e-05
1.3106700230520582e-06,6.896544429363167e-07,3.910054196287453e-07,2.708350388061925e-05
1.3020121151750489e-06,6.952930449515482e-07,3.910227169314895e-07,2.724515438494173e-05
1.2922689653538436e-06,7.009743506856045e-07,3.9082410045627616e-07,2.738976602291601e-05
1.2814816378667831e-06,7.066765933124038e-07,3.904149146865834e-07,2.751538794486419e-05
1.2696944961547282e-06,7.123740015319997e-07,3.898023913596478e-07,2.762044452798324e-05
1.256953877207898e-06,7.180347799849854e-07,3.8899533135965607e-07,2.770387102050848e-05
1.2433070754637266e-06,7.236229332142017e-07,3.8800298598376567e-07,2.7765127312312957e-05
1.228800893866826e-06,7.291019070238614e-07,3.868336184360375e-07,2.780405882303384e-05
1.21348103942158e-06,7.344369675119667e-07,3.854948036058754e-07,2.7820704762455336e-05
1.1973941263715244e-06,7.395957419381381e-07,3.839950474661315e-07,2.7815166961758977e-05
1.180590657650626e-06,7.445487598978008e-07,3.8234483037764346e-07,2.7787576621389837e-05
1.1631257719610295e-06,7.492695348792616e-07,3.805561057785282e-07,2.773810412372941e-05
1.1450575420799171e-06,7.537334014026489e-07,3.786410396099596e-07,2.766695912944068e-05
1.1264440450627079e-06,7.579170966259159e-07,3.7661125661138726e-07,2.757445037155694e-05
1.1073400396883562e-06,7.617996028526154e-07,3.7447786299364173e-07,2.7461208205536945e-05
1.087795349586649e-06,7.653641369440219e-07,3.7225159764574667e-07,2.7328436663692506e-05
1.0678564970248041e-06,7.686022002543891e-07,3.699421654372582e-07,2.7177932277719088e-05
1.047569210769524e-06,7.715162616513973e-07,3.675569586959205e-07,2.7011870735930145e-05
1.0269786999862356e-06,7.741166877952776e-07,3.6510065303783076e-07,2.6832545695275808e-05
1.006128903089737e-06,7.764158898133999e-07,3.625764413071469e-07,2.664217366379291e-05
9.850627810400256e-07,7.784248044080766e-07,3.599883862285068e-07,2.6442873917438644e-05
9.638229044665104e-07,7.801526730167729e-07,3.5734391004769493e-07,2.6236876596471586e-05
9.424518053381731e-07,7.816128928276631e-07,3.5465479696340844e-07,2.602676576787432e-05
9.209918603551151e-07,7.828359151779892e-07,3.5193610935659365e-07,2.581551997426031e-05
8.99484328744885e-07,7.838779012238431e-07,3.4920516764933517e-07,2.5606374400192285e-05
8.779697016936388e-07,7.848151352487589e-07,3.4648142083815586e-07,2.540265082646365e-05
8.564903557373008e-07,7.85729617605338e-07,3.4378552004712657e-07,2.5207612079902812e-05
8.350912645068734e-07,7.866958607418732e-07,3.411379872313745e-07,2.5024335771354253e-05
8.138165936983259e-07,7.877737261357879e-07,3.3855896142581175e-07,2.485559386216233e-05
7.927065255158363e-07,7.890078133155227e-07,3.3606783054985645e-07,2.47037490779828e-05
7.717969044574655e-07,7.904306627441529e-07,3.336813228480704e-07,2.457070261130387e-05
7.511197429362257e-07,7.920652220521045e-07,3.31411562500517e-07,2.4457896270684734e-05
7.307036036174322e-07,7.93924028968066e-07,3.292664389551686e-07,2.436632403429021e-05
7.10574494971999e-07,7.960073332015299e-07,3.272528473323468e-07,2.4296516004661897e-05
6.90757703481201e-07,7.983031288544413e-07,3.2538120685470145e-07,2.4248508360586122e-05
6.712796066754906e-07,8.007886865767341e-07,3.236686483061073e-07,2.4221838970674123e-05
6.52167868846136e-07,8.034323360602512e-07,3.2213837978112457e-07,2.421561138996309e-05
6.334514838973215e-07,8.061966573779801e-07,3.2081514945700214e-07,2.422864198773341e-05
6.151627728465192e-07,8.090454171026874e-07,3.1972057383240386e-07,2.4259627030899936e-05
5.973385285386464e-07,8.119521706429035e-07,3.188708674383881e-07,2.430723932705376e-05
5.800176632089643e-07,8.149037125744255e-07,3.182766862974804e-07,2.437014926004509e-05
5.632387598079277e-07,8.178962542766406e-07,3.1794465272362325e-07,2.4447033635857752e-05
5.470410265960595e-07,8.209298743704613e-07,3.178781860224393e-07,2.453659590665455e-05
5.314661357772131e-07,8.240059748086155e-07,3.180762629103374e-07,2.4637570703179503e-05
5.16556026146989e-07,8.271272472420974e-07,3.185329252570536e-07,2.47487010377638e-05
5.023469824510089e-07,8.302970637596041e-07,3.19238798669157e-07,2.4868700150553e-05
4.888653990476864e-07,8.335161461005901e-07,3.201821712754333e-07,2.499620713353122e-05
4.76128184385448e-07,8.367780504476631e-07,3.213490006899705e-07,2.512976013130317e-05
4.641458827629256e-07,8.400678145113788e-07,3.227242692330895e-07,2.526782167524716e-05
4.5292512453677723e-07,8.433659426258722e-07,3.242949659943499e-07,2.5408836426821947e-05
4.4246908048802366e-07,8.466543386353381e-07,3.26052338214561e-07,2.5551262184020168e-05
4.3277695783294257e-07,8.499190768501028e-07,3.2799194764424144e-07,2.5693559202547514e-05
4.238432813922265e-07,8.531482286012534e-07,3.301113723450075e-07,2.5834177246374608e-05
4.156577306923562e-07,8.563278879777623e-07,3.324066361585683e-07,2.5971577147688767e-05
4.0820634351206974e-07,8.594419090445595e-07,3.348695751291655e-07,2.6104250670824704e-05
4.014724377622674e-07,8.62474187002593e-07,3.374875230261604e-07,2.623067833568785e-05
3.9543580128313274e-07,8.6540844894284e-07,3.402447312186597e-07,2.634926892619924e-05
3.9007196705855384e-07,8.682271260859896e-07,3.431243904547719e-07,2.645837888997016e-05
3.85353029477069e-07,8.709107133802679e-07,3.461098344043223e-07,2.6556429222942305e-05
3.8124899210279406e-07,8.734359855359821e-07,3.491838835896185e-07,2.664207080041604e-05
3.7772910942959254e-07,8.757750655902609e-07,3.5232776716493037e-07,2.671435556866177e-05
3.747630927310604e-07,8.778970086008448e-07,3.555207726227445e-07,2.677284714771884e-05
3.7232137806059225e-07,8.797718420245381e-07,3.587400572411247e-07,2.6817574640808656e-05
3.703754675051847e-07,8.813767047146332e-07,3.619608374246002e-07,2.6848829841358842e-05
3.688993699598233e-07,8.826993935805861e-07,3.651570468099235e-07,2.686693854305295e-05
3.678696963434153e-07,8.837354828013851e-07,3.683018996834593e-07,2.6872137445091075e-05
3.67262721856797e-07,8.844837676097794e-07,3.7136836361054136e-07,2.686457058474405e-05
3.670511416249103e-07,8.849451526037355e-07,3.74329526398835e-07,2.684432418109868e-05
3.672036941697901e-07,8.851226457127718e-07,3.771586864808012e-07,2.6811436698311804e-05
3.676871915939344e-07,8.85020210152364e-07,3.798296436899528e-07,2.6765916764920897e-05
3.6846826630204774e-07,8.846417417736275e-07,3.8231736870164406e-07,2.6707895163613408e-05
3.695136801538376e-07,8.839911990476429e-07,3.8459844706846966e-07,2.663788826634468e-05
3.707897215455352e-07,8.830743324079291e-07,3.86651409038775e-07,2.655690487353594e-05
3.7226135542515116e-07,8.818995606765155e-07,3.8845714726349157e-07,2.646629622020902e-05
3.738921639696799e-07,8.804757014040968e-07,3.8999893109911705e-07,2.636752646646047e-05
3.75645328082509e-07,8.788103159639292e-07,3.9126213803397687e-07,2.6261998605945888e-05
3.774849267767699e-07,8.76910535224452e-07,3.9223426590062406e-07,2.615102441104889e-05
3.7937696772142633e-07,8.747834082543491e-07,3.9290509441457867e-07,2.603601482232393e-05
3.812895222194162e-07,8.72439076737645e-07,3.932667197204515e-07,2.591874033852791e-05
3.831927380238517e-07,8.699008473571949e-07,3.9331412796768105e-07,2.580140406433665e-05
3.8506019701698297e-07,8.672133006082191e-07,3.9304647847665564e-07,2.568651227126865e-05
3.8687055580553275e-07,8.644381260399035e-07,3.924678038662889e-07,2.5576687205921665e-05
3.8860761355200063e-07,8.616408295811537e-07,3.9158626662414023e-07,2.5474496577769878e-05
3.9025940061086147e-07,8.588781268980458e-07,3.904127635250448e-07,2.538231838655192e-05
3.9181729676501936e-07,8.561922978417996e-07,3.8896059298082327e-07,2.530224513855247e-05
3.932744817501849e-07,8.536123181324649e-07,3.872462187368653e-07,2.5236026412537007e-05
3.9462386038395707e-07,8.511573008032494e-07,3.8528930857572523e-07,2.5185062310296066e-05
3.958570367802481e-07,8.488383247032615e-07,3.8311152544164464e-07,2.515043525357561e-05
3.969645011646801e-07,8.466579083654476e-07,3.8073508374870906e-07,2.5132915954149813e-05
3.979362962426936e-07,8.446095651789956e-07,3.7818243615851063e-07,2.513291083192424e-05
3.987630857484588e-07,8.426799538272195e-07,3.7547754058118784e-07,2.5150396261574092e-05
3.994372952149023e-07,8.408525646061184e-07,3.7264699800581155e-07,2.5184889739460075e-05
3.9995381268852184e-07,8.391098987314817e-07,3.697192615960066e-07,2.5235491213235555e-05
4.003100194106258e-07,8.374337653416785e-07,3.667219922134802e-07,2.5301005795168772e-05
4.005049035548541e-07,8.358060497822669e-07,3.6367943323631954e-07,2.5380093626315225e-05
4.005380018070562e-07,8.342111705746087e-07,3.6061244656347716e-07,2.5471380577978366e-05
4.004096502194797e-07,8.326373924777374e-07,3.575413015393221e-07,2.55735234930102e-05
4.0012201636766955e-07,8.310739595014456e-07,3.5448760233749665e-07,2.568526175434101e-05
3.9967944135574455e-07,8.295069335503191e-07,3.51473012866207e-07,2.580547117039837e-05
3.9908811690108313e-07,8.279175327918101e-07,3.4851674052915094e-07,2.593319571806814e-05
3.983552590134477e-07,8.262836198023353e-07,3.456345877317825e-07,2.6067626630814718e-05
3.9748789342911745e-07,8.245847365162241e-07,3.428400591181129e-07,2.620803775228797e-05
3.964918895723274e-07,8.228074235920914e-07,3.401458100838733e-07,2.6353697564607555e-05
3.9537164702161476e-07,8.209454342513616e-07,3.375641200777188e-07,2.6503767707721962e-05
3.941304805263165e-07,8.189956929515506e-07,3.351072913473063e-07,2.665723599440745e-05
3.9277220949596025e-07,8.16955029095454e-07,3.3278863370353267e-07,2.681291433690273e-05
3.9130427752358105e-07,8.148195547297788e-07,3.306224962502438e-07,2.69694457322359e-05
3.8973949836972774e-07,8.125847701673537e-07,3.286221790858539e-07,2.712530292868761e-05
3.8809347603862273e-07,8.102460443155949e-07,3.267975562964456e-07,2.727883938686593e-05
3.8638025963166316e-07,8.07801066873552e-07,3.251545217143881e-07,2.742838141037123e-05
3.846099282335835e-07,8.052520733250198e-07,3.236957170170793e-07,2.7572291808556102e-05
3.82788462702144e-07,8.026050311947229e-07,3.224216519363504e-07,2.770903793685481e-05
3.809194254238308e-07,7.998676955707907e-07,3.213316426292438e-07,2.7837298960963744e-05
3.790067360597781e-07,7.970488257474183e-07,3.2042406382143633e-07,2.7956019480937433e-05
3.770564117114853e-07,7.941584142461624e-07,3.196967175478483e-07,2.806436967361831e-05
3.7507588702477344e-07,7.912074767811717e-07,3.191474771065886e-07,2.8161674955250623e-05
3.730722297830883e-07,7.882069007723179e-07,3.1877465680847764e-07,2.8247345335149683e-05
3.7105145607122347e-07,7.851674424243438e-07,3.185778315658751e-07,2.8320802265443053e-05
3.690194165223111e-07,7.82101953010617e-07,3.185588962360965e-07,2.838141408017628e-05
3.6698231185514396e-07,7.790271493642427e-07,3.187214769124627e-07,2.8428467199994654e-05
3.649454430670952e-07,7.759619775524616e-07,3.1906927866363924e-07,2.846120418866732e-05
3.6291212863481615e-07,7.729252763230498e-07,3.196054787425731e-07,2.847893095600124e-05
3.60884915649533e-07,7.699367532192047e-07,3.203321233371182e-07,2.8481130663925904e-05
3.5886852568905774e-07,7.67018499430095e-07,3.212485690734528e-07,2.8467509956871117e-05
3.568717682271068e-07,7.641942642536891e-07,3.2235084964495157e-07,2.8437969448943457e-05
3.549056392071111e-07,7.614875941827121e-07,3.236322922711942e-07,2.8392541531873162e-05
3.529791912020712e-07,7.589188872464425e-07,3.250834965113105e-07,2.8331343698986955e-05
3.510975485259749e-07,7.565033750159502e-07,3.266916582279595e-07,2.8254560046506218e-05
3.492633280285668e-07,7.542539303004046e-07,3.284410072816855e-07,2.81624473458251e-05
3.474794600494522e-07,7.521866006215784e-07,3.303138005577293e-07,2.805535744962868e-05
3.457509400824305e-07,7.503214011497183e-07,3.322902406311984e-07,2.7933732115664044e-05
3.4408449607260735e-07,7.48676325972528e-07,3.3434811203384945e-07,2.779805236124732e-05
3.424869561375417e-07,7.472611222979191e-07,3.364630773893418e-07,2.7648777429401038e-05
3.4096353015951605e-07,7.460766829916082e-07,3.386099613271716e-07,2.74863010941054e-05
3.3951706173720866e-07,7.451218358795273e-07,3.407652025648169e-07,2.731092968857076e-05
3.381486641169066e-07,7.444055245816352e-07,3.429088727612853e-07,2.712288523598833e-05
3.368584888946581e-07,7.439547640876644e-07,3.450255707449816e-07,2.6922334063372672e-05
3.3564542628499625e-07,7.438103509494988e-07,3.471052107472613e-07,2.670941643554605e-05
3.345068507746886e-07,7.440149855483178e-07,3.4914281100404447e-07,2.6484254878166118e-05
3.334396333133173e-07,7.446036319649169e-07,3.511364852405072e-07,2.624695512119992e-05
3.324411390003516e-07,7.456007182190201e-07,3.5308516419893286e-07,2.5997617105789763e-05
3.315084983925878e-07,7.470205891799381e-07,3.5498701653381775e-07,2.573634390723728e-05
3.306375970111464e-07,7.488663285098463e-07,3.568387598184042e-07,2.546324408727971e-05
3.298244151400343e-07,7.511287764770816e-07,3.586362289433321e-07,2.5178443820344142e-05
3.290670406537142e-07,7.537876347214129e-07,3.6037506111972814e-07,2.4882096950244087e-05
3.28365650689993e-07,7.568126133650185e-07,3.620503577964271e-07,2.457437280952805e-05
3.277215904519452e-07,7.601648441820354e-07,3.6365627181259903e-07,2.425544924427079e-05
3.2713623979154246e-07,7.638003056892291e-07,3.651860972626628e-07,2.392554111519267e-05
3.266095849994688e-07,7.67674158762034e-07,3.666321567914854e-07,2.358493485750664e-05
3.261403313040993e-07,7.717436152528863e-07,3.679852820448258e-07,2.323399762919674e-05
3.257277296573141e-07,7.759693125842766e-07,3.6923466910841797e-07,2.287318455553361e-05
3.2537244072031387e-07,7.80317164122433e-07,3.7036922977079713e-07,2.250305850728401e-05
3.250758032019928e-07,7.847605798117708e-07,3.7138129307896683e-07,2.2124303758921693e-05
3.2483969377662374e-07,7.892806020895697e-07,3.722715647565711e-07,2.173774183686655e-05
3.2466663227932237e-07,7.938643760632074e-07,3.730514173257066e-07,2.134436095601814e-05
3.2455816040725517e-07,7.985042590321032e-07,3.737398827059038e-07,2.094532194885137e-05
3.245127589670359e-07,8.031969116904688e-07,3.743575260236803e-07,2.0541912395828105e-05
3.245254889920633e-07,8.079417523025682e-07,3.7492149816651615e-07,2.0135474926553697e-05
3.2458906639067867e-07,8.127386294788147e-07,3.75443851091609e-07,1.9727338969834975e-05
3.246951206316836e-07,8.175832477473665e-07,3.7593253962102974e-07,1.9318762637467413e-05
3.24835666298086e-07,8.224628969929866e-07,3.7639343189423704e-07,1.8910897312341974e-05
3.250051084907177e-07,8.27357115870922e-07,3.768308080858957e-07,1.8504785814822248e-05
3.252008704128868e-07,8.322419961180725e-07,3.7724615943662633e-07,1.8101368259722824e-05
3.254212709077866e-07,8.370937265832984e-07,3.776382749075689e-07,1.7701465387000806e-05
3.256630918503912e-07,8.418901948895351e-07,3.7800476556227227e-07,1.7305773969050204e-05
3.259210173725044e-07,8.466123044406548e-07,3.7834271258436213e-07,1.691494815072329e-05
3.26188749647824e-07,8.512466354751099e-07,3.786487821196374e-07,1.6529768817310102e-05
3.2646102782486556e-07,8.557876964733776e-07,3.7892016135600526e-07,1.6151283024924872e-05
3.267347373643409e-07,8.602353730445278e-07,3.7915626962041117e-07,1.5780795097996592e-05
3.2700857332776017e-07,8.645880152593746e-07,3.793609795739662e-07,1.5419726208579737e-05
3.272841673849982e-07,8.688371742944875e-07,3.795439380157682e-07,1.506943820848636e-05
3.275690349562286e-07,8.729663577526739e-07,3.7971839236476283e-07,1.4731106496749365e-05
3.278771102231191e-07,8.769519240145167e-07,3.7989644221738033e-07,1.4405717727333083e-05
3.2822566923350394e-07,8.807663681451462e-07,3.80085986619863e-07,1.4094191674400489e-05
3.286314593951863e-07,8.843824136942328e-07,3.8029093376900954e-07,1.3797492987862335e-05
3.291083899272605e-07,8.87773209324583e-07,3.8051230413701203e-07,1.351660888211033e-05
3.296684683598165e-07,8.909096544240587e-07,3.80748243053785e-07,1.3252417090761825e-05
3.3032549923275666e-07,8.937597235126999e-07,3.8099385276088405e-07,1.3005556861844215e-05
3.310975076494976e-07,8.9629057327254e-07,3.8124236321796105e-07,1.2776386747618566e-05
3.320047342657659e-07,8.984720539313141e-07,3.814874752617749e-07,1.2565015723367724e-05
3.330651905564403e-07,9.002798607719313e-07,3.817249955453451e-07,1.2371344570667394e-05
3.3429153733227586e-07,9.016953338480722e-07,3.8195201315071384e-07,1.2195135901088174e-05
3.356900708029274e-07,9.027022737806185e-07,3.82165078873263e-07,1.203620238654162e-05
3.372612777667121e-07,9.032865273241493e-07,3.8236041240665507e-07,1.1894676265542468e-05
3.390014910541465e-07,9.034422988819928e-07,3.82535500843226e-07,1.1771140763641699e-05
3.4090458947317014e-07,9.031796589372957e-07,3.8268868965605725e-07,1.1666504282959433e-05
3.429642568706906e-07,9.025235176601052e-07,3.828175690228087e-07,1.1581753909215731e-05
3.451777443529141e-07,9.015038359674324e-07,3.829198307113421e-07,1.1517747022864486e-05
3.4754813107142463e-07,9.001464506623026e-07,3.8299461143510496e-07,1.147510923976358e-05
3.500824337843853e-07,8.984721543920298e-07,3.830411821936072e-07,1.1454324484237642e-05
3.52788393773064e-07,8.965040709644537e-07,3.830574534604971e-07,1.1455990905857066e-05
3.556721969774085e-07,8.942751751191601e-07,3.8303992128449936e-07,1.148099831684892e-05
3.5873610500283396e-07,8.918286133356743e-07,3.8298354581805225e-07,1.1530488288044395e-05
3.619768318177245e-07,8.892136879003801e-07,3.828812111115129e-07,1.160571945971227e-05
3.653862434500615e-07,8.864808376088589e-07,3.827237491120909e-07,1.1707952742331944e-05
3.6895306283495174e-07,8.836745233616845e-07,3.8250094209098507e-07,1.1838355336701602e-05
3.7266389571376745e-07,8.808272229160212e-07,3.8220260672657215e-07,1.1997916782793284e-05
3.765036412199171e-07,8.779583744910119e-07,3.8181939610601305e-07,1.2187384740829345e-05
3.804558282979296e-07,8.750768163888853e-07,3.8134363057675774e-07,1.2407220123277e-05
3.845035518482542e-07,8.72183957337935e-07,3.8076934542780987e-07,1.2657573859303372e-05
3.886307231308447e-07,8.692765264263049e-07,3.800912759029112e-07,1.293827051757756e-05
3.9282239131356226e-07,8.663487440614323e-07,3.7930379434983404e-07,1.3248759484861478e-05
3.970645964168242e-07,8.633931685290323e-07,3.784008844694391e-07,1.3588033736965898e-05
4.0134415377234724e-07,8.603997930424604e-07,3.773781887136542e-07,1.3954585009699356e-05
4.056474743365954e-07,8.5735506674781e-07,3.762361522829028e-07,1.434645455089965e-05
4.099595632264032e-07,8.542430972584281e-07,3.749807983606615e-07,1.4761363166734762e-05
4.142644664388917e-07,8.510489764606978e-07,3.736211041561886e-07,1.5196863532622089e-05
4.185456899569501e-07,8.477615942213429e-07,3.721659738854093e-07,1.5650468215496462e-05
4.2278560003643064e-07,8.443744269145715e-07,3.706231076143324e-07,1.6119733376020895e-05
4.269645916193386e-07,8.408851435500494e-07,3.6899978249101424e-07,1.660230518736101e-05
4.310607768703458e-07,8.372949317951024e-07,3.6730463592517093e-07,1.7095933453019407e-05
4.3505063120830603e-07,8.336079637773014e-07,3.655486038298269e-07,1.7598440097867983e-05
4.3891030493017494e-07,8.298308505513332e-07,3.6374377922717063e-07,1.8107662156723256e-05
4.4261637235852326e-07,8.259716015755754e-07,3.619010794025325e-07,1.862141513590985e-05
4.46145434967365e-07,8.220378678892994e-07,3.6002902104429905e-07,1.913747178931944e-05
4.4947353760056153e-07,8.180342672849237e-07,3.5813556097603404e-07,1.9653529012513645e-05
4.525761947770421e-07,8.139596739495766e-07,3.5623130995410156e-07,2.0167191048169416e-05
4.554291275349522e-07,8.098065060690955e-07,3.543298382498884e-07,2.067599783490733e-05
4.5801001444009726e-07,8.055623153782435e-07,3.524452188662737e-07,2.1177471551064947e-05
4.6030037487347906e-07,8.012119118610168e-07,3.5059082873358776e-07,2.166915691426511e-05
4.6228581242430934e-07,7.967389272256802e-07,3.487793832724212e-07,2.2148661521511728e-05
4.6395460908696356e-07,7.921273654386706e-07,3.47021696725222e-07,2.261370655859397e-05
4.6529625988999043e-07,7.873638498480679e-07,3.453255458717316e-07,2.306216920234418e-05
4.6630093574776105e-07,7.824392070751453e-07,3.4369611325787137e-07,2.349206833244549e-05
4.669596022179518e-07,7.773481376993174e-07,3.4213628586099966e-07,2.3901498459437023e-05
4.672643838917093e-07,7.720890936727272e-07,3.406463587701961e-07,2.4288586337746437e-05
4.6720897618120613e-07,7.666650912175422e-07,3.3922409704120125e-07,2.46515179794124e-05
4.6678877878445995e-07,7.610827277313811e-07,3.3786490991890285e-07,2.498862216207929e-05
4.660014785185004e-07,7.553494641606087e-07,3.36562157205192e-07,2.52984925548633e-05
4.648487917577175e-07,7.494730883316122e-07,3.353081419745234e-07,2.5580135627934118e-05
4.6333687258176224e-07,7.434653146966085e-07,3.340953519885861e-07,2.5833068687124275e-05
4.6147363077543685e-07,7.373462517633106e-07,3.32917177378588e-07,2.605728129334773e-05
4.592660415627661e-07,7.311454082248166e-07,3.317679553922811e-07,2.6253073155322045e-05
4.567199012667104e-07,7.248996029782129e-07,3.3064290832764157e-07,2.642084751572912e-05
4.538406188415272e-07,7.18652211063857e-07,3.2953900230578107e-07,2.656094912389872e-05
4.50633530656855e-07,7.124556005927106e-07,3.284561987670582e-07,2.667361062880423e-05
4.471038703320733e-07,7.063716411804207e-07,3.2739700917639057e-07,2.675898649169564e-05
4.432568416177341e-07,7.004659824797118e-07,3.263652224320724e-07,2.681721439053344e-05
4.390981517681243e-07,6.948010308734292e-07,3.2536650453065013e-07,2.684853542573261e-05
4.3463485459145775e-07,6.894354027867432e-07,3.244091491334615e-07,2.685354091154935e-05
4.298759155181761e-07,6.844299256035805e-07,3.2350218739484356e-07,2.683341521689105e-05
4.248328041925698e-07,6.798525734253864e-07,3.226525694074917e-07,2.6789944674493023e-05
4.195201928572596e-07,6.757759252564185e-07,3.218636360306981e-07,2.6725310384263768e-05
4.139561254121957e-07,6.722675549184793e-07,3.211348394604321e-07,2.664184174910769e-05
4.081620936991183e-07,6.693796598775943e-07,3.204623132777623e-07,2.654183789357859e-05
4.0216327332475906e-07,6.671453642105047e-07,3.1983981295290014e-07,2.642758024361629e-05
3.959873730673276e-07,6.655849138683055e-07,3.192598701646548e-07,2.6301567578320505e-05
3.8966195566860213e-07,6.647177457244121e-07,3.1871502166218535e-07,2.6166724544119698e-05
3.832132459652888e-07,6.645699086168264e-07,3.181981810129665e-07,2.6026372966058412e-05
3.7666709407414883e-07,6.651704894903468e-07,3.17702632434853e-07,2.588404765776989e-05
3.7004933677640425e-07,6.665421876402961e-07,3.1722270490542676e-07,2.57433039211303e-05
3.633852373604162e-07,6.686937810313014e-07,3.16753685812462e-07,2.560756711345286e-05
3.5669911212057955e-07,6.716178218654822e-07,3.162903329100484e-07,2.548001372522041e-05
3.500137816314204e-07,6.752942870395773e-07,3.158259081268645e-07,2.536346191461702e-05
3.43350531634696e-07,6.796970006353768e-07,3.1535267709292586e-07,2.5260293935416214e-05
3.367304747548672e-07,6.847966936580943e-07,3.1486353355969466e-07,2.517244793650064e-05
3.301755702663668e-07,6.905599019616165e-07,3.143535881763377e-07,2.5101448970545623e-05
3.237078859719063e-07,6.969471093311622e-07,3.1382001531276923e-07,2.504841115190595e-05
3.173485881570716e-07,7.039116144590957e-07,3.132607110595725e-07,2.501399818072719e-05
3.111175611065427e-07,7.114000000334474e-07,3.126741827558795e-07,2.49983847970702e-05
3.0503289787762666e-07,7.193534741548618e-07,3.120608226968068e-07,2.500125490686293e-05
2.991113645257686e-07,7.277084134411174e-07,3.114230093278182e-07,2.502186132364617e-05
2.9337071049807784e-07,7.363969153595556e-07,3.107632661433632e-07,2.5059157484464012e-05
2.878312961956782e-07,7.45348651781347e-07,3.1008245165737076e-07,2.511194688638363e-05
2.8251619304364853e-07,7.544938810764064e-07,3.093791286750792e-07,2.5178973021526045e-05
2.774508320342061e-07,7.637654588173774e-07,3.086499427228724e-07,2.5258949487004863e-05
2.7266086314139184e-07,7.730980877519238e-07,3.0789061584002e-07,2.535058768190188e-05
2.6816899454684627e-07,7.824275248347219e-07,3.0709694849887645e-07,2.5452646314087383e-05
2.6399365712421643e-07,7.916932302662805e-07,3.062658942273591e-07,2.5563969239707237e-05
2.6014896325293214e-07,8.008433797167096e-07,3.0539757660609804e-07,2.5683472869682848e-05
2.566446274993433e-07,8.098382364570205e-07,3.044973847037123e-07,2.581008041368101e-05
2.534858023232349e-07,8.186480909863611e-07,3.035751864432199e-07,2.5942634666019266e-05
2.506730923208676e-07,8.272463593206023e-07,3.026414231999717e-07,2.6079855459632997e-05
2.4820338458458504e-07,8.35604702040371e-07,3.0170375209452444e-07,2.622037911493684e-05
2.460708543115053e-07,8.436933371600795e-07,3.007663264581721e-07,2.6362814949779158e-05
2.44266839432735e-07,8.514812033309864e-07,2.9983029778422124e-07,2.6505757075285595e-05
2.427796004640572e-07,8.589336603030093e-07,2.9889461453968525e-07,2.6647784820279278e-05
2.415954664488486e-07,8.660117524627796e-07,2.97957580288741e-07,2.678748390983959e-05
2.4070025917730286e-07,8.726743714171038e-07,2.970182238949614e-07,2.692346824153399e-05
2.4007992952297685e-07,8.788805256573822e-07,2.960770296455825e-07,2.7054370630781588e-05
2.3972137471894625e-07,8.845899153155234e-07,2.951375976448235e-07,2.7178796513140092e-05
2.3961361763028537e-07,8.897628589886438e-07,2.9420902361111287e-07,2.729529373252068e-05
2.397482640875214e-07,8.943613318358227e-07,2.9330657974090793e-07,2.740239967278005e-05
2.401187586710586e-07,8.983499960620737e-07,2.924490750826333e-07,2.7498767142288238e-05
2.407188403229213e-07,9.016960673173029e-07,2.9165438011833373e-07,2.7583340943281457e-05
2.4154090401229085e-07,9.043712554091093e-07,2.909363804393098e-07,2.7655521244269703e-05
2.4257498967072767e-07,9.063562012022278e-07,2.903042918469569e-07,2.7715205489790844e-05
2.438094344021896e-07,9.07642154476378e-07,2.8976344916178963e-07,2.7762683765969622e-05
2.452329493364211e-07,9.082282108268532e-07,2.8931659403941396e-07,2.7798454127464068e-05
2.468359693741896e-07,9.081175810941351e-07,2.8896478448204397e-07,2.782300958758208e-05
2.4861081668463005e-07,9.073165231020176e-07,2.8870796772937497e-07,2.7836686598620002e-05
2.505515250242152e-07,9.058364763469164e-07,2.88545876522644e-07,2.783965746853493e-05
2.5265230789489865e-07,9.036959730282614e-07,2.884791918787252e-07,2.7831997785605016e-05
2.549048227167469e-07,9.009193004429464e-07,2.885095139198978e-07,2.7813718898899275e-05
2.572971891047083e-07,8.975329663023052e-07,2.886382869699402e-07,2.7784805099553692e-05
2.5981572167492305e-07,8.935640155736185e-07,2.8886652460577214e-07,2.7745389562556732e-05
2.624467137990077e-07,8.890433244345752e-07,2.8919463101208136e-07,2.7695995427735162e-05
2.651764789235245e-07,8.840105824033266e-07,2.8962168451954856e-07,2.7637571358834227e-05
2.679908172204885e-07,8.785129975719524e-07,2.901458278305266e-07,2.7571293845113563e-05
2.708747973210629e-07,8.725978636114159e-07,2.9076540673885214e-07,2.7498343608604216e-05
2.738128491682507e-07,8.663080233159754e-07,2.914787713651345e-07,2.74197978841534e-05
2.767897105355496e-07,8.596836208429357e-07,2.922830123741136e-07,2.7336742450588724e-05
2.797915894211925e-07,8.527682892200546e-07,2.9317317192593146e-07,2.7250545370427216e-05
2.828061291992732e-07,8.456163174564658e-07,2.941420359462541e-07,2.7163005929178214e-05
2.8582184827315805e-07,8.382930189199449e-07,2.9518042301926764e-07,2.707626961920784e-05
2.888284212251405e-07,8.308669693966479e-07,2.962784021047107e-07,2.699266071779353e-05
2.9181663404326617e-07,8.234014867146058e-07,2.974268255228421e-07,2.69145334721103e-05
2.947770616343379e-07,8.159496247938958e-07,2.9861787161384744e-07,2.684413719773943e-05
2.9769989656542696e-07,8.08553024171679e-07,2.998449401016313e-07,2.6783487578594406e-05
3.00576639327398e-07,8.012443071475862e-07,3.011028191384941e-07,2.673426189072152e-05
3.0340081286905857e-07,7.940519913701113e-07,3.0238755736734906e-07,2.669774870493808e-05
3.0616693663741177e-07,7.870049419480981e-07,3.036956759605114e-07,2.6674857398503896e-05
3.0886902650151354e-07,7.801323815917335e-07,3.050231433626496e-07,2.6666140942279998e-05
3.114993552961926e-07,7.734598351150013e-07,3.063650962520571e-07,2.6671778551985125e-05
3.1404843837011045e-07,7.670052011651551e-07,3.0771679705252354e-07,2.669152426628544e-05
3.165063251193501e-07,7.607778295207196e-07,3.09074299721105e-07,2.6724678140799148e-05
3.1886437814214217e-07,7.547801815081952e-07,3.1043413802126194e-07,2.677012125310737e-05
3.211179980371398e-07,7.490095347304058e-07,3.117928980776469e-07,2.682640427386533e-05
3.232701479863185e-07,7.434595283152677e-07,3.131469373939583e-07,2.689185799937125e-05
3.2533226257325783e-07,7.381228976420542e-07,3.144928272493844e-07,2.6964705600985305e-05
3.2731983022275554e-07,7.329928711614031e-07,3.1582895039213125e-07,2.704316642759556e-05
3.2924676829738e-07,7.280609148398677e-07,3.1715630424820464e-07,2.7125555659360845e-05
3.31124533918399e-07,7.233138835802459e-07,3.184763906558572e-07,2.72103822004458e-05
3.329634901034989e-07,7.18733852126928e-07,3.197880405693078e-07,2.7296402694721475e-05
3.3477164700918286e-07,7.143005858036414e-07,3.210865623535907e-07,2.738258842587336e-05
3.3655343439531377e-07,7.099953471562809e-07,3.223652480634047e-07,2.746803757194924e-05
3.383112876708486e-07,7.058046907472194e-07,3.2361669632875097e-07,2.755188953883726e-05
3.400469587591123e-07,7.017224116910453e-07,3.2483338728769324e-07,2.7633258159966347e-05
3.417607177393025e-07,6.977474209075617e-07,3.2600916436617777e-07,2.77112084533206e-05
3.434505721170457e-07,6.938786749583136e-07,3.271401230520013e-07,2.7784807107807024e-05
3.45112808383414e-07,6.90112320930805e-07,3.282228072243266e-07,2.785319533638548e-05
3.467433156205712e-07,6.864426868608379e-07,3.292524045938636e-07,2.791560950966852e-05
3.483386548650161e-07,6.828628419033715e-07,3.302230215080377e-07,2.797136470966112e-05
3.4989573300508327e-07,6.793636475682442e-07,3.311282395380289e-07,2.801982935455373e-05
3.514104615842476e-07,6.75934744472034e-07,3.319608177941728e-07,2.806037793803584e-05
3.5287730942667157e-07,6.72565726356916e-07,3.327127124846764e-07,2.8092339291137013e-05
