1.5811515214044512e-06,9.809071099268985e-07,3.11627719211905e-07,1.9489166071245368e-05
1.5850775223731242e-06,9.702165851059922e-07,3.1095930360286e-07,1.997375164097113e-05
1.5877387250383037e-06,9.597214283852894e-07,3.1039787888680957e-07,2.0476969592807856e-05
1.589108607986599e-06,9.495189582549952e-07,3.099459938709072e-07,2.0995483299217566e-05
1.58916790698263e-06,9.397207237185455e-07,3.0960473542709364e-07,2.1526004564251666e-05
1.5879101493401483e-06,9.304305649287708e-07,3.0937307429156034e-07,2.206539256279465e-05
1.585349428360676e-06,9.217406956466145e-07,3.092476130019704e-07,2.2610686170226245e-05
1.5815236559292224e-06,9.137446827711391e-07,3.092227181099378e-07,2.315906472928204e-05
1.576491597476051e-06,9.065469555408331e-07,3.092905474127156e-07,2.370780512177728e-05
1.5703249702167074e-06,9.002583476211878e-07,3.094410082467188e-07,2.425425448627455e-05
1.563098654990863e-06,8.949846372902693e-07,3.096619376812625e-07,2.4795787373212744e-05
1.5548827371510106e-06,8.90816169112324e-07,3.0994005448197505e-07,2.5329770768063494e-05
1.545737775921362e-06,8.878216829497116e-07,3.1026270017306665e-07,2.5853575345238487e-05
1.5357132306832912e-06,8.860463677892416e-07,3.106192556374695e-07,2.636460096170224e-05
1.5248480091738613e-06,8.855124678397734e-07,3.110027273061173e-07,2.68602866644265e-05
1.5131716148500748e-06,8.862253043841274e-07,3.114115098254019e-07,2.7338139097389285e-05
1.500706297085301e-06,8.881902626021973e-07,3.1184855672632644e-07,2.779580645897579e-05
1.487471299373186e-06,8.914348690656208e-07,3.123191642656385e-07,2.823115201271024e-05
1.4734881323827366e-06,8.960191226774006e-07,3.128302621460144e-07,2.864224770774441e-05
1.4587846039890576e-06,9.0202575534277e-07,3.1338972464748896e-07,2.9027291856362207e-05
1.4433972773714409e-06,9.095396796784173e-07,3.1400495797519736e-07,2.9384549616162578e-05
1.427374303388556e-06,9.186305499053068e-07,3.1468198489485633e-07,2.9712378783501207e-05
1.410778993183839e-06,9.293432361543235e-07,3.154256031120541e-07,3.000931280394923e-05
1.3936904660712857e-06,9.4169726913976e-07,3.162399668321333e-07,3.027417275453138e-05
1.3761978455321008e-06,9.556974887523266e-07,3.1712831257813e-07,3.050620487899964e-05
1.358390723359543e-06,9.713516750663943e-07,3.180929999736785e-07,3.070516137546527e-05
1.3403521711902895e-06,9.886851792736936e-07,3.191370262671643e-07,3.087122503288931e-05
1.322155705787724e-06,1.0077412130515057e-06,3.202652032306744e-07,3.100482392575105e-05
1.3038633992788185e-06,1.028563047082695e-06,3.214833148725856e-07,3.1106446291171184e-05
1.2855247031124584e-06,1.0511739788171058e-06,3.22795569973995e-07,3.117651668620108e-05
1.2671774632401506e-06,1.0755718396434873e-06,3.242021652137624e-07,3.121536735874618e-05
1.248851252947604e-06,1.1017349745884632e-06,3.2569824523975193e-07,3.122327621352073e-05
1.2305724244733583e-06,1.1296353250812219e-06,3.272739214631608e-07,3.120051785803134e-05
1.2123699426300708e-06,1.159260841350523e-06,3.2891549672756496e-07,3.1147509582381824e-05
1.1942796156714202e-06,1.1906321826695094e-06,3.306086488582388e-07,3.106513601294749e-05
1.176343680219077e-06,1.2237921046741298e-06,3.323424308725182e-07,3.095503595576584e-05
1.1586051211744414e-06,1.258777066884063e-06,3.341121133317191e-07,3.0819565795259213e-05
1.1411002372686766e-06,1.2955966171282586e-06,3.3592034075136425e-07,3.0661509318618784e-05
1.1238541408735657e-06,1.3342240962836822e-06,3.377764558737805e-07,3.0483769732794386e-05
1.1068805173796754e-06,1.3745900936289288e-06,3.3969399521705985e-07,3.0289164382910296e-05
1.0901836507554646e-06,1.4165797270986583e-06,3.416867530277353e-07,3.0080449457489784e-05
1.0737614530553153e-06,1.4600373113229789e-06,3.437648183582533e-07,2.9860595538063957e-05
1.057609920002867e-06,1.5047764472369841e-06,3.459337155496438e-07,2.963302661026293e-05
1.041727719782062e-06,1.5505919660973443e-06,3.481973198532049e-07,2.9401595631258283e-05
1.0261180290270507e-06,1.5972702523506975e-06,3.505604504724469e-07,2.9170394671442683e-05
1.010787652523183e-06,1.6445940508743319e-06,3.530277357004918e-07,2.8943542426110766e-05
9.957463627362742e-07,1.692342818938414e-06,3.5560149011871007e-07,2.872498910346828e-05
9.81007295178697e-07,1.7402960263447056e-06,3.5828332533240706e-07,2.851835806340159e-05
9.665866311620085e-07,1.7882386664089108e-06,3.610772545959901e-07,2.8326840214209852e-05
9.525023572396051e-07,1.835960691035165e-06,3.639886942911733e-07,2.8153153982303423e-05
9.387730160287674e-07,1.8832521538183528e-06,3.6702045364811786e-07,2.7999563815162293e-05
9.25416468052428e-07,1.92990026652771e-06,3.7017039579674676e-07,2.7867901840986278e-05
9.124494183333492e-07,1.9756905487119536e-06,3.734318788840776e-07,2.7759541353311492e-05
8.998879066540015e-07,2.0204135531710893e-06,3.7679569792976757e-07,2.7675340430906066e-05
8.877465020749946e-07,2.0638729595747382e-06,3.8025166844796687e-07,2.7615603008659887e-05
8.76035755112363e-07,2.1058868475337107e-06,3.8378803576101547e-07,2.758007562917412e-05
8.647607324182422e-07,2.146281793759981e-06,3.873895064416553e-07,2.7567997052397468e-05
8.539219252959427e-07,2.184890229932396e-06,3.9103654724283366e-07,2.7578228702469342e-05
8.435183513935742e-07,2.2215586884947012e-06,3.947064469717372e-07,2.7609437563049334e-05
8.335517232767235e-07,2.2561583883001257e-06,3.983751000345338e-07,2.7660251176609198e-05
8.240271683874672e-07,2.2885851448728318e-06,4.020194712175307e-07,2.772935018363394e-05
8.14949657233788e-07,2.3187490397430504e-06,4.0561950609284525e-07,2.781551354838444e-05
8.063231240911431e-07,2.3465642235479766e-06,4.0915752650776096e-07,2.791762361252265e-05
7.981552110688751e-07,2.3719459557411696e-06,4.1261656517470725e-07,2.8034633727415257e-05
7.90462214254583e-07,2.3948136579176245e-06,4.1597967595045094e-07,2.81655104418404e-05
7.832709113123858e-07,2.415093720934449e-06,4.1922938582261206e-07,2.830916153740977e-05
7.766191613506094e-07,2.4327194631906133e-06,4.223470934699461e-07,2.84643579344096e-05
7.705560571311377e-07,2.4476332300374216e-06,4.253134388744754e-07,2.862968649386225e-05
7.651399523284567e-07,2.459794531460585e-06,4.2810922341144903e-07,2.880357711664488e-05
7.604354169509189e-07,2.469191882769405e-06,4.307165619423893e-07,2.898436185312793e-05
7.565129574687286e-07,2.4758514644396537e-06,4.331204292181717e-07,2.9170295618967785e-05
7.534509247522735e-07,2.479835520289093e-06,4.353100726168301e-07,2.9359555853155372e-05
7.513344931840632e-07,2.481234459950955e-06,4.3728045064909077e-07,2.9550266611825922e-05
7.502495812523355e-07,2.4801624144444918e-06,4.39032730036913e-07,2.974054427432904e-05
7.502744930231585e-07,2.476753491736e-06,4.4057145038051674e-07,2.992855564764969e-05
7.514728340669981e-07,2.4711510823199747e-06,4.4190022549045963e-07,3.011258721997047e-05
7.538893327197963e-07,2.463493471444821e-06,4.430205689311153e-07,3.0291090660452678e-05
7.575489584092164e-07,2.4539047254870948e-06,4.439336067029967e-07,3.046269175868388e-05
7.624576230032995e-07,2.4424938994309783e-06,4.446409199806761e-07,3.062619248203941e-05
7.68601242750246e-07,2.429358257081696e-06,4.4514423129645615e-07,3.0780555814100576e-05
7.759438685294657e-07,2.414588739206971e-06,4.4544640239283936e-07,3.0924858711103706e-05
7.844281283972081e-07,2.3982825541653806e-06,4.4555272431332685e-07,3.105822681338032e-05
7.939777139334112e-07,2.380565508400697e-06,4.4546983643762896e-07,3.1179753955082036e-05
8.044998683115482e-07,2.3616143207983064e-06,4.452034083775285e-07,3.1288450715108664e-05
8.158881515617386e-07,2.3416598497307454e-06,4.447570877685222e-07,3.138330140242351e-05
8.280274056214645e-07,2.3209640244411947e-06,4.441330167873313e-07,3.1463401732807245e-05
8.408016925862415e-07,2.299785078119162e-06,4.43332851291014e-07,3.1528044555628305e-05
8.541033575604943e-07,2.2783516024671828e-06,4.423583634411163e-07,3.157669968969734e-05
8.678400082642065e-07,2.2568588686235147e-06,4.412120553581418e-07,3.160894565417088e-05
8.819368492425257e-07,2.2354887089863853e-06,4.398989016120143e-07,3.162443047374373e-05
8.963333209587366e-07,2.21443342544044e-06,4.384278256171789e-07,3.162289992570966e-05
9.109762089778641e-07,2.193898210193919e-06,4.368107411079964e-07,3.160421891930312e-05
9.258143636506413e-07,2.1740839381169397e-06,4.3506075014375097e-07,3.156831207507805e-05
9.4079717899453e-07,2.1551726433823453e-06,4.3319101015989006e-07,3.1515094364617505e-05
9.558739799990031e-07,2.1373235464456142e-06,4.312130416427954e-07,3.144445462626445e-05
9.709932002613097e-07,2.12067078306983e-06,4.29135340296913e-07,3.1356253164711494e-05
9.861034197369157e-07,2.105321451279869e-06,4.26964426961935e-07,3.125030703024647e-05
1.0011561252948609e-06,2.0913614306849304e-06,4.247073971234298e-07,3.1126379164039114e-05
1.0161078821046754e-06,2.0788655252444693e-06,4.223736353986107e-07,3.0984182363371115e-05
1.0309205136446634e-06,2.0679026419865777e-06,4.1997509369160793e-07,3.082340197777715e-05
1.0455592075950558e-06,2.058536667582834e-06,4.175253121286404e-07,3.064372366090731e-05
1.0599894817828536e-06,2.0508232172784318e-06,4.150369816283134e-07,3.0444845383310662e-05
1.0741752520578545e-06,2.044797484440296e-06,4.1251955942647207e-07,3.022648275557995e-05
1.0880806816447887e-06,2.0404605309412395e-06,4.099791113810057e-07,2.998837721994224e-05
1.1016746798835912e-06,2.037777190215368e-06,4.0741974156708754e-07,2.9730304664569426e-05
1.114932985547324e-06,2.036682538140752e-06,4.048450727111649e-07,2.945208945768261e-05
1.1278363742309194e-06,2.0370859338461157e-06,4.0225899772001905e-07,2.9153622543264752e-05
1.1403683769464301e-06,2.038873289184607e-06,3.9966501733763115e-07,2.883487165368689e-05
1.1525136526306268e-06,2.041915374096518e-06,3.970658430678995e-07,2.849587605594984e-05
1.1642547915734017e-06,2.0460807120426016e-06,3.9446570370834775e-07,2.8136734096315186e-05
1.1755675529120322e-06,2.0512431129828166e-06,3.9187302026098633e-07,2.7757598418846528e-05
1.1864176049014608e-06,2.05727957930476e-06,3.8929953495223595e-07,2.7358682390327968e-05
1.1967606765005209e-06,2.064062737089842e-06,3.8675721444699004e-07,2.694027334225449e-05
1.20654569902642e-06,2.0714554110283317e-06,3.8425653866907393e-07,2.6502741159615412e-05
1.2157190609260272e-06,2.0793136832448378e-06,3.818070101392917e-07,2.604653337630521e-05
1.2242271567784691e-06,2.08749779555788e-06,3.794185163393221e-07,2.5572170250738995e-05
1.2320164529999414e-06,2.0958831476546096e-06,3.7710187270989204e-07,2.508026623111788e-05
1.2390335461071734e-06,2.104363875238821e-06,3.7486817821791577e-07,2.4571589465453407e-05
1.245226283596197e-06,2.1128508364425807e-06,3.7272773365051544e-07,2.4047118253077288e-05
1.2505445471551011e-06,2.1212707507778358e-06,3.706887659058469e-07,2.350803085845864e-05
1.2549412133890716e-06,2.1295667191360292e-06,3.6875592446902407e-07,2.295563290097236e-05
1.2583748689917532e-06,2.137695528303943e-06,3.669292334155089e-07,2.2391286765178094e-05
1.260812801248139e-06,2.1456192289800943e-06,3.652040396169114e-07,2.1816408917216422e-05
1.2622312122415443e-06,2.1532948139000266e-06,3.635715567264537e-07,2.1232553264243267e-05
1.2626130740908394e-06,2.1606689510333736e-06,3.6201957820408905e-07,2.0641486007156887e-05
1.2619465870214859e-06,2.1676783070070492e-06,3.605338622685939e-07,2.004514229263905e-05
1.2602245437620675e-06,2.1742506915312413e-06,3.591008656321536e-07,1.94455156739174e-05
1.2574430072567699e-06,2.1803066536311835e-06,3.577104427588664e-07,1.8844588687182888e-05
1.2535994535857372e-06,2.1857693560742387e-06,3.56356827422624e-07,1.8244318486516304e-05
1.248691948973443e-06,2.190586587965352e-06,3.5503932409544814e-07,1.7646686860470146e-05
1.2427199370273884e-06,2.1947505003651192e-06,3.537634333675645e-07,1.7053816384697275e-05
1.2356855170751646e-06,2.198297193652633e-06,3.5253990892578884e-07,1.6468040394274506e-05
1.2275940419019914e-06,2.2012869306061544e-06,3.513811271271868e-07,1.5891828712131318e-05
1.2184539045774083e-06,2.2037794712795054e-06,3.502972476311151e-07,1.5327621784480045e-05
1.2082763398461313e-06,2.205817298267305e-06,3.492946673477164e-07,1.4777691257851535e-05
1.1970757983149207e-06,2.20742034353736e-06,3.4837842949420065e-07,1.4244125512508123e-05
1.1848699839620138e-06,2.20858993457166e-06,3.475571752990804e-07,1.3728969211945696e-05
1.1716794798135406e-06,2.2093206441595705e-06,3.468459961079499e-07,1.3234407244135001e-05
1.1575283490577526e-06,2.20962002928004e-06,3.46265333865835e-07,1.2762826567307256e-05
1.1424447705693457e-06,2.2095289008363154e-06,3.4583820064122074e-07,1.2316709581318562e-05
1.1264601039862156e-06,2.209123848852211e-06,3.455871988265288e-07,1.1898453608997967e-05
1.1096086337805862e-06,2.208496654372274e-06,3.4553151724006877e-07,1.1510239002582546e-05
1.0919303812283756e-06,2.207732044783988e-06,3.4568457993049586e-07,1.115397554706265e-05
1.0734744580367954e-06,2.206899038564049e-06,3.460529330117537e-07,1.0831263755847099e-05
1.054298292444118e-06,2.206052681150289e-06,3.466365089473242e-07,1.0543358709995854e-05
1.0344625097681694e-06,2.205252065600597e-06,3.474297251018859e-07,1.0291228217970272e-05
1.014026387287805e-06,2.2045922983402644e-06,3.4842281617535783e-07,1.0075775362906996e-05
9.930472954901612e-07,2.204218734996046e-06,3.4960352940725926e-07,9.898093561807677e-06
9.715828580178455e-07,2.2043083042506013e-06,3.509584267154921e-07,9.759505424559036e-06
9.496931008034815e-07,2.20503778855631e-06,3.5247343004688e-07,9.661367484529602e-06
9.274418375862724e-07,2.206559394514595e-06,3.541349165477001e-07,9.604836370079864e-06
9.048984530095284e-07,2.20899150077689e-06,3.5593081927484826e-07,9.590712201104704e-06
8.82140483587392e-07,2.212421690956296e-06,3.578511945018703e-07,9.619424079799637e-06
8.592555518207865e-07,2.216911436109929e-06,3.598894655451637e-07,9.691246337174782e-06
8.363405085269962e-07,2.2224963930941107e-06,3.6204217707542425e-07,9.80662258317712e-06
8.134980113685021e-07,2.229183692085557e-06,3.643052644424106e-07,9.966298326217019e-06
7.908346331089753e-07,2.2369474947269743e-06,3.6667063316487386e-07,1.0171209360754696e-05
7.684625536377516e-07,2.2457253045324685e-06,3.6912627020380157e-07,1.0422303234630471e-05
7.465012639461752e-07,2.2554207913728243e-06,3.716584041408192e-07,1.0720383830101062e-05
7.250775042150306e-07,2.26591319279003e-06,3.742529866096884e-07,1.1065974350298064e-05
7.043248863405004e-07,2.277066239772825e-06,3.7689581486180685e-07,1.145920228466346e-05
6.843802369171254e-07,2.2887342968242987e-06,3.795734101184833e-07,1.1899728857750195e-05
6.653744384596126e-07,2.300771145148038e-06,3.822747459865614e-07,1.2386733487615602e-05
6.474231385004229e-07,2.313041847760264e-06,3.8499068080299844e-07,1.2918920678259993e-05
6.306214406216661e-07,2.3254280737443483e-06,3.8771154084671345e-07,1.3494495213396848e-05
6.150418155546198e-07,2.3378226765981547e-06,3.904262333427765e-07,1.4111105861394784e-05
6.007349764515128e-07,2.350123592166926e-06,3.931236554648895e-07,1.4765824857599213e-05
5.87733076242851e-07,2.362236368543853e-06,3.9579499218864496e-07,1.5455193045441086e-05
5.760534290287463e-07,2.3740815733011937e-06,3.9843472378278606e-07,1.6175306587878705e-05
5.657016696919535e-07,2.3855970617598804e-06,4.0103897144377043e-07,1.6921959844792107e-05
5.566734581281435e-07,2.3967293026466127e-06,4.036028199848223e-07,1.769085283596459e-05
5.489546250677605e-07,2.40741952189664e-06,4.0611903384883096e-07,1.847778128344484e-05
5.425211414274843e-07,2.4175999074959426e-06,4.085782209732222e-07,1.927873575769716e-05
5.373405096476935e-07,2.4272033302645884e-06,4.1097002099705963e-07,2.0089927076548888e-05
5.333741890421483e-07,2.436170418994999e-06,4.1328456693227135e-07,2.090776527615761e-05
5.305785675291475e-07,2.4444457165178205e-06,4.1551223345436615e-07,2.1728798273847103e-05
5.289048435178629e-07,2.451974618432118e-06,4.176424881456785e-07,2.2549641891108412e-05
5.28300115255557e-07,2.4587076041909995e-06,4.1966431379015047e-07,2.3366931457097806e-05
5.287076295554525e-07,2.4646022648172155e-06,4.215673230510589e-07,2.4177288691437986e-05
5.300647587981077e-07,2.469617331715724e-06,4.233419040814656e-07,2.4977309959778132e-05
5.323025409617146e-07,2.473706018342816e-06,4.249795352615973e-07,2.5763612309655162e-05
5.353483765207206e-07,2.4768173042063116e-06,4.264741642436433e-07,2.653291953081755e-05
5.391285651545272e-07,2.478904808924723e-06,4.2782331559405754e-07,2.728211278659599e-05
5.435683390987846e-07,2.4799342932549683e-06,4.290281313255905e-07,2.8008230111471307e-05
5.485906792620614e-07,2.479884412047349e-06,4.300922196562124e-07,2.870847128425225e-05
5.541160445495052e-07,2.4787444988985096e-06,4.310197421813692e-07,2.938024192013026e-05
5.600630014727964e-07,2.4765105280384697e-06,4.318143794472996e-07,3.0021187680588484e-05
5.663493578970437e-07,2.4731776158245134e-06,4.3247944856767595e-07,3.062914407712158e-05
5.728952433456874e-07,2.4687325709756854e-06,4.3301811191898143e-07,3.12020395960053e-05
5.796281520919159e-07,2.463150506476508e-06,4.334331057307558e-07,3.1737865501962754e-05
5.864862095906417e-07,2.4563960117626587e-06,4.337263265558929e-07,3.2234739797407284e-05
5.93417761470942e-07,2.4484264035952968e-06,4.3389902369482853e-07,3.2691032065669106e-05
6.003812417217949e-07,2.4391947335047136e-06,4.339520296832256e-07,3.310553201694438e-05
6.07347842732595e-07,2.428656376948967e-06,4.338849947485335e-07,3.347759209948133e-05
6.143032218396768e-07,2.416788285707121e-06,4.336956614132541e-07,3.3807134639725127e-05
6.212454829797876e-07,2.4036192281960674e-06,4.333816151799119e-07,3.4094507367759394e-05
6.281812806141382e-07,2.38924644207603e-06,4.3294409570437925e-07,3.434026185438197e-05
6.351218744369718e-07,2.373817626693796e-06,4.32389981944534e-07,3.454494401104429e-05
6.420801369725759e-07,2.35749260756034e-06,4.3173012420802233e-07,3.4708981557396154e-05
6.490684389703777e-07,2.3404163931938165e-06,4.309763267435688e-07,3.4832688795137654e-05
6.560948151264538e-07,2.32271820841713e-06,4.301398811785964e-07,3.491631300935683e-05
6.631579638346339e-07,2.3045325666390104e-06,4.2923211175455253e-07,3.496009807248334e-05
6.702455953349367e-07,2.286026521298339e-06,4.282652570644982e-07,3.496449295039833e-05
6.773360845516069e-07,2.2674093019331303e-06,4.2725239680341147e-07,3.4930509517778506e-05
6.843999622929465e-07,2.2489195370411393e-06,4.2620600361123344e-07,3.485992231592922e-05
6.914009233929821e-07,2.2308100306827217e-06,4.2513556113599744e-07,3.475511703685753e-05
6.982973478753019e-07,2.213339649494289e-06,4.2404602649115976e-07,3.4618775441387676e-05
7.050437059049587e-07,2.196763211498245e-06,4.2293785984785226e-07,3.445363296138212e-05
7.11592165878301e-07,2.1813170280174943e-06,4.218076794799264e-07,3.426243504600125e-05
7.178964047823014e-07,2.1672087987844488e-06,4.206488808929049e-07,3.4048123131154425e-05
7.239158758040194e-07,2.154615191124969e-06,4.1945257677450717e-07,3.3814063617908554e-05
7.296162248268497e-07,2.143683138081911e-06,4.18209919901203e-07,3.3564087667435275e-05
7.349671574435402e-07,2.1345309957463626e-06,4.1691466402188884e-07,3.330233962649364e-05
7.39941905803977e-07,2.1272462397959025e-06,4.155631723097238e-07,3.3033064499472665e-05
7.445177748463766e-07,2.1218802696146027e-06,4.1415265932455676e-07,3.276042158903789e-05
7.486752650969214e-07,2.118447154712458e-06,4.1268005030870363e-07,3.2488344258756516e-05
7.523961262858875e-07,2.1169280348100535e-06,4.111413548962864e-07,3.222042809424635e-05
7.556621346660457e-07,2.1172757050402407e-06,4.09531466021185e-07,3.1959839695366005e-05
7.584551319058515e-07,2.1194216737008166e-06,4.0784517143181464e-07,3.1709264686542274e-05
7.607577708205423e-07,2.123290105852972e-06,4.0607875688343025e-07,3.1470908462086484e-05
7.625544288264927e-07,2.128810341408289e-06,4.042303294446426e-07,3.124652934042415e-05
7.638319364702494e-07,2.1359195559772012e-06,4.022983516008325e-07,3.1037458942040426e-05
7.645799695161148e-07,2.1445585040382906e-06,4.002800315884481e-07,3.0844585626988626e-05
7.647919570511721e-07,2.154665502363137e-06,3.981710172777009e-07,3.066831940859538e-05
7.644670586041109e-07,2.1661700423433733e-06,3.9596650937060366e-07,3.0508581120418462e-05
7.636111930031064e-07,2.178985889394637e-06,3.936625406583753e-07,3.036486152719239e-05
7.622367830460296e-07,2.1930060192126166e-06,3.912558336462246e-07,3.0236355123254584e-05
7.603644922073223e-07,2.2081033864612584e-06,3.887426399860882e-07,3.012210925362162e-05
7.580255782203212e-07,2.22413676088445e-06,3.861184148373192e-07,3.002112948240167e-05
7.55259215508605e-07,2.2409558303060058e-06,3.833792231862877e-07,2.9932448040107416e-05
7.521051792695987e-07,2.2584017113899314e-06,3.8052388548865207e-07,2.9855181669211705e-05
7.485979931679362e-07,2.2763063320874013e-06,3.775550762687759e-07,2.9788555756566974e-05
7.447660290785595e-07,2.294496139350898e-06,3.744784751394915e-07,2.9731870385084522e-05
7.406337843516144e-07,2.3127977982433542e-06,3.713007718011485e-07,2.9684431044120782e-05
7.362253175837392e-07,2.3310391793934537e-06,3.68028328571272e-07,2.9645462619282507e-05
7.315694525675587e-07,2.34904666770999e-06,3.646674838397719e-07,2.9614029987347435e-05
7.267046288166263e-07,2.3666466371700885e-06,3.6122598705649436e-07,2.958904577134704e-05
7.216785131464146e-07,2.3836723447287374e-06,3.5771378087365386e-07,2.9569376650772838e-05
7.165426377468194e-07,2.399970761753888e-06,3.5414193177285534e-07,2.955391533070672e-05
7.113464206038118e-07,2.4154067323603817e-06,3.505211325559104e-07,2.9541550909799652e-05
7.061326733274904e-07,2.429866122828379e-06,3.468613158726558e-07,2.9531109600324817e-05
7.009356177120371e-07,2.4432639663756857e-06,3.431717329369866e-07,2.9521320405242323e-05
6.957825693271305e-07,2.4555571675064545e-06,3.394608661036167e-07,2.9510815983158995e-05
6.906980335722818e-07,2.4667436437933044e-06,3.357366957946548e-07,2.949816141161756e-05
6.8570763847482e-07,2.476839431875461e-06,3.3200708920641647e-07,2.9481869462764106e-05
6.808403551134989e-07,2.4858561464338767e-06,3.28279883088838e-07,2.9460406080825568e-05
6.761281094856529e-07,2.493796604279535e-06,3.245634617211133e-07,2.9432253288954188e-05
6.716027850615572e-07,2.5006589579695894e-06,3.2086803854768564e-07,2.939604538382792e-05
6.672925284976858e-07,2.506438282707828e-06,3.172069537199101e-07,2.9350756287044e-05
6.632197743267921e-07,2.511125206948415e-06,3.135972962931098e-07,2.9295906050108116e-05
6.59402020803536e-07,2.514706237094136e-06,3.100589197987123e-07,2.9231661811004187e-05
6.558554305874613e-07,2.5171732191207862e-06,3.066117200078575e-07,2.915871491548665e-05
6.52599795403735e-07,2.5185336593385797e-06,3.0327266019682717e-07,2.9077986774945148e-05
6.49661374601331e-07,2.518803704443584e-06,3.000543618053629e-07,2.899033008490129e-05
6.470709115170589e-07,2.5179904024962812e-06,2.96965373937864e-07,2.8896371928105487e-05
6.44858444213094e-07,2.516082941316225e-06,2.940106891047613e-07,2.8796521065617408e-05
6.430496475218598e-07,2.5130577637784787e-06,2.9119183436176146e-07,2.869102915651963e-05
6.416647624574209e-07,2.5088996461999574e-06,2.8850742819784733e-07,2.858004304302956e-05
6.40717058908555e-07,2.50363919626004e-06,2.859554438284284e-07,2.846376109016687e-05
6.402101783185431e-07,2.4973832418393106e-06,2.835367589597034e-07,2.834273458408172e-05
6.401364845629188e-07,2.4903096205879424e-06,2.812571894811208e-07,2.821806221212644e-05
6.404778005080465e-07,2.48263324341182e-06,2.7912658983589674e-07,2.809128315956909e-05
6.412077491266489e-07,2.4745723983123498e-06,2.7715716164901327e-07,2.796410924332056e-05
6.422937925670237e-07,2.466328747996784e-06,2.753627032990911e-07,2.7838171248831603e-05
6.436984733407761e-07,2.45807703842514e-06,2.737584969214976e-07,2.7714865701330096e-05
6.453801997409502e-07,2.4499609089514504e-06,2.723610837063829e-07,2.759547781358559e-05
6.472932826071771e-07,2.4420931106385973e-06,2.711868436562718e-07,2.7481584454187358e-05
6.493877875577495e-07,2.4345547143594327e-06,2.702491813759126e-07,2.7375351604493585e-05
6.51610194812497e-07,2.427392162140997e-06,2.6955669892740544e-07,2.727946742229379e-05
6.539046283383222e-07,2.420617002651045e-06,2.691150416028294e-07,2.719687590175608e-05
6.562144054830948e-07,2.4142088098127207e-06,2.6893087869367967e-07,2.713052671885422e-05
6.584837454736644e-07,2.4081187423114416e-06,2.6901397513780534e-07,2.708319222408734e-05
6.606587456713333e-07,2.4022741965993697e-06,2.6937681284002144e-07,2.7057338800592292e-05
6.62687690610055e-07,2.3965864386805548e-06,2.70033607863726e-07,2.705504212404914e-05
6.645219165467226e-07,2.39096360632172e-06,2.70999416684075e-07,2.707794362500149e-05
6.661176016505528e-07,2.385328031700804e-06,2.7228916335361534e-07,2.712723976673025e-05
6.674369615958489e-07,2.3796278197444605e-06,2.739157102510684e-07,2.720366587575647e-05
6.684474635698452e-07,2.3738360194239132e-06,2.758876034792985e-07,2.7307450227038344e-05
6.691200690195734e-07,2.3679449807872586e-06,2.782088596891956e-07,2.7438269858414444e-05
6.694281094738639e-07,2.361962247207201e-06,2.808797851965528e-07,2.759523748966085e-05
6.693480244406286e-07,2.355905274242531e-06,2.838961189274061e-07,2.777692332640824e-05
6.688618880994393e-07,2.34979624371014e-06,2.8724784466694304e-07,2.798142601283061e-05
6.679584589642417e-07,2.343661222462757e-06,2.9092001787745485e-07,2.820651454377151e-05
6.66631290855381e-07,2.3375293062971598e-06,2.9489443449168574e-07,2.8449819784368842e-05
6.648775819270298e-07,2.33142846092721e-06,2.991498378210725e-07,2.870899580095395e-05
6.626990560412564e-07,2.325384110249032e-06,3.036614168601962e-07,2.8981802313920252e-05
6.601015344824439e-07,2.3194193009022416e-06,3.084028886980567e-07,2.9266141553926665e-05
6.570925066184963e-07,2.3135484606159132e-06,3.133515317106961e-07,2.9560088890098304e-05
6.536793196902962e-07,2.307768472243721e-06,3.184916939635592e-07,2.9861902922546807e-05
6.498694170706505e-07,2.3020579997560613e-06,3.2381337528447e-07,3.0169977294057592e-05
6.456715132014629e-07,2.296385832169384e-06,3.293086219727031e-07,3.0482723900069463e-05
6.410956739375863e-07,2.290716814938707e-06,3.3496948914602947e-07,3.079843822810103e-05
6.361527618254868e-07,2.2850102406209e-06,3.4078619909579037e-07,3.11152475034935e-05
6.30854846378185e-07,2.2792206910412784e-06,3.467441759132371e-07,3.143116228559243e-05
6.25215112175231e-07,2.273307722579382e-06,3.528223634396627e-07,3.174412547017653e-05
6.192463016747901e-07,2.2672482581180887e-06,3.5899412112173037e-07,3.205201487920989e-05
6.129604111618373e-07,2.2610457445127967e-06,3.6522952964268215e-07,3.235266134333317e-05
6.063704854890336e-07,2.254733038117455e-06,3.714975002413746e-07,3.2643898491481004e-05
5.994915130178626e-07,2.2483642593676534e-06,3.7776683489369846e-07,3.2923605077625004e-05
5.923389865695235e-07,2.2419981623227193e-06,3.840064524173276e-07,3.3189713849753665e-05
5.849279580991038e-07,2.235683327387104e-06,3.9018494324447997e-07,3.344022985132188e-05
5.77275913450554e-07,2.2294486350166642e-06,3.962698594538482e-07,3.367335050803281e-05
5.6940785249397e-07,2.223298386881197e-06,4.022276602306164e-07,3.388765942840473e-05
5.613579943274615e-07,2.217215389285409e-06,4.0802499365833797e-07,3.4082235934275626e-05
5.531661480209224e-07,2.211171151962349e-06,4.136313714307052e-07,3.4256612249960635e-05
5.448726951446322e-07,2.2051342527887342e-06,4.190211448539941e-07,3.4410652606229355e-05
5.36515870802361e-07,2.199074768426225e-06,4.2417284463343523e-07,3.4544426623736826e-05
5.281315167916757e-07,2.192975954013269e-06,4.2906758075831384e-07,3.4658077528425316e-05
5.19754153827429e-07,2.1868497828943884e-06,4.33688080085915e-07,3.4751688180317656e-05
5.114185570863741e-07,2.180733748159853e-06,4.3801781783960454e-07,3.482522112156869e-05
5.031604034902526e-07,2.174671170691061e-06,4.4204049310283916e-07,3.4878576668562024e-05
4.950139716920316e-07,2.168702850529165e-06,4.457406230252761e-07,3.491169038981548e-05
4.870086808205806e-07,2.162880997181651e-06,4.4910479912285176e-07,3.492458086984067e-05
4.791686732045861e-07,2.1572945895861136e-06,4.5212236087605503e-07,3.491733059813931e-05
4.7151476352797786e-07,2.15208480149435e-06,4.547850551956022e-07,3.489008317851533e-05
4.6406575257223184e-07,2.147433738001753e-06,4.5708620805186243e-07,3.484319198711567e-05
4.568392442386447e-07,2.1435381016975544e-06,4.5902018907453783e-07,3.47774008184196e-05
4.4985295868492615e-07,2.140590000742889e-06,4.605829078110739e-07,3.4693773066442304e-05
4.431271681660594e-07,2.138768551084406e-06,4.617723531442853e-07,3.4593489205256923e-05
4.3668801140787973e-07,2.138233553689963e-06,4.625877983244728e-07,3.4477803927619234e-05
4.3056909501129245e-07,2.1391142544478422e-06,4.630290425785138e-07,3.434808038271323e-05
4.248100376396489e-07,2.141495916345061e-06,4.6309683924390936e-07,3.420575071321214e-05
4.194528773921667e-07,2.1454127259885426e-06,4.6279352670098065e-07,3.405223639902569e-05
4.145367788420775e-07,2.150849626391828e-06,4.6212332666578103e-07,3.388885685806641e-05
4.1009297323436345e-07,2.157749313467781e-06,4.6109232736576903e-07,3.371674773315311e-05
4.06142399564201e-07,2.166020351167865e-06,4.597079080151486e-07,3.353683489373407e-05
4.0269564485141094e-07,2.175545375954436e-06,4.579778806946355e-07,3.3349855770786146e-05
3.997543048688069e-07,2.186191016609003e-06,4.5591004162306717e-07,3.315638039264009e-05
3.9731313449395424e-07,2.1978182291775003e-06,4.53512819743334e-07,3.2956820145296167e-05
3.9536156636067354e-07,2.210289640460929e-06,4.507973973300554e-07,3.27514364054127e-05
3.938842669120353e-07,2.223473778767796e-06,4.4777931356751223e-07,3.254035072965478e-05
3.928620186286347e-07,2.237244624163008e-06,4.4447736208931246e-07,3.232356653909799e-05
3.9227402976561107e-07,2.251476345687723e-06,4.409120537236205e-07,3.210100265160014e-05
3.9210037025151504e-07,2.2660410122362325e-06,4.3710660393545714e-07,3.187250927598446e-05
3.923218836734171e-07,2.2808159688535265e-06,4.330883146386168e-07,3.163785149180804e-05
3.929181089452765e-07,2.2956982394178485e-06,4.288867264609237e-07,3.139668265022807e-05
3.938664660451247e-07,2.310614151534387e-06,4.2452970166201573e-07,3.1148543913016996e-05
3.9514355150092723e-07,2.3255136584290986e-06,4.200409223447943e-07,3.089290634577536e-05
3.967268213629502e-07,2.3403520309359544e-06,4.15439503964528e-07,3.062923091369917e-05
3.985950230741577e-07,2.3550720549351203e-06,4.107407320166358e-07,3.0357005855191993e-05
4.0072696520861936e-07,2.369599255207311e-06,4.059573114401655e-07,3.0075758829546392e-05
4.0310054234446994e-07,2.383848349860721e-06,4.011005153322428e-07,2.978509077449532e-05
4.056932630612405e-07,2.397726975105151e-06,3.961805667997479e-07,2.9484752213397857e-05
4.0848234556488426e-07,2.411132886896188e-06,3.9120692399307776e-07,2.9174707002601648e-05
4.1144394730890175e-07,2.4239535227450906e-06,3.861898722975778e-07,2.885514251201939e-05
4.1455311811445866e-07,2.4360710005899886e-06,3.8114202519458144e-07,2.852644957669175e-05
4.1778408096346133e-07,2.4473678841301517e-06,3.7607744797171066e-07,2.8189171959649933e-05
4.211109676952925e-07,2.457730246778392e-06,3.7100995289849133e-07,2.7843921359115942e-05
4.245108850017789e-07,2.467048301625694e-06,3.6595273967156843e-07,2.749135328970093e-05
4.2796839246805524e-07,2.475220850944053e-06,3.609185531313144e-07,2.713224565124636e-05
4.314786927423317e-07,2.482166238679984e-06,3.559191721132465e-07,2.676752841070589e-05
4.3504970408858605e-07,2.487827823874737e-06,3.509645702040822e-07,2.63981792547038e-05
4.3870325248026315e-07,2.4921666651780062e-06,3.460628934300279e-07,2.6025104997573653e-05
4.424731680972497e-07,2.495152381459361e-06,3.41221664138006e-07,2.56491031315712e-05
4.464008730924244e-07,2.4967610434595524e-06,3.364489681859207e-07,2.5270912733046265e-05
4.505319753612554e-07,2.496975242552728e-06,3.317533480402013e-07,2.489132696971205e-05
4.549138855419072e-07,2.495781067222217e-06,3.271424436842711e-07,2.4511250002521024e-05
4.595930200059146e-07,2.4931675762997487e-06,3.2262166934477484e-07,2.413166105859056e-05
4.64614052698994e-07,2.48913446577251e-06,3.181943007323305e-07,2.375361103682409e-05
4.700214761361368e-07,2.483698813586507e-06,3.138625945592835e-07,2.33782661272135e-05
4.7585781544577617e-07,2.476890319952974e-06,3.096292734772618e-07,2.3006894155775626e-05
4.821574800320535e-07,2.4687410637083933e-06,3.0549892930347534e-07,2.264079515871343e-05
4.889426898014759e-07,2.4592841062842287e-06,3.014774602588911e-07,2.2281234989903047e-05
4.96224102609296e-07,2.448566482438815e-06,2.975695051586555e-07,2.192938242285551e-05
5.040034621064532e-07,2.4366641553510075e-06,2.937767210838548e-07,2.1586242382090428e-05
5.122776376353868e-07,2.423682001952802e-06,2.900979860887179e-07,2.125263679153096e-05
5.210437379097472e-07,2.4097445165267034e-06,2.8653056207279394e-07,2.092925980613909e-05
5.30303833255132e-07,2.3949927893854347e-06,2.830716129885292e-07,2.0616712287934185e-05
5.400696431948183e-07,2.37958457545986e-06,2.797192824388411e-07,2.031544181102373e-05
5.50365687412152e-07,2.3636918127195666e-06,2.7647273549111183e-07,2.0025676968379173e-05
5.612286364582381e-07,2.347499445608394e-06,2.733317819103384e-07,1.9747506620373568e-05
5.727054758318284e-07,2.331203878745084e-06,2.7029710425052604e-07,1.9481148834047112e-05
5.848524453325885e-07,2.3150069641769834e-06,2.673712948259524e-07,1.922720517288074e-05
5.97731724819917e-07,2.2991054240405567e-06,2.6455889745572226e-07,1.8986630243635845e-05
6.114040118446163e-07,2.2836773945849747e-06,2.618644391047012e-07,1.8760523277505155e-05
6.259202481339612e-07,2.2688737112454803e-06,2.592906109148242e-07,1.8550019730877522e-05
6.41316961005323e-07,2.2548219040453373e-06,2.568379578407249e-07,1.8356255672687413e-05
6.576151938235847e-07,2.24163494749728e-06,2.5450515263834336e-07,1.818029993185549e-05
6.748192696047181e-07,2.2294109054550696e-06,2.5228931091445463e-07,1.8023100150602177e-05
6.929140939620223e-07,2.2182291563879225e-06,2.501867838260707e-07,1.7885462488386153e-05
7.118629245588246e-07,2.208154375413149e-06,2.4819455537906377e-07,1.776805110154265e-05
7.316069103842725e-07,2.1992396531950414e-06,2.463115642051588e-07,1.7671451203328627e-05
7.520668511202648e-07,2.1915191159930937e-06,2.4453909871214237e-07,1.759629704955706e-05
7.731468729685638e-07,2.184998926291617e-06,2.4287982257471324e-07,1.7543339572409906e-05
7.947385614869974e-07,2.179655553060236e-06,2.413363843488288e-07,1.751337918510006e-05
8.167255508522126e-07,2.1754374083003483e-06,2.39910751009448e-07,1.7507131063325388e-05
8.389900131309395e-07,2.172267212620164e-06,2.3860393675643315e-07,1.7525079494074987e-05
8.614203457561308e-07,2.170049678607544e-06,2.374160111865173e-07,1.7567354615695898e-05
8.839174856650759e-07,2.168684894116716e-06,2.3634719926676077e-07,1.7633675019737398e-05
9.063983674479862e-07,2.168080646600667e-06,2.3540006775935263e-07,1.7723359443526527e-05
9.287960765430344e-07,2.1681577930366832e-06,2.3458042644015428e-07,1.783539392335235e-05
9.510563571841223e-07,2.1688497483972952e-06,2.338961865560348e-07,1.7968534588234735e-05
9.731319346983626e-07,2.1701048618752785e-06,2.33356936623742e-07,1.8121409795845395e-05
9.949783641718017e-07,2.1718958696310803e-06,2.3297353272125359e-07,1.829260145189481e-05
1.016553653904968e-06,2.1742243765019257e-06,2.3275561406262265e-07,1.848070095941157e-05
1.0378205145599052e-06,2.17710779087398e-06,2.327094437154243e-07,1.868433849818585e-05
1.0587485230166015e-06,2.1805558328258552e-06,2.3283783969551268e-07,1.890220372394041e-05
1.0793135268949663e-06,2.184553003850185e-06,2.3314132310218078e-07,1.9133148380533186e-05
1.0994941514258086e-06,2.1890557302609527e-06,2.336197683335641e-07,1.9376474604198043e-05
1.1192675841840134e-06,2.1940065713467112e-06,2.34273561690496e-07,1.963224543920444e-05
1.1386062234754769e-06,2.1993580507919387e-06,2.3510304155670304e-07,1.9901289222249758e-05
1.1574770264076901e-06,2.2050864023394225e-06,2.3610668025615392e-07,2.0184881969181355e-05
1.1758431130914048e-06,2.2111833034126065e-06,2.372807887887372e-07,2.048434155933464e-05
1.1936635435069358e-06,2.2176344424869905e-06,2.386216521397473e-07,2.0800782976084922e-05
1.210890756747637e-06,2.224402257734213e-06,2.401264349686636e-07,2.113523204266729e-05
1.2274690213789222e-06,2.2314209404007458e-06,2.4179151151036766e-07,2.148892045584589e-05
1.243335256371053e-06,2.238601535656665e-06,2.436117621865676e-07,2.186334635205432e-05
1.2584217299807649e-06,2.245846442602557e-06,2.45581054310479e-07,2.2260030442564224e-05
1.272660013616175e-06,2.253068405781796e-06,2.476920781455591e-07,2.2680213313135394e-05
1.2859851257473778e-06,2.260197988723329e-06,2.49937306713592e-07,2.312467947801249e-05
1.2983391772765457e-06,2.267174538954691e-06,2.523102951976308e-07,2.359371373895088e-05
1.3096754923886386e-06,2.2739370785468e-06,2.5480416706041146e-07,2.408710486944449e-05
1.3199639004893923e-06,2.2804262761710213e-06,2.574094145881488e-07,2.460414099479843e-05
1.3291955292058958e-06,2.286591188599547e-06,2.601142223542161e-07,2.5143587957122065e-05
1.3373840313550284e-06,2.292394135793713e-06,2.629060969909618e-07,2.570367171908937e-05
1.3445614507525965e-06,2.2978124767683412e-06,2.6577292032139213e-07,2.6282089227980866e-05
1.3507711287947383e-06,2.302836206821547e-06,2.687028606724405e-07,2.68760441106168e-05
1.3560629638714642e-06,2.3074609015881817e-06,2.716832903806234e-07,2.7482300806718546e-05
1.3604937579036896e-06,2.311678830814972e-06,2.7470027103858745e-07,2.809726668481007e-05
1.3641294103181822e-06,2.315476318655156e-06,2.777397377303358e-07,2.8717109306638305e-05
1.367044019460518e-06,2.318841594685641e-06,2.807895605521e-07,2.933789937354087e-05
1.3693159898972864e-06,2.321771452221416e-06,2.838398925331295e-07,2.99557315310438e-05
1.37102409871377e-06,2.324264684082098e-06,2.8688098148199737e-07,3.056677443264949e-05
1.3722445315639514e-06,2.3263124566340198e-06,2.899023010564145e-07,3.1167296825824026e-05
1.3730486179119598e-06,2.327906156502552e-06,2.928943790526777e-07,3.17537424846055e-05
1.3735001266640754e-06,2.3290645936548484e-06,2.9584982179482144e-07,3.232280630340352e-05
1.373650939359635e-06,2.3298543673893443e-06,2.987627051756408e-07,3.287142594764879e-05
1.3735369751258291e-06,2.330378557304364e-06,3.016285601124813e-07,3.3396710207088956e-05
1.3731779022728201e-06,2.330746421004329e-06,3.04445027047196e-07,3.389587242131561e-05
1.372580774441004e-06,2.331054912109104e-06,3.0721142595663005e-07,3.4366195218249155e-05
1.3717443928412266e-06,2.331388342564056e-06,3.099269765968136e-07,3.480504813247446e-05
1.3706621354847684e-06,2.3318224697533447e-06,3.125887398903077e-07,3.5209982552260265e-05
1.3693240473882598e-06,2.3324224644281524e-06,3.151911105004046e-07,3.557885225200712e-05
1.3677200542311616e-06,2.3332330675351712e-06,3.177279333732821e-07,3.5909864651793474e-05
1.3658435664496737e-06,2.3342683762151463e-06,3.2019468215599764e-07,3.620156306880873e-05
1.3636930012974872e-06,2.3355091877005537e-06,3.225885082782465e-07,3.6452794474663956e-05
1.3612711017100672e-06,2.3369080294022244e-06,3.249076770913085e-07,3.666265725920003e-05
1.3585845476300957e-06,2.338397780244708e-06,3.2715095407479373e-07,3.683044839846258e-05
1.355645346558121e-06,2.3398978756218732e-06,3.29316092863262e-07,3.6955689704709775e-05
1.35247197161537e-06,2.341315483921307e-06,3.3139874686122786e-07,3.703820741812174e-05
1.3490877237296869e-06,2.342547341592642e-06,3.3339384547677877e-07,3.707815007180528e-05
1.3455167730554612e-06,2.3434887049324285e-06,3.3529882582703663e-07,3.707592886359417e-05
1.341779295188725e-06,2.344045979179544e-06,3.3711610336638425e-07,3.7032135314528897e-05
1.3378871654877456e-06,2.3441406389699907e-06,3.3885365498545127e-07,3.694746772708636e-05
1.3338422744254366e-06,2.343703039986286e-06,3.4052434296304524e-07,3.68226929937209e-05
1.329637341043023e-06,2.3426710591414915e-06,3.4214415237360764e-07,3.665864920044513e-05
1.3252570864003285e-06,2.340999638953141e-06,3.437293139487247e-07,3.645626595732357e-05
1.3206799809438216e-06,2.338671905898803e-06,3.452940556205124e-07,3.621657235218853e-05
1.315882426412615e-06,2.33570150809244e-06,3.468520635415164e-07,3.5940664538701124e-05
1.3108427205490916e-06,2.3321203572271612e-06,3.484206935544219e-07,3.562964716667934e-05
1.3055400349713803e-06,2.3279575174098927e-06,3.5002178633158627e-07,3.528459618475121e-05
1.299951082867461e-06,2.3232246476099207e-06,3.516771218605195e-07,3.490656539136493e-05
1.2940501840048289e-06,2.317915541044965e-06,3.534039739850235e-07,3.4496661802458805e-05
1.2878114291601613e-06,2.3120135439016638e-06,3.5521438360723975e-07,3.405620355710611e-05
1.2812095481351437e-06,2.3054954630496704e-06,3.571159637938943e-07,3.358683929600738e-05
1.2742197581963572e-06,2.298329658682127e-06,3.5911217875054595e-07,3.30904916079084e-05
1.266817312918547e-06,2.290477726811428e-06,3.612025104374496e-07,3.25692126948264e-05
1.2589767861099038e-06,2.281900956457564e-06,3.633823298184345e-07,3.2025127708328714e-05
1.2506716438450199e-06,2.2725622583575556e-06,3.6564243512819476e-07,3.1460464902763124e-05
1.2418746827152884e-06,2.262423535098365e-06,3.6796967409780606e-07,3.087756303748444e-05
1.232559121347904e-06,2.2514441381749678e-06,3.703486125450423e-07,3.027883990423285e-05
1.2226992481434685e-06,2.2395803255505314e-06,3.727632803523801e-07,2.966678406212343e-05
1.2122704935460466e-06,2.2267858227145058e-06,3.751993136307612e-07,2.9044004663295983e-05
1.2012505381628099e-06,2.2130162872430283e-06,3.7764545677455353e-07,2.8413344521150927e-05
1.1896217808199696e-06,2.198240830976917e-06,3.800932326070949e-07,2.7777993117085667e-05
1.1773732494406985e-06,2.1824578693398417e-06,3.8253671301421117e-07,2.71414660782984e-05
1.1645004084794323e-06,2.1657004737871687e-06,3.849724303000042e-07,2.650739927042326e-05
1.151003522973003e-06,2.1480228391505605e-06,3.873969349202776e-07,2.587927667583755e-05
1.136886960130509e-06,2.129481883120504e-06,3.8980377482166536e-07,2.5260261444098323e-05
1.122159836735638e-06,2.1101304104851588e-06,3.921830956581824e-07,2.465316091588087e-05
1.1068359701286511e-06,2.0900203507737403e-06,3.945226131682262e-07,2.4060442728950465e-05
1.090933785050863e-06,2.069206790816853e-06,3.9680800694646676e-07,2.3484267470057252e-05
1.074477744861938e-06,2.0477491294057967e-06,3.9902332715632033e-07,2.292653305407163e-05
1.057498855313565e-06,2.025707742597208e-06,4.011516752967096e-07,2.2388883908116002e-05
1.0400327470557774e-06,2.003139320627169e-06,4.031753690220846e-07,2.187267017136532e-05
1.022117825775643e-06,1.9801021798024785e-06,4.050759344788298e-07,2.137891790313293e-05
1.0037948234328218e-06,1.9566747849396944e-06,4.06834789326896e-07,2.0908363362674592e-05
9.851062208730259e-07,1.9329699883288516e-06,4.084341749717399e-07,2.0461534201995677e-05
9.66094311693948e-07,1.909126850646688e-06,4.0985774488679343e-07,2.0038855469554773e-05
9.467992949095356e-07,1.8852893142314282e-06,4.1109099846606027e-07,1.9640833987011315e-05
9.272590343977434e-07,1.8615943048420195e-06,4.1212134858948774e-07,1.926834040246535e-05
9.075095362669631e-07,1.8381788193652736e-06,4.1293809006013436e-07,1.8922804372734523e-05
8.875848009610634e-07,1.8151983481390453e-06,4.1353296222430636e-07,1.860608876782087e-05
8.675168637213059e-07,1.7928363259271732e-06,4.1390037168949407e-07,1.8320121168062618e-05
8.47337659268676e-07,1.7712943050206158e-06,4.140367405508051e-07,1.8066616700079668e-05
8.270823766542264e-07,1.7507724869629113e-06,4.1393987275435883e-07,1.7847028380151667e-05
8.067924498513456e-07,1.7314518501701267e-06,4.13608445804704e-07,1.7662596346542858e-05
7.865175843239831e-07,1.7134842384843876e-06,4.130414387991264e-07,1.7514358453611468e-05
7.663164484056462e-07,1.696990539637938e-06,4.1223786174045673e-07,1.7403056016066097e-05
7.462548134097387e-07,1.682060470617958e-06,4.111970438193834e-07,1.7329032418986728e-05
7.26402048890702e-07,1.6687505521147552e-06,4.0991922089253295e-07,1.7292272839380022e-05
7.068282765930667e-07,1.6570818879496538e-06,4.08406057083645e-07,1.729249466878728e-05
6.876020228372238e-07,1.6470411260377389e-06,4.0666058708577524e-07,1.7329149910003878e-05
6.687874586756211e-07,1.638586332623643e-06,4.046863400315218e-07,1.7401379196856368e-05
6.504423178433754e-07,1.6316528948749901e-06,4.0248711528814294e-07,1.7508000678909686e-05
6.326167524756329e-07,1.6261553491179162e-06,4.000683638502105e-07,1.764758905743448e-05
6.15352733630224e-07,1.6219888808462346e-06,3.9743804189762525e-07,1.7818593503792605e-05
5.986856803883982e-07,1.6190331187915224e-06,3.946052774594128e-07,1.8019354325717467e-05
5.826487356850057e-07,1.6171579690490852e-06,3.9157907371746824e-07,1.824804306065307e-05
5.67277795561885e-07,1.6162347606227106e-06,3.883690491431908e-07,1.8502653951079564e-05
5.526156412020579e-07,1.6161518052002732e-06,3.849864474459928e-07,1.8781029676162486e-05
5.387132383576207e-07,1.616822580724071e-06,3.81443818573425e-07,1.9080840369409657e-05
5.256272584284022e-07,1.6181786336711012e-06,3.7775454832311357e-07,1.9399539413817458e-05
5.134158943841383e-07,1.6201563764198758e-06,3.7393384950083385e-07,1.9734384218175265e-05
5.021361963298779e-07,1.622690892185401e-06,3.7000059648441867e-07,2.0082532716595695e-05
4.918434740453563e-07,1.6257176883995318e-06,3.659770938931528e-07,2.0441194298871232e-05
4.825903150219623e-07,1.6291760161389088e-06,3.618859970238101e-07,2.080788925910372e-05
4.744245847809472e-07,1.633008817473176e-06,3.5774726365525067e-07,2.1180729046648992e-05
4.673883904521386e-07,1.6371600878089647e-06,3.535772105182601e-07,2.155845954434246e-05
4.6151975103921727e-07,1.6415773127858695e-06,3.493897826652441e-07,2.1940235002311627e-05
4.568571989364086e-07,1.646219682056269e-06,3.451996078167331e-07,2.2325349187932347e-05
4.534436088624987e-07,1.651060402221215e-06,3.410245611578816e-07,2.271316272981955e-05
4.513244263687997e-07,1.6560799289067762e-06,3.368853092670616e-07,2.3103319472330178e-05
4.5054113733965005e-07,1.661258342274717e-06,3.3280352592914574e-07,2.3496043631578493e-05
4.5112387672388495e-07,1.666569619214711e-06,3.288015081472312e-07,2.389221404708671e-05
4.530855360935549e-07,1.671980760949553e-06,3.249017644607596e-07,2.4293157663387265e-05
4.5642024892554846e-07,1.6774614617719216e-06,3.211251517940989e-07,2.470027878848572e-05
4.61106378213449e-07,1.6829953404406188e-06,3.1748910829032013e-07,2.5114675062319392e-05
4.6710955294954397e-07,1.6885777628703213e-06,3.140069242129705e-07,2.5536906311399177e-05
4.7438479007155655e-07,1.6942052106551745e-06,3.1068808879572084e-07,2.596697157420083e-05
4.828792775443599e-07,1.6998723284756012e-06,3.0753966052900077e-07,2.6404390077642543e-05
4.925350089351003e-07,1.705576964800788e-06,3.0456707625457857e-07,2.684829649089513e-05
5.032910265391162e-07,1.7113199445377403e-06,3.0177358775177003e-07,2.7297540870492623e-05
5.150846501432143e-07,1.7170967921800081e-06,2.991598647595953e-07,2.775076224608485e-05
5.278511036948439e-07,1.7228939188301086e-06,2.967247257286476e-07,2.820639547008136e-05
5.41523812155992e-07,1.7286936911043243e-06,2.944671560666101e-07,2.8662628012709444e-05
5.560367032801536e-07,1.7344772884268551e-06,2.9238859186627823e-07,2.9117360078963085e-05
5.713272945518604e-07,1.7402222592018173e-06,2.90492724795174e-07,2.9568222186156543e-05
5.873382583524241e-07,1.7459016694091697e-06,2.887829590651907e-07,3.001266478077593e-05
6.040155603409363e-07,1.7514831966503757e-06,2.872612344477977e-07,3.0448061672920057e-05
6.213044046759798e-07,1.7569267405296917e-06,2.8592954824292325e-07,3.087175738173105e-05
6.391464606753767e-07,1.7621929802899936e-06,2.847908381284265e-07,3.1281061469774936e-05
6.574808734259129e-07,1.767269064685601e-06,2.838470688216155e-07,3.1673254495704404e-05
6.762480602849095e-07,1.7721913251388932e-06,2.830974297028571e-07,3.2045662220461825e-05
6.953922398786146e-07,1.7770430907389114e-06,2.82538696306186e-07,3.239578437341892e-05
7.148605310040448e-07,1.7819316437664432e-06,2.8216585856702837e-07,3.2721410282630624e-05
7.345997555287724e-07,1.7869625608916717e-06,2.819718409090733e-07,3.302068189415821e-05
7.545531341922734e-07,1.792228989297123e-06,2.819476352925402e-07,3.329209211330513e-05
7.746591338959438e-07,1.7978196337350892e-06,2.8208361653397824e-07,3.353440744219441e-05
7.948520354159216e-07,1.8038254854349601e-06,2.823702556477284e-07,3.3746568134508445e-05
8.150616496777307e-07,1.8103318885648087e-06,2.8279710440942004e-07,3.392766495885331e-05
8.352120568142925e-07,1.817409518614196e-06,2.8335156825960806e-07,3.407702112231189e-05
8.552209819855481e-07,1.825116070128896e-06,2.840185698555761e-07,3.419431434353935e-05
8.750001404424216e-07,1.833502447466777e-06,2.847812329016993e-07,3.427961768051795e-05
8.944563210500527e-07,1.8426136066291748e-06,2.85622611204553e-07,3.433327797150623e-05
9.134938639091677e-07,1.852480962377227e-06,2.865274035423843e-07,3.435571588211042e-05
9.320189857850322e-07,1.863110842010698e-06,2.8748218056681856e-07,3.434730257340774e-05
9.499442999784426e-07,1.8744767502861518e-06,2.884742627020676e-07,3.430839485293153e-05
9.6719148594294e-07,1.8865188312733071e-06,2.8949121939115855e-07,3.42395645779567e-05
9.836929745852177e-07,1.8991483218394853e-06,2.905222860339113e-07,3.414191968428077e-05
9.993941333248023e-07,1.9122535960720144e-06,2.915601174483564e-07,3.401725748955352e-05
1.0142550080436057e-06,1.925705792487112e-06,2.9260124618346504e-07,3.3867964855266145e-05
1.0282506432580843e-06,1.9393652859892318e-06,2.9364613668779933e-07,3.369682690761978e-05
1.0413696188289666e-06,1.9530910132361057e-06,2.946989216365963e-07,3.3506856598435434e-05
1.0536106730525264e-06,1.9667497310716618e-06,2.957657971366444e-07,3.3301113035644164e-05
1.0649802650790534e-06,1.9802200014464106e-06,2.968526373651425e-07,3.3082478879186684e-05
1.0754931630859213e-06,1.993391223277116e-06,2.979627377721601e-07,3.2853466732890724e-05
1.0851727971008891e-06,2.006163011773925e-06,2.99095303394818e-07,3.261616635965251e-05
1.094049299866834e-06,2.018448216711604e-06,3.002455702125246e-07,3.237238963598562e-05
1.1021567533088252e-06,2.0301801917291945e-06,3.014063227245396e-07,3.2123917463281464e-05
1.109530175342178e-06,2.041322019882408e-06,3.025692639223441e-07,3.187263739751092e-05
1.1162031624128208e-06,2.051866932728749e-06,3.037261141338157e-07,3.162051943265838e-05
1.1222066905314155e-06,2.061822180251403e-06,3.048700361917967e-07,3.1369556783422885e-05
1.1275668609262173e-06,2.07118855222658e-06,3.0599570775763365e-07,3.112170203489432e-05
1.132301801482898e-06,2.079953391661606e-06,3.07097557720853e-07,3.0878778666207974e-05
1.136421252082562e-06,2.088098586175698e-06,3.0816901873290354e-07,3.064250859703113e-05
1.1399302950688197e-06,2.0956113570541956e-06,3.0920398983200913e-07,3.0414730398869208e-05
1.1428339067447442e-06,2.1024884951013526e-06,3.101983138612596e-07,3.019759037428589e-05
1.1451371141897684e-06,2.1087368868487287e-06,3.111493639609064e-07,2.999352589392006e-05
1.1468418631752171e-06,2.1143755890603523e-06,3.1205505192743093e-07,2.9805116490786388e-05
1.1479462059850236e-06,2.1194342189879884e-06,3.129148866395477e-07,2.963492457468217e-05
1.1484458560990436e-06,2.123942519638539e-06,3.1373215787179265e-07,2.948537564016697e-05
1.1483356194467828e-06,2.127920148902476e-06,3.145138351683941e-07,2.935869405426522e-05
1.1476121329030523e-06,2.1313745947061426e-06,3.1526823086795485e-07,2.9256888255991908e-05
1.1462789643502046e-06,2.134302032356931e-06,3.1600335652145664e-07,2.9181754105792663e-05
1.1443515929224358e-06,2.1366875695469325e-06,3.167273089461575e-07,2.913486057695581e-05
1.141859399478175e-06,2.138509083809293e-06,3.174494777577301e-07,2.911749438938603e-05
1.1388442150509069e-06,2.1397498787966416e-06,3.181802921023543e-07,2.913055594099939e-05
1.1353581120319245e-06,2.140417122116898e-06,3.1892944974821763e-07,2.917442459026164e-05
1.1314629118279238e-06,2.1405504382583593e-06,3.197047619603312e-07,2.924884853690993e-05
1.127229371651096e-06,2.140210400745001e-06,3.205126342057855e-07,2.935293222652384e-05
1.1227332906003292e-06,2.139457220747544e-06,3.213595493185461e-07,2.9485233391389385e-05
1.1180513238532246e-06,2.138337971374876e-06,3.22252564783006e-07,2.9643893993083386e-05
1.1132599166526351e-06,2.1368871519109686e-06,3.23197570082874e-07,2.982673218922577e-05
1.108433991414847e-06,2.1351300807987444e-06,3.241973131940205e-07,3.0031291181891198e-05
1.103641514601957e-06,2.1330821402135565e-06,3.2525232980648496e-07,3.025488283041852e-05
1.0989377496300172e-06,2.1307477090221698e-06,3.2636428806242554e-07,3.0494655312479356e-05
1.0943638333216051e-06,2.1281261539965253e-06,3.2753707957905716e-07,3.074768116318716e-05
1.0899475318226046e-06,2.125227525248734e-06,3.2877432814045657e-07,3.101104934596344e-05
1.0857041925776432e-06,2.1220868609575315e-06,3.300777961813624e-07,3.128195819456448e-05
1.0816392758140565e-06,2.1187613323371e-06,3.31448166764769e-07,3.155778048066769e-05
1.0777510343323216e-06,2.1153129216836565e-06,3.328848025901162e-07,3.1836026181460935e-05
1.0740317020055902e-06,2.111794783360925e-06,3.343838512897952e-07,3.211419876433809e-05
1.070469746149712e-06,2.108254786839346e-06,3.3593747332667014e-07,3.2389672504306296e-05
1.0670550531402388e-06,2.104758435970774e-06,3.3753476584284093e-07,3.265970075613526e-05
1.0637842913601541e-06,2.10141422325103e-06,3.391629554402959e-07,3.2921514346265976e-05
1.0606626693168791e-06,2.098375789039937e-06,3.408090470392354e-07,3.317240111887501e-05
1.0577021256962344e-06,2.0958187228268256e-06,3.424627124289823e-07,3.3409761933959466e-05
1.0549186355414912e-06,2.093909727371314e-06,3.441183912379898e-07,3.3631198635009364e-05
1.052329470597697e-06,2.09278357983532e-06,3.45774359414742e-07,3.383457635153418e-05
1.049949574079714e-06,2.0925342101322588e-06,3.4743112004107397e-07,3.401798542046314e-05
1.0477874705660893e-06,2.0932156363994282e-06,3.490910358683667e-07,3.417965636654018e-05
1.0458417292906268e-06,2.0948447026755177e-06,3.507575559077622e-07,3.4317899249777056e-05
1.0440988447642604e-06,2.097402556798124e-06,3.5243530778204045e-07,3.443109933968219e-05
1.0425335749065105e-06,2.1008374320391733e-06,3.5413210237887774e-07,3.451783014811637e-05
1.041111968299345e-06,2.1050702692779124e-06,3.5585849629833285e-07,3.457709380706393e-05
1.0397957012329122e-06,2.109999937333038e-06,3.5762389802209575e-07,3.460853743115206e-05
1.038544587889623e-06,2.1155060926676928e-06,3.59434129371163e-07,3.461247481696062e-05
1.0373158641385665e-06,2.121452140200535e-06,3.612927152970861e-07,3.4589714359361544e-05
1.036062873003893e-06,2.127690096581948e-06,3.632039602685968e-07,3.454131694339389e-05
1.0347355756593307e-06,2.1340670651490442e-06,3.651755817106188e-07,3.446838312709188e-05
1.0332831221294303e-06,2.140434709103128e-06,3.6721947930279436e-07,3.437189952548188e-05
1.0316571990312456e-06,2.146661004697103e-06,3.693497668982024e-07,3.4252657569220615e-05
1.029813831522212e-06,2.1526365567140983e-06,3.7157901850349225e-07,3.411127692097721e-05
1.0277131705287843e-06,2.15826959623794e-06,3.7391535708010025e-07,3.394839110617748e-05
1.0253191324599564e-06,2.1634748179393398e-06,3.763616138771628e-07,3.376498282670459e-05
1.0226009869149615e-06,2.168165877048656e-06,3.789156460110645e-07,3.3562634825110355e-05
1.0195369809798484e-06,2.172255212852267e-06,3.815709826967168e-07,3.334346727212716e-05
1.016116298845332e-06,2.1756584416241804e-06,3.843179204222814e-07,3.3109854704102175e-05
1.012336189139958e-06,2.178297448711504e-06,3.8714473634226726e-07,3.286413617546545e-05
1.0081973591167247e-06,2.180100299124164e-06,3.900378264851862e-07,3.260845502982864e-05
1.0037029251947373e-06,2.1810072752776957e-06,3.9298094603521207e-07,3.2344876942776236e-05
9.988609467561555e-07,2.180985639848032e-06,3.959553094128964e-07,3.207573445790848e-05
9.936877914641978e-07,2.1800372841045446e-06,3.989405790499732e-07,3.1803838999161216e-05
9.88211452389067e-07,2.1781901512318225e-06,4.019158472239545e-07,3.1532395595735574e-05
9.824729934732963e-07,2.1754819234919397e-06,4.048611152632693e-07,3.126480915264599e-05
9.765238041125894e-07,2.17194564863706e-06,4.0775928583639405e-07,3.100451775837162e-05
9.70420408765906e-07,2.1676015780976525e-06,4.1059872235812787e-07,3.075483762198925e-05
9.642196340157134e-07,2.162456843294637e-06,4.13375247785599e-07,3.0518827222637674e-05
9.579743752239444e-07,2.1565108265730624e-06,4.160896772170247e-07,3.029921128016087e-05
9.517312863125536e-07,2.1497593342031996e-06,4.1874169685260146e-07,3.009836405729027e-05
9.455319257317135e-07,2.142195509388636e-06,4.213262377706439e-07,2.991830509892345e-05
9.394149223930549e-07,2.133816289458681e-06,4.238341779252053e-07,2.9760668612009572e-05
9.334163898700552e-07,2.1246386924076182e-06,4.2625413593321253e-07,2.962665096567396e-05
9.275688448921177e-07,2.1147133647491693e-06,4.2857315721989843e-07,2.951695674763928e-05
9.218993480040487e-07,2.104120599122936e-06,4.307770045058432e-07,2.9431751241020448e-05
9.16426895071923e-07,2.0929516185641453e-06,4.3285215201949127e-07,2.9370637636538525e-05
9.111604640578999e-07,2.0812898277650663e-06,4.3479070214997433e-07,2.933270914818045e-05
9.060993736479805e-07,2.06920103069959e-06,4.3659567357415065e-07,2.9316707565320332e-05
9.012356381955452e-07,2.0567325025929117e-06,4.382812425123493e-07,2.9321228512393957e-05
8.96558233450244e-07,2.043915850511057e-06,4.3986693723729727e-07,2.9344874507153228e-05
8.920595266985565e-07,2.0307687846134504e-06,4.4137121589059437e-07,2.9386346525029265e-05
8.877418759758008e-07,2.017297341799067e-06,4.428081193492982e-07,2.9444520441688482e-05
8.836211488311598e-07,2.003505311023172e-06,4.4418639999463365e-07,2.95184845042104e-05
8.797257964575548e-07,1.989414006580624e-06,4.455103294145444e-07,2.9607494177343957e-05
8.760928337319469e-07,1.975082408451348e-06,4.4678102666244784e-07,2.9710876814793794e-05
8.727634669987654e-07,1.9606078868128377e-06,4.479971533370752e-07,2.9827926121292134e-05
8.697814678506823e-07,1.9461038517030234e-06,4.491550263636278e-07,2.9957785051498823e-05
8.671951829533249e-07,1.931676927283309e-06,4.502485905849573e-07,3.009935605966447e-05
8.650597550724221e-07,1.917423714877251e-06,4.5126977040735615e-07,3.0251298905499878e-05
8.634358372853901e-07,1.9034460041714425e-06,4.5220911170359623e-07,3.0412085264488788e-05
8.623870125805319e-07,1.8898676901975147e-06,4.530568093843727e-07,3.058004492345253e-05
8.619812285996746e-07,1.876836603963586e-06,4.538041560975474e-07,3.0753407292660165e-05
8.622965087100922e-07,1.8645128640924648e-06,4.5444465676011285e-07,3.0930363062362784e-05
8.634269562069306e-07,1.8530553966871742e-06,4.5497530743280523e-07,3.110912263500389e-05
8.654859151922917e-07,1.8426115302123154e-06,4.55397991449535e-07,3.128792094228279e-05
8.686053651600882e-07,1.83330791619112e-06,4.557191523311043e-07,3.146496692340045e-05
8.729324528622249e-07,1.8252400955033485e-06,4.559473101058491e-07,3.1638387287564646e-05
8.786237954106568e-07,1.8184654240242982e-06,4.560897083773594e-07,3.180619787731673e-05
8.858371735532338e-07,1.8130045039926383e-06,4.56150018917181e-07,3.1966333609981605e-05
8.947212759139389e-07,1.8088469432244102e-06,4.5612847934861746e-07,3.211678374294651e-05
9.054051669457102e-07,1.8059601569198139e-06,4.560238378649887e-07,3.225580488853853e-05
9.179883981666969e-07,1.8043014586118587e-06,4.5583502244685147e-07,3.2382068888880924e-05
9.325330365020948e-07,1.8038226645249061e-06,4.5556104266132066e-07,3.2494627242275105e-05
9.490594746164295e-07,1.804462558032156e-06,4.552006504805867e-07,3.259273233310667e-05
9.675467030672408e-07,1.80613986100197e-06,4.5475392297900963e-07,3.267564646670967e-05
9.87938149153293e-07,1.8087553538226745e-06,4.5422425800087577e-07,3.274253319578677e-05
1.010153199305452e-06,1.8121972126434437e-06,4.5361832890460957e-07,3.27924400438703e-05
1.0341004187425241e-06,1.816343283327529e-06,4.5294433043970535e-07,3.2824319855216385e-05
1.059688191048125e-06,1.82106438176054e-06,4.5221010802471935e-07,3.2837077520074585e-05
1.086831265647455e-06,1.8262320132375647e-06,4.5142159938302833e-07,3.2829739644115724e-05
1.1154550978184077e-06,1.8317246218116626e-06,4.5058174448381683e-07,3.280179612872412e-05
1.145501350136848e-06,1.8374292651948258e-06,4.4969121169908096e-07,3.275348436990183e-05
1.1769330545716223e-06,1.8432410756770703e-06,4.487503822914406e-07,3.268574543552632e-05
1.2097356767325834e-06,1.8490608889875915e-06,4.477597253432763e-07,3.259993783684267e-05
1.243915520885989e-06,1.8547927480021008e-06,4.467189972821036e-07,3.2497543741832034e-05
1.279497794722126e-06,1.860344911476609e-06,4.4562786309067067e-07,3.2379976876583615e-05
1.3165223131080718e-06,1.8656328010593917e-06,4.4448664942865436e-07,3.2248620013311824e-05
1.3550356927553163e-06,1.8705780065773827e-06,4.432950219331107e-07,3.210511034442114e-05
1.3950834898687226e-06,1.8751024380777119e-06,4.420500699753247e-07,3.1951575558230876e-05
1.436705411845541e-06,1.8791229957971603e-06,4.407460084952673e-07,3.179059333384754e-05
1.4799319473859624e-06,1.8825503590318783e-06,4.393762073667349e-07,3.162499499377519e-05
1.5247790985794525e-06,1.8852910070116802e-06,4.379359728692501e-07,3.145769268138967e-05
1.5712414516859146e-06,1.8872503714525932e-06,4.364227676440265e-07,3.129154856444872e-05
1.6192862788462387e-06,1.8883359503047446e-06,4.3483423435671473e-07,3.1129237931318094e-05
1.6688498718505682e-06,1.8884605310084573e-06,4.3316763943972606e-07,3.09731110453198e-05
1.7198375682172783e-06,1.8875459736140071e-06,4.3142107263792344e-07,3.082510408283045e-05
1.772128164410149e-06,1.8855271713453976e-06,4.2959417296891815e-07,3.0686732687592764e-05
1.8255766668675159e-06,1.8823570757919464e-06,4.2768820639346464e-07,3.05591450991529e-05
1.8800112452550823e-06,1.8780157542559482e-06,4.257077562129403e-07,3.044316290451209e-05
1.9352312675901128e-06,1.8725208345575718e-06,4.236637591036904e-07,3.0339267715869562e-05
1.991011482389933e-06,1.865928549325388e-06,4.215733318710982e-07,3.0247560537763887e-05
2e-07,1.858320005272737e-06,4.1945599110366406e-07,3.0167734210635663e-05
2e-07,1.8497822652361928e-06,4.1733078748547846e-07,3.0099096073329963e-05
2e-07,1.8403999125655915e-06,4.152152310401211e-07,3.0040674521738466e-05
2e-07,1.8302605931555641e-06,4.131240603159625e-07,2.9991376685780432e-05
2e-07,1.819461614625624e-06,4.110676972346775e-07,2.9950111393938923e-05
2e-07,1.8081088304316081e-06,4.090519604153362e-07,2.991584885892764e-05
2e-07,1.7963110791603875e-06,4.0707967056657074e-07,2.9887655568364558e-05
2e-07,1.7841731632682983e-06,4.051523224773619e-07,2.986473067497541e-05
2e-07,1.7717937318308632e-06,4.0327059005247883e-07,2.9846424536334887e-05
2e-07,1.7592741438308372e-06,4.0143451130173285e-07,2.983221033122973e-05
2e-07,1.7467264882303818e-06,3.9964356572962985e-07,2.982161586942531e-05
2e-07,1.7342684981031887e-06,3.9789607619268776e-07,2.981413876954772e-05
2e-07,1.722013118645131e-06,3.961887223788773e-07,2.9809179387597552e-05
2e-07,1.7100665230618562e-06,3.9451711604546993e-07,2.9806039221978058e-05
2e-07,1.6985450228129985e-06,3.928766801435157e-07,2.980396626730649e-05
2e-07,1.687604062664852e-06,3.9126310847823795e-07,2.980218948058291e-05
2e-07,1.6774486053094138e-06,3.896728277453497e-07,2.9799945268284417e-05
2e-07,1.6683125028206146e-06,3.881036605412681e-07,2.9796521706550984e-05
2e-07,1.660427029783484e-06,3.8655496176670815e-07,2.9791304810026665e-05
2e-07,1.6539941542398534e-06,3.8502637577977327e-07,2.9783763430213482e-05
2e-07,1.649168511704643e-06,3.8351601057631223e-07,2.977333557460077e-05
2e-07,1.6460511039916191e-06,3.820200181847461e-07,2.97593049314434e-05
2e-07,1.644691659919264e-06,3.8053356692015704e-07,2.974079493299688e-05
2e-07,1.6450932060336696e-06,3.790515348964832e-07,2.971688070792572e-05
2e-07,1.6472168271583886e-06,3.775686990866272e-07,2.968674271392991e-05
2e-07,1.6509873894050336e-06,3.760798439128931e-07,2.9649835913993413e-05
2e-07,1.6562997173202238e-06,3.745794024981117e-07,2.9606024739741838e-05
2e-07,1.6630243122696232e-06,3.730606771034064e-07,2.955557060399621e-05
2e-07,1.6710129047008528e-06,3.7151561015615576e-07,2.9498948701971807e-05
2e-07,1.680104239157759e-06,3.6993639173192146e-07,2.9436606647677843e-05
2e-07,1.6901313651832309e-06,3.6831848715562576e-07,2.9368806085282227e-05
2e-07,1.7009310749055176e-06,3.6666164799310115e-07,2.9295591924298388e-05
2e-07,1.7123530553623516e-06,3.6496734346221907e-07,2.9216813152339912e-05
2e-07,1.724266940606924e-06,3.632362443779911e-07,2.913214788866323e-05
2e-07,1.736565083986351e-06,3.614687063261e-07,2.9041225559876148e-05
2e-07,1.749157323217821e-06,3.596666979648691e-07,2.8943941054496034e-05
2e-07,1.761961484406765e-06,3.578344678911599e-07,2.8840785444187312e-05
2e-07,1.7748989346078343e-06,3.559771471257382e-07,2.873288844198172e-05
2e-07,1.7878970596042027e-06,3.540987429706405e-07,2.8621782488466948e-05
2e-07,1.800891360966644e-06,3.522010488334239e-07,2.8509124273832508e-05
2e-07,1.8138203011010205e-06,3.5028333026997105e-07,2.8396502217716155e-05
2e-07,1.826619161768786e-06,3.4834228498608297e-07,2.8285406254750487e-05
2e-07,1.8392247263999268e-06,3.4637228745748417e-07,2.817742964434412e-05
2e-07,1.8515860991289848e-06,3.443659565098151e-07,2.8074550467043305e-05
2e-07,1.863666949338068e-06,3.4231512200761054e-07,2.7979202743511657e-05
2e-07,1.8754358499874932e-06,3.402121814821661e-07,2.7894107080513067e-05
2e-07,1.886853943535509e-06,3.380510428707513e-07,2.782205656462256e-05
2e-07,1.8978690999529912e-06,3.358270030513621e-07,2.7765759262107246e-05
2e-07,1.9084171382324584e-06,3.3353612547842997e-07,2.772771279881849e-05
2e-07,1.9184246959039625e-06,3.311748347080757e-07,2.7710087593243328e-05
2e-07,1.9278104645043576e-06,3.2874000361562066e-07,2.771463947935006e-05
2e-07,1.936487737097348e-06,3.262293428322532e-07,2.7742682505411663e-05
2e-07,1.9443732649940063e-06,3.2364216433090694e-07,2.7795121779365052e-05
1.9987086430227705e-06,1.9514007026936127e-06,3.209807051437468e-07,2.787249271185072e-05
1.9628049568384134e-06,1.9575294859397187e-06,3.1825054407636753e-07,2.797495261022662e-05
1.9269209772563764e-06,1.962742933570613e-06,3.1545931041112214e-07,2.8102236432832466e-05
1.8910877556852847e-06,1.9670368510981444e-06,3.1261544243188964e-07,2.8253601979204805e-05
1.8553356801730216e-06,1.970405458215232e-06,3.097277223465005e-07,2.8427791431434583e-05
1.8196939572882298e-06,1.972834833754257e-06,3.0680465236947176e-07,2.8623084468162767e-05
1.7841943116159698e-06,1.974307655854797e-06,3.038540012181128e-07,2.883746588373247e-05
1.7488775426543526e-06,1.974812638858011e-06,3.008837773900345e-07,2.906880873074538e-05
1.7137994391130276e-06,1.974351207326458e-06,2.979045909845044e-07,2.931499622414229e-05
1.6790318619178868e-06,1.972937326483733e-06,2.9493154159863057e-07,2.9574010976336077e-05
1.644659534291469e-06,1.9705915453585892e-06,2.919837997477636e-07,2.984401551927296e-05
1.6107763094219059e-06,1.967342184005899e-06,2.890825197126611e-07,3.012338037962575e-05
1.5774809358762316e-06,1.963243799308777e-06,2.862488237126389e-07,3.04106257482296e-05
1.5448720831193815e-06,1.9583962325210367e-06,2.835019410559958e-07,3.070431499545635e-05
1.5130454964575213e-06,1.952941858220628e-06,2.808579611895828e-07,3.100294828954834e-05
1.4820924295965381e-06,1.947044915183404e-06,2.783305076357674e-07,3.130486741800891e-05
1.4520965160997342e-06,1.940871634559575e-06,2.759317794822486e-07,3.160821276498017e-05
1.4231301481521674e-06,1.93458721321641e-06,2.736718243505665e-07,3.191095904353753e-05
1.3952519107446816e-06,1.9283711813233315e-06,2.7155726548476236e-07,3.221096399321567e-05
1.3685054177064024e-06,1.9224287246150243e-06,2.695913005361041e-07,3.250599208958072e-05
1.3429197822042928e-06,1.916979283959627e-06,2.677756216539971e-07,3.279376266097081e-05
1.3185107235810314e-06,1.912233603162581e-06,2.661138015275518e-07,3.30720406171267e-05
1.295281495117437e-06,1.908377303464186e-06,2.646126124273948e-07,3.333868941164085e-05
1.2732253450402443e-06,1.9055622015471145e-06,2.632791317192812e-07,3.3591638338045194e-05
1.2523309585103108e-06,1.9038995022435798e-06,2.621175925023818e-07,3.382888982938715e-05
1.2325880047464899e-06,1.9034551035906646e-06,2.611290668522998e-07,3.404867321873939e-05
1.21398948707977e-06,1.9042499274607259e-06,2.603127649053896e-07,3.424962748768806e-05
1.196532648145323e-06,1.9062654260526757e-06,2.596679884483589e-07,3.443086612843569e-05
1.1802204933612844e-06,1.909453128670253e-06,2.5919545957075937e-07,3.4591922490438206e-05
1.1650617125759634e-06,1.9137464582603425e-06,2.58896288243425e-07,3.473263165587323e-05
1.1510684035323648e-06,1.919071068803227e-06,2.587699641815404e-07,3.4852987807410804e-05
1.138254136090261e-06,1.9253480375841043e-06,2.588145955576316e-07,3.4953001117603543e-05
1.1266332272248128e-06,1.932488762894563e-06,2.590291858341577e-07,3.503260001877599e-05
1.1162215617752674e-06,1.940391212521475e-06,2.594142233788806e-07,3.5091627463148856e-05
1.1070375176787366e-06,1.9489457123479907e-06,2.599698845451071e-07,3.5129897774382175e-05
1.0990986627320006e-06,1.958044203895412e-06,2.60694820537004e-07,3.514724590141904e-05
1.0924146674262935e-06,1.9675849886655318e-06,2.6158682145504824e-07,3.5143545882668426e-05
1.0869822121841962e-06,1.9774749468368263e-06,2.626451668961102e-07,3.511872902892221e-05
1.08278393660427e-06,1.98763226298287e-06,2.638737752019944e-07,3.5072915587547665e-05
1.079788479508813e-06,1.997989273567931e-06,2.6528191141325017e-07,3.500665523830312e-05
1.0779510007707386e-06,2.008495724951286e-06,2.6688098621041325e-07,3.492099994529207e-05
1.0772167362634929e-06,2.0191185836567504e-06,2.68681863761406e-07,3.4817320345313267e-05
1.0775259575592837e-06,2.029832889684907e-06,2.7069622966185306e-07,3.4697141212452474e-05
1.0788155981973654e-06,2.0406072125566115e-06,2.729391191766485e-07,3.4562105308332576e-05
1.0810172575936262e-06,2.0513951193326956e-06,2.754289241237729e-07,3.441393611027406e-05
1.0840545955953738e-06,2.062141062501033e-06,2.781849561094882e-07,3.425435794971696e-05
1.0878436202222223e-06,2.0727930178785128e-06,2.812250349888341e-07,3.4085007950028083e-05
1.092298385249881e-06,2.0833067468919275e-06,2.845646881416106e-07,3.390737316989592e-05
1.0973388916202854e-06,2.0936420319024504e-06,2.8821654523187197e-07,3.372276929901792e-05
1.1028955885111864e-06,2.1037590665624803e-06,2.921884099172836e-07,3.353233445001913e-05
1.1089091744042138e-06,2.113614354024018e-06,2.9648130102907147e-07,3.333701729514202e-05
1.1153263521546377e-06,2.123153947209629e-06,3.010891948331526e-07,3.313756086364834e-05
1.1220927560762222e-06,2.132309834184229e-06,3.059999409230432e-07,3.2934488826070584e-05
1.1291469970252016e-06,2.1410064448937574e-06,3.111963988138929e-07,3.272811441051805e-05
1.1364194592660505e-06,2.149171474026112e-06,3.1665800383312725e-07,3.2518587581677395e-05
1.1438346079437957e-06,2.1567387624369773e-06,3.2236289689829576e-07,3.2305971818916806e-05
1.1513131313239249e-06,2.163643451429544e-06,3.2828949128037e-07,3.2090303778461424e-05
1.1587740807364564e-06,2.1698178847727715e-06,3.3441578790376056e-07,3.1871572879575755e-05
1.1661392673343175e-06,2.175190734250535e-06,3.4071809233149874e-07,3.164963905131858e-05
1.1733380944398034e-06,2.1796870202097254e-06,3.471721845389101e-07,3.142418876830752e-05
1.1803094672691884e-06,2.1832290785180538e-06,3.537557250065565e-07,3.119477297048744e-05
1.1870001422902417e-06,2.185740466438577e-06,3.6044986337171703e-07,3.0960874336232065e-05
1.1933602712516724e-06,2.1871531871273e-06,3.672402490052564e-07,3.072195228146401e-05
1.1993396636470594e-06,2.187415792067281e-06,3.741180469359948e-07,3.047747640916198e-05
1.2048896275883464e-06,2.186495836969721e-06,3.810808769301281e-07,3.022698522674151e-05
1.2099685211243325e-06,2.18437206774972e-06,3.8813152306738257e-07,2.9970172304723877e-05
1.2145444924630295e-06,2.1810237062961847e-06,3.952730690403197e-07,2.9706959687113537e-05
1.218593517256369e-06,2.176430499597691e-06,4.0250338876081406e-07,2.943751178868528e-05
1.2220958630337543e-06,2.1705839931888683e-06,4.0981257675880204e-07,2.916218308220003e-05
1.2250342423774625e-06,2.1634972483196883e-06,4.171835355699496e-07,2.8881444730750707e-05
1.2273938365281502e-06,2.1552095001770416e-06,4.24593939140614e-07,2.859581834785369e-05
1.2291625705951448e-06,2.145786926336702e-06,4.3201821707077036e-07,2.830581742669145e-05
1.230330730282122e-06,2.135312965640689e-06,4.3942848880409794e-07,2.8011943397904853e-05
1.230888752001154e-06,2.1238715079169028e-06,4.467942618379548e-07,2.771472669564544e-05
1.2308235058634791e-06,2.1115359848913697e-06,4.5408329973359353e-07,2.741470050584523e-05
1.23011609028629e-06,2.09836850674314e-06,4.612657994809376e-07,2.7112314739897496e-05
1.2287424535021179e-06,2.0844227286133134e-06,4.683188525600927e-07,2.6807898290009925e-05
1.2266753089863091e-06,2.0697443061656664e-06,4.752259670615508e-07,2.650171476308823e-05
1.2238858119224036e-06,2.054370841856129e-06,4.819724402368988e-07,2.61941033952994e-05
1.2203448138111368e-06,2.038334155507728e-06,4.885420766162102e-07,2.5885601278775048e-05
1.2160241356354669e-06,2.021664027686784e-06,4.949166830553463e-07,2.5576929861236648e-05
1.210898125429156e-06,2.004391895045051e-06,5.010762534018111e-07,2.526887790428916e-05
1.2049459074792848e-06,1.986551166107639e-06,5.069996820666425e-07,2.4962171464337648e-05
1.1981543922607394e-06,1.9681747397032987e-06,5.126661845355956e-07,2.465740391099184e-05
1.1905209975270958e-06,1.949296366447892e-06,5.180559153339016e-07,2.435510376751458e-05
1.1820547127190813e-06,1.9299581655406843e-06,5.231492811068823e-07,2.4055905697996546e-05
1.172775580910944e-06,1.9102194159731614e-06,5.279271074715038e-07,2.3760656902037306e-05
1.1627135605971252e-06,1.8901597235200512e-06,5.323736606591317e-07,2.3470367087824866e-05
1.1519063531438317e-06,1.8698734307016144e-06,5.364817968925452e-07,2.318605180400801e-05
1.1403953182538186e-06,1.8494590275806355e-06,5.402578739298171e-07,2.290855693005325e-05
1.1282213065133257e-06,1.8290097980176174e-06,5.437247800517456e-07,2.263845307553652e-05
1.115424252811794e-06,1.8086103675768925e-06,5.469237252898673e-07,2.2376047439335958e-05
1.10204617477914e-06,1.7883398454089326e-06,5.499152193108681e-07,2.2121468102879213e-05
1.0881330867103576e-06,1.7682755595353043e-06,5.527758813517473e-07,2.1874782128776188e-05
1.0737349849805182e-06,1.748490353683949e-06,5.555888718128791e-07,2.163621067789724e-05
1.058905258474818e-06,1.7290461684010217e-06,5.584333031018257e-07,2.1406412402898687e-05
1.0436986018404445e-06,1.7099934629765713e-06,5.613813815898833e-07,2.1186596846867803e-05
1.0281679843731232e-06,1.6913772005060161e-06,5.645057647497981e-07,2.0978352761647172e-05
1.0123626651596814e-06,1.6732417146686072e-06,5.678902388585432e-07,2.0783367753009188e-05
9.963272592280058e-07,1.6556301645455504e-06,5.716359315948794e-07,2.0603208538814305e-05
9.801014913531286e-07,1.6385792220756319e-06,5.758610102364561e-07,2.043923094271168e-05
9.63720714216035e-07,1.6221161388488164e-06,5.806944545795415e-07,2.02927233769598e-05
9.472163019526836e-07,1.6062630254452825e-06,5.86266657613819e-07,2.0165223307539626e-05
9.306153100525356e-07,1.5910385079301573e-06,5.927018358126293e-07,2.0058705651676973e-05
9.13940171076426e-07,1.576451577932259e-06,6.001146477443887e-07,1.9975510936478515e-05
8.97208864596044e-07,1.562497975879317e-06,6.086107868975338e-07,1.9918151285013306e-05
8.804355215730982e-07,1.5491641171798373e-06,6.182915219205047e-07,1.988911203013125e-05
8.6363297608346e-07,1.5364356167498897e-06,6.292599470538764e-07,1.989067943012144e-05
8.468193551961816e-07,1.5243079887879748e-06,6.416231740383067e-07,1.9924807578503007e-05
8.300266901917917e-07,1.5127926080129054e-06,6.554851594786421e-07,1.9993027096314385e-05
8.133056970438482e-07,1.5019112290012874e-06,6.709305551544514e-07,2.009639844474144e-05
7.96723669621313e-07,1.4916832689959e-06,6.880103077169772e-07,2.0235512037347908e-05
7.80357474704707e-07,1.4821150557458755e-06,7.067433480733859e-07,2.0410504852771136e-05
7.642856206052015e-07,1.4731949355360269e-06,7.271343666225059e-07,2.062104674021219e-05
7.485820302641238e-07,1.4648935699527647e-06,7.491929084250766e-07,2.086629535485232e-05
7.33312074184186e-07,1.4571673524574763e-06,7.729439285869021e-07,2.11448588834959e-05
7.185307117200462e-07,1.4499633606852185e-06,7.984314581331189e-07,2.1454808073833506e-05
7.042818848926384e-07,1.443227369653681e-06,8.257174492967494e-07,2.1793777873362118e-05
6.905983304145792e-07,1.436912638976683e-06,8.548743474189972e-07,2.215915448953596e-05
6.775021886614858e-07,1.4309797566779482e-06,8.859738003184462e-07,2.254827095414122e-05
6.650070745491382e-07,1.4253880412183925e-06,9.190771315732643e-07,2.295854365843823e-05
6.531211012610452e-07,1.4200922979375097e-06,9.542279387226036e-07,2.3387547990565023e-05
6.418502610620302e-07,1.4150473738560443e-06,9.914450943264023e-07,2.383304551717353e-05
6.312020863697028e-07,1.4102114134191192e-06,1.0307177323429921e-06,2.429295279841777e-05
6.211874923959531e-07,1.405551285316862e-06,1.0720025620025212e-06,2.4765248716069933e-05
6.118194700484686e-07,1.4010560275059765e-06,1.1152213549078458e-06,2.5247858936325898e-05
6.031114776898306e-07,1.3967439492252087e-06,1.1602590898814459e-06,2.5738568525019783e-05
5.950769928949321e-07,1.3926508147359885e-06,1.2069679975549765e-06,2.6234974758858485e-05
5.877279511170541e-07,1.3888102345980353e-06,1.255178121354903e-06,2.673448817446537e-05
5.810727552744625e-07,1.385242710407607e-06,1.3047063736505062e-06,2.723438353039878e-05
5.751170289793459e-07,1.3819624131788893e-06,1.355361041487281e-06,2.773184705204292e-05
5.698648899936824e-07,1.3790039257177831e-06,1.406944763015457e-06,2.822399186382968e-05
5.653172544715678e-07,1.376452021493932e-06,1.4592562808410126e-06,2.870788658568465e-05
5.614688139116891e-07,1.37444794894001e-06,1.5120916518651448e-06,2.9180627262133228e-05
5.583057849254817e-07,1.3731716567640586e-06,1.5652457315516072e-06,2.9639409220436104e-05
5.558054672249665e-07,1.3728211033838324e-06,1.6185123852097122e-06,3.0081530265358843e-05
5.539384104739101e-07,1.3735960002233916e-06,1.6716839967167063e-06,3.0504335824834963e-05
5.52671203398496e-07,1.375678589974885e-06,1.7245525467128799e-06,3.090520530118536e-05
5.519674434951216e-07,1.3792138591321914e-06,1.7769115212548329e-06,3.128167482676708e-05
5.517879657103273e-07,1.38430050295555e-06,1.8285557846916882e-06,3.1631676966202946e-05
5.520917180226432e-07,1.3909923163374126e-06,1.8792783311956246e-06,3.195372157111997e-05
5.528355577760334e-07,1.3993008790671526e-06,1.928866716565627e-06,3.2246862737138676e-05
5.539725677808251e-07,1.409197768998577e-06,1.977103558805034e-06,3.251050661823603e-05
5.554522007324192e-07,1.42061890121745e-06,2.0237711010624743e-06,3.2744211648556594e-05
5.57223968392182e-07,1.4334719776498998e-06,2.0686564390716283e-06,3.2947551306053165e-05
5.592413947863482e-07,1.4476479421399368e-06,2.1115566548883486e-06,3.3120060491783344e-05
5.614621064348449e-07,1.4630348403192416e-06,2.152283119304578e-06,3.326126807237771e-05
5.638451797705974e-07,1.4795319665340518e-06,2.190662552191124e-06,3.337075076023214e-05
5.663496223365965e-07,1.4970635114262241e-06,2.22653669347594e-06,3.34481458680307e-05
5.689341078327686e-07,1.5155861178606804e-06,2.259763482482176e-06,3.3493165544144825e-05
5.715567129090278e-07,1.535085732916355e-06,2.2902170759420657e-06,3.350574191039489e-05
5.741761170872064e-07,1.5555682931109584e-06,2.3177842172489064e-06,3.348633251679013e-05
5.767541857241336e-07,1.5770468207737922e-06,2.342360501937187e-06,3.3436156164300434e-05
5.792569991679496e-07,1.5995237848464485e-06,2.3638505916771016e-06,3.33571324137119e-05
5.816548293379758e-07,1.6229770687995243e-06,2.382170560091193e-06,3.325160061160969e-05
5.839230574682685e-07,1.6473567704978281e-06,2.397249497233606e-06,3.3122063891495006e-05
5.860425113469401e-07,1.672585246976119e-06,2.409031769060673e-06,3.297114471498869e-05
5.879989025987682e-07,1.6985551814973924e-06,2.4174809298698417e-06,3.2801707340077515e-05
5.897824330043663e-07,1.7251314193300986e-06,2.422583805995759e-06,3.261691904410838e-05
5.913859849752854e-07,1.7521577404478561e-06,2.424353513760274e-06,3.2420159111348545e-05
5.928026442678047e-07,1.7794636664123039e-06,2.422829800111201e-06,3.22148639908514e-05
5.940270860696815e-07,1.8068714835094558e-06,2.4180755497963646e-06,3.200437487419964e-05
5.950607047064859e-07,1.8342049857389648e-06,2.410170771185841e-06,3.179180237726305e-05
5.959152215172877e-07,1.8612955838021491e-06,2.3992065796223482e-06,3.1579922400521446e-05
5.966126264871922e-07,1.8879820041923088e-06,2.3852817076234367e-06,3.137111513201706e-05
5.971839540531721e-07,1.91410588681518e-06,2.3685012372002517e-06,3.1167347030499485e-05
5.976687245082354e-07,1.939509622301615e-06,2.34897474305509e-06,3.097019470778767e-05
5.981141814707993e-07,1.9640409349446304e-06,2.326815182056024e-06,3.078091437479107e-05
5.985737133004971e-07,1.987563061554063e-06,2.302139985161016e-06,3.0600529443040684e-05
5.991037551692521e-07,2.0099684873858366e-06,2.2750700432596185e-06,3.042987111302511e-05
5.997578663643877e-07,2.031192979547484e-06,2.2457257317007887e-06,3.026954131743125e-05
6.005803103282804e-07,2.05122006663253e-06,2.214224809638666e-06,3.011983900305705e-05
6.016034700046093e-07,2.070068638772381e-06,2.1806839655108743e-06,2.998072817800746e-05
6.028493978070716e-07,2.0877704440545948e-06,2.145221708343772e-06,2.985189081564695e-05
6.04331786558661e-07,2.104350184859713e-06,2.107959704230636e-06,2.973281896087263e-05
6.060556845073764e-07,2.119814901105742e-06,2.069023335378627e-06,2.962288659609541e-05
6.080163491168115e-07,2.134152097739e-06,2.028544574215821e-06,2.9521400418349225e-05
6.10199332855239e-07,2.147332258519991e-06,1.9866634119496268e-06,2.9427647232472723e-05
6.125815204805566e-07,2.1593139218962763e-06,1.94352292993688e-06,2.934093716419685e-05
6.151329912357062e-07,2.170052122053924e-06,1.89926365148558e-06,2.9260621078052063e-05
6.17820270640878e-07,2.1795096758282908e-06,1.854023482655576e-06,2.918606094895291e-05
6.206092278621542e-07,2.1876694266591493e-06,1.8079405604448558e-06,2.9116562099256077e-05
6.234660947386301e-07,2.1945396490860506e-06,1.7611564797157642e-06,2.9051298407707134e-05
6.263580453674017e-07,2.2001437520237307e-06,1.7138201944429703e-06,2.89892742743568e-05
6.292533586038125e-07,2.20450309479831e-06,1.6660880932161094e-06,2.8929378155090185e-05
6.32120125148368e-07,2.207634758113317e-06,1.618116807504384e-06,2.887050938527534e-05
6.349247529971414e-07,2.2095758933959753e-06,1.5700544613696254e-06,2.881166683795832e-05
6.376312842413926e-07,2.2104266359068443e-06,1.5220368813447825e-06,2.8751942781498354e-05
6.402015984944456e-07,2.210384277839966e-06,1.4741886650512276e-06,2.869045677028401e-05
6.425966149868046e-07,2.2097420913303057e-06,1.4266255912009673e-06,2.8626285977863545e-05
6.447774664999386e-07,2.2088559587471972e-06,1.3794555749002214e-06,2.855844571812848e-05
6.467062883270061e-07,2.208103696475702e-06,1.33277912461691e-06,2.8485916938764757e-05
6.483487199174142e-07,2.2078560426672532e-06,1.2866938612826843e-06,2.84076575671044e-05
6.496785469234861e-07,2.20846072048902e-06,1.2413029670007108e-06,2.832257847712808e-05
6.506810944494951e-07,2.2102308197713613e-06,1.196718192267293e-06,2.822954113365846e-05
6.513520347830678e-07,2.213436729474072e-06,1.1530534058319571e-06,2.8127424584866523e-05
6.516922874481621e-07,2.2183045550181364e-06,1.110420629105597e-06,2.8015272229452443e-05
6.51703776241212e-07,2.225012649743155e-06,1.0689385447934707e-06,2.7892494001673803e-05
6.513890063099632e-07,2.233681698584086e-06,1.0287468454486528e-06,2.775901777853164e-05
6.507519391801924e-07,2.244368397072226e-06,9.900148484782305e-07,2.761527285498751e-05
6.497968722061618e-07,2.257070216840156e-06,9.529395871066435e-07,2.7461998323487e-05
6.485258968925585e-07,2.2717392123054453e-06,9.177353801906231e-07,2.729997703183057e-05
6.469380425490974e-07,2.2883001570125062e-06,8.8461963462847e-07,2.712984077242302e-05
6.450317210767934e-07,2.3066695364383805e-06,8.537968349404944e-07,2.695202100301621e-05
6.428087878040432e-07,2.32677527100473e-06,8.254420534884888e-07,2.676678379785522e-05
6.402778063157052e-07,2.3485747516304147e-06,7.996898097901101e-07,2.657429325529697e-05
6.374567080887735e-07,2.3720615235648943e-06,7.766319149925365e-07,2.6374785586331245e-05
6.343750084723406e-07,2.3972559053620684e-06,7.563208437547216e-07,2.6168904176243355e-05
6.310736234017901e-07,2.4241903185808984e-06,7.387755891426219e-07,2.595797331870378e-05
6.276025333191468e-07,2.4529024801580622e-06,7.239888083833308e-07,2.574394777494917e-05
6.2401915089196e-07,2.4834367621149034e-06,7.119317927089469e-07,2.552912419052737e-05
6.203892205671341e-07,2.5158466457636818e-06,7.025582271754632e-07,2.5315862100422267e-05
6.16789320409292e-07,2.550191512732394e-06,6.95812862741517e-07,2.5106402187975587e-05
6.133079379873529e-07,2.5865208360742296e-06,6.916444213267947e-07,2.4902842036367915e-05
6.100444410552858e-07,2.624846535954372e-06,6.900178185661643e-07,2.4707333156709406e-05
6.071077748537313e-07,2.665119845034434e-06,6.909240132692214e-07,2.452232367489444e-05
6.046146481019532e-07,2.70722721493516e-06,6.943840770262279e-07,2.4350598341103642e-05
6.026868705172014e-07,2.750998670810636e-06,7.004444099615185e-07,2.419512905717689e-05
6.014489410167568e-07,2.796215494523523e-06,7.091651012436429e-07,2.405887946450257e-05
6.010248211508681e-07,2.8426158954228353e-06,7.20602883070713e-07,2.394463168487647e-05
6.015330359641829e-07,2.8899024235956014e-06,7.347917310793998e-07,2.385485757943864e-05
6.030829702388046e-07,2.937750599609096e-06,7.51732946795858e-07,2.3791644650536345e-05
6.057736575016677e-07,2.985815966374542e-06,7.714016248267395e-07,2.3756674422237374e-05
6.09692131288526e-07,3.0337394367856783e-06,7.937582716633554e-07,2.3751246009884e-05
6.149109365628686e-07,3.081154525401529e-06,8.187510293830141e-07,2.3776316810264052e-05
6.214871657168993e-07,3.127700427883404e-06,8.463072491108617e-07,2.3832502710434625e-05
6.29461866392514e-07,3.17303632809228e-06,8.763241035603762e-07,2.392001395210385e-05
6.388575331536784e-07,3.2168480726363464e-06,9.086652108603859e-07,2.403857193036548e-05
6.496747677108384e-07,3.2588533564750856e-06,9.431627549258304e-07,2.418734987607464e-05
6.618914574983854e-07,3.2988138521791262e-06,9.79623617450041e-07,2.43649670228694e-05
6.754661143034732e-07,3.336546617247984e-06,1.017837391347214e-06,2.4569576117323103e-05
6.903421935991206e-07,3.37193204998036e-06,1.0575844984042091e-06,2.479902044011354e-05
7.064504546081813e-07,3.4049235443828653e-06,1.0986429745715564e-06,2.5050977223905324e-05
7.237121116567873e-07,3.4355519533916607e-06,1.140789538377916e-06,2.532306325852433e-05
7.420451696281319e-07,3.463916464446595e-06,1.183796565652553e-06,2.5612927980131267e-05
7.613711397478181e-07,3.4901654456127563e-06,1.2274346889026717e-06,2.591831784378641e-05
7.816195117443298e-07,3.5144702965775564e-06,1.2714824803482178e-06,2.6237083092091143e-05
8.027302365000486e-07,3.5369914866641907e-06,1.3157336401706378e-06,2.6567139993621565e-05
8.246552501911676e-07,3.557850186171428e-06,1.3599970978619435e-06,2.690639686619993e-05
8.473605115473893e-07,3.5771263308057837e-06,1.404094459461438e-06,2.7252653013741e-05
8.708286956078808e-07,3.594880981539193e-06,1.4478568453162349e-06,2.760356164692285e-05
8.950600487353002e-07,3.611186643419982e-06,1.4911201753890992e-06,2.7956710208961934e-05
9.200694466057276e-07,3.6261604954969047e-06,1.5337233644979796e-06,2.8309705756364702e-05
9.45880780000642e-07,3.6399899036942115e-06,1.5755121587803088e-06,2.8660184480350023e-05
9.725215304624886e-07,3.6529256159944366e-06,1.6163426299724203e-06,2.900581632600205e-05
1.0000193972364157e-06,3.6652417216840796e-06,1.656080806287464e-06,2.934435885891909e-05
1.0284000690086756e-06,3.6771926658166894e-06,1.6946003249136626e-06,2.9673710472276936e-05
1.0576840500871148e-06,3.68898895257173e-06,1.731778647459373e-06,2.9991931917791967e-05
1.087882916819869e-06,3.7007890799734773e-06,1.7674940244575455e-06,3.0297305615827253e-05
1.1189970203339616e-06,3.7126979751157136e-06,1.801627637267741e-06,3.058843958712303e-05
1.1510148249599402e-06,3.7247715402094763e-06,1.8340704589004783e-06,3.0864306020174195e-05
1.1839124747222867e-06,3.737031604890609e-06,1.86472931037639e-06,3.1124182441176724e-05
1.2176518037056811e-06,3.7494825285730864e-06,1.8935289564455918e-06,3.1367554439087665e-05
1.2521765654312404e-06,3.7621179707456665e-06,1.920410011569812e-06,3.159402603012672e-05
1.2874094529753768e-06,3.7749227067019485e-06,1.945321668155228e-06,3.1803242580559806e-05
1.3232510891924038e-06,3.7878813337169923e-06,1.96821211653129e-06,3.199480256045979e-05
1.3595795412962384e-06,3.8009964327121835e-06,1.989023837032094e-06,3.216818466308207e-05
