3.521741328591448e-07,8.14888757515057e-07,8.683505409815384e-07,2.2416550090035365e-05
3.5433140954525025e-07,8.061818731204657e-07,8.652582784772196e-07,2.279741912621172e-05
3.563619929070691e-07,7.973391884599888e-07,8.614431541393591e-07,2.316674916374651e-05
3.5826073643280245e-07,7.883672283859928e-07,8.569112539893976e-07,2.3522672404417372e-05
3.600223269563222e-07,7.792711246010956e-07,8.516749114916173e-07,2.386340710468001e-05
3.616418243623048e-07,7.70055691992227e-07,8.457520856367374e-07,2.418732238875004e-05
3.631166384534498e-07,7.607285853658123e-07,8.391635634870502e-07,2.4493114554927475e-05
3.6444844233262684e-07,7.513026605653024e-07,8.319308515315679e-07,2.4779928534544532e-05
3.6564282072733395e-07,7.417965631875387e-07,8.240771640998404e-07,2.504732067206308e-05
3.6670737649477523e-07,7.322341926263346e-07,8.156317468830213e-07,2.529511278397573e-05
3.6764975329891866e-07,7.226423323391344e-07,8.066340696169452e-07,2.5523228862911762e-05
3.6847638000525385e-07,7.130470859701686e-07,7.971335105842755e-07,2.573157297958429e-05
3.6919241093553634e-07,7.034721126020949e-07,7.871844372492445e-07,2.591997566665549e-05
3.698019135069991e-07,6.939395685787823e-07,7.768408124208998e-07,2.608820914765501e-05
3.7030744602392687e-07,6.844725242084032e-07,7.661537216147732e-07,2.623604089662099e-05
3.707098991888696e-07,6.75097649099625e-07,7.551718490651618e-07,2.6363280636036607e-05
3.710095673407107e-07,6.658456857268972e-07,7.439429200640948e-07,2.6469783997751315e-05
3.7120775795991524e-07,6.56747830532766e-07,7.325139887921959e-07,2.6555440668938564e-05
3.713074598777109e-07,6.478319049426172e-07,7.20929834180539e-07,2.662029092304513e-05
3.71313158119775e-07,6.391231757698737e-07,7.092308532227907e-07,2.6664793852567247e-05
3.712305748711662e-07,6.306462686219604e-07,6.974519263599105e-07,2.668994579949953e-05
3.710659211325878e-07,6.224234898326582e-07,6.856226180787861e-07,2.6697073257857292e-05
3.708252525455517e-07,6.144730316414493e-07,6.737696677394155e-07,2.6687606141153705e-05
3.7051477453646e-07,6.068108453233074e-07,6.619214336585589e-07,2.6663074168472862e-05
3.701407401031797e-07,5.994560370738051e-07,6.501102845405176e-07,2.66251440243482e-05
3.6970843126120047e-07,5.924379759842387e-07,6.383718752564236e-07,2.657554954274563e-05
3.6922155630276843e-07,5.858000600740225e-07,6.267465272414351e-07,2.6516001872191165e-05
3.686824667303682e-07,5.79596988820666e-07,6.152838686956993e-07,2.644813409396249e-05
3.6809258012865726e-07,5.738887956088292e-07,6.040444217078736e-07,2.6373451337279456e-05
3.674526914797463e-07,5.687347857411168e-07,5.930951894960763e-07,2.6293276396217817e-05
3.6676296386382615e-07,5.641874814258588e-07,5.82502712981543e-07,2.620870239345313e-05
3.660230773158723e-07,5.602892545564755e-07,5.72326697800144e-07,2.612055563284295e-05
3.6523373067020786e-07,5.570756536994688e-07,5.626161038509482e-07,2.602937375832728e-05
3.643983134083582e-07,5.545828102818955e-07,5.53409705996312e-07,2.5935413535428328e-05
3.6352285649861923e-07,5.528509712627867e-07,5.447405517955439e-07,2.5838699423578545e-05
3.626152254010621e-07,5.519200546110075e-07,5.366406558731974e-07,2.573910758535796e-05
3.6168408903257493e-07,5.51821296816664e-07,5.291423084689307e-07,2.563643886178671e-05
3.6073717259962934e-07,5.525718217687985e-07,5.222761588542018e-07,2.553042285399762e-05
3.597801758351035e-07,5.541752859249808e-07,5.160701425941222e-07,2.5420675004737266e-05
3.5881705155505474e-07,5.566279035057752e-07,5.105521019182564e-07,2.5306693320348732e-05
3.5785006209954125e-07,5.599257534039354e-07,5.057538504976271e-07,2.518791139973224e-05
3.5687937808483466e-07,5.64067525087378e-07,5.0171220503978e-07,2.506374250853924e-05
3.559037022865494e-07,5.690506590365481e-07,4.984659752014141e-07,2.493359516404692e-05
3.5492129761206495e-07,5.748642905431184e-07,4.960513402068417e-07,2.479689468385351e-05
3.539295896111692e-07,5.814843609008803e-07,4.944974451297322e-07,2.46531142225742e-05
3.529242235274112e-07,5.888735011629128e-07,4.938231683701603e-07,2.450181237664465e-05
3.5189920375690657e-07,5.969837050808927e-07,4.940362353687652e-07,2.434268749791073e-05
3.508473705112118e-07,6.057606959261964e-07,4.951344455332467e-07,2.417561414945361e-05
3.4976057955827466e-07,6.15150203984535e-07,4.971065004701489e-07,2.4000626044412837e-05
3.486308641960157e-07,6.251024315560898e-07,4.999311714277174e-07,2.38178665767362e-05
3.474534530654778e-07,6.355713390638557e-07,5.035769402375029e-07,2.362752649894216e-05
3.462295716577541e-07,6.46510578771119e-07,5.080042579724706e-07,2.3429787522656383e-05
3.449658653764707e-07,6.578698316042166e-07,5.131705645151895e-07,2.322483789566249e-05
3.436719208173885e-07,6.695926357193586e-07,5.190361963450084e-07,2.3012990703923496e-05
3.423592014707964e-07,6.816150766797417e-07,5.255672416891844e-07,2.279480897456304e-05
3.410402820600149e-07,6.938666581770528e-07,5.327333709057151e-07,2.257110047196247e-05
3.3972733016196645e-07,7.062734626982263e-07,5.405035666684938e-07,2.234277438648557e-05
3.384309207951533e-07,7.187609560005384e-07,5.488436942818512e-07,2.2110694918122947e-05
3.371592594745888e-07,7.312557382671672e-07,5.577167356541953e-07,2.187562232970363e-05
3.359183297104286e-07,7.436870196579037e-07,5.670831382842007e-07,2.1638208039848097e-05
3.347130254155564e-07,7.559876300621971e-07,5.768986825796739e-07,2.1399033556716172e-05
3.3354772046654967e-07,7.680940504449899e-07,5.871115167253119e-07,2.115874196878613e-05
3.3242623438856765e-07,7.799462264320077e-07,5.976618857307904e-07,2.0918212208475698e-05
3.313524981414332e-07,7.914902032857442e-07,6.084841758563773e-07,2.067863778677885e-05
3.3033163617311127e-07,8.02683202642054e-07,6.195087143374434e-07,2.0441474119898306e-05
3.29369771671356e-07,8.134945016864334e-07,6.306628234908806e-07,2.020832658863484e-05
3.284723646266204e-07,8.239003377794287e-07,6.418716816237054e-07,1.9980813092602103e-05
3.2764276672464104e-07,8.33880384350318e-07,6.530588724628306e-07,1.9760431858536206e-05
3.268824361194627e-07,8.434193014514379e-07,6.641467224123653e-07,1.954855609583507e-05
3.261925592613984e-07,8.525072710376662e-07,6.750576003845782e-07,1.9346544196336168e-05
3.25574581607624e-07,8.611360505944126e-07,6.857162493537682e-07,1.915575454594321e-05
3.2502850217312624e-07,8.692952179883306e-07,6.960515174923198e-07,1.8977475602676072e-05
3.2455168152264663e-07,8.769716725318939e-07,7.059978821616397e-07,1.881294496294809e-05
3.241403417417637e-07,8.841505049250984e-07,7.154984209583074e-07,1.8663376469219186e-05
3.237921817793781e-07,8.908189765504223e-07,7.245075281995485e-07,1.8529875390850013e-05
3.2350794507414797e-07,8.969762254121465e-07,7.329897947999816e-07,1.841330734800032e-05
3.2329187495733464e-07,9.02640993002428e-07,7.409158296435505e-07,1.8314222841151708e-05
3.231506912808928e-07,9.078482526255545e-07,7.482600780783445e-07,1.8232974640200768e-05
3.230913567188573e-07,9.126388583718832e-07,7.550015142938244e-07,1.817004547791457e-05
3.2312039147708547e-07,9.170517732764272e-07,7.611236477359696e-07,1.8126303348921546e-05
3.2324429844966094e-07,9.211225199478459e-07,7.666132833091868e-07,1.810297266263077e-05
3.2346800064652137e-07,9.248857686463452e-07,7.71458758355805e-07,1.8101445059774718e-05
3.2379236894581835e-07,9.283775671879395e-07,7.756478039405193e-07,1.81231024281695e-05
3.242137125826434e-07,9.316357695361588e-07,7.791667816803816e-07,1.816916721904192e-05
3.2472515537187576e-07,9.34699052738705e-07,7.820019050378836e-07,1.824053492405863e-05
3.253184941121386e-07,9.376032411731377e-07,7.841408143000901e-07,1.8337607487616242e-05
3.259864869668466e-07,9.4037678355635e-07,7.855731843023211e-07,1.846020641806177e-05
3.267258254020801e-07,9.430383905763021e-07,7.862904423598136e-07,1.8607591495315865e-05
3.275389899008061e-07,9.455962945213228e-07,7.8628511621765e-07,1.8778527744165407e-05
3.2843253802383337e-07,9.480485607887331e-07,7.855501181902559e-07,1.8971355039452968e-05
3.2941263121581933e-07,9.50384846341562e-07,7.840786983159944e-07,1.9184068570695652e-05
3.304819154940395e-07,9.525896414656166e-07,7.818652707750763e-07,1.9414425862763626e-05
3.3163964574196445e-07,9.54646242225522e-07,7.789066956964448e-07,1.9660073466368373e-05
3.328828150593417e-07,9.56538885176314e-07,7.752037915854864e-07,1.9918671113561602e-05
3.342077680719097e-07,9.582515890959513e-07,7.707620628144083e-07,2.018798647785258e-05
3.356136248222459e-07,9.597664269040085e-07,7.655916018940525e-07,2.0465935830414763e-05
3.371044748385831e-07,9.61063728953606e-07,7.597073730291527e-07,2.0750557768914768e-05
3.3868663374501284e-07,9.621232418657805e-07,7.531287913457022e-07,2.103993911973609e-05
3.403637209087204e-07,9.629258451137235e-07,7.4587778793723e-07,2.1332145375978547e-05
3.421344079300224e-07,9.63456361032323e-07,7.379772260656427e-07,2.1625204311589372e-05
3.439931148644226e-07,9.637048548830564e-07,7.294502004632291e-07,2.191715610423704e-05
3.459307535598084e-07,9.636637374085444e-07,7.203197552724927e-07,2.220615681668949e-05
3.4793424360677825e-07,9.633237954329331e-07,7.106099281837631e-07,2.2490585448788237e-05
3.499862685452272e-07,9.626730885313869e-07,7.003476244776326e-07,2.27690493347435e-05
3.520667552823067e-07,9.616977084711909e-07,6.895629451212444e-07,2.304025996133945e-05
3.5415577981910037e-07,9.60382860391291e-07,6.78287521365119e-07,2.330292130622049e-05
3.562359419287513e-07,9.58713462997481e-07,6.665526266826207e-07,2.3555728378919947e-05
3.582927349681233e-07,9.566734405396276e-07,6.543886287584786e-07,2.379740586686369e-05
3.603135928060909e-07,9.54245565175491e-07,6.418266863755833e-07,2.402672347123325e-05
3.622870688453167e-07,9.514133913878493e-07,6.289025823405356e-07,2.4242506536367043e-05
3.6420281570449746e-07,9.481624606001085e-07,6.156602601302427e-07,2.444366403421669e-05
3.6605209495702097e-07,9.444792181375193e-07,6.021515551286559e-07,2.462923964151336e-05
3.6782813070263207e-07,9.403522327141243e-07,5.884321175219397e-07,2.479847965379601e-05
3.69525742258204e-07,9.357772340779863e-07,5.745571291344064e-07,2.4950874372272574e-05
3.7114083519013305e-07,9.307589353570372e-07,5.605791247378857e-07,2.508614046316219e-05
3.7267003341158975e-07,9.25306991021298e-07,5.465485474428542e-07,2.5204166679203986e-05
3.741095250760272e-07,9.194335228895096e-07,5.325166507834132e-07,2.5304946883544534e-05
3.754543121757976e-07,9.131556319711273e-07,5.185375010728067e-07,2.538852553582445e-05
3.7669919103869724e-07,9.064966694291151e-07,5.046660609030503e-07,2.545498534326356e-05
3.778394936968298e-07,8.994824766419867e-07,4.909549640993474e-07,2.550444664975788e-05
3.7887069707641025e-07,8.921372760474783e-07,4.77454349420759e-07,2.5537028804009992e-05
3.7978845598447034e-07,8.844850325718543e-07,4.642128719151927e-07,2.55528210324685e-05
3.805888380519782e-07,8.765545213099261e-07,4.5127649250114957e-07,2.5551942300439124e-05
3.8126748201620093e-07,8.683809593126734e-07,4.386879641345329e-07,2.553464666144075e-05
3.818183143953581e-07,8.600031182438318e-07,4.2649023283255e-07,2.550137909693786e-05
3.822336826020445e-07,8.514612836569204e-07,4.147301211763371e-07,2.545275269746105e-05
3.82506313658624e-07,8.42799320269323e-07,4.034566267350289e-07,2.5389451171112382e-05
3.826305621212497e-07,8.34069116387438e-07,3.927145702051268e-07,2.5312129430925346e-05
3.8260138143960854e-07,8.253308434728927e-07,3.8253965843589307e-07,2.522145029967048e-05
3.824133512483406e-07,8.166457595716181e-07,3.7295826493666743e-07,2.511824711162425e-05
3.820610360622402e-07,8.080693277595052e-07,3.639903296541868e-07,2.500363275468189e-05
3.815391203754031e-07,7.996516848788347e-07,3.5565327345932897e-07,2.4878972669268938e-05
3.8084206829695313e-07,7.914401941122199e-07,3.479670696225554e-07,2.474578570707614e-05
3.7996486961936844e-07,7.834783644383424e-07,3.409593334793022e-07,2.460563007171177e-05
3.789049364308378e-07,7.758054764879303e-07,3.346657375638251e-07,2.4459990008083468e-05
3.776630768128716e-07,7.684582959192385e-07,3.291240584864242e-07,2.4310165258751737e-05
3.7624333222148657e-07,7.614687308605451e-07,3.2436681032158734e-07,2.4157187160771635e-05
3.7465340696964367e-07,7.548582728578694e-07,3.204189199411212e-07,2.4001801160836365e-05
3.7290518430751465e-07,7.486355223582038e-07,3.173020184188429e-07,2.384451036719832e-05
3.7101348638306115e-07,7.427973981808684e-07,3.150397871866259e-07,2.3685635209328243e-05
3.6899345183047684e-07,7.37331531397398e-07,3.1365831247627147e-07,2.3525358643171204e-05
3.668583782249609e-07,7.322185994080551e-07,3.131821942278137e-07,2.336374997888877e-05
3.646186707211778e-07,7.274342808029534e-07,3.136301815517612e-07,2.3200763175726464e-05
3.6228189390626037e-07,7.229517977472082e-07,3.1501171969794673e-07,2.3036229266386662e-05
3.5985430877444354e-07,7.187452452901187e-07,3.173258412033669e-07,2.2869892237668013e-05
3.573434398452284e-07,7.14792924450349e-07,3.2056388427117793e-07,2.270149377429768e-05
3.5475971544692614e-07,7.110816533887609e-07,3.2471220647608107e-07,2.253084489752629e-05
3.5211609249193934e-07,7.076114109462785e-07,3.297502685365057e-07,2.2357841090127453e-05
3.494271633232974e-07,7.043961667500056e-07,3.356472345700221e-07,2.218244335435389e-05
3.467083511220567e-07,7.0145939735103e-07,3.423623947000161e-07,2.200465397284224e-05
3.4397436890811444e-07,6.988286851235086e-07,3.498485362150779e-07,2.1824480189953572e-05
3.4123824861649604e-07,6.965328359207424e-07,3.580537309773474e-07,2.1641878204875146e-05
3.385122999303753e-07,6.945989940368943e-07,3.669200356732822e-07,2.1456702689351807e-05
3.3580977800894787e-07,6.930493907360843e-07,3.7638256680173704e-07,2.1268697596703605e-05
3.331457321705172e-07,6.919022557762736e-07,3.863722939136944e-07,2.1077532740964653e-05
3.305372475952836e-07,6.91177171864046e-07,3.9682159351601293e-07,2.0882859061924865e-05
3.280036679756634e-07,6.908988482800965e-07,4.076693433619076e-07,2.0684346399568145e-05
3.255663697557491e-07,6.910953246047662e-07,4.1886301972991717e-07,2.0481689076638627e-05
3.2324913651317346e-07,6.91794498972988e-07,4.3035651433699434e-07,2.0274604885944592e-05
3.210804778001945e-07,6.930243361950363e-07,4.4210522021211775e-07,2.006284654925293e-05
3.1909473448345067e-07,6.948159676611784e-07,4.540626184990469e-07,1.9846200919622014e-05
3.17329031186579e-07,6.972047669306997e-07,4.661800201641153e-07,1.962446596549772e-05
3.158187187400372e-07,7.002257882618441e-07,4.78407854582293e-07,1.9397446846128744e-05
3.145943485726487e-07,7.03906269131883e-07,4.906966743807396e-07,1.916498535479469e-05
3.136807051358838e-07,7.082629251449214e-07,5.029960058942628e-07,1.8926980503195872e-05
3.13097528096624e-07,7.133055861906948e-07,5.152525359680797e-07,1.8683396443149146e-05
3.128605286150741e-07,7.190396031403219e-07,5.27412574951529e-07,1.843432241263712e-05
3.129817261172555e-07,7.254641306716619e-07,5.394283311910285e-07,1.8180101565977605e-05
3.134695543258448e-07,7.325715367912348e-07,5.512610329064428e-07,1.7921433064804578e-05
3.143288351819757e-07,7.403489945024755e-07,5.628778341856748e-07,1.765935798726949e-05
3.155609620319376e-07,7.487788440244557e-07,5.74247266936978e-07,1.739513925946875e-05
3.171658724308885e-07,7.578382120108465e-07,5.853385087562204e-07,1.7130095204410555e-05
3.191458262389256e-07,7.674991323605471e-07,5.96124010981289e-07,1.6865476511553613e-05
3.2150829026313853e-07,7.77727915074629e-07,6.065809908788839e-07,1.660249433018214e-05
3.24265110471633e-07,7.884846266150949e-07,6.16689783905401e-07,1.6342471363265264e-05
3.274286694191406e-07,7.997246626634209e-07,6.264324058466951e-07,1.60869268548232e-05
3.310082551999326e-07,8.114017524420781e-07,6.357932243917722e-07,1.5837499135046013e-05
3.350072325224228e-07,8.234696525254786e-07,6.447588665327839e-07,1.5595786585293664e-05
3.3942120378559603e-07,8.358800926732782e-07,6.533167642777714e-07,1.5363213050262445e-05
3.442392725094236e-07,8.485799278832525e-07,6.614540906757994e-07,1.5140971114448126e-05
3.4944708111193783e-07,8.615139655099165e-07,6.691576097063674e-07,1.4930026627626623e-05
3.550280384003243e-07,8.746328833742807e-07,6.764155865217084e-07,1.4731152247365699e-05
3.6096209541701475e-07,8.878990408511157e-07,6.832219529162639e-07,1.4545033268414874e-05
3.672238173400725e-07,9.012874484592384e-07,6.895807486425418e-07,1.4372496916967554e-05
3.737819206611076e-07,9.147854410795831e-07,6.955083330078434e-07,1.4214748809366013e-05
3.806004744097147e-07,9.28391785783881e-07,7.010307075533087e-07,1.4073388843397025e-05
3.8764058802799366e-07,9.421116164206764e-07,7.061763443308324e-07,1.395017338533511e-05
3.948626882250013e-07,9.559481339547635e-07,7.109708626730279e-07,1.3846708329083792e-05
4.022292733938197e-07,9.698961700797855e-07,7.154392229853795e-07,1.3764246934055108e-05
4.0970645167357576e-07,9.839396125742986e-07,7.196118902171822e-07,1.3703730508477525e-05
4.172628240148739e-07,9.980516353736538e-07,7.235265585151458e-07,1.3666107320264465e-05
4.248665794400327e-07,1.012196000023314e-06,7.272228598207981e-07,1.3652691432553384e-05
4.324832785620161e-07,1.0263294649440883e-06,7.307353472714159e-07,1.3665280498060302e-05
4.4007597510937156e-07,1.040406146333606e-06,7.340910306568398e-07,1.370605013966331e-05
4.4760771611064796e-07,1.0543804993709042e-06,7.373113104933761e-07,1.3777375198568942e-05
4.550443869069725e-07,1.0682060328580065e-06,7.404131837719685e-07,1.388162061257565e-05
4.6235479933391314e-07,1.081832568332639e-06,7.434083537585455e-07,1.402092658746068e-05
4.695084821039838e-07,1.095204362028034e-06,7.463032252965793e-07,1.4197037880370022e-05
4.7647439811200216e-07,1.1082592087463329e-06,7.491004780945224e-07,1.4411180156330087e-05
4.832208960777742e-07,1.120930024715137e-06,7.518010811945841e-07,1.4663978778110104e-05
4.897159391146427e-07,1.1331495688247937e-06,7.544062554941394e-07,1.4955443598784533e-05
4.959281520824149e-07,1.1448563019374118e-06,7.569176902177916e-07,1.528499133550135e-05
5.018281136514876e-07,1.155998385280503e-06,7.593354027309174e-07,1.565144277465581e-05
5.073887202026632e-07,1.1665330376677454e-06,7.616561334355823e-07,1.6053026945531737e-05
5.125851003865711e-07,1.1764211287103331e-06,7.638734914656506e-07,1.648747045040123e-05
5.17394751947322e-07,1.1856213782515836e-06,7.659778471961997e-07,1.6952161396895536e-05
5.21797854690859e-07,1.1940893073334697e-06,7.679554474042949e-07,1.744432414053685e-05
5.257778399755347e-07,1.201782353888569e-06,7.697876705511453e-07,1.7961166761774718e-05
5.29322153922405e-07,1.208668433328521e-06,7.714509525957731e-07,1.8499982685269712e-05
5.32422805290263e-07,1.2147331819734744e-06,7.7291789731123e-07,1.9058203326781386e-05
5.350762107988285e-07,1.2199819020452135e-06,7.74158862801737e-07,1.9633411294973187e-05
5.372818374926401e-07,1.2244354464613406e-06,7.751428439413035e-07,2.02233049964055e-05
5.390400290846997e-07,1.2281228607322041e-06,7.758387399334095e-07,2.0825617575502485e-05
5.403503318643546e-07,1.231073909321179e-06,7.762179200716234e-07,2.1438044918122045e-05
5.412113771943847e-07,1.2333134223594866e-06,7.762562557583668e-07,2.205821217707785e-05
5.416225196869453e-07,1.2348596619646351e-06,7.759348175763981e-07,2.268363488090687e-05
5.415858308673171e-07,1.2357272514334314e-06,7.752407210491815e-07,2.331166517849953e-05
5.41106238400841e-07,1.2359323209705848e-06,7.7416805290758e-07,2.393949414816084e-05
5.401897657279637e-07,1.2354962876229009e-06,7.727172040053361e-07,2.456422099977436e-05
5.38841780007496e-07,1.2344460693726114e-06,7.708926484420783e-07,2.5182909813761802e-05
5.370662514163477e-07,1.2328117369584086e-06,7.687010401400659e-07,2.57926142966492e-05
5.34865932557314e-07,1.2306223041293008e-06,7.661503050700849e-07,2.6390425041344958e-05
5.322438432831884e-07,1.2279004897869068e-06,7.632490207642082e-07,2.6973550984916604e-05
5.292064674685644e-07,1.2246602990748718e-06,7.60005939085391e-07,2.7539369370345252e-05
5.257666910458372e-07,1.2209090845994248e-06,7.564303841421229e-07,2.808539163490677e-05
5.21943711516979e-07,1.2166518019496219e-06,7.525345794582709e-07,2.8609188954013426e-05
5.177603644039393e-07,1.2118950640284644e-06,7.483368655636689e-07,2.9108357357566386e-05
5.132402968390718e-07,1.206650239523943e-06,7.438623766480969e-07,2.9580558849951543e-05
5.084063868670868e-07,1.2009353555270148e-06,7.391393402930794e-07,3.0023629365651866e-05
5.032805472571783e-07,1.194773754843698e-06,7.341933056123806e-07,3.043570363531122e-05
4.978844462717173e-07,1.188189008523052e-06,7.290442272800131e-07,3.0815278349249746e-05
4.922407416503676e-07,1.1812004558810177e-06,7.237089463580311e-07,3.1161164130090136e-05
4.863744326810347e-07,1.1738237664458653e-06,7.182060608320427e-07,3.147236526514472e-05
4.803130319066347e-07,1.1660761127872986e-06,7.125585036636484e-07,3.1747970654615745e-05
4.740851340095538e-07,1.157982727675586e-06,7.067928774926107e-07,3.198710313135637e-05
4.6771981146239816e-07,1.1495819646133628e-06,7.009374129820622e-07,3.218892702350591e-05
4.612477064725052e-07,1.1409259783599246e-06,6.950194447189296e-07,3.2352677675615146e-05
4.547007472588813e-07,1.1320750322603944e-06,6.89062942178776e-07,3.247768869902349e-05
4.48109703104521e-07,1.1230875865412659e-06,6.83088560036669e-07,3.256347560301233e-05
4.4150245114550144e-07,1.114012235259165e-06,6.771174069278715e-07,3.2609968410624734e-05
4.349035399035475e-07,1.1048851358032445e-06,6.711745632449546e-07,3.261782484324531e-05
4.283338653457469e-07,1.0957310111412028e-06,6.652875969254281e-07,3.258856983146877e-05
4.2181131705395897e-07,1.086564889798023e-06,6.594810162344441e-07,3.2524441905998294e-05
4.1535261677585395e-07,1.0773938355639321e-06,6.537716809326499e-07,3.2428094058244844e-05
4.089737854161045e-07,1.0682201399937171e-06,6.481676610089554e-07,3.2302324253522914e-05
4.026887318774637e-07,1.0590484031945898e-06,6.426690217092504e-07,3.2149962971127114e-05
3.9650920063445955e-07,1.049894479499793e-06,6.372690076484658e-07,3.197398490564529e-05
3.904466706909898e-07,1.0407893277065313e-06,6.319558011302169e-07,3.1777680691765585e-05
3.845130319283472e-07,1.0317748750640694e-06,6.267153771450315e-07,3.156465363145153e-05
3.78719164409554e-07,1.0228956660143995e-06,6.215343149972426e-07,3.1338656656594724e-05
3.730739358247826e-07,1.0141905366269794e-06,6.164006781536939e-07,3.1103413341769514e-05
3.6758475253963976e-07,1.005687177590361e-06,6.113042664609905e-07,3.086247982341177e-05
3.622579905105501e-07,9.974007570670182e-07,6.062376554071905e-07,3.061916256624721e-05
3.570990932707018e-07,9.8933503528304e-07,6.011957430683196e-07,3.0376501689990168e-05
3.5211341671223337e-07,9.814846606175837e-07,5.961740294055709e-07,3.013729187168537e-05
3.473066567615482e-07,9.738385866991282e-07,5.911693734265963e-07,2.9904109576526177e-05
3.426841228817302e-07,9.66382909290671e-07,5.861838326536297e-07,2.9679337706353667e-05
3.382498201587269e-07,9.591013559468842e-07,5.812290564821467e-07,2.946516677397843e-05
3.340056644265048e-07,9.51975832477171e-07,5.763285817295708e-07,2.9263550722713087e-05
3.299511931996378e-07,9.449902950078856e-07,5.71515821748383e-07,2.907613053934425e-05
3.260839841831658e-07,9.381366534147642e-07,5.668283489375484e-07,2.8904156794165687e-05
3.224005238613244e-07,9.314201870707272e-07,5.62302286671464e-07,2.8748435922960852e-05
3.1889741685972947e-07,9.248632147181656e-07,5.579684940230313e-07,2.860932761513064e-05
3.155718854999867e-07,9.185050324954651e-07,5.538502033578994e-07,2.8486814496888268e-05
3.1242100548368136e-07,9.123971800814472e-07,5.499638539398326e-07,2.838060383486847e-05
3.094408177294983e-07,9.065947974485426e-07,5.463225811363825e-07,2.8290183456661573e-05
3.0662625626284863e-07,9.011465753538898e-07,5.429377533256219e-07,2.8214829169035327e-05
3.039720397817923e-07,8.960891205641768e-07,5.398170561319829e-07,2.8153633477997468e-05
3.0147329386759424e-07,8.914492320701203e-07,5.369619616929288e-07,2.8105591004435088e-05
2.991248344385809e-07,8.872490785425378e-07,5.343669293217924e-07,2.8069699582050074e-05
2.9692013894923574e-07,8.835067075599562e-07,5.320209158189961e-07,2.8045011011928663e-05
2.948506887247992e-07,8.802313664106939e-07,5.299103938983755e-07,2.803060172512987e-05
2.929057025545032e-07,8.774195214996668e-07,5.280227469046068e-07,2.8025486382163396e-05
2.910726176556055e-07,8.750565768219124e-07,5.263499640171303e-07,2.8028543632050983e-05
2.893380003670207e-07,8.731241139621029e-07,5.248933601880038e-07,2.8038499573681547e-05
2.876881044267843e-07,8.716068512067348e-07,5.236693698673642e-07,2.8053932934439917e-05
2.8610875076044514e-07,8.704935016626788e-07,5.227114479350709e-07,2.8073267710009028e-05
2.8458527595583e-07,8.697726663793987e-07,5.220622232102851e-07,2.8094777552608917e-05
2.831037564778952e-07,8.694291320072548e-07,5.217614642870755e-07,2.8116632427232484e-05
2.8165329504260165e-07,8.694426810120329e-07,5.21840661228318e-07,2.813697371830581e-05
2.8022752216399746e-07,8.697872918163227e-07,5.22324897221665e-07,2.8153989451575312e-05
2.788243754894105e-07,8.704300733002773e-07,5.232355425950203e-07,2.8166031540271643e-05
2.774456380639945e-07,8.713312097221351e-07,5.245905421421194e-07,2.8171804245264446e-05
2.7609701103175304e-07,8.724442621090227e-07,5.264027360047743e-07,2.8170505592697682e-05
2.7478710149605146e-07,8.737166880102842e-07,5.286770707221657e-07,2.8161798875771088e-05
2.735254576539252e-07,8.750913862076471e-07,5.314089138865139e-07,2.814566060948311e-05
2.723215284434962e-07,8.765083546926098e-07,5.345855947139923e-07,2.8122225891335998e-05
2.711844638884387e-07,8.779061004731833e-07,5.381896091928483e-07,2.809168232662177e-05
2.701233690827999e-07,8.79223774752777e-07,5.422008896860959e-07,2.8054191281930846e-05
2.6914773868545845e-07,8.804042497332768e-07,5.465972840254457e-07,2.8009811792140886e-05
2.682668210723632e-07,8.813965841685629e-07,5.513530964807754e-07,2.795845967451156e-05
2.674883541370948e-07,8.821560670988761e-07,5.5643871688942e-07,2.78999515262669e-05
2.6681794166932496e-07,8.826437149304735e-07,5.618260805945996e-07,2.783411357303975e-05
2.6625853243986487e-07,8.828273721316931e-07,5.674952215548539e-07,2.7760882927559998e-05
2.658098798127106e-07,8.826817826268254e-07,5.734314963832711e-07,2.768033874499989e-05
2.6546926378395555e-07,8.821862981334412e-07,5.796164925191457e-07,2.7592691271089808e-05
2.652337092108612e-07,8.813233067747551e-07,5.86025053858576e-07,2.7498322134960383e-05
2.651019859696681e-07,8.800789869689596e-07,5.926311220260145e-07,2.739782719998367e-05
2.650744516890488e-07,8.784446819519979e-07,5.994157766675815e-07,2.7291974996406782e-05
2.651510758175424e-07,8.764177884875824e-07,6.063712680616486e-07,2.71816812678011e-05
2.653303604386478e-07,8.740021978679588e-07,6.134984392389435e-07,2.7068032255777648e-05
2.6561079941886933e-07,8.712067436191138e-07,6.208012689064554e-07,2.695224228963493e-05
2.659933747037279e-07,8.680410885602066e-07,6.282863390079365e-07,2.6835565963964604e-05
2.664827902284433e-07,8.645128287877035e-07,6.359682023883786e-07,2.6719255106870656e-05
2.670864309072361e-07,8.606302298336656e-07,6.438730197390945e-07,2.6604570624063244e-05
2.678114616145196e-07,8.564094755317443e-07,6.520353971637515e-07,2.6492845380351198e-05
2.686622526805932e-07,8.518791119732875e-07,6.60490416283505e-07,2.6385569762744684e-05
2.6964037834989747e-07,8.470765062396193e-07,6.692646866987899e-07,2.628438492585206e-05
2.707459253234929e-07,8.420404505329969e-07,6.783696764125416e-07,2.619090462409124e-05
2.719770939321986e-07,8.368063454365815e-07,6.877996855903881e-07,2.6106491179142183e-05
2.73328576910438e-07,8.314046164265948e-07,6.975336010863891e-07,2.6032156053039025e-05
2.747910301786527e-07,8.25860887251668e-07,7.075377053921631e-07,2.596855387571831e-05
2.7635191124106696e-07,8.201968826887585e-07,7.177681877495758e-07,2.591596036639836e-05
2.7799744336603625e-07,8.144314240413992e-07,7.28173811805202e-07,2.5874239871276057e-05
2.797153854999763e-07,8.085823583093466e-07,7.386998121929871e-07,2.58428677228582e-05
2.814965850287279e-07,8.026682300401795e-07,7.492910895124658e-07,2.582103169825863e-05
2.833338060678273e-07,7.967078011213752e-07,7.598918154287495e-07,2.580777368608537e-05
2.852199471867469e-07,7.907192555342135e-07,7.704444784340299e-07,2.5802091126469368e-05
2.871486590783293e-07,7.847194993249249e-07,7.808928307810706e-07,2.5802961423192528e-05
2.891162091798533e-07,7.787220137973713e-07,7.911864876757313e-07,2.5809337935251183e-05
2.911216808983281e-07,7.727348251202621e-07,8.012817117597234e-07,2.5820209566234727e-05
2.931662718828977e-07,7.667607346136453e-07,8.111379527573058e-07,2.583483093738402e-05
2.952530232735707e-07,7.608004716054295e-07,8.207149691459021e-07,2.585308747684469e-05
2.973856180949344e-07,7.548571987225194e-07,8.299735623814509e-07,2.5875676290557283e-05
2.995665654560109e-07,7.489382231199731e-07,8.388788904326117e-07,2.590385110180264e-05
3.017964446556443e-07,7.430524390602289e-07,8.474030296367839e-07,2.5938968234089802e-05
3.0407345991169173e-07,7.372074844249744e-07,8.555228539884915e-07,2.598225428109301e-05
3.063930720869575e-07,7.31410135913312e-07,8.632142123520331e-07,2.6034836266860825e-05
3.0874884046925645e-07,7.25668344803037e-07,8.704481881928694e-07,2.609779917573871e-05
3.111335492609259e-07,7.199937455465388e-07,8.771914952368788e-07,2.6172156686327005e-05
3.1353913975478337e-07,7.144068157632105e-07,8.834079007957895e-07,2.6258747539417325e-05
3.159561328720376e-07,7.089423201554826e-07,8.890585597228611e-07,2.635808916749295e-05
3.183739551595349e-07,7.036478581170325e-07,8.94102369447418e-07,2.6470248047938454e-05
3.207816989245544e-07,6.98574914692135e-07,8.984982325649332e-07,2.6594790116634242e-05
3.231677987545687e-07,6.937695804662738e-07,9.022089428712934e-07,2.6730828505181188e-05
3.25519344325083e-07,6.892684158371556e-07,9.052034070453709e-07,2.6877126056400124e-05
3.278227014202502e-07,6.851014880413624e-07,9.07455728896999e-07,2.703219848881543e-05
3.300646633173925e-07,6.813035953635489e-07,9.089449170518828e-07,2.719445346381004e-05
3.3223246871108533e-07,6.779305711312663e-07,9.096569157831137e-07,2.736243177957309e-05
3.3431306257421785e-07,6.750717647910059e-07,9.095853279401165e-07,2.7535002973084333e-05
3.362935749580471e-07,6.728507334508904e-07,9.087298329822143e-07,2.7711325833824846e-05
3.381631373378126e-07,6.714128302330306e-07,9.070955105329415e-07,2.789071971652777e-05
3.3991311884789116e-07,6.709033736985755e-07,9.046944929285416e-07,2.807264407444241e-05
3.415353476044795e-07,6.714460283810634e-07,9.015473529805581e-07,2.8256700426563092e-05
3.430221348311715e-07,6.731336407216339e-07,8.976816428266649e-07,2.8442547288717854e-05
3.4436913616144855e-07,6.760329109496861e-07,8.931289687884588e-07,2.862983947516301e-05
3.455773379796453e-07,6.801917343268442e-07,8.879228850013375e-07,2.8818347047070478e-05
3.466518483620957e-07,6.856404347707213e-07,8.820983252365013e-07,2.900812380802597e-05
3.475992487124481e-07,6.923891296978333e-07,8.756925181519629e-07,2.9199456391478442e-05
3.484257482821896e-07,7.004262708496208e-07,8.687459002971676e-07,2.939262695256939e-05
3.491368494163652e-07,7.097189735439671e-07,8.613026976397163e-07,2.958770906930395e-05
3.497386491554186e-07,7.202157204011102e-07,8.53411464627378e-07,2.978446238010583e-05
3.5023992493863075e-07,7.318528950202743e-07,8.451228592722904e-07,2.9982286513679662e-05
3.506533081087572e-07,7.44561223175304e-07,8.364849721342746e-07,3.0180231414610804e-05
3.5099435523311963e-07,7.582663090691244e-07,8.275413331828918e-07,3.0377061332762146e-05
3.51278829492756e-07,7.72885195544947e-07,8.183322674903257e-07,3.057131650487104e-05
3.515198166745995e-07,7.883250283011034e-07,8.088957389352083e-07,3.076133134515489e-05
3.517261727491029e-07,8.044857334116294e-07,7.992666509966349e-07,3.0945251238110946e-05
3.5190291180277526e-07,8.212639893673038e-07,7.894768823496721e-07,3.112113349582108e-05
3.520523262298695e-07,8.385538900740992e-07,7.795580107611639e-07,3.128715619676799e-05
3.5217412793364757e-07,8.562439280689693e-07,7.69545356541412e-07,3.144184212124317e-05
3.52265216770616e-07,8.742157968053215e-07,7.59479164455432e-07,3.158419189726687e-05
3.523203470694874e-07,8.923477314329279e-07,7.494015026138364e-07,3.171371445012268e-05
3.5233368874900203e-07,9.105184511845112e-07,7.393519421616609e-07,3.1830380202506074e-05
3.52300275907054e-07,9.28607569665991e-07,7.293646549756993e-07,3.1934504940318964e-05
3.522159570639807e-07,9.464937425161457e-07,7.194669502696224e-07,3.2026596174515647e-05
3.5207615489571573e-07,9.64054552160891e-07,7.09678680082567e-07,3.210721314148482e-05
3.5187577334622886e-07,9.811696839068424e-07,7.000124438068408e-07,3.2176863078953166e-05
3.516116999111894e-07,9.977260210179694e-07,6.904745182370282e-07,3.223592686054533e-05
3.512860713936265e-07,1.0136216011066165e-06,6.810661236045586e-07,3.228459451525423e-05
3.509068919777062e-07,1.028767207911612e-06,6.71786036475867e-07,3.232280743953695e-05
3.5048566152718525e-07,1.0430893528539199e-06,6.626378386556091e-07,3.2350241713246885e-05
3.500350359702724e-07,1.0565366197970429e-06,6.536416038690243e-07,3.2366384364886864e-05
3.4956796398385804e-07,1.069084960041552e-06,6.448418504271117e-07,3.2370718173316305e-05
3.4909726376533513e-07,1.0807377058582557e-06,6.363045815204584e-07,3.23629159565603e-05
3.486349509483993e-07,1.0915193122921141e-06,6.281067816181469e-07,3.234290183646473e-05
3.481911491265971e-07,1.1014639034881574e-06,6.203256122949318e-07,3.2310789309803004e-05
3.477730028085283e-07,1.110603099144592e-06,6.13030668016398e-07,3.2266810593983347e-05
3.473852247693443e-07,1.1189593443898676e-06,6.062826360616568e-07,3.221125396306731e-05
3.470326640792155e-07,1.126546661151162e-06,6.001406184129845e-07,3.2144363216674323e-05
3.467215531019472e-07,1.133376086092054e-06,5.946720698654053e-07,3.206623480849564e-05
3.464570930388648e-07,1.139463807032634e-06,5.899559946756179e-07,3.1976777314311205e-05
3.4624052441794517e-07,1.1448387547606786e-06,5.860783001427542e-07,3.1875722360201104e-05
3.460686343156477e-07,1.1495438433126772e-06,5.831243237091546e-07,3.1762644145552305e-05
3.459345691756345e-07,1.1536300618558859e-06,5.811699325708125e-07,3.1636978151211856e-05
3.458287372299455e-07,1.1571478536520258e-06,5.802721368368778e-07,3.149805081601015e-05
3.45740293381562e-07,1.1601397973726949e-06,5.804643553103691e-07,3.134512684135547e-05
3.4565904468432487e-07,1.1626373806669905e-06,5.817588787847295e-07,3.11774668516623e-05
3.455766189366543e-07,1.1646623836890112e-06,5.841563990043905e-07,3.09943803805649e-05
3.45486789296741e-07,1.1662308015904514e-06,5.876612789448132e-07,3.079525869037919e-05
3.4538523332398e-07,1.1673559039634378e-06,5.922918132138972e-07,3.0579586238686305e-05
3.4526869815337417e-07,1.1680479359730257e-06,5.980738387061052e-07,3.034695372438628e-05
3.451340630002433e-07,1.1683126722102591e-06,6.050255241361045e-07,3.0097082003135968e-05
3.449775817401806e-07,1.1681515949604312e-06,6.131528060577987e-07,2.9829833149286437e-05
3.447942864524284e-07,1.1675620287945914e-06,6.2246084433361e-07,2.954519952830932e-05
3.4457781496540087e-07,1.1665363372622223e-06,6.329690401031052e-07,2.924333525116641e-05
3.44321012770223e-07,1.1650623285540288e-06,6.447163294691664e-07,2.892468852503437e-05
3.4401671335952405e-07,1.1631253394494688e-06,6.577552590307883e-07,2.8590108129371907e-05
3.436578079288145e-07,1.1607094521999963e-06,6.721431820689604e-07,2.8240764552761003e-05
3.4323730370512036e-07,1.157796824924105e-06,6.879360575250546e-07,2.7877972277360406e-05
3.427485961247653e-07,1.1543675295577445e-06,7.051815608288778e-07,2.750307158950053e-05
3.4218485958879236e-07,1.150401551016027e-06,7.2390814451707e-07,2.711738059501498e-05
3.4153804485632127e-07,1.1458830540741902e-06,7.441138842192891e-07,2.6722178610632363e-05
3.407992588785512e-07,1.1408062763905909e-06,7.657617239171626e-07,2.631870594493797e-05
3.399607615774803e-07,1.13517929072981e-06,7.887819816228175e-07,2.5908157307686208e-05
3.3901729264282553e-07,1.1290216557788023e-06,8.130772352001788e-07,2.5491675786072423e-05
3.3796538868370377e-07,1.1223583719903765e-06,8.385266216358115e-07,2.5070412171515626e-05
3.368027744179347e-07,1.1152154390412102e-06,8.64991139352376e-07,2.464564547414844e-05
3.3552902322642725e-07,1.1076171101169789e-06,8.923212229223317e-07,2.4218847140112932e-05
3.341459513807363e-07,1.0995837872782207e-06,9.203643858981868e-07,2.379163293486069e-05
3.3265708540887644e-07,1.0911323540680657e-06,9.489702592063874e-07,2.336565955779839e-05
3.310667373305153e-07,1.0822775026125373e-06,9.779930902772944e-07,2.2942513475919195e-05
3.2937884543648465e-07,1.0730316785967606e-06,1.0072926488007251e-06,2.2523620909945395e-05
3.275961034511876e-07,1.063406740993279e-06,1.0367325124649594e-06,2.211024333379337e-05
3.2572012805910466e-07,1.0534205035296964e-06,1.0661759336147076e-06,2.1703559467583483e-05
3.237524742764667e-07,1.0431042170464684e-06,1.095483249430694e-06,2.1304714008986828e-05
3.2169545214038205e-07,1.0325026067620408e-06,1.1245126948898978e-06,2.091476750483333e-05
3.1955199064362285e-07,1.0216656103032878e-06,1.153122046962294e-06,2.053461260692376e-05
3.173250735355062e-07,1.0106422462637979e-06,1.181169530088988e-06,2.016491941538579e-05
3.1501815935929085e-07,9.994839037291241e-07,1.208515417949799e-06,1.9806118050626952e-05
3.1263684270530015e-07,9.882518945552963e-07,1.2350246396901486e-06,1.945840829674372e-05
3.1019018231781393e-07,9.77019955433169e-07,1.2605675646071176e-06,1.9121810003632973e-05
3.076907280103825e-07,9.65868365957508e-07,1.2850190403066151e-06,1.879634944333866e-05
3.051533124604409e-07,9.548749809892193e-07,1.3082593864262487e-06,1.8482417380490084e-05
3.025928601063126e-07,9.441123786265879e-07,1.3301764916608531e-06,1.818105975362326e-05
3.0002234523477677e-07,9.336527822883276e-07,1.3506664750679772e-06,1.7893937539051262e-05
2.974520626835095e-07,9.235724744050119e-07,1.36963569159092e-06,1.762303621191806e-05
2.9489050427409265e-07,9.139505276353622e-07,1.3870061435449572e-06,1.7370356186457287e-05
2.9234601861209195e-07,9.048637516638645e-07,1.402720615294449e-06,1.7137709196580502e-05
2.898275835931556e-07,8.963801919250368e-07,1.4167428849367338e-06,1.6926729188497368e-05
2.873443102272184e-07,8.885541605117815e-07,1.429051990574489e-06,1.6739076733799873e-05
2.849047962831008e-07,8.814254916562626e-07,1.4396342051673646e-06,1.657654283713881e-05
2.8251714417585514e-07,8.750210305509985e-07,1.4484774932539601e-06,1.6440886866073356e-05
2.8018969173331577e-07,8.693548616478621e-07,1.455569739604936e-06,1.6333604265800518e-05
2.779317066219393e-07,8.644285116350103e-07,1.4609003649653106e-06,1.6255800465577075e-05
2.7575263471342805e-07,8.602333098129576e-07,1.4644644012768714e-06,1.6208147077260284e-05
2.736600015483232e-07,8.567528409333105e-07,1.466265545505784e-06,1.619086675394135e-05
2.716584653318175e-07,8.539650082437781e-07,1.4663161222597978e-06,1.620373648610163e-05
2.697514508165069e-07,8.518444863091155e-07,1.464637657106161e-06,1.6246120714532388e-05
2.679444438691103e-07,8.503623630134279e-07,1.4612661864376145e-06,1.6317028499533774e-05
2.662480370765134e-07,8.494828556847796e-07,1.4562585244578256e-06,1.641515282223269e-05
2.6467832897544514e-07,8.491625413307373e-07,1.449691733916126e-06,1.6538869821686866e-05
2.632540708018234e-07,8.493534758761599e-07,1.441655506056528e-06,1.6686234415955487e-05
2.619927123348572e-07,8.500059055086804e-07,1.4322435206379157e-06,1.6855009441504033e-05
2.609081924828811e-07,8.510689204667205e-07,1.4215479233231051e-06,1.7042716396620348e-05
2.6001162084044214e-07,8.52491660705001e-07,1.4096571883240892e-06,1.7246687701596235e-05
2.59312989991748e-07,8.542257512096016e-07,1.3966547719178483e-06,1.7464120957012666e-05
2.588216704141017e-07,8.562260551096401e-07,1.382617215767567e-06,1.769213531376567e-05
2.58545508312388e-07,8.584479482399159e-07,1.3676142268825058e-06,1.7927837515238093e-05
2.5848935201983805e-07,8.608443010109051e-07,1.351711292561743e-06,1.816839830974956e-05
2.586544129957012e-07,8.633668571631094e-07,1.3349713597470012e-06,1.841110510604061e-05
2.590391396377936e-07,8.659712533634172e-07,1.3174542909354595e-06,1.8653376477820966e-05
2.5964033873901605e-07,8.686209540984606e-07,1.2992160771413573e-06,1.889277191598685e-05
2.6045377735403534e-07,8.712879624340723e-07,1.2803085851825226e-06,1.912701705069847e-05
2.614746845983684e-07,8.739505933839459e-07,1.2607795092005577e-06,1.935401486976431e-05
2.6269811930186205e-07,8.765895691793394e-07,1.2406732633394857e-06,1.957182763726069e-05
2.641197321528194e-07,8.791857614292133e-07,1.2200329627334269e-06,1.9778687330872345e-05
2.657375749889763e-07,8.817198817329109e-07,1.1989019913422896e-06,1.9973052727942692e-05
2.6755322593974746e-07,8.841708916265251e-07,1.177324131717561e-06,2.0153636437245527e-05
2.6957049834557404e-07,8.86515314774559e-07,1.1553429601865463e-06,2.0319378926738118e-05
2.717926225715466e-07,8.887318497496521e-07,1.1330022017511702e-06,2.046941363862304e-05
2.742196986598802e-07,8.908087579996012e-07,1.110348083329297e-06,2.060304320716103e-05
2.768477825822665e-07,8.927486465383092e-07,1.0874312626251254e-06,2.071973111188337e-05
2.7966928936508627e-07,8.945688398853287e-07,1.0643050827271203e-06,2.081908518668541e-05
2.8267320179387734e-07,8.962964837666483e-07,1.041023034925305e-06,2.090080340564077e-05
2.8584514654230305e-07,8.979588958970396e-07,1.017639463237648e-06,2.0964613726097613e-05
2.891682143404206e-07,8.995764090073135e-07,9.942107650170609e-07,2.101025540757805e-05
2.9262459846453763e-07,9.011647049636488e-07,9.707947706296531e-07,2.1037510368548373e-05
2.961978150383707e-07,9.02744345189138e-07,9.474512476256478e-07,2.104629931448917e-05
2.99874521934927e-07,9.043491545841629e-07,9.242443044023012e-07,2.1036854202117632e-05
3.036442380312676e-07,9.060258247210272e-07,9.012444079891829e-07,2.1009874188913385e-05
3.074971868388299e-07,9.078249656773251e-07,8.78529254481583e-07,2.0966527791854826e-05
3.1142299810491534e-07,9.097907181486357e-07,8.561837287448325e-07,2.0908292297142623e-05
3.154108938675655e-07,9.119544336988764e-07,8.342988161920926e-07,2.083672770439672e-05
3.19449253910478e-07,9.143349450560291e-07,8.129673910241438e-07,2.075328312375191e-05
3.2352461533603876e-07,9.169428023183105e-07,7.922759654828205e-07,2.0659202451999246e-05
3.2762195382312577e-07,9.197808116281576e-07,7.722984966543649e-07,2.055553049084548e-05
3.317263387047866e-07,9.228405791606687e-07,7.530979579572827e-07,2.044316954790761e-05
3.358243030855751e-07,9.261029228163047e-07,7.347317758497873e-07,2.0322997611053746e-05
3.399040163285729e-07,9.295430980912634e-07,7.172539402305959e-07,2.019611048677268e-05
3.439544766468036e-07,9.331334299615669e-07,7.007121313114989e-07,2.006406977651949e-05
3.479640395901065e-07,9.368406958870232e-07,6.8514423792748e-07,1.992890707704765e-05
3.519195581822524e-07,9.406235119891191e-07,6.705784864354312e-07,1.979288402220336e-05
3.558071273475628e-07,9.444340058307278e-07,6.570351489622239e-07,1.96582191557202e-05
3.5961405126679093e-07,9.482239754735279e-07,6.445271233257479e-07,1.9526913622621312e-05
3.6333088328443905e-07,9.519541725942608e-07,6.330632376969557e-07,1.9400773347185424e-05
3.669520167584082e-07,9.556026702160857e-07,6.226568006146633e-07,1.9281677363010893e-05
3.704751706626353e-07,9.591666477588993e-07,6.133332848974179e-07,1.917188140386994e-05
3.739008647369518e-07,9.626559906732937e-07,6.051301911139508e-07,1.907407210444164e-05
3.7723165664103117e-07,9.660829875336915e-07,5.980891671144202e-07,1.8991186390568885e-05
3.804709326622568e-07,9.694536571022995e-07,5.922457376048406e-07,1.8926192782632944e-05
3.8362098988371136e-07,9.727632112782595e-07,5.876214023186556e-07,1.888192351991507e-05
3.866811002309261e-07,9.759953723835704e-07,5.842198622153525e-07,1.886093869829801e-05
3.896476214136425e-07,9.791242798415837e-07,5.820283593240132e-07,1.886540851747308e-05
3.9251568079526576e-07,9.821171198236746e-07,5.810230155439596e-07,1.8897040134257167e-05
3.9527995283486253e-07,9.849355853116856e-07,5.811738495201641e-07,1.8957067313073225e-05
3.9793486660268796e-07,9.87536399401669e-07,5.824471044743493e-07,1.9046268026455333e-05
4.004758521953984e-07,9.89872432332385e-07,5.848054034209631e-07,1.916495864164533e-05
4.0290031251553814e-07,9.918947672898305e-07,5.882067468980151e-07,1.931296769857501e-05
4.052066730920897e-07,9.935552667521109e-07,5.926043402613068e-07,1.948963214453267e-05
4.073931514230614e-07,9.94808718772854e-07,5.979477330564463e-07,1.969381604427041e-05
4.0945766725254787e-07,9.956151779562322e-07,6.041831689013688e-07,1.992393672645812e-05
4.113975959787506e-07,9.95944611357027e-07,6.112517860540423e-07,2.0178043785490047e-05
4.132090353611764e-07,9.957816605449465e-07,6.190867752037086e-07,2.045396922509228e-05
4.148867605218721e-07,9.951263596879562e-07,6.276125507215285e-07,2.0749461750404027e-05
4.1642460821278633e-07,9.939923182809486e-07,6.367469643626201e-07,2.106224752954229e-05
4.178151907705189e-07,9.924054957396577e-07,6.464039195531592e-07,2.1390064989965144e-05
4.1904924937542757e-07,9.904018464196887e-07,6.564951835515072e-07,2.1730708840432887e-05
4.201159163493482e-07,9.880218609754476e-07,6.669325603632418e-07,2.208205940396789e-05
4.2100437837765215e-07,9.853041813212317e-07,6.776305429599381e-07,2.2442079175413966e-05
4.2170575775550897e-07,9.822822204574232e-07,6.88508265588574e-07,2.2808789233883192e-05
4.2221314116796217e-07,9.789863443565395e-07,6.994892614652154e-07,2.318023277337404e-05
4.2251996594954133e-07,9.754494486215452e-07,7.104991082507728e-07,2.355440874695209e-05
4.226194800179158e-07,9.71710327162175e-07,7.214628445261594e-07,2.392919379382933e-05
4.225059780393181e-07,9.67812256162853e-07,7.323043279348616e-07,2.4302309917083e-05
4.221757380496844e-07,9.637987447430752e-07,7.429494774029356e-07,2.4671357664252e-05
4.2162671337397043e-07,9.597094039095751e-07,7.533316612720059e-07,2.5033896643777373e-05
4.208578281393621e-07,9.555787054030434e-07,7.633938463409763e-07,2.5387550095847603e-05
4.1986860187920974e-07,9.514400132109652e-07,7.730873869154078e-07,2.573010604419092e-05
4.1865902043360343e-07,9.473322752576906e-07,7.82373989378638e-07,2.6059560340997478e-05
4.172290215445239e-07,9.433006940845991e-07,7.912315208788323e-07,2.637405257448154e-05
4.1557816083766345e-07,9.39389319138867e-07,7.996560104971806e-07,2.6671762747931306e-05
4.137069758009303e-07,9.356379466430384e-07,8.076568974862244e-07,2.695089631982832e-05
4.1161941727302046e-07,9.320927704830313e-07,8.152498639030174e-07,2.720977459837804e-05
4.0932442058827895e-07,9.288216767585872e-07,8.224509300547081e-07,2.7446969577515946e-05
4.068364550061747e-07,9.259173222618572e-07,8.29272591493623e-07,2.766144691536583e-05
4.0417481467884385e-07,9.234820001136348e-07,8.357213068633939e-07,2.7852659061301912e-05
4.0136048343688503e-07,9.216070420126566e-07,8.417957762296256e-07,2.8020507409123188e-05
3.984122913041608e-07,9.203643192775299e-07,8.474870819767218e-07,2.8165183272567528e-05
3.953453475085057e-07,9.198104071636429e-07,8.527821055634176e-07,2.828697399357641e-05
3.9217142736611034e-07,9.19993321574634e-07,8.576683133478131e-07,2.8386108933091052e-05
3.8889957036746563e-07,9.209580932350643e-07,8.621364773913851e-07,2.8462689497344683e-05
3.8553645636079994e-07,9.227493616388659e-07,8.661818799550478e-07,2.8516690316334924e-05
3.8208713094018393e-07,9.254075811274496e-07,8.698048896420317e-07,2.854799349950508e-05
3.785565958581362e-07,9.289610038393757e-07,8.730088138237581e-07,2.8556492399276893e-05
3.74951137471739e-07,9.334185470535708e-07,8.757958715647366e-07,2.8542329627657928e-05
3.712780639857194e-07,9.387665132689121e-07,8.781647319297536e-07,2.8506158621007484e-05
3.6754488356254703e-07,9.449711686307343e-07,8.801111935046245e-07,2.844919474114449e-05
3.637591260487216e-07,9.519864776418707e-07,8.816320473455971e-07,2.8373033993941686e-05
3.599281113420186e-07,9.597631321433106e-07,8.82728533180903e-07,2.8279402064595086e-05
3.560583627045817e-07,9.682554188130508e-07,8.834044672405243e-07,2.8169948691835905e-05
3.521557407142469e-07,9.774225805094212e-07,8.836612532396313e-07,2.8046236436155958e-05
3.482262692870533e-07,9.872240454363644e-07,8.83495992563022e-07,2.791000835167666e-05
3.4427626531921947e-07,9.976159141058227e-07,8.829043401412272e-07,2.776348192514737e-05
3.403115529598621e-07,1.0085542076853638e-06,8.818860473075012e-07,2.7609371803836016e-05
3.363367246782677e-07,1.0200003669381877e-06,8.804501526362612e-07,2.7450696627056062e-05
3.323549985991609e-07,1.0319249470523377e-06,8.786156328880899e-07,2.7290572678295388e-05
3.283687464240418e-07,1.0443098929079755e-06,8.764061057274538e-07,2.713205772546019e-05
3.243802152105223e-07,1.0571483830437923e-06,8.738440278427219e-07,2.6978015665055294e-05
3.203915432353884e-07,1.0704402698092292e-06,8.709488373214201e-07,2.68309860063602e-05
3.1640414204091147e-07,1.0841845896968695e-06,8.677368711744318e-07,2.6693081943680435e-05
3.124186346254332e-07,1.0983730664195e-06,8.642228356478477e-07,2.656594480400492e-05
3.084357929296863e-07,1.11298525887108e-06,8.60424473537767e-07,2.6450749775031767e-05
3.044573416610352e-07,1.127984215153703e-06,8.563663694740689e-07,2.634823437819265e-05
3.0048597299912307e-07,1.143314157193319e-06,8.520783309260623e-07,2.6258729603765125e-05
2.965253667613761e-07,1.1589018080982057e-06,8.475902074230351e-07,2.6182194284923715e-05
2.925801193208612e-07,1.1746614079543794e-06,8.429279762741027e-07,2.6118238462946773e-05
2.886547742190954e-07,1.1905022865256395e-06,8.381123113417376e-07,2.6066125509556972e-05
2.847529071706913e-07,1.2063357998479506e-06,8.33157771140232e-07,2.602479442684805e-05
2.808774790102462e-07,1.2220787660690228e-06,8.28073101068601e-07,2.599292836543319e-05
2.7703158511043485e-07,1.2376527636852351e-06,8.22864259865811e-07,2.596903217106843e-05
2.732190243221232e-07,1.2529804753306066e-06,8.175384814548894e-07,2.5951492191072352e-05
2.694455603604419e-07,1.2679822530761096e-06,8.121056240122525e-07,2.593863019621863e-05
2.657197579494137e-07,1.2825753817612922e-06,8.065761433984506e-07,2.592875490832013e-05
2.620516964108951e-07,1.2966750376356368e-06,8.009597536370169e-07,2.5920200322823128e-05
2.584512417500425e-07,1.310195315799884e-06,7.952663762631595e-07,2.591134286259436e-05
2.549281927209191e-07,1.3230505274584215e-06,7.895059365285244e-07,2.590059836773937e-05
2.5149325491462266e-07,1.3351566379265093e-06,7.836869285342519e-07,2.5886419378936146e-05
2.481575617134446e-07,1.3464319105239977e-06,7.77817220717765e-07,2.586733420304628e-05
2.449320679623182e-07,1.356796558861298e-06,7.719062794992934e-07,2.584204430935338e-05
2.4182879962681605e-07,1.366172072492085e-06,7.659660113526223e-07,2.5809506685343093e-05
2.388615474361395e-07,1.3744809643233533e-06,7.600103902011895e-07,2.5768911005991918e-05
2.3604496598648144e-07,1.3816471132835821e-06,7.540537272785373e-07,2.571957300177528e-05
2.3339438707330142e-07,1.3875969469088555e-06,7.481081421924117e-07,2.566082993280029e-05
2.309254302960208e-07,1.3922618106800444e-06,7.421837655357072e-07,2.5591987161904835e-05
2.2865207579114877e-07,1.3955815658497623e-06,7.362914024975013e-07,2.55123267712126e-05
2.2658539409263225e-07,1.3975088049658292e-06,7.304430436230635e-07,2.5421174636095128e-05
2.2473427204717207e-07,1.398010980540444e-06,7.246492959637576e-07,2.5318015297901347e-05
2.231068912317031e-07,1.3970681261467683e-06,7.189176751424938e-07,2.5202656836555e-05
2.2171118712985463e-07,1.3946685016410182e-06,7.132544110509073e-07,2.507540752369924e-05
2.205535902439143e-07,1.3908061518551438e-06,7.076669887730625e-07,2.493713710834063e-05
2.196373245794602e-07,1.3854805271513469e-06,7.021639995614911e-07,2.478916567446458e-05
2.189624562302312e-07,1.3786959673587764e-06,6.967536240312611e-07,2.463307287341121e-05
2.1852829186163784e-07,1.3704611119544383e-06,6.91443035057499e-07,2.44705176864679e-05
2.1833620645691385e-07,1.3607898816491362e-06,6.862380106752521e-07,2.430308468704392e-05
2.183899505186266e-07,1.3497031958366426e-06,6.811412561706825e-07,2.413215524875165e-05
2.1869276303889843e-07,1.3372296190342822e-06,6.761511286931771e-07,2.395884076063833e-05
2.1924443403805093e-07,1.3234057098831957e-06,6.712642997565694e-07,2.378400866507965e-05
2.2004156729946947e-07,1.3082765969696065e-06,6.664812713379486e-07,2.3608358041272464e-05
2.2108021223460287e-07,1.2918966661849052e-06,6.61809842967589e-07,2.343247943063665e-05
2.223568311448904e-07,1.2743314314983309e-06,6.572642605021057e-07,2.325688512272297e-05
2.2386628072698377e-07,1.2556587624473444e-06,6.528617236386731e-07,2.3082091111249035e-05
2.255998896872105e-07,1.2359659824956506e-06,6.486195203048427e-07,2.2908811280667542e-05
2.275451075950725e-07,1.2153439640343729e-06,6.445532535692484e-07,2.2738089940708498e-05
2.2968555332993908e-07,1.1938819477726177e-06,6.406740710780191e-07,2.257119689449979e-05
2.3200191127931103e-07,1.17166568592738e-06,6.369865306970654e-07,2.240947117482935e-05
2.3447497704138112e-07,1.1487795506204756e-06,6.334904134581401e-07,2.2254316865449248e-05
2.3708909202626766e-07,1.1253088595843963e-06,6.301847668879615e-07,2.210722527189077e-05
2.398334100477639e-07,1.1013393154920642e-06,6.270695925035849e-07,2.1969710112255482e-05
2.4270316819918607e-07,1.0769562223428434e-06,6.24143967793131e-07,2.1843215580263894e-05
2.4570211870126624e-07,1.052244480373796e-06,6.214030278504201e-07,2.172903427842085e-05
2.4884100674493053e-07,1.0272884867801062e-06,6.188363704980225e-07,2.1628230772953166e-05
2.521318155262673e-07,1.0021750277959408e-06,6.164290011311655e-07,2.154157622158296e-05
2.555849059230904e-07,9.769996904964615e-07,6.141635949193772e-07,2.1469505101376693e-05
2.5920987681563394e-07,9.518694648515872e-07,6.12021580386426e-07,2.1412092744607866e-05
2.6301475320312057e-07,9.268958165192636e-07,6.099824650215753e-07,2.136904464734511e-05
2.6700334557828825e-07,9.021850652491112e-07,6.080232803753399e-07,2.133970700804968e-05
2.7117425523643325e-07,8.778366023904844e-07,6.061199334872283e-07,2.13231161637328e-05
2.7552176070953986e-07,8.539478015099676e-07,6.042499459644857e-07,2.131809058440744e-05
2.800366820751935e-07,8.306174636491616e-07,6.023948852223394e-07,2.132333984525097e-05
2.847066620756182e-07,8.07945050722772e-07,6.005420751068327e-07,2.1337531020694697e-05
2.8951715515121986e-07,7.860293524396289e-07,5.986860817865782e-07,2.1359278989712205e-05
2.944536654066988e-07,7.649680164996355e-07,5.968295622489145e-07,2.1387117393371988e-05
2.9950388686321923e-07,7.448552551919681e-07,5.949822671811406e-07,2.1419515676839005e-05
3.0465782360408004e-07,7.257793199861056e-07,5.931579735233285e-07,2.1454919031814187e-05
3.0990533975172727e-07,7.078226288137467e-07,5.913704782871307e-07,2.1491766045178955e-05
3.152340551644455e-07,6.91060828872e-07,5.896303348052102e-07,2.1528490631327576e-05
3.2063028604919426e-07,6.755582105053201e-07,5.879439127798361e-07,2.1563537101502546e-05
3.260804198574879e-07,6.613628118590046e-07,5.863146344561838e-07,2.159540434454298e-05
3.315698078878246e-07,6.485038112545742e-07,5.847447708720491e-07,2.1622713294437412e-05
3.370814361848255e-07,6.369915198902327e-07,5.832369571368275e-07,2.1644262306848058e-05
3.4259640016457747e-07,6.26820333442854e-07,5.817955377683154e-07,2.165903238545772e-05
3.4809449668170164e-07,6.179757929676365e-07,5.80427307572435e-07,2.1666148319779424e-05
3.535538176431243e-07,6.104447529161778e-07,5.791408529564806e-07,2.166483005169792e-05
3.5895094106370227e-07,6.042244265159194e-07,5.779465671120157e-07,2.1654370372231602e-05
3.642637360960889e-07,5.993294091406787e-07,5.768602021684025e-07,2.163417465433518e-05
3.694758504543792e-07,5.957967225357759e-07,5.759076350557731e-07,2.160383066716449e-05
3.745791497842681e-07,5.936845967905542e-07,5.751263808418494e-07,2.1563109367339214e-05
3.795715029507213e-07,5.930647645911017e-07,5.745625368619654e-07,2.151188470097668e-05
3.8445190803469867e-07,5.940130891726839e-07,5.74265002928996e-07,2.145006024939746e-05
3.892179818291961e-07,5.965993697926343e-07,5.742806809914629e-07,2.1377544431136216e-05
3.938673205776536e-07,6.00875582336724e-07,5.746521009756903e-07,2.129425973497795e-05
3.9840021293907006e-07,6.068661546375634e-07,5.754159320026558e-07,2.1200160572394503e-05
4.0282192205355883e-07,6.145649667763526e-07,5.7660204417828e-07,2.109522435127131e-05
4.071429576487952e-07,6.239405565513558e-07,5.782330228084033e-07,2.097942197874e-05
4.113760279730653e-07,6.349468454450954e-07,5.803233925841589e-07,2.0852719041057e-05
4.1553174488441684e-07,6.475327814278394e-07,5.828783469491924e-07,2.0715150867057512e-05
4.1961640408791045e-07,6.616459530450358e-07,5.858920127449869e-07,2.0566969131977305e-05
4.2363190002911575e-07,6.772323107730794e-07,5.893467482583585e-07,2.0408761099832682e-05
4.275756483451966e-07,6.942354247682282e-07,5.93216007374118e-07,2.0241411880526377e-05
4.314401871927471e-07,7.12594139525769e-07,5.974713874551721e-07,2.0065928516536646e-05
4.3521338106043064e-07,7.322395503551509e-07,6.020894569862646e-07,1.9883294626237147e-05
4.3887960499822e-07,7.53096574406058e-07,6.070526513711868e-07,1.9694461593177084e-05
4.424222097507603e-07,7.750886322769896e-07,6.123448757848097e-07,1.9500397772734648e-05
4.458261198474434e-07,7.98137226981672e-07,6.179462483818489e-07,1.9302067341916893e-05
4.4907855961897743e-07,8.221552726108486e-07,6.238303049575246e-07,1.9100341929771545e-05
4.521682523473117e-07,8.47040595023867e-07,6.299647989074693e-07,1.889596697138551e-05
4.550846531453997e-07,8.72673786290019e-07,6.363134308725294e-07,1.8689686907040217e-05
4.578179132839178e-07,8.989210748989629e-07,6.428357405745582e-07,1.8482467632946028e-05
4.6035917300584134e-07,9.256409480103329e-07,6.494873121444919e-07,1.827559157379328e-05
4.626999597495242e-07,9.526902805734553e-07,6.562233866559978e-07,1.807052186173093e-05
4.6483101702666645e-07,9.79926609701777e-07,6.630037142047037e-07,1.7868675489045293e-05
4.6674224891679327e-07,1.0072078144152294e-06,6.697944049963569e-07,1.7671286893230483e-05
4.684237674680954e-07,1.03439209985198e-06,6.765657447391015e-07,1.747950050704368e-05
4.6986681509112386e-07,1.0613396183550907e-06,6.832877034616087e-07,1.729468076648039e-05
4.7106406001722896e-07,1.0879141914615537e-06,6.899265840973439e-07,1.7118648891899537e-05
4.7200940123159093e-07,1.1139836882093556e-06,6.964450772748017e-07,1.6953607811657706e-05
4.7269756099454525e-07,1.1394202660710164e-06,7.028042622847067e-07,1.6801873091662675e-05
4.731236376902834e-07,1.1640998424200204e-06,7.089647330799863e-07,1.6665631640977654e-05
4.7328277701004584e-07,1.1878997799311658e-06,7.148864015981266e-07,1.6546799146274966e-05
4.731705803720666e-07,1.2106976249177794e-06,7.205297745729194e-07,1.644695563696361e-05
4.727841688110881e-07,1.2323725061070644e-06,7.258587997762009e-07,1.6367334979966333e-05
4.7212266440131436e-07,1.2528075151392515e-06,7.308413150668833e-07,1.6308838623483225e-05
4.711867200779633e-07,1.2718924698883984e-06,7.354474777244991e-07,1.627203852678905e-05
4.6997833329113684e-07,1.2895268718914309e-06,7.3964965972534e-07,1.6257160466749074e-05
4.685020170295188e-07,1.3056218311841428e-06,7.434232918794043e-07,1.626406579308866e-05
4.667656549657964e-07,1.3201016691459127e-06,7.467468190041934e-07,1.6292267170298376e-05
4.647790604347536e-07,1.3329052496904035e-06,7.496016184088417e-07,1.6341011833301074e-05
4.625518873138678e-07,1.3439853240275977e-06,7.519739871276244e-07,1.6409414635450172e-05
4.600930266483656e-07,1.3533079640563155e-06,7.538581682635248e-07,1.6496585845585974e-05
4.574113682402939e-07,1.3608535323132427e-06,7.552558799275927e-07,1.6601716504231715e-05
4.5451713802445137e-07,1.3666168659827463e-06,7.561717589899065e-07,1.672411209581914e-05
4.5142306704911813e-07,1.3706065102658607e-06,7.566099975662212e-07,1.6863186663375435e-05
4.4814414030963366e-07,1.3728434502967407e-06,7.565757087008674e-07,1.7018443823765664e-05
4.4469622933301533e-07,1.3733590285640169e-06,7.560784474659113e-07,1.7189466000433656e-05
4.410966505543606e-07,1.3721929528080337e-06,7.551328230480423e-07,1.7375911154295434e-05
4.373663792592782e-07,1.3693918863635315e-06,7.537558457748419e-07,1.7577498600104917e-05
4.3352963304929333e-07,1.3650099271156335e-06,7.519657407114545e-07,1.7793966216523817e-05
4.296104606767274e-07,1.359112012523418e-06,7.497837983241847e-07,1.8024989176024666e-05
4.2563007369488527e-07,1.3517771051059092e-06,7.472352802469876e-07,1.8270064970605213e-05
4.216068933509798e-07,1.3430966762835056e-06,7.443465487466606e-07,1.852841240407833e-05
4.1755789923714476e-07,1.3331678318884278e-06,7.411408339399353e-07,1.879896109571071e-05
4.134989747241915e-07,1.3220858257248492e-06,7.376367372743255e-07,1.908043129468552e-05
4.094442215195292e-07,1.309940674771302e-06,7.338503751798368e-07,1.937141474837141e-05
4.054053863066603e-07,1.296817321037294e-06,7.297996017501471e-07,1.967042237812123e-05
4.0139135549104037e-07,1.2827989092420077e-06,7.255074806246539e-07,1.9975940338340147e-05
3.97408639425933e-07,1.26797297420607e-06,7.210014705038477e-07,2.028649252724149e-05
3.9346382021205223e-07,1.252433763787651e-06,7.163094563337377e-07,2.0600660545831438e-05
3.895652649514682e-07,1.2362765680691677e-06,7.114572782523232e-07,2.091706523013825e-05
3.857218496760767e-07,1.2195917616420237e-06,7.064686828341527e-07,2.123435054656841e-05
3.819412113220133e-07,1.2024655932171502e-06,7.013657848027664e-07,2.155115146747153e-05
3.782301105292501e-07,1.1849839589392769e-06,6.961684857927609e-07,2.1866019591207607e-05
3.745954838824651e-07,1.167233119815516e-06,6.908929011407557e-07,2.217736979720929e-05
3.7104426263084824e-07,1.1492979175683105e-06,6.855503120271564e-07,2.248353862475498e-05
3.675830779205328e-07,1.1312599634358372e-06,6.801470170919311e-07,2.278294303087313e-05
3.6421874670351843e-07,1.1131946541815538e-06,6.746846045767334e-07,2.307421332104246e-05
3.6095788377983435e-07,1.0951676715304544e-06,6.691610039951622e-07,2.3356193905266245e-05
3.578055955710519e-07,1.0772350628612709e-06,6.635732979139282e-07,2.362783328573108e-05
3.5476538585217294e-07,1.059447294787771e-06,6.57921592990324e-07,2.388807011887682e-05
3.5184010178033927e-07,1.0418537636150664e-06,6.522105887300263e-07,2.41358059663236e-05
3.4903182114477427e-07,1.0245070648442323e-06,6.464480673804142e-07,2.436996270868063e-05
3.4634081386005026e-07,1.0074687729502199e-06,6.406432833018718e-07,2.4589536882271785e-05
3.4376517425670554e-07,9.90814202095345e-07,6.348057039822274e-07,2.479360177073912e-05
3.413010075299265e-07,9.746306050095553e-07,6.289428370619075e-07,2.498135248899266e-05
3.389428707862895e-07,9.590081355978405e-07,6.2305847412066e-07,2.515229200074167e-05
3.3668464905071165e-07,9.440296159489443e-07,6.171524539062703e-07,2.530641341090989e-05
3.3452017152610825e-07,9.297648878668665e-07,6.11220864540261e-07,2.544414556571579e-05
3.3244359441101537e-07,9.162686717833591e-07,6.05256631123328e-07,2.556608875922339e-05
3.3044981975183076e-07,9.035787654532551e-07,5.992529065492418e-07,2.5672752723673262e-05
3.285350234045527e-07,8.917158147994086e-07,5.932101608757991e-07,2.5764473788091614e-05
3.2669877008356384e-07,8.806855371195124e-07,5.871424700675091e-07,2.584162319470091e-05
3.249473839132361e-07,8.704804228300702e-07,5.810783798803351e-07,2.590501869382196e-05
3.232951137278685e-07,8.610800176818512e-07,5.750578825543481e-07,2.595620911069085e-05
3.217617117002055e-07,8.524523289424125e-07,5.691294042773495e-07,2.5997428992596758e-05
3.203691631851901e-07,8.445574506648795e-07,5.633476432814226e-07,2.603134145308864e-05
3.1914053670086806e-07,8.373532006461141e-07,5.577698274072135e-07,2.6060747923337532e-05
3.180997945672335e-07,8.308021376088804e-07,5.524493026272198e-07,2.6088331840209243e-05
3.172693368241571e-07,8.248774989066771e-07,5.474307903410902e-07,2.611645269324088e-05
3.166663680601908e-07,8.195653774239507e-07,5.427512474725244e-07,2.614700587036704e-05
3.1630168551018665e-07,8.148623080806535e-07,5.384427567479322e-07,2.618134954683392e-05
3.161808542007255e-07,8.107704016683219e-07,5.345317220085115e-07,2.6220288208925478e-05
3.163058628284945e-07,8.072939364036285e-07,5.310352143233089e-07,2.626411177668948e-05
3.1667686723512784e-07,8.044387339089314e-07,5.279592140380683e-07,2.631268885927109e-05
3.172936564082062e-07,8.022113261291584e-07,5.253005863186741e-07,2.636560022900944e-05
3.181563103794293e-07,8.006150415238512e-07,5.23053087727251e-07,2.642228015242791e-05
3.1926561957583297e-07,7.99645243685694e-07,5.21216586635421e-07,2.648212331552075e-05
3.2062337990551056e-07,7.992872508215485e-07,5.198040044588579e-07,2.6544548220337187e-05
3.222320660246849e-07,7.995163312579517e-07,5.188412924432127e-07,2.660904270373419e-05
3.2409404649317164e-07,8.002995144688037e-07,5.18362685026535e-07,2.667519988169924e-05
3.2621047215857645e-07,8.016005879514024e-07,5.184048431923883e-07,2.674272433072501e-05
3.285802749497161e-07,8.033841508371217e-07,5.190007705195615e-07,2.6811401865428892e-05
3.3119941115003297e-07,8.056137278111595e-07,5.20174366040531e-07,2.688105640904485e-05
3.3406001524023127e-07,8.082478299756449e-07,5.219369917954373e-07,2.6951508963577606e-05
3.371505239571597e-07,8.112403977505891e-07,5.242873374237268e-07,2.702252816575767e-05
3.40457239046202e-07,8.145446925995901e-07,5.272163468702586e-07,2.7093767979484425e-05
3.4396641958340385e-07,8.18115176500597e-07,5.307169647219146e-07,2.716470673840279e-05
3.4766580235530873e-07,8.219057213502784e-07,5.347925047032768e-07,2.723463523743408e-05
3.5154424432339874e-07,8.258676599290128e-07,5.394569106175117e-07,2.7302749750691385e-05
3.555908070631228e-07,8.299518902693589e-07,5.447280455482833e-07,2.736830067456672e-05
3.597954836706692e-07,8.341144633678069e-07,5.506189307339111e-07,2.7430674798446413e-05
3.6414963438503925e-07,8.383186683810593e-07,5.571305586253161e-07,2.748938042311369e-05
3.686442171124135e-07,8.425304855309685e-07,5.642491880237067e-07,2.7543997163339886e-05
3.7326800418045885e-07,8.467136330965772e-07,5.719483549976996e-07,2.75941485833776e-05
3.780075425308338e-07,8.508295888515938e-07,5.801938502225913e-07,2.7639488702938347e-05
3.828482062427115e-07,8.548421611073519e-07,5.889503715577489e-07,2.7679644823492925e-05
3.87775059944612e-07,8.587226092864706e-07,5.981870496984649e-07,2.7714137958381053e-05
3.927720993834419e-07,8.624517236063877e-07,6.078777920427936e-07,2.774237150058244e-05
3.97820543981709e-07,8.660199971345467e-07,6.179962097775596e-07,2.776370055033957e-05
4.028980309065016e-07,8.694275098335466e-07,6.285103254311034e-07,2.7777529779536485e-05
4.079785494200462e-07,8.7268388644326e-07,6.393815354918534e-07,2.778342987816765e-05
4.130327547969947e-07,8.758082994987968e-07,6.50568245933873e-07,2.7781279539286894e-05
4.1802897326253365e-07,8.78825662111108e-07,6.620355428426078e-07,2.777136397175076e-05
4.229346345699057e-07,8.81757906884152e-07,6.73769131385678e-07,2.7754332475578853e-05
4.277175842759951e-07,8.846172572197192e-07,6.857832668491585e-07,2.773101298574613e-05
4.323471310833704e-07,8.874065844857031e-07,6.981166186503503e-07,2.7702172589027986e-05
4.367946885394883e-07,8.90122963576903e-07,7.108200597061979e-07,2.766833335486236e-05
4.410332454227106e-07,8.927586510844784e-07,7.239416759239439e-07,2.762970420623796e-05
4.4503616925489847e-07,8.953011561302506e-07,7.375138328174609e-07,2.758619376752169e-05
4.4877719256500814e-07,8.977365086700813e-07,7.515466793991311e-07,2.753746058988759e-05
4.5223210379035895e-07,9.00055627554802e-07,7.660280581578544e-07,2.748305873163472e-05
4.5538111845191794e-07,9.022629601674282e-07,7.809271773300205e-07,2.7422727936274026e-05
4.582102108062028e-07,9.043850024803785e-07,7.961997893118127e-07,2.735665614580037e-05
4.6071023050497467e-07,9.064735830504192e-07,8.117915014004738e-07,2.7285459721239603e-05
4.628745304270907e-07,9.086022654525957e-07,8.276379283291039e-07,2.72099172173535e-05
4.6469665659959257e-07,9.108585593855169e-07,8.436648002660938e-07,2.713070904773309e-05
4.661691560358322e-07,9.133339515725485e-07,8.597903255198519e-07,2.704832984020936e-05
4.6728445823107203e-07,9.16112858151218e-07,8.759296552280661e-07,2.6963259869632685e-05
4.6803807586708725e-07,9.192632262677931e-07,8.920011968498621e-07,2.6876342717210237e-05
4.684314445187893e-07,9.228322519217742e-07,9.07933319437484e-07,2.6789071780651e-05
4.6847118583003514e-07,9.268474140184469e-07,9.236677203537327e-07,2.670356579618473e-05
4.6816685898959656e-07,9.313191156714359e-07,9.391576324505808e-07,2.662234905469147e-05
4.6753050552816314e-07,9.362425558297585e-07,9.543628316273135e-07,2.6548137824067115e-05
4.6657664436335727e-07,9.415996026690607e-07,9.692443557081905e-07,2.648368527744227e-05
4.653225822317869e-07,9.473613739543256e-07,9.837617727337582e-07,2.6431640521191392e-05
4.637900129080367e-07,9.534910038020649e-07,9.978728668973156e-07,2.6394391968728124e-05
4.620041784297944e-07,9.599472609246707e-07,1.0115323642879877e-06,2.6373938401516774e-05
4.599893699904601e-07,9.666916175019354e-07,1.0246899606143586e-06,2.6371846577218367e-05
4.577655635262599e-07,9.73698069513593e-07,1.0372905177786929e-06,2.6389261168831486e-05
4.5534822837112684e-07,9.809597658267923e-07,1.0492757729957063e-06,2.642687777464017e-05
4.5274919725403405e-07,9.884878174884398e-07,1.060585874626633e-06,2.648487006380409e-05
4.49977641801011e-07,9.963046061508615e-07,1.0711603975840585e-06,2.656285628075284e-05
4.470416195268389e-07,1.0044368364327556e-06,1.0809392394550005e-06,2.665996339864361e-05
4.4394922011822434e-07,1.0129085942132576e-06,1.0898641563920955e-06,2.6774960425841885e-05
4.407080037770317e-07,1.0217339963113085e-06,1.097879814836079e-06,2.6906416194379026e-05
4.373239761804283e-07,1.0309126581287225e-06,1.1049342094962488e-06,2.705285048083636e-05
4.3380142438859226e-07,1.0404280448349523e-06,1.1109811277639948e-06,2.721282673386913e-05
4.3014351173118276e-07,1.0502477245663671e-06,1.1159844660075144e-06,2.738496441902981e-05
4.263538679662168e-07,1.0603265397686069e-06,1.119921680236838e-06,2.756791229796629e-05
4.224379065668457e-07,1.0706102703428757e-06,1.12278465893928e-06,2.776031404294728e-05
4.1840254928161434e-07,1.081037887558522e-06,1.1245762123697277e-06,2.796075885969218e-05
4.142566859337965e-07,1.0915449983822958e-06,1.1253036601326568e-06,2.8167707801514685e-05
4.100138846069278e-07,1.1020683464963994e-06,1.1249754372640434e-06,2.8379412664880214e-05
4.056945149907247e-07,1.112547055173041e-06,1.1236017680349829e-06,2.859388671178249e-05
4.013248187996449e-07,1.1229193173237148e-06,1.1211948374022574e-06,2.8808995725375537e-05
3.9693416470979313e-07,1.1331179353754344e-06,1.1177687186710806e-06,2.902264048864765e-05
3.9255208885529407e-07,1.1430680932012191e-06,1.1133422337100948e-06,2.9232876356258226e-05
3.8820552112331975e-07,1.1526879177346762e-06,1.1079419469072815e-06,2.9437879312915405e-05
3.839183417055107e-07,1.161890809412968e-06,1.101602024796267e-06,2.9635847034564925e-05
3.797141782430914e-07,1.1705899215544005e-06,1.0943638644754386e-06,2.9824940432952698e-05
3.7561811686977686e-07,1.178706386587105e-06,1.0862769164928436e-06,3.000328091735933e-05
3.716540672727808e-07,1.1861780573911112e-06,1.0773976032691489e-06,3.0168976229160718e-05
3.678407957016944e-07,1.1929606282830894e-06,1.0677859383181204e-06,3.0320138835389916e-05
3.6419051059544365e-07,1.1990200336644709e-06,1.057501831097995e-06,3.045489589377795e-05
3.6070985063347947e-07,1.2043245291399919e-06,1.0466020929170458e-06,3.057143874913467e-05
3.574013835842578e-07,1.208842703052314e-06,1.0351395114374505e-06,3.0668142103120515e-05
3.542646365477932e-07,1.2125483128725737e-06,1.0231636938199566e-06,3.0743736594952554e-05
3.5129648571723e-07,1.2154288905916813e-06,1.010720726147878e-06,3.079749606258583e-05
3.484917385502721e-07,1.2174904777436262e-06,9.97851188720733e-07,3.082935429045957e-05
3.4584497461369763e-07,1.2187541700626413e-06,9.845890857352942e-07,3.083985478315967e-05
3.433525386290771e-07,1.2192496677618174e-06,9.709627522126577e-07,3.082994246589981e-05
3.410135090848177e-07,1.2190154205222309e-06,9.56996911154339e-07,3.080069033867129e-05
3.388308298534961e-07,1.2181074114999315e-06,9.427146372472576e-07,3.075306654864585e-05
3.368123219391725e-07,1.2166064948682987e-06,9.281387914206022e-07,3.0687832514731326e-05
3.3497034860650765e-07,1.2146172105006722e-06,9.13293601602351e-07,3.060556650954452e-05
3.333211029829861e-07,1.2122628351038168e-06,8.98205926057394e-07,3.050671781604179e-05
3.318831145382579e-07,1.2096805872011968e-06,8.82904885735915e-07,3.0391680624536377e-05
3.306736863753668e-07,1.2070150612881614e-06,8.674201063499459e-07,3.0261003865927147e-05
3.297051665019257e-07,1.2044097209692098e-06,8.517803277227628e-07,3.0115688779393718e-05
3.289834196907597e-07,1.2019982487380104e-06,8.360137663696818e-07,2.9957303575735047e-05
3.2850836134735265e-07,1.1998964485506665e-06,8.201489605866798e-07,2.978783680074407e-05
3.28275902143135e-07,1.198195449577978e-06,8.042138354454786e-07,2.960946404124067e-05
3.2828151552605856e-07,1.1969584978640994e-06,7.882348427577136e-07,2.942434287934431e-05
3.285237657255181e-07,1.1962229563493934e-06,7.722388885544412e-07,2.9234496650483196e-05
3.2900408677686727e-07,1.196004363270523e-06,7.562545487242873e-07,2.904190926038399e-05
3.297229205004147e-07,1.1962989903141902e-06,7.403098510782064e-07,2.884878839344792e-05
3.306765658289788e-07,1.197086777676007e-06,7.244306229640142e-07,2.8657714235634022e-05
3.3185678350291373e-07,1.1983387705346485e-06,7.086405834576292e-07,2.8471534356981652e-05
3.332518406485001e-07,1.200030021253704e-06,6.929608279888512e-07,2.829311878752505e-05
3.348476231518854e-07,1.2021521267076476e-06,6.774097953702114e-07,2.81251182225893e-05
3.3662811216820285e-07,1.2047176368606457e-06,6.620044721686447e-07,2.796980358186178e-05
3.3857545796959977e-07,1.2077560645117523e-06,6.467619485670857e-07,2.782899029929511e-05
3.4067011777848823e-07,1.2113066211340251e-06,6.317008657306397e-07,2.770403436563613e-05
3.4289114538217967e-07,1.2154106241417076e-06,6.168413769076979e-07,2.7595908326759947e-05
3.452173339419996e-07,1.220103860305616e-06,6.022041861971688e-07,2.7505310248997552e-05
3.476290136348624e-07,1.225410088036299e-06,5.878108209304885e-07,2.7432704221020488e-05
3.501093811489437e-07,1.2313375385716437e-06,5.736838458064016e-07,2.737826313705465e-05
3.52645441040726e-07,1.237878378820337e-06,5.598448413354217e-07,2.734178621696232e-05
3.5522917521753866e-07,1.2450112467358464e-06,5.463120613168715e-07,2.7322655712944188e-05
3.57858761740489e-07,1.25270625910848e-06,5.331006171832189e-07,2.7319844672512453e-05
3.605380848831096e-07,1.26092659354382e-06,5.202237840544131e-07,2.73319760531995e-05
3.632731937182279e-07,1.2696237080480002e-06,5.076926355007702e-07,2.735743803259372e-05
3.6606805170750716e-07,1.278733415281822e-06,4.955147024875464e-07,2.739452971659809e-05
3.6892264232617137e-07,1.288177768862312e-06,4.836939014569768e-07,2.744156880376932e-05
3.718329485411096e-07,1.297868983665111e-06,4.7223187430237637e-07,2.7496916987713188e-05
3.747912621863889e-07,1.3077130629739214e-06,4.611291142381346e-07,2.7558942662809552e-05
3.777869024632293e-07,1.3176137002018082e-06,4.503850995107007e-07,2.7625964403189124e-05
3.80807544537155e-07,1.327474313538848e-06,4.399984306890869e-07,2.7696211990224573e-05
3.838404984389524e-07,1.3371973751378815e-06,4.2996822915020934e-07,2.7767840956584856e-05
3.868731209529203e-07,1.3466851568346693e-06,4.202969636624323e-07,2.7839022322325482e-05
3.8989203220032453e-07,1.3558445779637886e-06,4.109923928811429e-07,2.79080999635428e-05
3.9288160510457464e-07,1.3645919326756642e-06,4.0206665446207255e-07,2.797376995597557e-05
3.958230227047574e-07,1.3728528278294643e-06,3.935368628986048e-07,2.8035186944404572e-05
3.986951349147184e-07,1.3805585567678514e-06,3.854300347860256e-07,2.8091934745894707e-05
4.014765135181303e-07,1.387643271105656e-06,3.777853593450128e-07,2.8143906954685326e-05
4.041463912876095e-07,1.3940466788459886e-06,3.706500637353309e-07,2.8191188539446996e-05
4.066838658783022e-07,1.3997206302841095e-06,3.640739094130478e-07,2.8233976780386906e-05
4.090674913878381e-07,1.4046302393158956e-06,3.58104755411586e-07,2.8272490719415362e-05
4.1127661110749134e-07,1.4087476348455006e-06,3.527839514685301e-07,2.830683726622979e-05
4.132932031664634e-07,1.4120460557845938e-06,3.4814278557953897e-07,2.8336931193578417e-05
4.1510242480975387e-07,1.4144976172682976e-06,3.442022351144352e-07,2.8362550170533948e-05
4.166918371112119e-07,1.416072742568609e-06,3.409743891763764e-07,2.8383466007125872e-05
4.1805112431378395e-07,1.416740536450465e-06,3.384626052361959e-07,2.839959323810924e-05
4.191729188447372e-07,1.4164708142343866e-06,3.366614513374687e-07,2.8411173935198475e-05
4.2005277351883813e-07,1.4152369714685557e-06,3.355581563802329e-07,2.8418966216256006e-05
4.206874170757914e-07,1.4130170234064008e-06,3.351348806117098e-07,2.84243111251849e-05
4.210729751250869e-07,1.4097937302576428e-06,3.353700608458518e-07,2.842901174163811e-05
4.2120465505545703e-07,1.405557370273705e-06,3.362374689522945e-07,2.843508334220777e-05
4.210776731155376e-07,1.4003089911379178e-06,3.3770454699226213e-07,2.844447782181198e-05
4.206878907156336e-07,1.3940599683110226e-06,3.3973233407918803e-07,2.8458875360404907e-05
4.2003146693847646e-07,1.3868291443433347e-06,3.422765411737809e-07,2.847958210330204e-05
4.19104276064726e-07,1.3786408973936391e-06,3.45288873482552e-07,2.850752041101739e-05
4.179015737302961e-07,1.3695257389226185e-06,3.487184667587471e-07,2.8543329247499267e-05
4.164182525288376e-07,1.3595224017917726e-06,3.5251289914902857e-07,2.858762028701369e-05
4.146504302607829e-07,1.348677906125712e-06,3.566190797940033e-07,2.864129326889782e-05
4.1259799765697153e-07,1.337044467479385e-06,3.6098576686794725e-07,2.870564726044726e-05
4.102657479485076e-07,1.3246769583763338e-06,3.655682923867533e-07,2.878218735397193e-05
4.076622452622068e-07,1.3116326788162071e-06,3.7033297895528287e-07,2.887232606796881e-05
4.0479912672164796e-07,1.2979704341485914e-06,3.7525798604206745e-07,2.8977162918865563e-05
4.0169200866025855e-07,1.2837477709589052e-06,3.803303333887761e-07,2.9097400562135838e-05
3.9836106036636526e-07,1.269018166740321e-06,3.855413606617461e-07,2.923349414659106e-05
3.9483001352474495e-07,1.2538292748087907e-06,3.908829332078928e-07,2.9385993063240368e-05
3.911238795179209e-07,1.2382231316507386e-06,3.9634567297524647e-07,2.9555778880222767e-05
3.8726756117163634e-07,1.2222386911992389e-06,4.019184199610985e-07,2.9744039517513758e-05
3.8328762969124243e-07,1.2059141886040962e-06,4.0758732637086665e-07,2.995210222660395e-05
3.792149450797704e-07,1.189286558264946e-06,4.133355438946522e-07,3.0181267890823492e-05
3.7508421736165977e-07,1.172390014822074e-06,4.1914562568714643e-07,3.0432699623840387e-05
3.709309331441558e-07,1.1552585671903174e-06,4.250025629015618e-07,3.0707355320399354e-05
3.6678836829145755e-07,1.1379328388464502e-06,4.308933296401957e-07,3.100593871339637e-05
3.6268604679341283e-07,1.1204660561384683e-06,4.368035805516203e-07,3.132887473323115e-05
3.586496106972191e-07,1.102923216111191e-06,4.4271561556814974e-07,3.16763094160302e-05
3.547009152108849e-07,1.0853729808560317e-06,4.486099886657917e-07,3.2048094369585086e-05
3.508575029561914e-07,1.0678793984144452e-06,4.5446997719583475e-07,3.244372617542504e-05
3.4713219218212105e-07,1.050498569788713e-06,4.6028612711883256e-07,3.286226296165975e-05
3.43533392293218e-07,1.0332774299307828e-06,4.6605852537154886e-07,3.33022509079943e-05
3.400659891239736e-07,1.0162524056215313e-06,4.717976840866557e-07,3.376167781341186e-05
3.367324363632909e-07,9.99449445722992e-07,4.775261730038386e-07,3.423798610421876e-05
3.335335368814121e-07,9.828855858062954e-07,4.832789882531995e-07,3.472818696342034e-05
3.304688509979641e-07,9.665715618283248e-07,4.890993973794004e-07,3.522906280190934e-05
3.2753806021464274e-07,9.505146550583203e-07,4.95032207128666e-07,3.573737408946533e-05
3.247443448962557e-07,9.347197579825321e-07,5.011180455397613e-07,3.6249994332296735e-05
3.220967282652e-07,9.1918930824461e-07,5.073896499632555e-07,3.676396016217435e-05
3.1960754095183936e-07,9.039257900532192e-07,5.138719976951433e-07,3.727646738172994e-05
3.172874527688054e-07,8.88938217742798e-07,5.205876143992842e-07,3.778484974816039e-05
3.1514310182952586e-07,8.742487181373289e-07,5.275630991189194e-07,3.8286543328652725e-05
3.131776042490091e-07,8.598944370591973e-07,5.348325383962932e-07,3.877901672777144e-05
3.1139203584074675e-07,8.459235504412366e-07,5.424377130868422e-07,3.9259688437646494e-05
3.0978700057269866e-07,8.323877338110969e-07,5.504240446350932e-07,3.97259068879336e-05
3.083628415957662e-07,8.193381555054171e-07,5.588316438704694e-07,4.017502222560072e-05
3.0711835702872546e-07,8.068285843308617e-07,5.676878223266087e-07,4.060447213440436e-05
3.060497696711925e-07,7.949177926101366e-07,5.77005373595412e-07,4.101182787208908e-05
3.05150642981749e-07,7.836650747815496e-07,5.867827818974426e-07,4.139483918633452e-05
3.0441267905465e-07,7.731228114119589e-07,5.970061147245039e-07,4.1751498064929496e-05
3.038273218205463e-07,7.633308698760576e-07,6.076557612426193e-07,4.208006037366796e-05
3.0338780069469066e-07,7.543140942932892e-07,6.187132171477076e-07,4.237896970034732e-05
3.0309129449059506e-07,7.460829767456234e-07,6.301603134567014e-07,4.2646757510969314e-05
3.029400216607663e-07,7.386354648943507e-07,6.419727366727028e-07,4.288203354780893e-05
3.0293978780988077e-07,7.319576432626877e-07,6.541160416973544e-07,4.308355006060303e-05
3.0309686202521035e-07,7.260258603843603e-07,6.66547479684582e-07,4.3250266841317774e-05
3.0341529795784824e-07,7.208125252004894e-07,6.792214009275325e-07,4.338137849360874e-05
3.038961833310141e-07,7.162904868641785e-07,6.920960405470258e-07,4.347628281486111e-05
3.045390232934284e-07,7.124318038416955e-07,7.051395422868469e-07,4.3534506599573686e-05
3.053430280494913e-07,7.0920588725219e-07,7.183321299187093e-07,4.355563517954584e-05
3.063063784920591e-07,7.065829539846586e-07,7.316622866192951e-07,4.353929770982636e-05
3.074244458771025e-07,7.045417337551004e-07,7.451179179249329e-07,4.3485229052929416e-05
3.086890820904372e-07,7.030752072908303e-07,7.586778242805705e-07,4.3393331668576985e-05
3.1008981159907305e-07,7.021872507159951e-07,7.723087845375854e-07,4.326364414736507e-05
3.116161077921794e-07,7.018812385948461e-07,7.859675880144935e-07,4.309625389392646e-05
3.132599774362833e-07,7.02151191460733e-07,7.996040660228797e-07,4.2891302404866996e-05
3.150171935992884e-07,7.029810006158235e-07,8.131628548100882e-07,4.264921223036544e-05
3.168854731657733e-07,7.043467667815027e-07,8.26583434850202e-07,4.237103224932085e-05
3.188614388049997e-07,7.062174684040935e-07,8.398008253097698e-07,4.205852365094353e-05
3.20939358937832e-07,7.085544562344677e-07,8.52751740461528e-07,4.1713822838130686e-05
3.23112041829462e-07,7.113111993502582e-07,8.653849823131144e-07,4.133901694780421e-05
3.2537181727159056e-07,7.144338624603371e-07,8.776655030124958e-07,4.0935963990946204e-05
3.2770995246786643e-07,7.178631099982184e-07,8.895674678723991e-07,4.050632084052574e-05
3.301158249074769e-07,7.215370063613369e-07,9.010662289846749e-07,4.005161360915932e-05
3.325779203196526e-07,7.253959183509785e-07,9.121365663523529e-07,3.957328260544109e-05
3.350853592431465e-07,7.293901130797074e-07,9.227531422751104e-07,3.907271432870896e-05
3.3762722262643663e-07,7.334859108211119e-07,9.328902138276312e-07,3.855127181960109e-05
3.401905976682144e-07,7.376648693342157e-07,9.425223731831526e-07,3.80103120593568e-05
3.4276017107949877e-07,7.419161978425916e-07,9.516273512532434e-07,3.745119669320165e-05
3.4531975590260766e-07,7.462280153505723e-07,9.601902546275385e-07,3.687530849375146e-05
3.4785420746798586e-07,7.505841107190169e-07,9.682063695167007e-07,3.6284055811840494e-05
3.503504198124951e-07,7.549678406867484e-07,9.756792593692088e-07,3.5678853079553795e-05
3.527968037506878e-07,7.593666940159034e-07,9.826148079647275e-07,3.506111111046318e-05
3.5518155018732466e-07,7.637709872657349e-07,9.890165853639744e-07,3.443225971526697e-05
3.5749171426158773e-07,7.681695189605127e-07,9.948874510962476e-07,3.3793747336596524e-05
3.597147073873435e-07,7.725496295861842e-07,1.0002350129532095e-06,3.314697790011861e-05
3.618400968234265e-07,7.76901612027853e-07,1.0050750804882539e-06,3.2493264880541826e-05
3.638589671764297e-07,7.812200309449123e-07,1.009431277323513e-06,3.1833881076846944e-05
3.6576221356829367e-07,7.854989958852416e-07,1.013331098471205e-06,3.1170165675188915e-05
3.675411855965753e-07,7.897262807641734e-07,1.0167993433933706e-06,3.050361804239524e-05
3.691908504010875e-07,7.938816736121142e-07,1.0198524355879757e-06,2.9835939589195363e-05
3.70711546123186e-07,7.979416966184602e-07,1.0224971626431087e-06,2.916901333224855e-05
3.721070087863853e-07,8.018880092883791e-07,1.02473371120852e-06,2.8504862189172603e-05
3.733814463808422e-07,8.057117530990338e-07,1.0265596175338048e-06,2.784563776961706e-05
3.745382588859193e-07,8.094101590397666e-07,1.0279715579901527e-06,2.719362482846081e-05
3.7557982480703243e-07,8.129812537302369e-07,1.0289650999160726e-06,2.655119863034067e-05
3.765077384861381e-07,8.164216544527173e-07,1.0295338156944516e-06,2.5920699922519878e-05
3.773237457764078e-07,8.197254630426354e-07,1.0296680618241215e-06,2.530426196466841e-05
3.780307420232807e-07,8.228828251658688e-07,1.0293540137851271e-06,2.4703681055876385e-05
3.7863213786005065e-07,8.258789774957651e-07,1.0285738637916359e-06,2.412043237696973e-05
3.7912962948355926e-07,8.286939726753989e-07,1.0273072623011149e-06,2.355586173019549e-05
3.795219746073888e-07,8.313039070692047e-07,1.0255333069426918e-06,2.3011416933983663e-05
3.7980689583944594e-07,8.336823700860955e-07,1.0232315551873607e-06,2.2488726056172614e-05
3.7998523818102496e-07,8.358004383714224e-07,1.0203815437521442e-06,2.1989530987482183e-05
3.800632522848919e-07,8.376276034610138e-07,1.0169634253756807e-06,2.151562934072023e-05
3.800510586160475e-07,8.391336459543006e-07,1.0129619665238e-06,2.106888115367101e-05
3.7996131073624295e-07,8.402892901316697e-07,1.0083710685157489e-06,2.0651221883256207e-05
3.79810140658525e-07,8.410674517385148e-07,1.0031943264638286e-06,2.0264581722383152e-05
3.7961690380306076e-07,8.414449523791327e-07,9.9744178666906e-07,1.9910681387627515e-05
3.7940127306492686e-07,8.414015476146448e-07,9.911266355843264e-07,1.959082419397455e-05
3.791804377976337e-07,8.409178049978046e-07,9.84263696893534e-07,1.930578560220097e-05
3.7896810189061973e-07,8.39976626434607e-07,9.768685528167024e-07,1.9055776601384067e-05
3.7877399243880036e-07,8.385704981041545e-07,9.689569822693442e-07,1.884045211019354e-05
3.786032781178056e-07,8.367102048605635e-07,9.60546763202241e-07,1.865896066000032e-05
3.7845736541801244e-07,8.344275504701091e-07,9.516620117568981e-07,1.8510016741405748e-05
3.783360645234158e-07,8.317709129400527e-07,9.423363731555551e-07,1.839198288119793e-05
3.782389588905443e-07,8.287975095319275e-07,9.326112879534788e-07,1.8302961947774906e-05
3.781649537503658e-07,8.255659652287967e-07,9.225300191916407e-07,1.824088746685716e-05
3.7811153865022104e-07,8.221335726263369e-07,9.121322232265163e-07,1.820358093002292e-05
3.780757178106329e-07,8.185591211007044e-07,9.014517564563886e-07,1.818878484939973e-05
3.780554030851961e-07,8.14906396129444e-07,8.90516524729262e-07,1.8194223549816542e-05
3.780487287356492e-07,8.112433355854426e-07,8.793492766992523e-07,1.821771975332564e-05
3.780527201647341e-07,8.076359304588904e-07,8.679689794051044e-07,1.825736928078888e-05
3.7806368290821546e-07,8.041412640253346e-07,8.56393221991837e-07,1.8311686351218564e-05
3.780785984080463e-07,8.008047404131817e-07,8.44642457486777e-07,1.8379550924629323e-05
3.780966263302952e-07,7.976627177241445e-07,8.327431488913928e-07,1.845999621680956e-05
3.781201008983162e-07,7.947480521904451e-07,8.207258300359066e-07,1.855208371969715e-05
3.7815423307743907e-07,7.920930629556175e-07,8.086206731422291e-07,1.865494465893876e-05
3.78205797918695e-07,7.897269623394965e-07,7.9645535666968e-07,1.8767865423049082e-05
3.78281521398036e-07,7.876713804554696e-07,7.842546707889981e-07,1.88903263549458e-05
3.7838704564218117e-07,7.859393321898788e-07,7.720399110198905e-07,1.9021983767374705e-05
3.785266901454968e-07,7.845377126112484e-07,7.59828330046329e-07,1.916261696021049e-05
3.78703297419089e-07,7.834691615313371e-07,7.476333664394625e-07,1.9312050774321306e-05
3.7891844216840256e-07,7.827327619753355e-07,7.354658681966023e-07,1.9470048851126403e-05
3.7917360377448e-07,7.823253074990139e-07,7.233352339277975e-07,1.9636191727468066e-05
3.794714720981947e-07,7.822409282275438e-07,7.112493648509095e-07,1.9809780572493584e-05
3.7981611426446815e-07,7.82467679735834e-07,6.992139481079467e-07,1.998982011253037e-05
3.8021153833279364e-07,7.829846186464778e-07,6.872325689564161e-07,2.01751148367364e-05
3.806595304956811e-07,7.837619930727062e-07,6.753086489741716e-07,2.0364463152619247e-05
3.8115852134976896e-07,7.847635363103665e-07,6.634471775607521e-07,2.055688039160757e-05
