3.902542231897275e-07,6.686452062710651e-07,1.0476336473020766e-06,2.1239710360853844e-05
3.916373281869382e-07,6.705877677791307e-07,1.049250327921243e-06,2.1180847439972783e-05
3.929925604176287e-07,6.725370032949261e-07,1.050423755175769e-06,2.113085271019143e-05
3.9431965317367146e-07,6.74478035891391e-07,1.0511693922320406e-06,2.109017199543284e-05
3.956156922325821e-07,6.76392363325044e-07,1.05149555412745e-06,2.1058890854515306e-05
3.968793436586903e-07,6.782600187420032e-07,1.0514016252698582e-06,2.103690337234888e-05
3.9811386903794116e-07,6.80061256424872e-07,1.050878931778906e-06,2.1024218639857345e-05
3.993266914030689e-07,6.817789378796572e-07,1.0499129881664579e-06,2.1021220464959925e-05
4.005265963008587e-07,6.834024850179077e-07,1.0484882757261808e-06,2.102863871971617e-05
4.017208109900911e-07,6.849303142810375e-07,1.0465940612329972e-06,2.1047282073617045e-05
4.0291367489419716e-07,6.863684494005602e-07,1.0442274125700741e-06,2.1077794648967368e-05
4.041062996137345e-07,6.877282545610887e-07,1.0413928777844169e-06,2.1120658087860228e-05
4.05295688163878e-07,6.890248313678994e-07,1.0381004292576166e-06,2.1176442668973355e-05
4.064742787382778e-07,6.902743099752561e-07,1.0343630690031308e-06,2.124603244021028e-05
4.076310454423476e-07,6.914904232065953e-07,1.0301968307198351e-06,2.133061721708349e-05
4.087535386123775e-07,6.92681645730759e-07,1.025623807332058e-06,2.143155277940402e-05
4.0983112302431594e-07,6.938494440609482e-07,1.0206734910447641e-06,2.1550235610346668e-05
4.1085847101753996e-07,6.949889230988065e-07,1.0153798863056016e-06,2.168801563820889e-05
4.1183535522105045e-07,6.960912737201867e-07,1.0097806411092658e-06,2.184613884086051e-05
4.127625894703666e-07,6.97145284823647e-07,1.0039226931898466e-06,2.202571321235088e-05
4.13639556692445e-07,6.981373395646839e-07,9.97868802675289e-07,2.222766845601364e-05
4.144654489319176e-07,6.990521993111222e-07,9.916989337448998e-07,2.2452699207417898e-05
4.152405529100554e-07,6.998760486602538e-07,9.855052776681052e-07,2.2701226881163628e-05
4.1596567363008257e-07,7.0060006615283e-07,9.793823723292653e-07,2.2973391361479528e-05
4.166413796648036e-07,7.012230946367775e-07,9.734172679358316e-07,2.3269039933283755e-05
4.172674004867048e-07,7.017524519164657e-07,9.676836853244336e-07,2.358769267947127e-05
4.178418292550577e-07,7.022001427155072e-07,9.62239430744212e-07,2.392848253596493e-05
4.1836138575950976e-07,7.025762043376587e-07,9.571277553214085e-07,2.4290087666628195e-05
4.188229604256151e-07,7.028846754797506e-07,9.523851219750851e-07,2.467072526627013e-05
4.192247953903986e-07,7.031233923549335e-07,9.480511516690109e-07,2.506825199557229e-05
4.195658907410467e-07,7.032852973199386e-07,9.441722649285291e-07,2.548030518268113e-05
4.1984439982876854e-07,7.033589030161981e-07,9.407976831847069e-07,2.590441115821145e-05
4.200570484874823e-07,7.033277906521474e-07,9.379738180511469e-07,2.6338073099612078e-05
4.201998488157961e-07,7.031713032131615e-07,9.357405709409876e-07,2.67788628398401e-05
4.202696491694417e-07,7.028678020595061e-07,9.341306018748688e-07,2.722449015744385e-05
4.202653763470101e-07,7.023985475381029e-07,9.33177211914777e-07,2.7672825703704638e-05
4.201867055084364e-07,7.017480502383739e-07,9.329321464997223e-07,2.812189980519984e-05
4.2003150086559183e-07,7.00900899399796e-07,9.334811677866495e-07,2.856988963679992e-05
4.197954355821793e-07,6.998397860226065e-07,9.349459206679902e-07,2.9015058659621003e-05
4.1947403998124974e-07,6.985479334713881e-07,9.374726186946308e-07,2.94556315639562e-05
4.19065711121106e-07,6.970159310114718e-07,9.412137661691695e-07,2.9889676997076442e-05
4.1857339604885935e-07,6.952488065552796e-07,9.46309138466863e-07,3.0315071691770508e-05
4.180029899711668e-07,6.93266508356619e-07,9.528703027390005e-07,3.0729530848400045e-05
4.173601787956972e-07,6.910972416119214e-07,9.609702986087128e-07,3.113066425633233e-05
4.1664911769422655e-07,6.887704716317405e-07,9.70639635085334e-07,3.1516022979541306e-05
4.1587406226230725e-07,6.863131924700027e-07,9.818687565830477e-07,3.1883134133200484e-05
4.1504213849957756e-07,6.837483538187945e-07,9.946139271880705e-07,3.22295592844578e-05
4.141646755978337e-07,6.810950195733721e-07,1.0088033762520278e-06,3.2552964446045225e-05
4.1325652693100036e-07,6.783695018727411e-07,1.0243438771047103e-06,3.285121478242458e-05
4.123340375095155e-07,6.755866702903429e-07,1.041128309353432e-06,3.3122534909588505e-05
4.114124699589296e-07,6.727606717755561e-07,1.059042213153826e-06,3.3365635714374164e-05
4.105037236978979e-07,6.69903221027896e-07,1.0779679667753502e-06,3.3579695563848704e-05
4.096145787757947e-07,6.670204107749678e-07,1.0977878731234477e-06,3.3764236084283915e-05
4.087459752793945e-07,6.641117177027233e-07,1.1183861287638944e-06,3.391896561383188e-05
4.078935958662692e-07,6.611722012961297e-07,1.139648044629332e-06,3.404363739886377e-05
4.0704880305701816e-07,6.581949638250526e-07,1.1614579164487528e-06,3.4137989584618793e-05
4.061997567473941e-07,6.551717801128771e-07,1.1836976201412724e-06,3.420180314391483e-05
4.053334259006381e-07,6.520934500665373e-07,1.2062460891152126e-06,3.423500814060615e-05
4.044375338932926e-07,6.489515564666006e-07,1.2289810094179987e-06,3.4237719682465977e-05
4.035010326860189e-07,6.457410137918689e-07,1.251782229678647e-06,3.4210171665425174e-05
4.0251375409582953e-07,6.424616878954879e-07,1.2745325961652169e-06,3.4152632727825565e-05
4.014670533515565e-07,6.39117632017388e-07,1.2971143952699888e-06,3.4065446667130264e-05
4.003555092771697e-07,6.357138443670208e-07,1.3194049732146559e-06,3.3949265984525735e-05
3.991769170893333e-07,6.322528806454023e-07,1.3412759374768142e-06,3.380527202835022e-05
3.979300205380721e-07,6.287347367325543e-07,1.3625952779299382e-06,3.363510733247441e-05
3.966129919960235e-07,6.25160315632399e-07,1.38322978717886e-06,3.344066113124501e-05
3.952236526062846e-07,6.215346086789705e-07,1.4030484882253142e-06,3.322399934645746e-05
3.937598722469583e-07,6.178662273952961e-07,1.421926613065089e-06,3.298735587789776e-05
3.9221936672505933e-07,6.141640259979165e-07,1.4397474978821969e-06,3.273301403722589e-05
3.9059961157185003e-07,6.104336881036834e-07,1.4564034240788531e-06,3.246313979807517e-05
3.8889841654878457e-07,6.066762215507983e-07,1.4717984240369836e-06,3.217966512903985e-05
3.871146321400985e-07,6.02888420863715e-07,1.4858516192537975e-06,3.1884231336127285e-05
3.852481602859414e-07,5.990645737512582e-07,1.4984962244768029e-06,3.1578171387276416e-05
3.8329898630738225e-07,5.951993396616315e-07,1.509674043800863e-06,3.126253272813431e-05
3.8126650190673526e-07,5.912913708885211e-07,1.5193316488344338e-06,3.093813970235227e-05
3.7915043010762186e-07,5.87345003096342e-07,1.5274214799506158e-06,3.0605651579664284e-05
3.769516449458407e-07,5.833681556410633e-07,1.533903989010256e-06,3.026559227298826e-05
3.7467131221567476e-07,5.793693049754143e-07,1.5387476538167004e-06,2.991838151084881e-05
3.723100614035769e-07,5.753570198566768e-07,1.5419294248040357e-06,2.9564380167511346e-05
3.6986835598811066e-07,5.713421159008936e-07,1.543438965247857e-06,2.920392435230957e-05
3.67347995006626e-07,5.673400582486337e-07,1.5432845626960002e-06,2.883733498293244e-05
3.647546445632088e-07,5.633716100803307e-07,1.541493971948201e-06,2.846490400514813e-05
3.6209935705023714e-07,5.594631720667168e-07,1.538107383170684e-06,2.8086857869103474e-05
3.593972912994519e-07,5.556471095480723e-07,1.533167766907155e-06,2.770332385704213e-05
3.566652825737068e-07,5.519583606986041e-07,1.526715115672107e-06,2.73143328904202e-05
3.539200522668139e-07,5.48428392230769e-07,1.5187863746114444e-06,2.6919849592725728e-05
3.51176412669657e-07,5.450823316572296e-07,1.509418575559031e-06,2.651979861020089e-05
3.48445448238399e-07,5.419395604095865e-07,1.498651267270854e-06,2.61140826918622e-05
3.457339724678275e-07,5.390141905231723e-07,1.486526748670544e-06,2.570260533213341e-05
3.4304544848949234e-07,5.363149096067882e-07,1.4730898169530296e-06,2.528530654552156e-05
3.4038105809580896e-07,5.338448327722684e-07,1.4583879862400253e-06,2.48622040748686e-05
3.377399861661149e-07,5.316013031647532e-07,1.4424708506345904e-06,2.443340387889185e-05
3.35119685116654e-07,5.295762076451896e-07,1.425388825675469e-06,2.39990623859202e-05
3.325167001217537e-07,5.277570844156561e-07,1.4071942032879072e-06,2.355935157123035e-05
3.2992746927883384e-07,5.261291325689777e-07,1.3879438679699174e-06,2.3114497060721907e-05
3.273486752323512e-07,5.246799158282044e-07,1.367698703205575e-06,2.266490589941321e-05
3.2477726415953733e-07,5.234066833620599e-07,1.3465199424889613e-06,2.2211299274602622e-05
3.222109110134076e-07,5.223209367756355e-07,1.3244673304359541e-06,2.1754706798646648e-05
3.196493516783216e-07,5.214458183745172e-07,1.301599796289643e-06,2.1296318969362835e-05
3.1709501698027946e-07,5.208086950919116e-07,1.2779770875100734e-06,2.083735569406803e-05
3.1455142177115376e-07,5.204350360557275e-07,1.253661307153658e-06,2.037901892273229e-05
3.120206755119945e-07,5.203459453449542e-07,1.228716692564056e-06,1.992248962264978e-05
3.095024383405907e-07,5.205574026915685e-07,1.2032082044354976e-06,1.9468948854500878e-05
3.069947847043323e-07,5.210821879382591e-07,1.1772003382867629e-06,1.9019565642935413e-05
3.044963512721267e-07,5.219346955640999e-07,1.1507559793361657e-06,1.857543111812573e-05
3.0200843170779123e-07,5.231327112059325e-07,1.1239359800062342e-06,1.8137532622361762e-05
2.995354320084569e-07,5.246944233309503e-07,1.096799826933831e-06,1.7706811834643784e-05
2.970840365847739e-07,5.266355584772332e-07,1.069406687511945e-06,1.728425384921073e-05
2.946623829251216e-07,5.289686030538496e-07,1.0418167194701949e-06,1.687094706164549e-05
2.9227965066963547e-07,5.317036590342672e-07,1.0140915407562244e-06,1.6468081638571766e-05
2.8994633708426196e-07,5.348507098955682e-07,9.862927505770642e-07,1.6076880017688376e-05
2.876746429935138e-07,5.384207110823132e-07,9.584810238394805e-07,1.5698485873803797e-05
2.854777852910904e-07,5.424230711776296e-07,9.307182150106188e-07,1.5333880979360426e-05
2.833685897130619e-07,5.468608159431323e-07,9.030689178211372e-07,1.4983863934453742e-05
2.813581401793504e-07,5.517264859971478e-07,8.755981601970388e-07,1.46490473358585e-05
2.794548404299315e-07,5.570008789607908e-07,8.483686310213881e-07,1.4329855467017895e-05
2.776644208591404e-07,5.626547856698728e-07,8.214399008483072e-07,1.4026557577801947e-05
2.7599038092336e-07,5.686524816138947e-07,7.948678605739751e-07,1.3739389283374702e-05
2.7443390635902697e-07,5.749559021313504e-07,7.687041056169102e-07,1.3468783010758474e-05
2.729934884286779e-07,5.815281845871403e-07,7.429956773634851e-07,1.3215534778026781e-05
2.716647834590457e-07,5.883350179830515e-07,7.177848158663754e-07,1.298069548460602e-05
2.7044098972851945e-07,5.953438277182598e-07,6.931089121058384e-07,1.2765309236320579e-05
2.69313748144114e-07,6.025218398764795e-07,6.69000506227418e-07,1.2570243257616265e-05
2.6827399094540293e-07,6.098342977365265e-07,6.454875571325744e-07,1.2396118312261258e-05
2.673127208435255e-07,6.17243698491273e-07,6.225945608109944e-07,1.2243269949462624e-05
2.664218285036999e-07,6.247093747544602e-07,6.003439892156566e-07,1.2111749474546463e-05
2.655945640423767e-07,6.321867303480415e-07,5.787572659030062e-07,1.2001363042503136e-05
2.648263626773807e-07,6.39627093425555e-07,5.578558547868039e-07,1.191171464117345e-05
2.641156047974741e-07,6.469798904904437e-07,5.376633857956398e-07,1.184223836583141e-05
2.634626245550153e-07,6.541965090059222e-07,5.18206832374781e-07,1.1792227494820414e-05
2.628681303386119e-07,6.612334580352878e-07,4.995138177378353e-07,1.1760870861047059e-05
2.623325175647934e-07,6.680549280263147e-07,4.816077676590831e-07,1.1747301950966776e-05
2.618556562284432e-07,6.746355399193396e-07,4.645053445967494e-07,1.1750650720895034e-05
2.614371225746011e-07,6.809610782630354e-07,4.482171939240357e-07,1.1770068555095415e-05
2.610766233700077e-07,6.870252646884211e-07,4.327495355662489e-07,1.1804721441851867e-05
2.6077416898511054e-07,6.928243531857527e-07,4.1810448383411006e-07,1.1853787854453446e-05
2.6052968635454067e-07,6.983534292012818e-07,4.0427927511221697e-07,1.1916453236979464e-05
2.603418708061786e-07,7.036078659445835e-07,3.9126635248651083e-07,1.199185648472374e-05
2.6020727548092444e-07,7.085888481685141e-07,3.790550608009248e-07,1.2079019304917462e-05
2.601200582920733e-07,7.133072016019644e-07,3.676333313187722e-07,1.2176821913100164e-05
2.600722539555161e-07,7.177832703700418e-07,3.5698936380249134e-07,1.228402633480462e-05
2.600554664731811e-07,7.220448277062855e-07,3.471147344327675e-07,1.2399316884414185e-05
2.600629977548616e-07,7.261237496772804e-07,3.3800774837520963e-07,1.2521330369075998e-05
2.6009003950542586e-07,7.300530503172164e-07,3.2967549720410164e-07,1.264867080217331e-05
2.601326018827357e-07,7.338658186679009e-07,3.221338512486896e-07,1.2779949546762739e-05
2.6018697635642336e-07,7.375930340142038e-07,3.154035967120104e-07,1.291387052207885e-05
2.602498053186884e-07,7.412589401396239e-07,3.09503311967477e-07,1.3049304797356347e-05
2.603187890801184e-07,7.448781706778452e-07,3.044432143890302e-07,1.3185305046655465e-05
2.6039352964724324e-07,7.484562926651305e-07,3.002227226940081e-07,1.3321069061175835e-05
2.604750851454173e-07,7.519909045202917e-07,2.9683072532930606e-07,1.3455876404086306e-05
2.6056449960493734e-07,7.554718333917583e-07,2.942466560806294e-07,1.3589027011767736e-05
2.606619579701905e-07,7.588812540964864e-07,2.924418703237051e-07,1.3719815289273513e-05
2.6076729248630326e-07,7.621941120063613e-07,2.9138228738785357e-07,1.384755008802974e-05
2.608810244622812e-07,7.65379822866336e-07,2.9103313577641424e-07,1.3971615524748184e-05
2.610044940251049e-07,7.68406769774286e-07,2.913643811504828e-07,1.4091556347965274e-05
2.6113885663882944e-07,7.712465649734769e-07,2.923550232811793e-07,1.4207130330869684e-05
2.612843116157728e-07,7.73874274954476e-07,2.939962226438211e-07,1.4318262048657986e-05
2.6144098481177786e-07,7.762677538459239e-07,2.9629108446256573e-07,1.4424916922660494e-05
2.61610787623194e-07,7.784085106222516e-07,2.992482970905557e-07,1.4526998591783768e-05
2.617978400085705e-07,7.802813528298595e-07,3.028748145821135e-07,1.4624340668064651e-05
2.6200690309774807e-07,7.818722056780927e-07,3.071752944877504e-07,1.4716757221305667e-05
2.622413213901485e-07,7.83165501937455e-07,3.121563630183633e-07,1.4804083757131011e-05
2.6250161070112045e-07,7.84142394136963e-07,3.1782904589702765e-07,1.4886199507574982e-05
2.627852777103606e-07,7.847810687744997e-07,3.242068796530159e-07,1.4963033156259274e-05
2.6308763663354174e-07,7.850579986262495e-07,3.3130024144813907e-07,1.5034525418775864e-05
2.6340299575873945e-07,7.849485586372354e-07,3.391099935856437e-07,1.5100559722638629e-05
2.637263721514532e-07,7.844276666477544e-07,3.4762551970558553e-07,1.5160923577788116e-05
2.640549371008218e-07,7.834708488502678e-07,3.568278609748485e-07,1.5215349824994809e-05
2.6438794170300923e-07,7.820556785164737e-07,3.6669310942482187e-07,1.5263611798177795e-05
2.647258251544841e-07,7.801636089694874e-07,3.77193739367093e-07,1.5305577279038824e-05
2.650694892085945e-07,7.777813164655533e-07,3.8829918449556156e-07,1.5341184073248073e-05
2.6542056670860986e-07,7.749011302633576e-07,3.999757231959464e-07,1.537041210843454e-05
2.657833735979931e-07,7.715199763174055e-07,4.1218880455346095e-07,1.5393289696918414e-05
2.661667131948475e-07,7.676371933087269e-07,4.249115449121301e-07,1.540989145171753e-05
2.66582765569829e-07,7.632545825845933e-07,4.381323044907672e-07,1.5420322760927446e-05
2.670439637893092e-07,7.583795004610141e-07,4.5185250517870224e-07,1.542472328932366e-05
2.675611951099081e-07,7.530275714828739e-07,4.660818430995529e-07,1.5423321485530015e-05
2.681433562807683e-07,7.472223803356369e-07,4.808435632338221e-07,1.5416527587178907e-05
2.687966259315442e-07,7.409923433585641e-07,4.96185110653949e-07,1.5404976238449722e-05
2.6952455764755913e-07,7.343672190935537e-07,5.1217842931467e-07,1.538947608827738e-05
2.703296623853577e-07,7.273761092295406e-07,5.289056617215285e-07,1.5370920625693362e-05
2.712144245798511e-07,7.200465638204055e-07,5.464401224572296e-07,1.5350222773174945e-05
2.721804172534801e-07,7.124036881691055e-07,5.648343080707835e-07,1.5328286234560698e-05
2.73226720129412e-07,7.044698332436005e-07,5.841196421021087e-07,1.530597733161274e-05
2.74349386413401e-07,6.962666745062137e-07,6.043123545994173e-07,1.5284072618644298e-05
2.755423757678367e-07,6.87818082428824e-07,6.254175910683783e-07,1.5263200881541595e-05
2.767988062864606e-07,6.79151725402248e-07,6.474323329307975e-07,1.5243801739192276e-05
2.781110804336041e-07,6.7030182517637e-07,6.703489245180897e-07,1.5226103665750156e-05
2.7947060816805264e-07,6.613128501597086e-07,6.941543981666015e-07,1.5210122759362385e-05
2.8086948155697464e-07,6.522398956717149e-07,7.188233987933687e-07,1.5195683637656146e-05
2.8230316671946987e-07,6.43145003991884e-07,7.443100653898354e-07,1.5182453442903335e-05
2.8377007439664913e-07,6.340914128973188e-07,7.705450518424077e-07,1.5169988067610947e-05
2.852680436672873e-07,6.25138499896454e-07,7.974400195950266e-07,1.5157806320354895e-05
2.867920288750025e-07,6.163408178650094e-07,8.248980571040238e-07,1.5145486205989762e-05
2.883342371283556e-07,6.077502091394398e-07,8.52826014212078e-07,1.5132738945001705e-05
2.8988504926074125e-07,5.994159097158435e-07,8.81142082874399e-07,1.5119434699308734e-05
2.9143403001694777e-07,5.913819041667132e-07,9.097719705699448e-07,1.5105601193011466e-05
2.92970819628752e-07,5.836860407681672e-07,9.386386591432941e-07,1.5091412175572439e-05
2.9448591887779824e-07,5.76363792042327e-07,9.676603075027576e-07,1.507715488930802e-05
2.95971677941624e-07,5.694544160331367e-07,9.967587447173672e-07,1.5063172466731051e-05
2.974226835965063e-07,5.630041807593373e-07,1.0258661862871723e-06,1.5049801780497736e-05
2.9883483625507736e-07,5.570645618749902e-07,1.0549235272248508e-06,1.5037333762146042e-05
3.002043209770291e-07,5.516880549655427e-07,1.083876334560871e-06,1.5025993466695954e-05
3.015274455318121e-07,5.469244838079608e-07,1.1126743624489564e-06,1.5015902492050641e-05
3.028005203567191e-07,5.428187672683896e-07,1.1412729716405457e-06,1.500702253125955e-05
3.040195313062053e-07,5.394088100130697e-07,1.1696337605279345e-06,1.4999130758956446e-05
3.051802236681784e-07,5.367231337608096e-07,1.1977251241080309e-06,1.4991841863915835e-05
3.0627782633385313e-07,5.347801307595238e-07,1.2255235558813456e-06,1.4984644600061234e-05
3.0730595243696127e-07,5.335886343163571e-07,1.2530118902833264e-06,1.4976937458631725e-05
3.08256094738125e-07,5.331483488310405e-07,1.2801706600082627e-06,1.4968059929653186e-05
3.091184078205989e-07,5.334505021475292e-07,1.3069692833771802e-06,1.4957306416620182e-05
3.09882884687599e-07,5.344786297929002e-07,1.3333672638958936e-06,1.4943935256537845e-05
3.105400645126925e-07,5.362088840792582e-07,1.3593232482330333e-06,1.4927210641777014e-05
3.1108135475778754e-07,5.386106095113544e-07,1.3848027585264307e-06,1.4906505723801453e-05
3.1149999217303663e-07,5.41647916114574e-07,1.4097810030815975e-06,1.488145898473292e-05
3.1179249801422504e-07,5.452826704636388e-07,1.434241906753769e-06,1.4852093995142468e-05
3.1195831574274283e-07,5.494787684403484e-07,1.4581741774657882e-06,1.4818790625642035e-05
3.119973271521951e-07,5.542052228381935e-07,1.481565228356035e-06,1.4782114902966568e-05
3.1190839171716107e-07,5.594362606038316e-07,1.5043950597953596e-06,1.4742618828306835e-05
3.116904132276676e-07,5.651494439711094e-07,1.5266326983472362e-06,1.4700717628851251e-05
3.113437218470289e-07,5.713226898352695e-07,1.5482381426747987e-06,1.4656704619497345e-05
3.1087038829295414e-07,5.779307103575353e-07,1.5691686804597039e-06,1.4610880175526145e-05
3.1027504502986286e-07,5.849419452659968e-07,1.5893824640239686e-06,1.4563659988542566e-05
3.095660195537827e-07,5.923172864739706e-07,1.6088356881510294e-06,1.4515538953777777e-05
3.087546741778469e-07,6.000122016385053e-07,1.6274778603186363e-06,1.4466960186679429e-05
3.078536963347236e-07,6.079811942896214e-07,1.6452517291275332e-06,1.4418223836442853e-05
3.068762145906881e-07,6.16180247630081e-07,1.6620986358310856e-06,1.4369474189575382e-05
3.058360054490373e-07,6.24565916043141e-07,1.6779643335634639e-06,1.432072026518342e-05
3.047479421602517e-07,6.330950516863171e-07,1.6928025395476205e-06,1.4271853376688556e-05
3.036271901849789e-07,6.417278281948163e-07,1.7065752885816743e-06,1.4222680853627194e-05
3.024873509284285e-07,6.50431342557009e-07,1.719248377052829e-06,1.4173066138122107e-05
3.013396793042705e-07,6.591799072624514e-07,1.730784323185342e-06,1.4123206925676223e-05
3.001937142842389e-07,6.679511751998131e-07,1.7411380437500843e-06,1.4073867881541794e-05
2.990573729587457e-07,6.767205485223686e-07,1.7502570762558689e-06,1.4026366334160294e-05
2.9793575780805614e-07,6.854574298039536e-07,1.7580850668214458e-06,1.3982366764570248e-05
2.9683020550110765e-07,6.941249749057704e-07,1.7645665703835415e-06,1.3943646070842472e-05
2.9573849597505226e-07,7.026821013106807e-07,1.7696504846637356e-06,1.3911915236058847e-05
2.946559878151909e-07,7.110856109668273e-07,1.7732909265826447e-06,1.3888812528992926e-05
2.9357774045061853e-07,7.192922080273112e-07,1.775447765183384e-06,1.3876109780499155e-05
2.925004512999457e-07,7.272606886781324e-07,1.7760877378800671e-06,1.3875897722471039e-05
2.914224324252941e-07,7.34952492522767e-07,1.7751840302285401e-06,1.389052832618567e-05
2.903422712297952e-07,7.423299327736961e-07,1.7727138912379613e-06,1.3922394263982662e-05
2.89258266363203e-07,7.493546539214215e-07,1.7686570563617898e-06,1.3973721555246774e-05
2.88169791430719e-07,7.559892780105274e-07,1.762997986494849e-06,1.404643279500221e-05
2.870793349890549e-07,7.622047007637127e-07,1.7557311941072446e-06,1.4142063440228449e-05
2.859926809150165e-07,7.679921256802331e-07,1.7468652563766666e-06,1.426171865941098e-05
2.849174710927964e-07,7.733727860812141e-07,1.736421899089048e-06,1.4406063148128373e-05
2.838627503291461e-07,7.783993544694169e-07,1.7244307080988102e-06,1.4575322592733303e-05
2.828400275953288e-07,7.831489559029672e-07,1.7109243777018136e-06,1.4769277641747187e-05
2.8186340381230684e-07,7.877105078241512e-07,1.6959379444362518e-06,1.4987249054145788e-05
2.8094700851370657e-07,7.921736003667798e-07,1.679509581290461e-06,1.5228093910734307e-05
2.8010208065228176e-07,7.966260978009633e-07,1.6616803147289914e-06,1.5490234124639735e-05
2.793369414502825e-07,8.011556546126203e-07,1.642494044074064e-06,1.577171847764603e-05
2.786585993602225e-07,8.058473343225113e-07,1.6219988635496976e-06,1.6070318237728847e-05
2.7807349597079857e-07,8.107799779892002e-07,1.60024796081775e-06,1.638365880115724e-05
2.775884257614e-07,8.160240694493654e-07,1.5772998034490178e-06,1.6709363451029945e-05
2.77211733313804e-07,8.21637782585742e-07,1.5532200544550228e-06,1.704516516980822e-05
2.7695275072846927e-07,8.276619688336841e-07,1.5280849813491727e-06,1.73889567549923e-05
2.768210232012346e-07,8.341191107229017e-07,1.5019818423813602e-06,1.7738770565121953e-05
2.768271745317893e-07,8.410165534879063e-07,1.4750050066687685e-06,1.809269928171998e-05
2.76982867817867e-07,8.483504962743595e-07,1.447252378417741e-06,1.844880544813758e-05
2.772991192970014e-07,8.561101348790077e-07,1.4188237410600374e-06,1.880508406413038e-05
2.777855713909573e-07,8.642828299446178e-07,1.3898182327450511e-06,1.9159484722577967e-05
2.784505434815983e-07,8.728586051603491e-07,1.3603324273066945e-06,1.950994488174325e-05
2.7929979314276344e-07,8.818319123398056e-07,1.3304622448088458e-06,1.9854438845189165e-05
2.803354635072439e-07,8.912003607286913e-07,1.3003054040361789e-06,2.019106617560488e-05
2.815577469655355e-07,9.009609037400144e-07,1.2699617622871051e-06,2.051811935841745e-05
2.8296655617987316e-07,9.111064455423204e-07,1.2395344231932273e-06,2.083409065084587e-05
2.845603634677957e-07,9.216268608656557e-07,1.2091296855240567e-06,2.113766241056567e-05
2.863357365135695e-07,9.325120360379735e-07,1.1788513677082577e-06,2.142769893089445e-05
2.8829000977760984e-07,9.437521613795087e-07,1.1487936011982643e-06,2.1703210545032105e-05
2.9042380784556077e-07,9.553366367501244e-07,1.119038036169318e-06,2.1963280391783372e-05
2.927407995648688e-07,9.6725319236817e-07,1.0896547417920234e-06,2.2206988973429247e-05
2.952451851055489e-07,9.794851386092657e-07,1.0607043077686705e-06,2.243338146593732e-05
2.9793857951509e-07,9.920070067050414e-07,1.0322399531753469e-06,2.264149499186404e-05
3.008187589430647e-07,1.0047814723715434e-06,1.0043085823879257e-06,2.2830439386922862e-05
3.038812653451025e-07,1.0177585888427365e-06,9.7695087606675e-07,2.2999519572388878e-05
3.071213577494877e-07,1.030876965620128e-06,9.502008594576306e-07,2.314839066312429e-05
3.105336585850041e-07,1.0440663906082086e-06,9.240850113990559e-07,2.327718547547165e-05
3.141102927411877e-07,1.0572503653741646e-06,8.986217508506413e-07,2.338651602435044e-05
3.1783955305366844e-07,1.0703475375059424e-06,8.738219798607706e-07,2.347734387084867e-05
3.2170555547191325e-07,1.0832725942304613e-06,8.496904532337294e-07,2.3550794996098998e-05
3.256895020529717e-07,1.095937788115961e-06,8.262278821308414e-07,2.360797371587077e-05
3.297725949510241e-07,1.1082560336259505e-06,8.034332081515211e-07,2.3649813397658764e-05
3.3393823276390553e-07,1.1201444497291417e-06,7.81304390895498e-07,2.367700159355189e-05
3.381732726787633e-07,1.13152525336656e-06,7.598375080031128e-07,2.369000595441872e-05
3.4246990411490504e-07,1.1423231498660862e-06,7.39026181069875e-07,2.368924750528666e-05
3.4682568000851886e-07,1.1524625384729788e-06,7.18861999768268e-07,2.367542468355245e-05
3.5123962640665076e-07,1.1618683362328963e-06,6.993345073507886e-07,2.364978084955939e-05
3.557075712157565e-07,1.170470097848637e-06,6.804305710401743e-07,2.3614076949095965e-05
3.602197212003417e-07,1.1782044601902068e-06,6.621342018049111e-07,2.357033440305257e-05
3.647606261606789e-07,1.1850137432358968e-06,6.444268197390428e-07,2.3520546596058185e-05
3.69310871965712e-07,1.190844846564063e-06,6.272875269323339e-07,2.3466485083173142e-05
3.7384901067660884e-07,1.1956503852514984e-06,6.106935788919021e-07,2.3409765824252265e-05
3.783527792186488e-07,1.1993898512560742e-06,5.94621562929944e-07,2.3352197934050405e-05
3.828004455788961e-07,1.202029801545264e-06,5.790491388848612e-07,2.3296102788238e-05
3.87172834153584e-07,1.2035432520915958e-06,5.63956722029934e-07,2.324434689835477e-05
3.914557777929529e-07,1.2039088050301227e-06,5.493293206635509e-07,2.3200176026585958e-05
3.956425606415186e-07,1.2031101447025536e-06,5.351583282988021e-07,2.3167016785652265e-05
3.9973439489110973e-07,1.2011355052633082e-06,5.214417699462839e-07,2.314828889405757e-05
4.037366081277979e-07,1.1979778127050846e-06,5.081828434510537e-07,2.31472236298794e-05
4.076530557334961e-07,1.1936375358606316e-06,4.953880536353988e-07,2.316669732082425e-05
4.1148369040403405e-07,1.1881267117991465e-06,4.8306560684887e-07,2.320910938977212e-05
4.152251713182032e-07,1.1814696111229452e-06,4.7122431123746317e-07,2.3276337711783114e-05
4.188718661647341e-07,1.1736984209047407e-06,4.598725899968016e-07,2.3369754826153103e-05
4.2241644703543025e-07,1.164847420653637e-06,4.490179344489453e-07,2.3490235039496326e-05
4.258497048412e-07,1.1549501847298276e-06,4.3866824486095153e-07,2.363811605420358e-05
4.291596259081723e-07,1.1440404077014635e-06,4.288334882178457e-07,2.3813148473137438e-05
4.323309818471878e-07,1.1321550335295686e-06,4.195247971658271e-07,2.401447921638776e-05
4.353463652850066e-07,1.1193379029498323e-06,4.1075224776749295e-07,2.424071373276465e-05
4.381881316168803e-07,1.1056402467847611e-06,4.0252433818434147e-07,2.449007117905228e-05
4.408409847751467e-07,1.0911172282861005e-06,3.9484936384168747e-07,2.476055735683768e-05
4.432955196781972e-07,1.0758239184712714e-06,3.8773731462616244e-07,2.50500749207496e-05
4.455506633230304e-07,1.0598128742011222e-06,3.8120031835790476e-07,2.535648743069653e-05
4.476127459399099e-07,1.0431333149452006e-06,3.7525005188126134e-07,2.5677677167980254e-05
4.494927072066991e-07,1.0258313477838717e-06,3.6989573906905203e-07,2.6011585305488378e-05
4.5120329611157865e-07,1.0079507961507614e-06,3.6514638206954407e-07,2.6356226506770425e-05
4.5275609819734975e-07,9.89534294935051e-07,3.61013383261959e-07,2.670969550890661e-05
4.5415926346203965e-07,9.706238063374256e-07,3.5751006223499605e-07,2.7070166910702287e-05
4.554174519102608e-07,9.512604530006872e-07,3.5465003137613527e-07,2.743586382611692e-05
4.5653322989190313e-07,9.314857880601276e-07,3.5244551957337704e-07,2.780496612735684e-05
4.5750785749031755e-07,9.113467458408352e-07,3.50905030796738e-07,2.8175487729182478e-05
4.5834119691033755e-07,8.909019908968097e-07,3.50031927791844e-07,2.8545214458399463e-05
4.5903206793124886e-07,8.702236682487629e-07,3.4982484672469327e-07,2.891173507840706e-05
4.595790543631174e-07,8.493923440008876e-07,3.502776071713632e-07,2.9272503435662458e-05
4.599802384446696e-07,8.284893103763276e-07,3.513778877691594e-07,2.962488248555871e-05
4.602321199719658e-07,8.075917068578646e-07,3.531063707959615e-07,2.9966184986791528e-05
4.603297771437891e-07,7.867731403826931e-07,3.554370052204218e-07,3.0293728635045897e-05
4.60268036793587e-07,7.661102269506886e-07,3.5833932784727066e-07,3.0604901479709254e-05
4.60042456602944e-07,7.456916048494539e-07,3.617837151853501e-07,3.08972274125778e-05
4.59650424824626e-07,7.256217902828923e-07,3.657461085012032e-07,3.116841479006979e-05
4.5909192415958975e-07,7.06016400187804e-07,3.7020701466879503e-07,3.141639491306552e-05
4.583696250144641e-07,6.869921547581564e-07,3.751459944172861e-07,3.163939360873835e-05
4.5748869051886815e-07,6.686565377890936e-07,3.8053856190796756e-07,3.1836050779821366e-05
4.564564998794218e-07,6.511014456080136e-07,3.863586965439261e-07,3.2005492514890744e-05
4.5528375461891697e-07,6.344030382681452e-07,3.925841217118229e-07,3.2147232086676756e-05
4.5398675900502174e-07,6.186258169920356e-07,3.992010292770811e-07,3.226096726090025e-05
4.525881860321146e-07,6.0382671243944e-07,4.06205948757264e-07,3.2346485763800866e-05
4.51116944298343e-07,5.900573850987156e-07,4.1360302139596466e-07,3.2403720543258185e-05
4.496081544416035e-07,5.773650868427829e-07,4.213982346704156e-07,3.243280325622931e-05
4.481003456022096e-07,5.657922794798074e-07,4.295953227448681e-07,3.2434044890551205e-05
4.4663064207000036e-07,5.553761800129396e-07,4.38196273891864e-07,3.240787697736633e-05
4.4523239048874596e-07,5.461476297163725e-07,4.472050176938946e-07,3.235479884746342e-05
4.439350029160847e-07,5.381274126118292e-07,4.56629773249211e-07,3.227544497929479e-05
4.427637863186193e-07,5.313240166152161e-07,4.6647982403860207e-07,3.21707744205274e-05
4.417398330503096e-07,5.257389658589604e-07,4.767582612493822e-07,3.204214456726038e-05
4.4087936109093706e-07,5.213765673315055e-07,4.874565301873053e-07,3.189116551461797e-05
4.4019183783565504e-07,5.182477351668839e-07,4.985528555625615e-07,3.171950202570814e-05
4.396790634722825e-07,5.163645928262466e-07,5.100126605044421e-07,3.152876203841688e-05
4.393364430212189e-07,5.157321192156134e-07,5.217901322653371e-07,3.1320523814069226e-05
4.391546273048528e-07,5.16342196424625e-07,5.338314275700856e-07,3.109652403781167e-05
4.3912106035388815e-07,5.181717421579579e-07,5.460795340315918e-07,3.0858861845432973e-05
4.392224088881873e-07,5.211849434407964e-07,5.584799013663282e-07,3.0610008678747445e-05
4.394470302722808e-07,5.253364006284603e-07,5.709851560497586e-07,3.035265012509577e-05
4.397857705744386e-07,5.30572375123152e-07,5.835585300098963e-07,3.008951194160152e-05
4.4023078554578886e-07,5.368317102007293e-07,5.961766173457597e-07,2.9823213198189e-05
4.407737123823848e-07,5.440477569737589e-07,6.088297630076744e-07,2.955613506359063e-05
4.4140424688098586e-07,5.521505842742912e-07,6.215197420645604e-07,2.929031178938229e-05
4.4210939047389184e-07,5.610695043510267e-07,6.342569847645865e-07,2.9027365195503925e-05
4.4287424994230176e-07,5.707345043786621e-07,6.470570031370921e-07,2.876851262068433e-05
4.43684319446066e-07,5.81074342502348e-07,6.59934995971044e-07,2.851464114904264e-05
4.4452685263641703e-07,5.920127830156928e-07,6.729001016240439e-07,2.8266373801588048e-05
4.453898138223962e-07,6.034662048666005e-07,6.859512981436594e-07,2.802406723119043e-05
4.462600899185275e-07,6.153435037453801e-07,6.990757959375071e-07,2.77877771663894e-05
4.4712352036698825e-07,6.27547290485874e-07,7.122502327056077e-07,2.755725836666132e-05
4.4796748587240687e-07,6.39975552011585e-07,7.254448890947419e-07,2.7332016437629292e-05
4.4878367722106773e-07,6.525238170830479e-07,7.386285969504997e-07,2.711139549150537e-05
4.495675164674496e-07,6.650878971872128e-07,7.517709080800614e-07,2.6894673684653602e-05
4.5031484538544103e-07,6.775660852899509e-07,7.648425570656489e-07,2.668113921802276e-05
4.5101950627345456e-07,6.898597479486614e-07,7.778166512041806e-07,2.6470144182592984e-05
4.5167319873890324e-07,7.018734772390589e-07,7.906685447818638e-07,2.6261146020325783e-05
4.522672850463661e-07,7.13516694481868e-07,8.033727625632063e-07,2.6053721579307786e-05
4.5279503806996527e-07,7.247062340940728e-07,8.159001582853001e-07,2.584753662952041e-05
4.5325165607142074e-07,7.353671433831755e-07,8.282171346109836e-07,2.5642292616528657e-05
4.5363231473142957e-07,7.454314972689695e-07,8.402856282743659e-07,2.5437674139998504e-05
4.5393127786706534e-07,7.548386970374912e-07,8.520654100844469e-07,2.523330836126708e-05
4.5414286763558815e-07,7.635368282031118e-07,8.635187536939094e-07,2.502878675042901e-05
4.542621119457215e-07,7.714812797926211e-07,8.746114847661209e-07,2.482377739071929e-05
4.542835867335803e-07,7.786319547623083e-07,8.853092889151377e-07,2.461813729818943e-05
4.5420033819041617e-07,7.849527281567327e-07,8.955754111722293e-07,2.441192754245889e-05
4.540051959589422e-07,7.904127883002085e-07,9.053715622383056e-07,2.420535813115456e-05
4.5369301953476046e-07,7.949876664389582e-07,9.146588007991464e-07,2.3998739402856908e-05
4.532615448561529e-07,7.986595583869091e-07,9.233970028095275e-07,2.379246435043481e-05
4.527113444024418e-07,8.014185416652613e-07,9.315440865840296e-07,2.3586972631234092e-05
4.520454993642078e-07,8.032656875856709e-07,9.390562911740999e-07,2.3382647182200203e-05
4.5126871111115065e-07,8.042156752993497e-07,9.458894070799555e-07,2.317971482555908e-05
4.503866493807129e-07,8.042952955306381e-07,9.519999584655237e-07,2.2978262787268826e-05
4.494060420284228e-07,8.035387735862559e-07,9.573467836442909e-07,2.277834907276897e-05
4.4833475030719383e-07,8.01983749411622e-07,9.618940649089315e-07,2.258011784322853e-05
4.471811137152568e-07,7.99668398263154e-07,9.656132372027955e-07,2.2383915606686507e-05
4.45952738063676e-07,7.96628995521142e-07,9.684808767389427e-07,2.2190408113310327e-05
4.4465555538489636e-07,7.92898949388808e-07,9.704755587862705e-07,2.2000591880574296e-05
4.432941143959133e-07,7.885093470807489e-07,9.715777938597073e-07,2.181563174278396e-05
4.4187279075737603e-07,7.834898400204044e-07,9.717725657383231e-07,2.1636613524224257e-05
4.4039598328596143e-07,7.778689133869523e-07,9.7105146942697e-07,2.146435124315448e-05
4.3886721267728274e-07,7.716738901082565e-07,9.694122719197066e-07,2.1299318936620946e-05
4.372885209790594e-07,7.649318309721613e-07,9.668562817148294e-07,2.114168005853265e-05
4.35659700920358e-07,7.576701208343424e-07,9.633860406115687e-07,2.0991342483373065e-05
4.3397732088678044e-07,7.499151649888894e-07,9.590061596443522e-07,2.0848048643137865e-05
4.3223550521083403e-07,7.416914101402515e-07,9.537272652175579e-07,2.071160482200885e-05
4.304292773670157e-07,7.330229287940478e-07,9.475688358037056e-07,2.058218718607276e-05
4.2855762268193725e-07,7.239358723298495e-07,9.405588561187756e-07,2.046045303454709e-05
4.26622846867981e-07,7.144590273225796e-07,9.327336802000942e-07,2.0347388343412454e-05
4.246274845751642e-07,7.046220966339028e-07,9.241390169186871e-07,2.024408665443862e-05
4.2257217584697647e-07,6.944542706559278e-07,9.148283039955707e-07,2.015156672166714e-05
4.2045531124372095e-07,6.839856438408499e-07,9.048577596298443e-07,2.0070663638764465e-05
4.1827355307142957e-07,6.732494307572894e-07,8.942818612660105e-07,2.0002127124878613e-05
4.1602275641372507e-07,6.622817624361506e-07,8.831522463662131e-07,1.994690019052102e-05
4.1370005095711004e-07,6.511207643822964e-07,8.715189106469677e-07,1.9906279978199508e-05
4.1130646087414977e-07,6.398065908775679e-07,8.594306474936333e-07,1.9881834021621007e-05
4.088465809019329e-07,6.283811302042375e-07,8.469343017297841e-07,1.9875225843211268e-05
4.063251116402928e-07,6.168889211914738e-07,8.340742828213515e-07,1.9888058626517605e-05
4.037444955000806e-07,6.053815598549698e-07,8.208930274457795e-07,1.992173411225555e-05
4.0110497652937496e-07,5.939220460324065e-07,8.074329369284711e-07,1.997732146616648e-05
3.984049705987689e-07,5.825830713326826e-07,7.937395978652319e-07,2.005546987092229e-05
3.956409751987115e-07,5.714395902723355e-07,7.79864357226772e-07,2.015640410832225e-05
3.928079626666465e-07,5.605632130486803e-07,7.65864638145788e-07,2.027997737764522e-05
3.899006341298337e-07,5.500222869401409e-07,7.518021168884352e-07,2.042570992169136e-05
3.869148280584621e-07,5.398821778955707e-07,7.377401796555253e-07,2.05927925707537e-05
3.838490213087833e-07,5.302014895327129e-07,7.23743057493995e-07,2.078008286963252e-05
3.807058071519066e-07,5.210278730272688e-07,7.098772559105059e-07,2.098610096154753e-05
3.774922779000751e-07,5.123978933618501e-07,6.962129002582193e-07,2.12090408924678e-05
3.742192837210957e-07,5.043406345342396e-07,6.828232090728242e-07,2.144684324905489e-05
3.708996061492299e-07,4.968804542694475e-07,6.697814612081193e-07,2.169732355706501e-05
3.6754522479545607e-07,4.900355672519298e-07,6.571557972690307e-07,2.1958292784394384e-05
3.641659744139805e-07,4.838161840759301e-07,6.450048446601708e-07,2.2227647760535832e-05
3.607704129117653e-07,4.782271103579809e-07,6.333763635158606e-07,2.2503456116046484e-05
3.573666346734126e-07,4.7327450021783784e-07,6.223075097514679e-07,2.278401894564894e-05
3.5396208262730324e-07,4.6897466912268017e-07,6.118258131679539e-07,2.3067859516380952e-05
3.505639644001313e-07,4.653610054043388e-07,6.019533962625837e-07,2.3353638548525435e-05
3.471806380997975e-07,4.62482956442415e-07,5.9271492391219e-07,2.364005120319865e-05
3.438216086278352e-07,4.603965546978401e-07,5.841441651828647e-07,2.3925746996768385e-05
3.4049545829008004e-07,4.5915395368334227e-07,5.762852217342891e-07,2.420930153019396e-05
3.3720854088136694e-07,4.5880132552618025e-07,5.691877445993931e-07,2.4489271818426683e-05
3.339657642695677e-07,4.593863398210928e-07,5.628977344208087e-07,2.4764289428711075e-05
3.3077152018530746e-07,4.609638556415285e-07,5.574516472631383e-07,2.503309686858381e-05
3.2762941985171427e-07,4.635901430815579e-07,5.52879547251082e-07,2.529452957652763e-05
3.245416359459246e-07,4.673105482305973e-07,5.492119025454106e-07,2.554751174047652e-05
3.2150890445067586e-07,4.721504088008273e-07,5.464830071961871e-07,2.579109115940855e-05
3.185311719751923e-07,4.78112103210475e-07,5.447309340186762e-07,2.602446385097641e-05
3.1560854194794804e-07,4.851767596599818e-07,5.43995301512184e-07,2.624691628715109e-05
3.127424870669473e-07,4.933093500808004e-07,5.44310990975969e-07,2.645771189565448e-05
3.099364896543771e-07,5.024641327060253e-07,5.456991089823723e-07,2.6656010635057004e-05
3.0719494942094265e-07,5.125873163792034e-07,5.481626522949409e-07,2.6840846177664718e-05
3.0452115529246066e-07,5.236179436318756e-07,5.516916315166504e-07,2.701116670512167e-05
3.01916198418946e-07,5.354885876087421e-07,5.562741179918779e-07,2.7165977961945534e-05
2.9937924150894236e-07,5.481260434047253e-07,5.619050049817508e-07,2.7304555337339318e-05
2.96908420860808e-07,5.614525218231227e-07,5.685866617374732e-07,2.742658316332121e-05
2.9450194218443925e-07,5.753864966959097e-07,5.763219075827505e-07,2.7532132630927105e-05
2.921587408445084e-07,5.898419361825046e-07,5.851039042541943e-07,2.762151872944496e-05
2.898778501092893e-07,6.047274562580332e-07,5.949093733644736e-07,2.7695110967796802e-05
2.876572040996711e-07,6.199477984791894e-07,6.056981737604475e-07,2.775317179463178e-05
2.854936696777229e-07,6.354070643655021e-07,6.174160890925868e-07,2.779577396425376e-05
2.8338441623885696e-07,6.510111996775498e-07,6.299980099999738e-07,2.7822790795526727e-05
2.813280618348821e-07,6.666681516174725e-07,6.433703878735888e-07,2.7833969958518126e-05
2.7932500803268197e-07,6.822864238665573e-07,6.574523260378182e-07,2.7829158770225012e-05
2.773777112816248e-07,6.977751271657214e-07,6.7215913353023e-07,2.7808634339015172e-05
2.754906659702075e-07,7.130463209831406e-07,6.8741053078009e-07,2.7773290552922803e-05
2.7366963711170104e-07,7.280166235734681e-07,7.031377042904784e-07,2.772453271870659e-05
2.7192117850793517e-07,7.426077948862694e-07,7.192852912207361e-07,2.766401569513869e-05
2.702527121199923e-07,7.567476325039381e-07,7.358104852917188e-07,2.759339498199313e-05
2.686722440440031e-07,7.703693253353964e-07,7.52680659799518e-07,2.7514179448659882e-05
2.671881997252115e-07,7.834092038983759e-07,7.6986903728309e-07,2.7427822380878518e-05
2.6581043717256604e-07,7.958059284010199e-07,7.873478728502366e-07,2.7336039640567708e-05
2.645514206908449e-07,8.075014307398063e-07,8.05081049730609e-07,2.724103798061471e-05
2.6342573903429194e-07,8.184418224908819e-07,8.230205960923299e-07,2.714546194409948e-05
2.6244897924682336e-07,8.285788198292134e-07,8.411077891928927e-07,2.705220977272229e-05
2.6163809644619174e-07,8.378735985048094e-07,8.592755779719448e-07,2.696427115201255e-05
2.610125757964261e-07,8.463009417385948e-07,8.774514496532398e-07,2.688459812306261e-05
2.6059460572528425e-07,8.538486497459009e-07,8.955606017685389e-07,2.6815995250189082e-05
2.604077413373792e-07,8.605126206385767e-07,9.135269593480088e-07,2.67610319157474e-05
2.6047467147102973e-07,8.66292355863979e-07,9.312716145184101e-07,2.6721987641333053e-05
2.6081510074210736e-07,8.71188879698667e-07,9.487123452183609e-07,2.6700828359119432e-05
2.614439414593188e-07,8.752052260726009e-07,9.657679555665058e-07,2.6699175963145865e-05
2.623697280111415e-07,8.783480564412805e-07,9.82367403118765e-07,2.671823220274817e-05
2.6359389931870065e-07,8.806274677063129e-07,9.984594483693986e-07,2.675867122408057e-05
2.6511163863765263e-07,8.820563132444502e-07,1.0140164953166486e-06,2.682056480562387e-05
2.669136144120172e-07,8.826513490144287e-07,1.0290285692182266e-06,2.6903406332987907e-05
2.689873986350832e-07,8.824340958331478e-07,1.0434907974359516e-06,2.7006248103863614e-05
2.7131880224017536e-07,8.814313230421881e-07,1.0573924839974986e-06,2.7127896810764522e-05
2.7389357494182374e-07,8.796775285591577e-07,1.0707122950352122e-06,2.726707701949327e-05
2.766982316686948e-07,8.772171913997342e-07,1.0834189378449353e-06,2.7422506259147142e-05
2.7972003094051597e-07,8.741026773222967e-07,1.0954745598552096e-06,2.7592915151174628e-05
2.829492800455164e-07,8.703881785776424e-07,1.10683755002979e-06,2.7777072588392896e-05
2.8638413840495007e-07,8.661236523690872e-07,1.1174629011880363e-06,2.7973810077833892e-05
2.900324864834804e-07,8.613518232220179e-07,1.1273014842014349e-06,2.8182021439285364e-05
2.939075319462488e-07,8.561085102104044e-07,1.136300675684906e-06,2.840064563698493e-05
2.980203349492998e-07,8.504244086885216e-07,1.1444067309246289e-06,2.8628627029842962e-05
3.023747071754956e-07,8.443260490532346e-07,1.151567577484712e-06,2.8864826269273024e-05
3.069665220730874e-07,8.378362537748575e-07,1.1577342258176444e-06,2.9107902339592773e-05
3.117850481535893e-07,8.309767346121497e-07,1.162860640310537e-06,2.9356247642969385e-05
3.1681379094491377e-07,8.237720669210656e-07,1.1669046771699014e-06,2.9608014916806866e-05
3.220311645213735e-07,8.16250511274346e-07,1.1698307779552623e-06,2.9861193021574518e-05
3.274127636734653e-07,8.084407838782205e-07,1.17161168964293e-06,3.0113694376176923e-05
3.329352118561833e-07,8.003688593477032e-07,1.1722280232042117e-06,3.0363442439388207e-05
3.3857788761207465e-07,7.920574691055355e-07,1.171667069998907e-06,3.060841717561865e-05
3.443205460043284e-07,7.835276990215507e-07,1.1699218514252804e-06,3.084661594791791e-05
3.5014061791712577e-07,7.748027826552444e-07,1.1669900139009242e-06,3.1075976921085344e-05
3.5601272853719027e-07,7.659137877157998e-07,1.1628729961796502e-06,3.129435560540309e-05
3.6190938799650005e-07,7.569032498643185e-07,1.1575767976999365e-06,3.1499573524494766e-05
3.678023910421383e-07,7.478237318424107e-07,1.1511133017380242e-06,3.168951901426812e-05
3.736640613027641e-07,7.387327524198456e-07,1.1435010092610387e-06,3.186231425417003e-05
3.7946746670652047e-07,7.296871816470015e-07,1.1347665391217622e-06,3.2016532391332435e-05
3.8518578391309995e-07,7.20739685339808e-07,1.1249459662035648e-06,3.215134208312812e-05
3.907910956338483e-07,7.119377178358622e-07,1.1140832400406737e-06,3.2266466360062126e-05
3.9625378199499136e-07,7.033235102865735e-07,1.1022268072557488e-06,3.236198966314076e-05
4.015432871324868e-07,6.949351818596509e-07,1.0894280576472703e-06,3.2438123723161656e-05
4.066294217845871e-07,6.86809718414083e-07,1.0757412622326398e-06,3.249501720229345e-05
4.11482882225747e-07,6.789838980570142e-07,1.0612216728281813e-06,3.253265091789318e-05
4.1607462174430254e-07,6.714901110196143e-07,1.0459226743782888e-06,3.25508149284663e-05
4.203754575944866e-07,6.643515826550627e-07,1.0298951010623704e-06,3.2549155832563544e-05
4.2435693976076067e-07,6.575821084652955e-07,1.013188294753516e-06,3.252733974689048e-05
4.279924634265178e-07,6.511897392726631e-07,9.95851011748359e-07,3.2485335880351545e-05
4.312575884612566e-07,6.451802936245867e-07,9.779318633085744e-07,3.2423618797657616e-05
4.3413006543723143e-07,6.395575737506148e-07,9.594799493254714e-07,3.2343091211454986e-05
4.3659015099092683e-07,6.343216085591086e-07,9.405455556823313e-07,3.2244828662382675e-05
4.386211974221679e-07,6.294696921542962e-07,9.211805029851765e-07,3.212986240628024e-05
4.402108735470107e-07,6.250025414143181e-07,9.014383338559216e-07,3.1999119447523246e-05
4.4135261228471754e-07,6.209314930242851e-07,8.81373493899155e-07,3.18536164573831e-05
4.420458623405439e-07,6.172816866956676e-07,8.610391748561214e-07,3.169485300139141e-05
4.4229529197231426e-07,6.140907656264123e-07,8.404859458578784e-07,3.1525090186987226e-05
4.4210997152874563e-07,6.114053957680168e-07,8.197621612332506e-07,3.134732193226052e-05
4.4150205765283834e-07,6.092774875366839e-07,7.989147199626376e-07,3.116507559495637e-05
4.40484565147758e-07,6.077591667602592e-07,7.779894847302646e-07,3.098220812439303e-05
4.390696337105626e-07,6.068952342719329e-07,7.570315911544643e-07,3.08027097165825e-05
4.37268438195712e-07,6.067170041736665e-07,7.360851796812286e-07,3.0630490227012294e-05
4.350919169598428e-07,6.072431057796855e-07,7.151929667991909e-07,3.046918678365929e-05
4.325519338430793e-07,6.084859385375594e-07,6.943972615621514e-07,3.032205018515935e-05
4.296633006880449e-07,6.104572858767082e-07,6.73741413805606e-07,3.0191915562162505e-05
4.264447929201578e-07,6.131695446106676e-07,6.532690672781826e-07,3.0081198763008946e-05
4.229175588140309e-07,6.166320848507485e-07,6.330222564066399e-07,2.999184032027409e-05
4.1910262290010117e-07,6.208444242279184e-07,6.130412345050025e-07,2.9925186907900824e-05
4.150201059168828e-07,6.257911874986015e-07,5.933653039286369e-07,2.988189752433026e-05
4.1069174402437343e-07,6.314413520448996e-07,5.740320989916015e-07,2.9861971235417077e-05
4.061438501991585e-07,6.377496972992302e-07,5.550759660877355e-07,2.98649047516944e-05
4.0140571635269204e-07,6.446594522413026e-07,5.365274349744803e-07,2.988989758823656e-05
3.965050986029369e-07,6.521067109576321e-07,5.184132075342629e-07,2.993601447889376e-05
3.9146623035378717e-07,6.600251288504448e-07,5.007559880959175e-07,3.0002277345475872e-05
3.863114430786544e-07,6.6834835826984e-07,4.835752708497628e-07,3.0087716612310082e-05
3.810635665028601e-07,6.770096975245556e-07,4.6688854084093046e-07,3.0191408216687056e-05
3.7574629290907436e-07,6.859404636460734e-07,4.507115105980173e-07,3.031248813103635e-05
3.7038236460484337e-07,6.950698957485299e-07,4.3505891970041676e-07,3.0450141221040807e-05
3.649916866872354e-07,7.043286405525519e-07,4.199467426013378e-07,3.060357884682162e-05
3.595910185679992e-07,7.136548435297478e-07,4.0539379658798005e-07,3.0771988495734615e-05
3.5419594349557254e-07,7.230012683337624e-07,3.9142192010396575e-07,3.09544162901111e-05
3.488244267206169e-07,7.323423952109161e-07,3.780551034703603e-07,3.1149613857741103e-05
3.4349918167569943e-07,7.416782843847762e-07,3.6531740078745274e-07,3.135595540641651e-05
3.382476035916173e-07,7.510314385111362e-07,3.5323004848641297e-07,3.1571453376594845e-05
3.331008691907662e-07,7.604364358646729e-07,3.418091234033893e-07,3.179379708176445e-05
3.280933031363175e-07,7.69927094079261e-07,3.310644974621513e-07,3.202039023441858e-05
3.2326158153173326e-07,7.79529534636393e-07,3.2100067894879146e-07,3.224843052762063e-05
3.1864238307154174e-07,7.892645251033669e-07,3.116201913896345e-07,3.2475020765387345e-05
3.142687957658531e-07,7.991530180938526e-07,3.029275949514996e-07,3.269726471742755e-05
3.1016769790051396e-07,8.092192003532516e-07,2.949315749697146e-07,3.291238640382276e-05
3.063591373206048e-07,8.194909201726587e-07,2.876444124960587e-07,3.311789815174769e-05
3.0285789360601786e-07,8.299982711024929e-07,2.810793442609008e-07,3.331170252990384e-05
2.996756840315465e-07,8.407699415478285e-07,2.7525010082719784e-07,3.349205955403952e-05
2.9682251876925225e-07,8.518285679464305e-07,2.7017651176147965e-07,3.365747868642861e-05
2.9430858086347103e-07,8.631884376745168e-07,2.658912337876736e-07,3.380659027743823e-05
2.9214640743122624e-07,8.748551354626756e-07,2.6244043793649716e-07,3.393803588115372e-05
2.9035242635267505e-07,8.868241888119612e-07,2.5987835563976746e-07,3.405041546182798e-05
2.889488812822398e-07,8.990797513354411e-07,2.582587042052785e-07,3.4142309898310816e-05
2.87965545057625e-07,9.115950317816387e-07,2.5762601944758573e-07,3.4212382666667434e-05
2.874403097116476e-07,9.24333176705126e-07,2.580116050181893e-07,3.425951215371981e-05
2.874191987562473e-07,9.372472180629196e-07,2.5943535945382516e-07,3.428286759246578e-05
2.879544802852673e-07,9.502797066019264e-07,2.619089118389861e-07,3.4281899345091765e-05
2.890990390597697e-07,9.633642070253545e-07,2.6543607752819565e-07,3.4256273041906954e-05
2.908990686731584e-07,9.764301713269744e-07,2.700100755396537e-07,3.420581046676729e-05
2.93389163048554e-07,9.894099532891044e-07,2.7561045571478376e-07,3.4130527216387565e-05
2.965918875465224e-07,1.002244237707673e-06,2.822045798235753e-07,3.403073007618814e-05
3.00520176281349e-07,1.0148831208052937e-06,2.8975441596727127e-07,3.390703725110909e-05
3.051783981011601e-07,1.0272839951121668e-06,2.982232668743856e-07,3.376031800288763e-05
3.105614515677085e-07,1.0394086993795898e-06,3.075769156348302e-07,3.3591596252972916e-05
3.166553788530228e-07,1.0512206310317084e-06,3.1778134709063665e-07,3.3401910192285e-05
3.234412332465989e-07,1.0626820835285476e-06,3.2880446653858053e-07,3.319218362845519e-05
3.3090015024657425e-07,1.073752178349685e-06,3.406221123035951e-07,3.296318234062418e-05
3.3901676268629424e-07,1.0843849362734776e-06,3.532191937224339e-07,3.271553583369964e-05
3.477810272091676e-07,1.0945278382523208e-06,3.665821035094379e-07,3.2449762679571164e-05
3.571892151804197e-07,1.104122252453127e-06,3.8069360141359035e-07,3.21662825797888e-05
3.6724230772425023e-07,1.1131057801272906e-06,3.955395104990488e-07,3.1865439196938353e-05
3.7794085954997505e-07,1.1214156703618354e-06,4.1111592253250507e-07,3.154755452580442e-05
3.8927894972704507e-07,1.128991897253944e-06,4.274234302875298e-07,3.1213012738291644e-05
4.0124087595428633e-07,1.1357783154745635e-06,4.4445554132714977e-07,3.086234393255127e-05
4.138020610276775e-07,1.1417232588374173e-06,4.621925271548337e-07,3.049626583671629e-05
4.2693205706569293e-07,1.1467812219700932e-06,4.805997119215835e-07,3.0115670683044507e-05
4.4059530308040505e-07,1.15091373129325e-06,4.996273251486048e-07,2.9721582380533693e-05
4.547485788297889e-07,1.1540880795469177e-06,5.192116569175792e-07,2.9315095113944013e-05
4.6933882734851094e-07,1.1562751225867823e-06,5.3927722082771e-07,2.8897286472509334e-05
4.843036900538275e-07,1.1574475257212715e-06,5.597411982732764e-07,2.8469135992269842e-05
4.995732912714987e-07,1.1575792996609723e-06,5.805193640732247e-07,2.8031499039687347e-05
5.15072227586844e-07,1.1566467759580955e-06,6.015293565133629e-07,2.7585136088787762e-05
5.30723200362132e-07,1.1546301782979575e-06,6.226901413758587e-07,2.7130756551612146e-05
5.464515720498275e-07,1.1515143997876415e-06,6.439214945867946e-07,2.6669059436950626e-05
5.621873811763318e-07,1.1472891916074038e-06,6.651474049428114e-07,2.6200787401446328e-05
5.778652623580038e-07,1.1419512765421258e-06,6.863030096154097e-07,2.57267993000155e-05
5.934251645190143e-07,1.135508269310662e-06,7.073413700629888e-07,2.5248130446889208e-05
6.088124222944947e-07,1.1279795879545991e-06,7.282349920046101e-07,2.476600784537821e-05
6.239747076466426e-07,1.1193929046350866e-06,7.489679446244085e-07,2.4281826340976362e-05
6.38858309957245e-07,1.1097801596218542e-06,7.695228306561513e-07,2.379710652909792e-05
6.534072814389728e-07,1.099175148199154e-06,7.898736013179824e-07,2.3313434287518672e-05
6.675649539055232e-07,1.0876125299750721e-06,8.099866261411172e-07,2.2832383041883826e-05
6.812753473271911e-07,1.075129089272796e-06,8.298224588117246e-07,2.2355448608503212e-05
6.94483297201012e-07,1.061766963176024e-06,8.493363564088857e-07,2.188401856590392e-05
7.071343748607598e-07,1.047575855660937e-06,8.684820755119698e-07,2.141934212642417e-05
7.191766189497805e-07,1.0326112743244808e-06,8.87217742109964e-07,2.0962479643783882e-05
7.305634387335861e-07,1.0169305947199058e-06,9.055082744909956e-07,2.051428379741086e-05
7.412539352735362e-07,1.000592720300885e-06,9.233228675062487e-07,2.00754629396534e-05
7.512098387611477e-07,9.836624947735159e-07,9.406308161676396e-07,1.964672742617334e-05
7.603932536158115e-07,9.662133677477292e-07,9.573999400033262e-07,1.922894839390911e-05
7.687675828266322e-07,9.483241713833401e-07,9.735976139976543e-07,1.8823215593007974e-05
7.762996231217642e-07,9.300738824338192e-07,9.891903611859494e-07,1.8430771309907682e-05
7.82960984172272e-07,9.115386950774536e-07,1.0041412513267456e-06,1.8052881380538475e-05
7.887296457812673e-07,8.927912471111609e-07,1.0184086220194949e-06,1.7690687336576688e-05
7.935922957121154e-07,8.739006114451126e-07,1.0319471768504605e-06,1.7345115332156715e-05
7.97545789889905e-07,8.549328630829947e-07,1.0447088335763963e-06,1.7016938200542345e-05
8.005964957915249e-07,8.359514360790566e-07,1.0566421685211993e-06,1.6706938972416525e-05
8.027577367948854e-07,8.170160526357415e-07,1.067692479690405e-06,1.641600639015651e-05
8.040462248327947e-07,7.981816902605238e-07,1.077803806547567e-06,1.6145088536978454e-05
8.044798302395816e-07,7.794992264018959e-07,1.0869228058738987e-06,1.5895056476647008e-05
8.040785674275578e-07,7.610157634490885e-07,1.095005080117688e-06,1.56665753730095e-05
8.028661501358984e-07,7.427737284232285e-07,1.1020215949371793e-06,1.5460072759875288e-05
8.008683635347806e-07,7.248122587016859e-07,1.1079596371966658e-06,1.5275789122969272e-05
7.981105025017712e-07,7.071714043328955e-07,1.112818036539514e-06,1.5113826568765872e-05
7.946176936033081e-07,6.898940550792167e-07,1.11660318604054e-06,1.4974224841519068e-05
7.904163478526012e-07,6.730233328304979e-07,1.1193307653965193e-06,1.4857159998921847e-05
7.855338295624427e-07,6.56598075802217e-07,1.121030793403582e-06,1.4763162771340325e-05
7.799975127480365e-07,6.406492939746482e-07,1.1217507634446049e-06,1.4693128452931446e-05
7.738349147104716e-07,6.251991095102649e-07,1.1215541422632937e-06,1.464811635324524e-05
7.670742938691357e-07,6.10261983791079e-07,1.1205140599479755e-06,1.4629123873271067e-05
7.597451673171859e-07,5.95847190174666e-07,1.1187052290844142e-06,1.4636929060567279e-05
7.51878476647949e-07,5.819616148157968e-07,1.116197440892518e-06,1.467203543972268e-05
7.435065546569535e-07,5.686122806903519e-07,1.1130510641440578e-06,1.4734800370232763e-05
7.346636426569757e-07,5.558073816824818e-07,1.1093155895917294e-06,1.4825690941135142e-05
7.253861396967773e-07,5.43554400131476e-07,1.105031496893547e-06,1.4945436791673165e-05
7.157116697037254e-07,5.318578492601109e-07,1.100231872567721e-06,1.5095002667016625e-05
7.05677853495678e-07,5.207202039222045e-07,1.0949418985685444e-06,1.5275493745464326e-05
6.953215287562611e-07,5.101438386201925e-07,1.0891793436432678e-06,1.5488052328180568e-05
6.846784710309839e-07,5.001305415635286e-07,1.082958777897522e-06,1.5733729868333357e-05
6.737845121627908e-07,4.906798856255514e-07,1.076296639245304e-06,1.6013337302961946e-05
6.626777507838821e-07,4.817887897251092e-07,1.0692128698160464e-06,1.6327318903330566e-05
6.51399140423157e-07,4.734523467123068e-07,1.0617303264962688e-06,1.6675696595928478e-05
6.399910351429625e-07,4.6566471970721816e-07,1.053875330169455e-06,1.7058072567156472e-05
6.284958181089367e-07,4.584190454448376e-07,1.0456790650775664e-06,1.74736302140785e-05
6.169548960853987e-07,4.5170782227818134e-07,1.0371785664552215e-06,1.7921113060704835e-05
6.054070763634172e-07,4.455251471277757e-07,1.0284171233359751e-06,1.839881747163156e-05
5.938869474940098e-07,4.3986876203476153e-07,1.019442310588047e-06,1.890460787126735e-05
5.824253333784867e-07,4.347405658455968e-07,1.0103009454064145e-06,1.9435930652146834e-05
5.710526493134589e-07,4.3014581237352096e-07,1.0010340171452277e-06,1.998984612490362e-05
5.59802392076826e-07,4.2609142468952e-07,9.916736643919977e-07,2.0563123151403845e-05
5.487106691623264e-07,4.225846657830986e-07,9.822422284872343e-07,2.115237653481018e-05
5.378128338780639e-07,4.19631850923054e-07,9.727536410284058e-07,2.175418321748266e-05
5.271425845784729e-07,4.172358003364394e-07,9.632164279479755e-07,2.2365162871438094e-05
5.167337010912864e-07,4.153927599315443e-07,9.536372333941552e-07,2.2982038690357387e-05
5.066197775978175e-07,4.140911238374351e-07,9.440239643020876e-07,2.360166919796673e-05
4.968320284255719e-07,4.1331395420408654e-07,9.343861603614924e-07,2.422104296210542e-05
4.873986323387285e-07,4.130438397675533e-07,9.24732727396201e-07,2.4837244699674497e-05
4.783450880324686e-07,4.132653695977812e-07,9.1507152695849e-07,2.5447401011957932e-05
4.696929979679541e-07,4.139632526808176e-07,9.054117879187257e-07,2.6048619244840595e-05
4.6145783816094743e-07,4.1511875359141307e-07,8.957651006672013e-07,2.663794869857532e-05
4.5364779710086775e-07,4.16707798172375e-07,8.861435871344833e-07,2.7212382748102814e-05
4.4626427783961477e-07,4.187021093617842e-07,8.765605107173821e-07,2.7768891787640772e-05
4.3930490117660495e-07,4.21071775555888e-07,8.670368340681095e-07,2.830448090153079e-05
4.3276886647649393e-07,4.237864070082587e-07,8.576066119754224e-07,2.8816281302202252e-05
4.2666001729955113e-07,4.2681484807487004e-07,8.483135813930705e-07,2.93016643409672e-05
4.209838603260589e-07,4.3012659872059205e-07,8.392026818749419e-07,2.975830507798468e-05
4.157420802859469e-07,4.336967903423828e-07,8.303131956397579e-07,3.0184125335195653e-05
4.1093005792454465e-07,4.3751162544701616e-07,8.216746538110371e-07,3.0577193280301624e-05
4.0653786243502454e-07,4.415685464515932e-07,8.133058365968909e-07,3.0935756260971836e-05
4.025521057196387e-07,4.4587040657408457e-07,8.052185998646195e-07,3.12584608641991e-05
3.989568667506645e-07,4.5041945889597724e-07,7.974248961979036e-07,3.154457789554278e-05
3.9573354570813326e-07,4.552143126903725e-07,7.899408662796033e-07,3.1793996512393604e-05
3.928607832362996e-07,4.602482068332982e-07,7.827841571025447e-07,3.200700646021595e-05
3.903153250624285e-07,4.6550854180652073e-07,7.759690056514767e-07,3.2184073370580216e-05
3.8807336859648727e-07,4.709786001936465e-07,7.695058251912963e-07,3.232569690553413e-05
3.8611115617288214e-07,4.7664073330454177e-07,7.634034354258708e-07,3.243234564743082e-05
3.8440416351208355e-07,4.824793604761129e-07,7.576686588242926e-07,3.2504466569400105e-05
3.829259866003819e-07,4.884820392988301e-07,7.523063144408477e-07,3.254250774520597e-05
3.81649066254751e-07,4.946384509676322e-07,7.47324023701272e-07,3.254690137157014e-05
3.8054810961391616e-07,5.00938629007442e-07,7.427371225612514e-07,3.251806156292435e-05
3.796037237287345e-07,5.073715084532276e-07,7.385668491055322e-07,3.2456499502611665e-05
3.788022333703388e-07,5.139250900363893e-07,7.348321514521737e-07,3.236311400625166e-05
3.7813174893603223e-07,5.205892468562903e-07,7.315422052386905e-07,3.223952775720407e-05
3.775787137987896e-07,5.273587028301074e-07,7.28695354960318e-07,3.208819245385577e-05
3.7712746031371563e-07,5.342315596343507e-07,7.262816592181127e-07,3.1912175362613355e-05
3.7676206902876136e-07,5.412040890695828e-07,7.242838099040843e-07,3.171479857382532e-05
3.764691241092658e-07,5.482677176685843e-07,7.22677867932459e-07,3.1499353951501874e-05
3.762402600975432e-07,5.554093013063867e-07,7.214383060492718e-07,3.12690065397579e-05
3.7607272420231227e-07,5.626109558701169e-07,7.205465592970027e-07,3.1026800513306085e-05
3.7596652774740895e-07,5.698491160547619e-07,7.199959442326545e-07,3.077564717489008e-05
3.7592019765874564e-07,5.770946253393463e-07,7.197875150305116e-07,3.051829953504344e-05
3.7592907185258347e-07,5.843146041770936e-07,7.199208040850668e-07,3.0257345144986964e-05
3.759874654098901e-07,5.914764789758989e-07,7.203874387866627e-07,2.9995218938414534e-05
3.760915141335221e-07,5.985528297344138e-07,7.211707437489094e-07,2.973423401519184e-05
3.762388397101008e-07,6.055243321575676e-07,7.222489335152478e-07,2.947661482856515e-05
3.7642632801297936e-07,6.123789391302147e-07,7.235971073173717e-07,2.922450160803727e-05
3.766493573810097e-07,6.191082072428571e-07,7.251862548956249e-07,2.897991996787884e-05
3.7690228323282476e-07,6.257046512213293e-07,7.269823639242785e-07,2.874475204575077e-05
3.771783553213778e-07,6.321616550560126e-07,7.289478052544825e-07,2.8520727773843842e-05
3.774695516223608e-07,6.384733131273373e-07,7.310432615658138e-07,2.830940956545165e-05
3.777680039372212e-07,6.446327740200185e-07,7.332278121325109e-07,2.811215836354381e-05
3.7806739805314796e-07,6.506299450130414e-07,7.354572808840845e-07,2.7930102872869957e-05
3.7836222499337295e-07,6.564497212963805e-07,7.376830295860246e-07,2.7764107787721406e-05
3.78646494322366e-07,6.620713178993953e-07,7.398529109773531e-07,2.7614716253721247e-05
3.789133638631842e-07,6.674685514198603e-07,7.41914204619178e-07,2.748208841104741e-05
3.791552003057481e-07,6.72611057674428e-07,7.438164794304375e-07,2.7365974766468524e-05
3.793638655871872e-07,6.774660520324312e-07,7.455128288885877e-07,2.72657246804036e-05
3.795309873833144e-07,6.82000388487271e-07,7.469602203729445e-07,2.7180336356807597e-05
3.7964783315747726e-07,6.861829321083367e-07,7.481191433531997e-07,2.71085728856952e-05
3.7970540099413297e-07,6.899865032236885e-07,7.489520470838157e-07,2.704911145999252e-05
3.796948599339642e-07,6.933902836818044e-07,7.49422179046047e-07,2.700063626076485e-05
3.7960762985341346e-07,6.963834692700762e-07,7.494942712568848e-07,2.6961826062364652e-05
3.7943578668115846e-07,6.9896644003171e-07,7.491361823312295e-07,2.693127870294953e-05
3.7917338654423775e-07,7.011472244529239e-07,7.483203275752215e-07,2.6907462326954035e-05
3.7881709267570046e-07,7.029374310234257e-07,7.470242259412034e-07,2.68887641879362e-05
3.783648054817618e-07,7.043508016752847e-07,7.452299406554741e-07,2.6873627728705138e-05
3.7781460304678437e-07,7.054037390743883e-07,7.429237499918857e-07,2.686066216435897e-05
3.7716676982063703e-07,7.061171408362513e-07,7.400972140034804e-07,2.684861960794381e-05
3.764261893970986e-07,7.065169420516593e-07,7.367478334611504e-07,2.6836285635508442e-05
3.7560113263996037e-07,7.066306239246698e-07,7.328778064386667e-07,2.682240426063197e-05
3.7470006887580133e-07,7.064834621946869e-07,7.284925439554212e-07,2.680567950513169e-05
3.737296989106835e-07,7.061008644224512e-07,7.236004051425938e-07,2.6784805472339417e-05
3.726946633298155e-07,7.055157973190686e-07,7.182138685938895e-07,2.6758493359308827e-05
3.7159851758575313e-07,7.047741593291994e-07,7.123509954126021e-07,2.6725553082255426e-05
3.7044504269499117e-07,7.039339471029419e-07,7.0603526398922e-07,2.668504979087865e-05
3.692380939154887e-07,7.030592746888242e-07,6.992939363977928e-07,2.663642165214809e-05
3.6797999645535996e-07,7.022138341270697e-07,6.921558464801586e-07,2.657948441385741e-05
3.666706118836415e-07,7.014594394488176e-07,6.84648999773828e-07,2.651437513342203e-05
3.6530901927583953e-07,7.008590999767333e-07,6.767990135798524e-07,2.644148999028952e-05
3.638985730162677e-07,7.004783701823284e-07,6.686295544622192e-07,2.636141727064999e-05
3.624517164047647e-07,7.003824508282393e-07,6.601643401438967e-07,2.6274840413687145e-05
3.6098900270219273e-07,7.00631389398665e-07,6.51428569954807e-07,2.6182406292904527e-05
3.5953417511223e-07,7.012755466354725e-07,6.424485885223863e-07,2.6084625105925047e-05
3.5811078978464497e-07,7.023523946357996e-07,6.332515619045403e-07,2.5981866791476347e-05
3.567409582460161e-07,7.03885543722021e-07,6.238679034869435e-07,2.5874397777077414e-05
3.554446743101922e-07,7.058860117164017e-07,6.143350423876924e-07,2.5762379621999568e-05
3.542391941399357e-07,7.083556386857045e-07,6.046983397186185e-07,2.5645909814895324e-05
3.531384125761665e-07,7.112939729355806e-07,5.950084558200295e-07,2.5525236073122226e-05
3.521521271419638e-07,7.147076362806328e-07,5.853170850815195e-07,2.540102119184353e-05
3.512856032625024e-07,7.186166147899216e-07,5.756730666991364e-07,2.527434674431524e-05
3.505408583929373e-07,7.230528424998125e-07,5.661207985135049e-07,2.514643150053573e-05
3.4991916400854157e-07,7.280523187638643e-07,5.567011309722944e-07,2.5018360362077083e-05
3.4942211948041694e-07,7.336467200760338e-07,5.474522667520045e-07,2.4890978267344323e-05
3.490507786255923e-07,7.398590511779623e-07,5.384086408210753e-07,2.476487784220133e-05
3.488046836937213e-07,7.467030819302123e-07,5.295997106622965e-07,2.4640409341498958e-05
3.486817666594464e-07,7.541840117047991e-07,5.21050128883406e-07,2.4517702412629847e-05
3.48678319996038e-07,7.622983827424134e-07,5.1278076033215e-07,2.439670809628888e-05
3.4878871821163504e-07,7.710329337779204e-07,5.048122236096772e-07,2.4277250318630632e-05
3.490065412598725e-07,7.80362348680797e-07,4.971710725689649e-07,2.415906542055607e-05
3.4932729305710695e-07,7.90246909805469e-07,4.898949035695062e-07,2.4041827271179825e-05
3.497495466717425e-07,8.006328964093031e-07,4.830334816993814e-07,2.3925174020980523e-05
3.502735659312927e-07,8.114555084797252e-07,4.766456390365893e-07,2.380874798170322e-05
3.5090020385617306e-07,8.226423924442719e-07,4.707941127963561e-07,2.3692244173665038e-05
3.5163020169339427e-07,8.341180350592331e-07,4.655414405442104e-07,2.357547155978542e-05
3.5246204041944326e-07,8.458070245733836e-07,4.609476452687995e-07,2.345841837095777e-05
3.533899396018057e-07,8.576340450284194e-07,4.570672865130296e-07,2.334126816254671e-05
3.544038535097512e-07,8.695228917276014e-07,4.5394482628226736e-07,2.3224344101297464e-05
3.554902572453464e-07,8.813961069113104e-07,4.5161206992038785e-07,2.3108033630866544e-05
3.56632806885837e-07,8.931754767796309e-07,4.5008977227099945e-07,2.2992729503148623e-05
3.5781339313797677e-07,9.047835163785869e-07,4.493888351129235e-07,2.2878759687352552e-05
3.590136494332803e-07,9.161439288946458e-07,4.495092082301489e-07,2.276629755050547e-05
3.6021627756231105e-07,9.271808046862561e-07,4.5044247687373247e-07,2.265530996545275e-05
3.614054278261304e-07,9.378183988349754e-07,4.521800512830468e-07,2.2545584641357602e-05
3.6256631005008136e-07,9.479813563980144e-07,4.547189265074586e-07,2.2436805990252045e-05
3.6368489009382366e-07,9.575955372898157e-07,4.580600488147474e-07,2.232863830885719e-05
3.6474830000693827e-07,9.66590054967364e-07,4.622038702448886e-07,2.222079907511976e-05
3.657460567651416e-07,9.748993168168106e-07,4.6714654587490405e-07,2.2113103440653805e-05
3.666700917068947e-07,9.824638292246972e-07,4.728760175633176e-07,2.2005462648647315e-05
3.675127304678065e-07,9.892301978774748e-07,4.793694985936364e-07,2.1897826121032213e-05
3.682654282989807e-07,9.951510839540424e-07,4.865935888229648e-07,2.1790093240595457e-05
3.6891881663960426e-07,1.0001842486473043e-06,4.945064335359349e-07,2.168209050432729e-05
3.694625225394426e-07,1.0042911247714637e-06,5.030629287883388e-07,2.1573656105428405e-05
3.698855874126972e-07,1.0074375474102007e-06,5.122204127817109e-07,2.1464707744952227e-05
3.7017758383942274e-07,1.009595475948993e-06,5.219394073765286e-07,2.1355181989234346e-05
3.703291927208158e-07,1.010742803981422e-06,5.321803576267667e-07,2.124492228844776e-05
3.703328651629379e-07,1.0108634678717607e-06,5.429004911970883e-07,2.1133643751004752e-05
3.701841393729493e-07,1.0099512587598865e-06,5.540516341600914e-07,2.1021012686929755e-05
3.698826894752822e-07,1.0080154696753184e-06,5.655800333026775e-07,2.090681331356274e-05
3.6943327083381097e-07,1.0050830872095925e-06,5.774299476891174e-07,2.079109865077092e-05
3.688462123276131e-07,1.0011946940461202e-06,5.89548143544794e-07,2.067419872758002e-05
3.681350405806698e-07,9.96396887688268e-07,6.018846097852458e-07,2.0556582432275567e-05
3.673125682566728e-07,9.907368233331556e-07,6.143901743359599e-07,2.0438684197326446e-05
3.6638987222745646e-07,9.842614394167894e-07,6.270149435827186e-07,2.03208191101152e-05
3.653777000809872e-07,9.77019315193912e-07,6.397085275065094e-07,2.0203262201170467e-05
3.6428691473276187e-07,9.690612309747428e-07,6.524196423030461e-07,2.0086443511148346e-05
3.6312796643257817e-07,9.60437332339173e-07,6.650943310479236e-07,1.9971093617499995e-05
3.619103834170448e-07,9.511936333172537e-07,6.776750805801907e-07,1.9858226526570192e-05
3.6064203235196034e-07,9.413717425835494e-07,6.901015262685886e-07,1.974900737937719e-05
3.593287903976947e-07,9.310107683078165e-07,7.023120069584625e-07,1.9644620642726496e-05
3.5797463246921257e-07,9.201481638005522e-07,7.142453101047411e-07,1.9546219329784022e-05
3.5658148259284594e-07,9.08819057906317e-07,7.258411380097928e-07,1.9454960785172603e-05
3.5514967858236427e-07,8.970559372397118e-07,7.370407708982333e-07,1.9372047640924907e-05
3.536789973877443e-07,8.848906536829082e-07,7.477910613589844e-07,1.9298728569323467e-05
3.5216888404670506e-07,8.723581433214855e-07,7.580491150706035e-07,1.923634820034173e-05
3.506183089692077e-07,8.594992460078884e-07,7.677825784896209e-07,1.918648592232828e-05
3.49026340423343e-07,8.463617586754584e-07,7.769661150800923e-07,1.9151018548289403e-05
3.4739275221681515e-07,8.329995490384418e-07,7.85577968535352e-07,1.9131972288629346e-05
3.457177693536593e-07,8.194690976421166e-07,7.935979581484647e-07,1.913125999588742e-05
3.440012446906601e-07,8.058248285333744e-07,8.010059934858895e-07,1.915044373671738e-05
3.422418823580605e-07,7.921158089400456e-07,8.07780846282406e-07,1.9190621602077287e-05
3.404369621750097e-07,7.783857845268934e-07,8.139002551457092e-07,1.9252582111626125e-05
3.385827084199547e-07,7.646765309489715e-07,8.193435288638063e-07,1.933718244394841e-05
3.3667496756918457e-07,7.510316664637819e-07,8.240951169095079e-07,1.9445622882983786e-05
3.347103180938449e-07,7.374988029597159e-07,8.281453680532195e-07,1.9579438665058227e-05
3.326879751184964e-07,7.241303629277631e-07,8.314880050449355e-07,1.9740337168906948e-05
3.306110740191504e-07,7.109827577450354e-07,8.341173466615027e-07,1.99300249180035e-05
3.284860249760458e-07,6.981127192069451e-07,8.360271887251098e-07,2.015007350586629e-05
3.263212894488418e-07,6.855722302903519e-07,8.372116354466972e-07,2.0401824104762093e-05
3.241263284111913e-07,6.734064878170206e-07,8.37667817581845e-07,2.068630994353395e-05
3.2191024667780497e-07,6.616564299332672e-07,8.373994030426805e-07,2.1004199029871506e-05
3.196809642277606e-07,6.503622175585014e-07,8.364177676606063e-07,2.1355759516851662e-05
3.174452924448005e-07,6.395639141490918e-07,8.34739131192595e-07,2.174082085466412e-05
3.152096226640222e-07,6.292986939022003e-07,8.323808938042254e-07,2.215872001829644e-05
3.129809805510065e-07,6.195976216800552e-07,8.2935990365973e-07,2.260825618644093e-05
3.1076801703441937e-07,6.104853985226535e-07,8.256919235057316e-07,2.308767098200808e-05
3.085826107855105e-07,6.019816705470142e-07,8.213926320581251e-07,2.3594654802781744e-05
3.064409263057831e-07,5.941011743628135e-07,8.164795811574427e-07,2.4126406414485747e-05
3.04361360187389e-07,5.868537214144129e-07,8.109724702697312e-07,2.4679774950774638e-05
3.023611047614589e-07,5.802449836179315e-07,8.048933826503744e-07,2.5251435090387664e-05
3.004541109299651e-07,5.742766150363497e-07,7.982698305887754e-07,2.5838017955326525e-05
2.986502909338756e-07,5.689454475379596e-07,7.911368001493137e-07,2.643618699014639e-05
2.9695596049714644e-07,5.642423408816871e-07,7.835333507694338e-07,2.7042684593274054e-05
2.9537547531502377e-07,5.601509440006068e-07,7.754974797006109e-07,2.765434932369222e-05
2.939124849639504e-07,5.566475856230477e-07,7.670652542580955e-07,2.8268092368272388e-05
2.925701236176589e-07,5.53703022031036e-07,7.582732520681858e-07,2.8880853960162293e-05
2.91350921113596e-07,5.512850308809975e-07,7.491591689070401e-07,2.9489576545942968e-05
2.902570392479764e-07,5.493599439577154e-07,7.397595232606302e-07,3.009119549212639e-05
2.892904627015409e-07,5.478931587416666e-07,7.301078117920069e-07,3.0682627148762496e-05
2.8845233345383767e-07,5.468522079647421e-07,7.202346301242244e-07,3.1260758867830014e-05
2.877421070828812e-07,5.462125869402051e-07,7.101682721934419e-07,3.1822449720469504e-05
2.8715834632507983e-07,5.45959399837805e-07,6.999348747433378e-07,3.236453906273156e-05
2.867013791004445e-07,5.460817214093649e-07,6.895586185511518e-07,3.288386311683109e-05
2.863751140028055e-07,5.465661389643659e-07,6.79062293795029e-07,3.337728033259638e-05
2.861856331296212e-07,5.473964825906996e-07,6.684674453651465e-07,3.38417154731826e-05
2.8613866995945914e-07,5.485585817455063e-07,6.577950989284394e-07,3.427424274647794e-05
2.862384980869647e-07,5.500419967826868e-07,6.470706917964902e-07,3.467220355238289e-05
2.8648707912132287e-07,5.518359574162572e-07,6.363329248140718e-07,3.503331498830144e-05
2.8688348379530594e-07,5.5392519348671e-07,6.256386964472842e-07,3.5355734276670814e-05
2.874259238567416e-07,5.562886888007339e-07,6.150577312919928e-07,3.563808083822288e-05
2.881147640167918e-07,5.589006081778668e-07,6.046615564304315e-07,3.587943848074344e-05
2.889523090461967e-07,5.617323597875414e-07,5.945152099633663e-07,3.6079365264809364e-05
2.8993978844930845e-07,5.647536511474805e-07,5.846737318784206e-07,3.6237881647684735e-05
2.910749824161373e-07,5.679334530165239e-07,5.751825283546865e-07,3.635536153272086e-05
2.923523358115359e-07,5.712436739480867e-07,5.660809919415395e-07,3.6432344851885904e-05
2.937655114867487e-07,5.746643161364972e-07,5.574078533888789e-07,3.6469391642995736e-05
2.953098744003387e-07,5.781870795148021e-07,5.492069421949268e-07,3.646704540859256e-05
2.9698176955282745e-07,5.818141841454182e-07,5.415323009667231e-07,3.642586048372648e-05
2.987756755458896e-07,5.855512570871278e-07,5.344505071092702e-07,3.634642426491933e-05
3.006831431483802e-07,5.893998894370121e-07,5.280372377671028e-07,3.6229363169542814e-05
3.0269411090776246e-07,5.93354707363849e-07,5.223675294290874e-07,3.607540008727796e-05
3.047978597847775e-07,5.974035243209782e-07,5.175054218178897e-07,3.5885545020637e-05
3.0698301875712384e-07,6.015291469766092e-07,5.134999991810486e-07,3.5661319058996863e-05
3.0923855050697433e-07,6.05710884559271e-07,5.103866723719105e-07,3.5404786717814146e-05
3.115547990187265e-07,6.099242285361605e-07,5.081876272034727e-07,3.5118377360828164e-05
3.139227484795136e-07,6.1414248161521e-07,5.069104194937594e-07,3.480464744221414e-05
3.16333735910076e-07,6.183414767418549e-07,5.06547556492915e-07,3.4466113001915e-05
3.187803676101881e-07,6.22502472167621e-07,5.070774021419037e-07,3.4105302287774666e-05
3.2125612419314016e-07,6.266108079055857e-07,5.084658712717481e-07,3.372504081755197e-05
3.237551437142251e-07,6.306521426858488e-07,5.10670135139928e-07,3.332867834814859e-05
3.262744536611477e-07,6.346095188420807e-07,5.136432144975082e-07,3.2920036384480684e-05
3.2881525477380906e-07,6.384631188480597e-07,5.173362713588454e-07,3.250319709342637e-05
3.313801089387619e-07,6.421907714820138e-07,5.216989812665505e-07,3.208231062133944e-05
3.339693111049369e-07,6.457673737068453e-07,5.266805549728667e-07,3.1661458684608694e-05
3.3658084165312407e-07,6.491645566770819e-07,5.322322754355649e-07,3.124456467427204e-05
3.3921209798491267e-07,6.5235178891097e-07,5.383098808605963e-07,3.083533600872528e-05
3.4185958334326385e-07,6.55298724150681e-07,5.448723915855437e-07,3.043722248840321e-05
3.4451784216374933e-07,6.579787829908222e-07,5.518774754851456e-07,3.005339366545753e-05
3.47180084211304e-07,6.603722252857394e-07,5.592781641754762e-07,2.9686741805334722e-05
3.498391600441365e-07,6.624651085414697e-07,5.67023057039e-07,2.9339879483048357e-05
3.52487548302609e-07,6.64245508118972e-07,5.750583156221814e-07,2.9015087998046803e-05
3.5511731803509044e-07,6.657021518266807e-07,5.833308554102594e-07,2.8714228444883446e-05
3.5772036839623726e-07,6.668254158562493e-07,5.917920585004981e-07,2.84386563566287e-05
3.6028901454378475e-07,6.676086268870568e-07,6.004001701959625e-07,2.8189168007248976e-05
3.6281729104182795e-07,6.680497036357667e-07,6.091210351595362e-07,2.7966027288201263e-05
3.653020455322676e-07,6.681511170288259e-07,6.179280236620547e-07,2.77690926495033e-05
3.6774373322179883e-07,6.679174335243601e-07,6.268007043080408e-07,2.759797617278048e-05
3.7014700441635365e-07,6.673534758484623e-07,6.357205917478011e-07,2.7452180454488948e-05
3.7251970581937255e-07,6.664635567050753e-07,6.446657101050803e-07,2.733121324295288e-05
3.7487108690032857e-07,6.65250324960801e-07,6.536086769993386e-07,2.7234662097212675e-05
3.772115807319908e-07,6.637147120778929e-07,6.625187989259093e-07,2.7162203530880363e-05
3.7955278976409724e-07,6.6185928226029e-07,6.713659243805169e-07,2.711355120558645e-05
3.8190477197005437e-07,6.596947622609235e-07,6.801256539095861e-07,2.708836384435164e-05
3.8427286320345715e-07,6.572461168532739e-07,6.887829400479802e-07,2.708612434167492e-05
3.8665782344350813e-07,6.545532313972706e-07,6.973293048829611e-07,2.7106013722031023e-05
3.8905765738363037e-07,6.516654390181382e-07,7.057564772678048e-07,2.714685220620784e-05
3.9146786320615477e-07,6.486362997746024e-07,7.14053590180018e-07,2.720714307257668e-05
3.93880969760453e-07,6.455257731581287e-07,7.222083659859344e-07,2.728515537849021e-05
3.9628764841387136e-07,6.424061721872387e-07,7.302078572517192e-07,2.737898932200889e-05
3.986785014778582e-07,6.39361972600076e-07,7.38036581230475e-07,2.748662911813019e-05
4.010442473044216e-07,6.364833838220685e-07,7.456736399646849e-07,2.760597954726736e-05
4.033749959231557e-07,6.338610332081403e-07,7.530916849598601e-07,2.7734862141238092e-05
4.056603111010248e-07,6.315825977434904e-07,7.602587615163052e-07,2.78710010884729e-05
4.0788932469092797e-07,6.297268845401698e-07,7.671420284200185e-07,2.8012069263333186e-05
4.10049911690092e-07,6.283565141051591e-07,7.737109192904571e-07,2.815583012363208e-05
4.121277276965379e-07,6.275146806731851e-07,7.799377795961894e-07,2.8300364407129804e-05
4.1410676847877523e-07,6.272260600141194e-07,7.857964832438777e-07,2.844427622863872e-05
4.159717127350264e-07,6.274989135529646e-07,7.912610640002081e-07,2.8586731059529242e-05
4.177096682002425e-07,6.283294713241849e-07,7.96306646339182e-07,2.872732385521536e-05
4.1930973093625176e-07,6.297103243153382e-07,8.00911925179676e-07,2.886588391859862e-05
4.207621190945786e-07,6.31640415080137e-07,8.050593832154515e-07,2.9002268367298888e-05
4.220586878633897e-07,6.341327250785144e-07,8.08732809721581e-07,2.913618170181217e-05
4.231935706009642e-07,6.37218891859434e-07,8.11915094075491e-07,2.9267100226331306e-05
4.2416269695356285e-07,6.409527973245142e-07,8.145873769001931e-07,2.9394312863360182e-05
4.2496354979922686e-07,6.454122958889942e-07,8.167287082827975e-07,2.9516987778231317e-05
4.255948476475683e-07,6.506946067807738e-07,8.183162259529853e-07,2.96341886857353e-05
4.260552825834065e-07,6.569043874318537e-07,8.193271547654365e-07,2.974488993910523e-05
4.263436290260627e-07,6.641388828676939e-07,8.197429476822785e-07,2.984812639413081e-05
4.2645999550160005e-07,6.724757832457398e-07,8.195535738255278e-07,2.994322264834984e-05
4.2640557639385143e-07,6.819668632725113e-07,8.187596819743809e-07,3.0029833605250268e-05
4.261817768965398e-07,6.9263589670825e-07,8.173726672250176e-07,3.0107765612990718e-05
4.2578993771782176e-07,7.044785561707042e-07,8.154133137635755e-07,3.0176877944123644e-05
4.2523083948945844e-07,7.17464224830716e-07,8.12907870077003e-07,3.0237264665757282e-05
4.245040954668461e-07,7.315388690618629e-07,8.098823830449661e-07,3.028953449542215e-05
4.2360853059682633e-07,7.466278591734008e-07,8.063604640107895e-07,3.033485586975193e-05
4.225438317026882e-07,7.6263951820117e-07,8.023674467602032e-07,3.037472808913753e-05
4.213123716479788e-07,7.794695763996278e-07,7.979357078700765e-07,3.0410694403425093e-05
4.199203471066348e-07,7.9700679564677e-07,7.931038496173115e-07,3.0444128885092047e-05
4.1837807973044795e-07,8.151416083561104e-07,7.879110659892239e-07,3.047610545205214e-05
4.166984839359278e-07,8.337759696371533e-07,7.823931280391328e-07,3.050733655759668e-05
4.1489423778869365e-07,8.528281190739728e-07,7.765812282841309e-07,3.0538163035670445e-05
4.129761672221254e-07,8.722301437937697e-07,7.70501873300615e-07,3.056856762287152e-05
4.1095294175742796e-07,8.91923428492354e-07,7.641780656652658e-07,3.05981948492369e-05
4.088306058316799e-07,9.118560842693249e-07,7.576309119587279e-07,3.062637965983466e-05
4.066125012037653e-07,9.319810774940701e-07,7.508792973230342e-07,3.065218705696354e-05
4.043010466819599e-07,9.522533766996279e-07,7.439381984187208e-07,3.0674453698199044e-05
4.019005015256664e-07,9.726264747031916e-07,7.36818829333193e-07,3.0691828065358505e-05
3.9941804622411297e-07,9.930483203515185e-07,7.29532406014424e-07,3.0702817158267544e-05
3.968625241826593e-07,1.0134578776510222e-06,7.220949386068396e-07,3.07058464199245e-05
3.942424738137081e-07,1.0337847889875795e-06,7.145287320683932e-07,3.0699340628302744e-05
3.915647707887345e-07,1.0539510483455586e-06,7.068603131302524e-07,3.0681805827981776e-05
3.888344402219881e-07,1.0738721886955836e-06,6.991170434682743e-07,3.0651856237199356e-05
3.860554336584679e-07,1.093458361333297e-06,6.913237087438703e-07,3.060818509494614e-05
3.8323150242641647e-07,1.1126165084674115e-06,6.835003083193144e-07,3.054954725935389e-05
3.803670900485231e-07,1.1312539373818932e-06,6.756616210181888e-07,3.0474784736601726e-05
3.7746796997534594e-07,1.1492818908450243e-06,6.678177360894085e-07,3.038286033098988e-05
3.745405229596993e-07,1.1666168228412011e-06,6.599746984742978e-07,3.0272864598323645e-05
3.715903429243181e-07,1.1831796484514277e-06,6.521350374195314e-07,3.0143998970746435e-05
3.686220420898254e-07,1.1988947720248873e-06,6.442988415388714e-07,2.9995550867471864e-05
3.656402610091431e-07,1.2136897301333617e-06,6.364669375379002e-07,2.982689229850648e-05
3.6265013783557206e-07,1.2274979419471134e-06,6.286455275758425e-07,2.9637567992099573e-05
3.596564179026969e-07,1.2402669096364615e-06,6.208477324167961e-07,2.9427470838477546e-05
3.5666266763430703e-07,1.2519668782292022e-06,6.130902424320137e-07,2.919696822584112e-05
3.536723405880076e-07,1.2625909954487808e-06,6.053896469089095e-07,2.8946876959193896e-05
3.506916411378648e-07,1.272146041911204e-06,5.977620752473481e-07,2.867832344835861e-05
3.477322256570257e-07,1.2806424171986884e-06,5.902249451803178e-07,2.8392569042334722e-05
3.448109568733725e-07,1.2880893836579012e-06,5.827982392866469e-07,2.8090893658492805e-05
3.419466691577784e-07,1.294493975110538e-06,5.755034045167122e-07,2.777459896746949e-05
3.3915719351509054e-07,1.2998623421797984e-06,5.683608289512723e-07,2.7445050633299883e-05
3.364587042266796e-07,1.3042023122631772e-06,5.613898908843027e-07,2.7103645842871467e-05
3.338675972720921e-07,1.3075228967512488e-06,5.546124305094711e-07,2.6751724529382635e-05
3.3140335479757385e-07,1.309830289018416e-06,5.480549637277691e-07,2.639052791017341e-05
3.2908943446437136e-07,1.3111251160103364e-06,5.417463945266851e-07,2.6021290793627107e-05
3.2695152279671195e-07,1.3114039154703713e-06,5.357149847580466e-07,2.564546736041376e-05
3.25014348154366e-07,1.3106630235733623e-06,5.299899337596558e-07,2.526495760946517e-05
3.232983272472173e-07,1.3089016834235001e-06,5.246068169172097e-07,2.488216673559776e-05
3.218176769038742e-07,1.3061228792485675e-06,5.196112484310632e-07,2.4499860641401347e-05
3.2058119324893506e-07,1.302333070337755e-06,5.150565003221833e-07,2.4120904658758986e-05
3.1959465521579945e-07,1.297543510960637e-06,5.109963386764344e-07,2.374801002717926e-05
3.188614787262144e-07,1.2917714995285184e-06,5.074775740218086e-07,2.3383599940349515e-05
3.1838085935758884e-07,1.2850376355215263e-06,5.045353474860756e-07,2.302980989977807e-05
3.181465708617978e-07,1.2773617119924922e-06,5.021920127445501e-07,2.268856730501478e-05
3.1814794175874466e-07,1.2687617855393116e-06,5.004586202943694e-07,2.23617485676746e-05
3.183713567026993e-07,1.2592553400574898e-06,4.993365101841685e-07,2.2051416735924397e-05
3.1880104763167636e-07,1.2488606595061267e-06,4.988175000552704e-07,2.176000591653225e-05
3.194195700282804e-07,1.2375983165327749e-06,4.988838684778477e-07,2.1490282148149732e-05
3.2020854469453413e-07,1.2254911547844229e-06,4.995098894008471e-07,2.124510703115179e-05
3.211501111773928e-07,1.2125625295860229e-06,5.006643522408439e-07,2.102716463375101e-05
3.222283501812257e-07,1.198835339227716e-06,5.023123721089968e-07,2.083874460775611e-05
3.234294406057056e-07,1.1843324210534815e-06,5.044168961389997e-07,2.0681660715716724e-05
3.247412034729977e-07,1.1690772805260565e-06,5.069417171651227e-07,2.055741794062442e-05
3.2615261318313736e-07,1.1530952485557908e-06,5.0985535151769e-07,2.0467536185240605e-05
3.2765279903980805e-07,1.136415734236195e-06,5.131323242527735e-07,2.041373566093672e-05
3.2922998466370345e-07,1.119076415062411e-06,5.167494140606955e-07,2.03978871731322e-05
3.3087181167693555e-07,1.1011300884904738e-06,5.206800560270158e-07,2.0421880387455263e-05
3.3256729496663013e-07,1.0826508046035773e-06,5.248934592372661e-07,2.0487519044323345e-05
3.343078650457115e-07,1.0637311154729264e-06,5.293582183255036e-07,2.0596430740286213e-05
3.3608613686739625e-07,1.044469935679569e-06,5.340439492438111e-07,2.074995698294854e-05
3.3789521057337906e-07,1.0249627874033579e-06,5.389194307972729e-07,2.0949035783004813e-05
3.397296307270345e-07,1.0053006810578307e-06,5.439507997419153e-07,2.119412034835527e-05
3.415857978008254e-07,9.855713141795429e-07,5.491009487865833e-07,2.1485156890413155e-05
3.43461527535083e-07,9.65858457099471e-07,5.543292906037244e-07,2.1821600276295755e-05
3.453550224882781e-07,9.462423977707836e-07,5.595925603728798e-07,2.2202421357753286e-05
3.472626396848035e-07,9.268030761628179e-07,5.648470813650288e-07,2.262608458393078e-05
3.4917702676347444e-07,9.076241461281742e-07,5.700507081329804e-07,2.309050324743513e-05
3.5108727452762626e-07,8.887956677487181e-07,5.751634038777581e-07,2.359299521326763e-05
3.529798022922475e-07,8.704126126666063e-07,5.801476310742936e-07,2.4130299434258944e-05
3.5483852154541897e-07,8.525672491899903e-07,5.849691756510481e-07,2.4698696668934546e-05
3.56644731295359e-07,8.353397713326823e-07,5.895971780563345e-07,2.5294179232921963e-05
3.5837752021890435e-07,8.187942501669219e-07,5.9400247507159e-07,2.591259223202221e-05
3.600147375024499e-07,8.029800120312767e-07,5.981557330987704e-07,2.6549750935472573e-05
3.6153473206730534e-07,7.879349714831734e-07,6.020271265933115e-07,2.720155696004377e-05
3.629190274459294e-07,7.736902006746774e-07,6.055873786807335e-07,2.7864079604339728e-05
3.641539557809678e-07,7.60273760732616e-07,6.088093935806292e-07,2.853356845384883e-05
3.6523004667360354e-07,7.477108457092182e-07,6.116694909931485e-07,2.9206397914884973e-05
3.66141907693693e-07,7.36021497155563e-07,6.141470384992068e-07,2.987896969313517e-05
3.668898384787222e-07,7.252180671067307e-07,6.162232035894855e-07,3.054764845754237e-05
3.6748078575275886e-07,7.15302795362449e-07,6.178804143362324e-07,3.120878357398377e-05
3.67926860727389e-07,7.062664991614584e-07,6.191020499255951e-07,3.1858756463979055e-05
3.6824232338550505e-07,6.980892559938131e-07,6.198720352009196e-07,3.24939860401913e-05
3.684410849453037e-07,6.907441467603138e-07,6.20175458491755e-07,3.3110917202267234e-05
3.6853508670829494e-07,6.842040518039895e-07,6.199998569884975e-07,3.3706042907907864e-05
3.685331378394581e-07,6.784463626440144e-07,6.193364559329122e-07,3.427596647901171e-05
3.684405338452681e-07,6.734519206923565e-07,6.181815504311335e-07,3.481748980490403e-05
