8.329424321216345e-07,7.84451721062885e-07,3.949184066781964e-07,3.4527291720612656e-05
8.500218444791897e-07,7.929881421612143e-07,3.913766737651106e-07,3.358610235633998e-05
8.669396664382204e-07,8.018350114780803e-07,3.8769036536810824e-07,3.263179250187625e-05
8.837174488324968e-07,8.109965012392304e-07,3.8387620101737773e-07,3.166942612145285e-05
9.003773398107138e-07,8.204681129427647e-07,3.799507476993532e-07,3.0704485580086377e-05
9.169327439805384e-07,8.302371932641599e-07,3.7593141612491275e-07,2.9742548140170783e-05
9.333806104397743e-07,8.40290974284643e-07,3.718363842047667e-07,2.878910321073483e-05
9.497004915241665e-07,8.506249855270082e-07,3.6768368734787394e-07,2.784949300124418e-05
9.658586814989326e-07,8.612459690284144e-07,3.6349188969936255e-07,2.692882838698098e-05
9.818140060409422e-07,8.721683938494297e-07,3.592818869800478e-07,2.6031826255576682e-05
9.975227743573884e-07,8.834047548421267e-07,3.5507659841182437e-07,2.5162660669437256e-05
1.0129405988453443e-06,8.949550306682615e-07,3.5089821711397987e-07,2.4324900437989056e-05
1.0280232052323798e-06,9.068036993842356e-07,3.467656791448282e-07,2.352152307544337e-05
1.0427297324118622e-06,9.189246437275236e-07,3.4269440277014685e-07,2.275502431041249e-05
1.0570256654528679e-06,9.312882479616669e-07,3.386984358966721e-07,2.202761734140264e-05
1.0708813122552868e-06,9.438651253840922e-07,3.3479277527762013e-07,2.134138304135544e-05
1.0842675026429014e-06,9.566246394503462e-07,3.3099352319018457e-07,2.069830673521749e-05
1.0971521138424135e-06,9.695345767733272e-07,3.2731702299311537e-07,2.0100504947903203e-05
1.1094990373231682e-06,9.825657557405015e-07,3.2377971169313433e-07,1.955096245684946e-05
1.1212683100123159e-06,9.956944900583512e-07,3.203974748532434e-07,1.9054266509098228e-05
1.132415099784809e-06,1.0088998771912241e-06,3.171843182225295e-07,1.86164918546614e-05
1.1428888181366643e-06,1.0221609600846942e-06,3.141533857929689e-07,1.8244422352275925e-05
1.1526344159575485e-06,1.0354549569931404e-06,3.113210478381591e-07,1.7944868941308498e-05
1.16159463487903e-06,1.0487546913057769e-06,3.0870936993681304e-07,1.7724337652631852e-05
1.1697122225989318e-06,1.0620264201871092e-06,3.0634295838949816e-07,1.758886472857504e-05
1.176932264192896e-06,1.0752303681985548e-06,3.0424310703318423e-07,1.754376430822723e-05
1.1832038911086409e-06,1.0883238017999399e-06,3.024244793188097e-07,1.7593264144580245e-05
1.1884816747593394e-06,1.1012636442064893e-06,3.0089488855196827e-07,1.7740190948403668e-05
1.1927274404518845e-06,1.1140071980125074e-06,2.996564075710444e-07,1.798584029883334e-05
1.1959107701948669e-06,1.1265132616667791e-06,2.987073410422717e-07,1.833020064365719e-05
1.1980070503909686e-06,1.138743177860633e-06,2.980451255414466e-07,1.877251811466803e-05
1.198995196842895e-06,1.15065938797814e-06,2.9766964112217e-07,1.931183569524697e-05
1.1988566247257154e-06,1.1622237584109773e-06,2.975847188453637e-07,1.9947241194845587e-05
1.1975748494782286e-06,1.1733972746032818e-06,2.977963126444517e-07,2.067794570013459e-05
1.1951357999710995e-06,1.18413848968196e-06,2.983102019036518e-07,2.1503385387333246e-05
1.1915287010886557e-06,1.194400936267304e-06,2.991318737285341e-07,2.242331244485063e-05
1.1867462311771348e-06,1.2041324999127691e-06,3.002663555655991e-07,2.3437713192781493e-05
1.1807845141824885e-06,1.2132769015552916e-06,3.017160855239867e-07,2.4546536485888353e-05
1.1736439727999457e-06,1.2217759305260685e-06,3.034786463553193e-07,2.5749373766906518e-05
1.165329657429833e-06,1.22957267370569e-06,3.055463087609137e-07,2.704518638009064e-05
1.1558505787427737e-06,1.2366151773617509e-06,3.079069506644033e-07,2.8432101451417835e-05
1.1452201024957516e-06,1.2428574911911195e-06,3.1054441896034797e-07,2.990726395440368e-05
1.133457698866626e-06,1.2482575293363675e-06,3.1343830732820486e-07,3.1466701759780704e-05
1.1205895983240372e-06,1.2527751366549666e-06,3.16565158577818e-07,3.3105194671633776e-05
1.106647285639675e-06,1.2563719663310443e-06,3.1990007361234267e-07,3.481620772030813e-05
1.0916655234942345e-06,1.2590120323931264e-06,3.234164185882718e-07,3.659199173755769e-05
1.0756815183598357e-06,1.2606624101950512e-06,3.27085366448812e-07,3.842387846143388e-05
1.0587351737967314e-06,1.2612946531790258e-06,3.3087789227239196e-07,4.0302644857143576e-05
1.040869591460637e-06,1.2608879632681286e-06,3.3476821181316586e-07,4.2218805252161156e-05
1.022130980142569e-06,1.2594328761697088e-06,3.387352493173985e-07,4.4162792131794655e-05
1.0025679507855531e-06,1.2569311979386764e-06,3.427611720512776e-07,4.6125031352319954e-05
9.822313320844655e-07,1.2533922437036881e-06,3.468300616006093e-07,4.809592586257977e-05
9.611747177802009e-07,1.2488303426817526e-06,3.5092818497739646e-07,5e-06
9.394542847130527e-07,1.2432643784369123e-06,3.5504344125308494e-07,5e-06
9.171277550924768e-07,1.236716097401981e-06,3.591628523429317e-07,5e-06
8.942537515771891e-07,1.2292074252417184e-06,3.632710604309897e-07,5e-06
8.708915545866659e-07,1.2207602472425042e-06,3.673527702406331e-07,5e-06
8.47100694508256e-07,1.2113985914881443e-06,3.7139643510380366e-07,5e-06
8.229404433900929e-07,1.201149546891225e-06,3.7539370724711024e-07,5e-06
7.984702236568034e-07,1.19004222141698e-06,3.793354080673569e-07,5e-06
7.737520491388566e-07,1.178106893756485e-06,3.832094411149927e-07,5e-06
7.48853199551772e-07,1.1653748645689628e-06,3.87001768504876e-07,5e-06
7.238465066062203e-07,1.1518785110776562e-06,3.906985052799429e-07,5e-06
6.988090171258015e-07,1.1376511329547612e-06,3.942883659671985e-07,5e-06
6.738198320939658e-07,1.1227273377868744e-06,3.9776361310581407e-07,5e-06
6.489566023129552e-07,1.1071457865537186e-06,4.011181210924957e-07,5e-06
6.242922584160068e-07,1.0909533382368331e-06,4.043451112260696e-07,5e-06
5.998940264868443e-07,1.0742086578219813e-06,4.0743716760336147e-07,5e-06
5.75824389121429e-07,1.0569844738738849e-06,4.103876625104686e-07,5e-06
5.521422769126438e-07,1.039366168423519e-06,4.1319174544252314e-07,5e-06
5.289039553818822e-07,1.0214458773524908e-06,4.1584619677831616e-07,5e-06
5.061639459218575e-07,1.003315657456778e-06,4.18348306867775e-07,5e-06
4.83974720994299e-07,9.850646593681471e-07,4.2069461416021046e-07,5e-06
4.623844814840968e-07,9.667820977478909e-07,4.2288054967475816e-07,5e-06
4.4143537551272717e-07,9.485604122511637e-07,4.249014627327754e-07,5e-06
4.2116453074191813e-07,9.304915512005386e-07,4.267539231467683e-07,5e-06
4.0160759184293945e-07,9.126592763212869e-07,4.284354780276568e-07,5e-06
3.828014817521055e-07,8.951354072485136e-07,4.299431179658577e-07,5e-06
3.647830560579833e-07,8.779816842547083e-07,4.3127243277664187e-07,5e-06
3.475852435561414e-07,8.612537716223536e-07,4.324185774726594e-07,5e-06
3.312351156409701e-07,8.450046041216204e-07,4.333783410613263e-07,5e-06
3.157548505020397e-07,8.292878388968871e-07,4.341510998539177e-07,5e-06
3.0116344499645854e-07,8.141615713468131e-07,4.347373521554452e-07,5e-06
2.8747784189659145e-07,7.996881577691356e-07,4.3513662882783004e-07,5e-06
2.747133805155077e-07,7.859286134281277e-07,4.353465227718378e-07,5e-06
2.628839920591966e-07,7.729368166839526e-07,4.3536304676698504e-07,5e-06
2.520021223417601e-07,7.607593678058579e-07,4.3518318727929924e-07,5e-06
2.4207807835502377e-07,7.494414917435255e-07,4.348084910906126e-07,5e-06
2.3311985173897772e-07,7.390338288135938e-07,4.342462649669094e-07,5e-06
2.251329243249404e-07,7.295945802191292e-07,4.335081390360118e-07,5e-06
2.1811797713676108e-07,7.211866735251574e-07,4.326085537905926e-07,5e-06
2.1206833347047967e-07,7.138720607773677e-07,4.315635328427509e-07,5e-06
2.0697045387082812e-07,7.077035769889477e-07,4.303883723524175e-07,5e-06
2.0280635867580635e-07,7.027181100253915e-07,4.290953285575556e-07,5e-06
1.995543371780981e-07,6.989358899564866e-07,4.276933646042926e-07,5e-06
1.9718759994759175e-07,6.963627948844997e-07,4.2618969081209593e-07,5e-06
1.9567374759828678e-07,6.949904688191143e-07,4.245924574950172e-07,5e-06
1.9497654183928012e-07,6.947958463565234e-07,4.229145367514619e-07,5e-06
1.9505902905516686e-07,6.957425584283349e-07,4.211755568125108e-07,5e-06
1.95886128829702e-07,6.977819781526388e-07,4.19399336280445e-07,5e-06
1.974258484251141e-07,7.008533791762849e-07,4.176100227933555e-07,5e-06
1.9964952820790363e-07,7.048864056166802e-07,4.158307836046793e-07,5e-06
2.0253062492929746e-07,7.09805904247718e-07,4.1408363185266667e-07,5e-06
2.060418475508671e-07,7.155353771056021e-07,4.123891233581746e-07,4.998288336167701e-05
2.1015284609060932e-07,7.219971170729688e-07,4.1076731297017715e-07,4.853433201573922e-05
2.1483052049528264e-07,7.291101518085744e-07,4.0924066565270046e-07,4.709418096821139e-05
2.2004068518583059e-07,7.367883257806483e-07,4.078360195865914e-07,4.566618471669675e-05
2.257480878523148e-07,7.449407925715624e-07,4.06582266482397e-07,4.4253946376935244e-05
2.319147118097465e-07,7.534747563292405e-07,4.055066967449871e-07,4.286085811135718e-05
2.3849916924306767e-07,7.622985683714329e-07,4.0463385241675613e-07,4.149005249900604e-05
2.454582563210337e-07,7.713241201300879e-07,4.0398499827620026e-07,4.0144346446096e-05
2.5274906766331165e-07,7.804680689901996e-07,4.035764879197274e-07,3.882619214208217e-05
2.603298107476239e-07,7.896535839076044e-07,4.034188897959465e-07,3.753772047196241e-05
2.681590327519493e-07,7.98814193514891e-07,4.0351920448369274e-07,3.628088213134897e-05
2.761947006992375e-07,8.078961374451513e-07,4.038856266884489e-07,3.505752119909317e-05
2.843940715812932e-07,8.168554439586681e-07,4.045303246274786e-07,3.3869287894175124e-05
2.927140635224945e-07,8.256515665942679e-07,4.0546648891367094e-07,3.271752234854549e-05
3.011118400935016e-07,8.342426044486241e-07,4.0670210252166314e-07,3.160324497833076e-05
3.0954480845730015e-07,8.425854704830105e-07,4.0823639580054593e-07,3.0527218749795175e-05
3.1796965608740893e-07,8.506397679886811e-07,4.100614196600325e-07,2.9489991410868184e-05
3.263418169501193e-07,8.583722010203363e-07,4.12165642305393e-07,2.84918921404214e-05
3.346166155787561e-07,8.657598464215666e-07,4.1453648525674586e-07,2.7533007132184948e-05
3.427513838437841e-07,8.727907618646223e-07,4.171637494484083e-07,2.6613166692682245e-05
3.5070662564601867e-07,8.794605050608317e-07,4.200445968010177e-07,2.5731974971625337e-05
3.5844589970713993e-07,8.857657436406963e-07,4.231841869432072e-07,2.488889634678676e-05
3.659357907648744e-07,8.916987861199183e-07,4.265897665198913e-07,2.408338812129965e-05
3.731462107123442e-07,8.972459029991695e-07,4.3026428188621903e-07,2.331503216275552e-05
3.80050598545789e-07,9.023889036035135e-07,4.342035486996133e-07,2.2583588530832487e-05
3.866266262985408e-07,9.071097626482241e-07,4.3839645260224583e-07,2.188893499091644e-05
3.928570555495424e-07,9.113974720063072e-07,4.428269886533096e-07,2.123092506068556e-05
3.9872857666505326e-07,9.152511296551293e-07,4.474755595538885e-07,2.0609251979258052e-05
4.0422942251635937e-07,9.186758686228329e-07,4.523187074609254e-07,2.0023392509044172e-05
4.093489979628581e-07,9.216766392560486e-07,4.5732965621434047e-07,1.9472605688580866e-05
4.140788029172218e-07,9.242555203977457e-07,4.62479557924045e-07,1.895594690855691e-05
4.184124098993929e-07,9.264125559646848e-07,4.6773730374856557e-07,1.847236074915833e-05
4.223449032563517e-07,9.281464181389616e-07,4.730688712468058e-07,1.8020937805872035e-05
4.25872054837576e-07,9.294535960429329e-07,4.784387447931639e-07,1.7601222829186987e-05
4.2898928947353313e-07,9.30328534659602e-07,4.838120553700172e-07,1.721329461182683e-05
4.316917123995744e-07,9.307657350818928e-07,4.89154172583358e-07,1.6857549032530453e-05
4.3397535783828714e-07,9.307625168271247e-07,4.944289513764741e-07,1.6534414350653338e-05
4.3583812901508963e-07,9.303209646523323e-07,4.995986788687445e-07,1.624417320716684e-05
4.3728057167543536e-07,9.294467042718945e-07,5.046256396543066e-07,1.598690700708631e-05
4.383082510138808e-07,9.281447303296984e-07,5.094742654269298e-07,1.5762612936276464e-05
4.3893463926124536e-07,9.264170921280428e-07,5.141129270681446e-07,1.5571454814451966e-05
4.39181130565541e-07,9.242643515229375e-07,5.185138692975411e-07,1.5413906221315494e-05
4.3907324759217254e-07,9.216874692111904e-07,5.226518008186249e-07,1.5290689181734455e-05
4.386363357555069e-07,9.186875137569851e-07,5.265029209021504e-07,1.5202648840074106e-05
4.378947952232335e-07,9.15263757920199e-07,5.300442111348984e-07,1.5150660872954493e-05
4.3687463312709273e-07,9.114127890410986e-07,5.332527194367328e-07,1.5135562230966187e-05
4.3560608725579316e-07,9.071302082324923e-07,5.361058354784514e-07,1.5158072514895364e-05
4.3412325065458935e-07,9.024124428303291e-07,5.385826543027777e-07,1.5218706352864526e-05
4.324602046951947e-07,8.972567254861608e-07,5.406653181371745e-07,1.5317718103421618e-05
4.306476050454591e-07,8.916613142047831e-07,5.423390849358876e-07,1.5455093770450088e-05
4.2871270449376933e-07,8.856275006892039e-07,5.435911363077568e-07,1.563055340854876e-05
4.266809078203768e-07,8.791627402908274e-07,5.44410142069288e-07,1.5843526536241322e-05
4.245768204189328e-07,8.722830183907896e-07,5.447875858231705e-07,1.6093093411708466e-05
4.2242491805048596e-07,8.650129049584198e-07,5.447187096530987e-07,1.6377917418086685e-05
4.202500731227374e-07,8.573845851041627e-07,5.442017843038282e-07,1.669621386136361e-05
4.180779861305781e-07,8.494370361705606e-07,5.432373652762433e-07,1.7045788886290626e-05
4.1593520124352897e-07,8.412139529271577e-07,5.41828282057069e-07,1.7424154534093507e-05
4.138479299470401e-07,8.327605219179909e-07,5.39979440696006e-07,1.7828668949056633e-05
4.118404924141733e-07,8.241210946658213e-07,5.376974698308778e-07,1.82566283095224e-05
4.0993470771949895e-07,8.153375123358448e-07,5.349907707689657e-07,1.870532356021755e-05
4.081495487885782e-07,8.064477292713044e-07,5.318692571701103e-07,1.917210451715305e-05
4.065014759328968e-07,7.974864107392671e-07,5.283434692263864e-07,1.965441748211568e-05
4.050067817623364e-07,7.884862812160494e-07,5.244249018131055e-07,2.0149777398075448e-05
4.0368314605321437e-07,7.794778141032685e-07,5.201275748360978e-07,2.0655700473458373e-05
4.0254744579244047e-07,7.704899596032043e-07,5.154682686962482e-07,2.1169638167734132e-05
4.0161260414826177e-07,7.615552313325881e-07,5.104655251379966e-07,2.1688928138868106e-05
4.008868208715897e-07,7.527161780857863e-07,5.051390038234263e-07,2.2210782806501277e-05
4.0037432032976065e-07,7.440280197984705e-07,4.995090858833074e-07,2.2732317131665186e-05
4.000761684084382e-07,7.355560678495434e-07,4.935975076275117e-07,2.3250566166142102e-05
3.999906810431756e-07,7.273688545657523e-07,4.874301517656153e-07,2.3762478494694368e-05
4.001131064548554e-07,7.195290924979701e-07,4.810399328144313e-07,2.4264931132282528e-05
4.0043582793642283e-07,7.120871918719959e-07,4.7446618245002565e-07,2.475478362661021e-05
4.0094951488941936e-07,7.050803620725442e-07,4.6775049915113297e-07,2.522895959574331e-05
4.016430742154931e-07,6.985348286527887e-07,4.609328071058007e-07,2.568457135872564e-05
4.0250218433894346e-07,6.924680146786327e-07,4.5404967655784156e-07,2.6119072910918312e-05
4.035085672174781e-07,6.868912918527497e-07,4.4713358335407706e-07,2.6530357530085807e-05
4.0464053219280257e-07,6.818153296021129e-07,4.402119935006675e-07,2.6916768654330348e-05
4.0587372311770134e-07,6.772557392670286e-07,4.333074230922635e-07,2.7277062151339803e-05
4.071817848008137e-07,6.732324352478195e-07,4.2644000775344134e-07,2.7610323672291106e-05
4.085378276543707e-07,6.697623734133294e-07,4.196312509505435e-07,2.7915827473500825e-05
4.0991622502527644e-07,6.66853641654039e-07,4.1290568071956593e-07,2.8192885827205083e-05
4.112928465594887e-07,6.645059331655115e-07,4.062891509075103e-07,2.8440798393755946e-05
4.12643925108127e-07,6.627158620518326e-07,3.998057606453036e-07,2.865896283151389e-05
4.1394538492375725e-07,6.614829339703921e-07,3.934766334364485e-07,2.884705800031965e-05
4.151737709133008e-07,6.608122241628795e-07,3.873207940376576e-07,2.900513578664203e-05
4.1630877790529654e-07,6.607127589734489e-07,3.8135594410604574e-07,2.913356660720857e-05
4.1733500540995155e-07,6.61193221591739e-07,3.755997887444873e-07,2.9232915239881683e-05
4.182407415194682e-07,6.622567620235357e-07,3.700718720470205e-07,2.930383674056842e-05
4.1901536337111977e-07,6.638966066729805e-07,3.6479250142466827e-07,2.9347054020683386e-05
4.1964815722768284e-07,6.660944107815989e-07,3.5977954793133703e-07,2.9363397534192407e-05
4.2012900722981024e-07,6.688211312372436e-07,3.55047221971664e-07,2.9353782019544642e-05
4.204486964551378e-07,6.720378410354503e-07,3.506065593333053e-07,2.9319089042688995e-05
4.205976950700234e-07,6.756963958712725e-07,3.464653605145018e-07,2.9260075654535992e-05
4.205656755005009e-07,6.797418780965456e-07,3.426279623856836e-07,2.917736381635377e-05
4.2034287375470854e-07,6.841156657266028e-07,3.390952650052021e-07,2.9071463705228004e-05
4.19922097460704e-07,6.887571610762331e-07,3.358645670732961e-07,2.894280080453603e-05
4.193001129026049e-07,6.936044651447064e-07,3.32930144426589e-07,2.8791751017312324e-05
4.184768602469004e-07,6.985940862577136e-07,3.3028493092639306e-07,2.861870283690409e-05
4.174527918131901e-07,7.036600621021582e-07,3.279223387038994e-07,2.842415630098097e-05
4.1622707535074575e-07,7.08734252069933e-07,3.258372684753999e-07,2.8208804375763915e-05
4.1479811674598825e-07,7.137487750074214e-07,3.2402519087338853e-07,2.797351791264975e-05
4.131652834204304e-07,7.186399927487241e-07,3.2248046268428266e-07,2.771925948215908e-05
4.1132993902506424e-07,7.23352182687863e-07,3.211970126489524e-07,2.7447020849010987e-05
4.092958006299604e-07,7.278386154875955e-07,3.2017076385830987e-07,2.715780025800428e-05
4.0707002435348256e-07,7.320597689330908e-07,3.194002710687504e-07,2.685258556606092e-05
4.0466417140416756e-07,7.359817238352367e-07,3.188853355074075e-07,2.6532376301988125e-05
4.0209351010883653e-07,7.395764076998292e-07,3.1862522366682073e-07,2.6198262251855773e-05
3.993765624009006e-07,7.428206237313427e-07,3.1861662834998684e-07,2.5851473726455467e-05
3.965365414719359e-07,7.45693366437128e-07,3.18852257277968e-07,2.5493361028216282e-05
3.93601574583284e-07,7.481759771182287e-07,3.193213518445951e-07,2.512535843458652e-05
3.9060167592017996e-07,7.50255479348471e-07,3.2001119053728024e-07,2.4748964287896437e-05
3.875656163098941e-07,7.519261450258057e-07,3.209083437165679e-07,2.436571323224124e-05
3.845197917945835e-07,7.531871053776941e-07,3.2199985131356026e-07,2.397712856726374e-05
3.8148752309221947e-07,7.540384014204356e-07,3.2327398268735035e-07,2.358470413862091e-05
3.784880886559247e-07,7.544791672353972e-07,3.247199969117686e-07,2.3190004817404972e-05
3.7553650146387246e-07,7.545092902213605e-07,3.263270751789062e-07,2.2794891258446272e-05
3.7264437856951545e-07,7.541319240442156e-07,3.2808307331838797e-07,2.2401690093448177e-05
3.698210169423222e-07,7.533539634675999e-07,3.299740129635925e-07,2.2013126954280392e-05
3.670736330299479e-07,7.521843012162669e-07,3.319842502087809e-07,2.163207027311738e-05
3.644076421684805e-07,7.506317548169451e-07,3.34097241247996e-07,2.126124086214604e-05
3.6182844820397637e-07,7.487062378385715e-07,3.362967940540415e-07,2.0903034316784704e-05
3.593434064164217e-07,7.464249730405065e-07,3.3856745615734826e-07,2.0559662243442387e-05
3.569618786849169e-07,7.438198318743754e-07,3.408942402014644e-07,2.023359620774213e-05
3.546939673700514e-07,7.409397974401483e-07,3.432626687291066e-07,1.992787880193178e-05
3.5254949458872986e-07,7.378463008727091e-07,3.4565825079036257e-07,1.9646013333715894e-05
3.5053745981736605e-07,7.346052515812194e-07,3.480661323854963e-07,1.939165016142521e-05
3.4866557409489516e-07,7.312815484869757e-07,3.504729782994381e-07,1.9168337830091118e-05
3.4693960673561e-07,7.27935735388053e-07,3.528692364650815e-07,1.8979364743772148e-05
3.453625460135727e-07,7.246199450109564e-07,3.5524906383377524e-07,1.8827637585661623e-05
3.439339752997325e-07,7.213756788775989e-07,3.576087674061774e-07,1.871556788070104e-05
3.426497012899125e-07,7.182365782658145e-07,3.5994589892597095e-07,1.8644970374418256e-05
3.415016098824378e-07,7.152357091664766e-07,3.622599206531049e-07,1.861699508970791e-05
3.404783041527341e-07,7.124150889530808e-07,3.6455285119952103e-07,1.863209741098992e-05
3.395663016949326e-07,7.09831471318398e-07,3.6682809916443e-07,1.8690050105024678e-05
3.3875078184832913e-07,7.075514096973155e-07,3.690887880392335e-07,1.879001837790546e-05
3.380158652402484e-07,7.05638279903416e-07,3.7133691554560327e-07,1.8930686512687992e-05
3.373452348269219e-07,7.041425498203521e-07,3.7357246992107637e-07,1.9110384866497187e-05
3.3672281375613197e-07,7.031019229594347e-07,3.757927401065148e-07,1.93271883832929e-05
3.361325386927265e-07,7.02549284622692e-07,3.779937837306251e-07,1.9578987609341185e-05
3.355582302237409e-07,7.025225063262174e-07,3.801740527724586e-07,1.986353954149697e-05
3.349846835375275e-07,7.0306951832083e-07,3.823371317129834e-07,2.0178508579547344e-05
3.343983638675528e-07,7.042464108968234e-07,3.8449067444904407e-07,2.0521483700645396e-05
3.337871840854656e-07,7.061130966821456e-07,3.866426552825219e-07,2.088994876113649e-05
3.331409304198436e-07,7.087304981180957e-07,3.887991393589178e-07,2.128123132586608e-05
3.3245171055565345e-07,7.121588052200445e-07,3.9096443803746856e-07,2.1692474505564525e-05
3.317137158286678e-07,7.16456345560158e-07,3.931405485177318e-07,2.2120644524215477e-05
3.3092400336772735e-07,7.216799260131828e-07,3.953253454967069e-07,2.256257333508241e-05
3.30084192707605e-07,7.278867705030345e-07,3.975119490860132e-07,2.301501251111696e-05
3.2920021750661803e-07,7.3513714191227e-07,3.996897937683004e-07,2.3474644095114205e-05
3.2827951163393364e-07,7.434949106814942e-07,4.0184581807437467e-07,2.393804821977103e-05
3.273285353242232e-07,7.530205983944662e-07,4.0396505531754497e-07,2.4401696882141338e-05
3.263520433769021e-07,7.637571480641881e-07,4.060310075590682e-07,2.486200176743388e-05
3.253529984743673e-07,7.757189614997906e-07,4.080263124681721e-07,2.5315379253351845e-05
3.2433312561881077e-07,7.888907123875759e-07,4.0993403706984136e-07,2.5758316520161358e-05
3.2329388500012e-07,8.032327673203199e-07,4.1173885125558994e-07,2.6187443860550526e-05
3.222366317896071e-07,8.186899773446169e-07,4.134275963094472e-07,2.659957688565493e-05
3.211622894583341e-07,8.352010086367366e-07,4.149898369461512e-07,2.699170233281487e-05
3.2007154167534187e-07,8.527049442822035e-07,4.164183007428471e-07,2.7360951107850808e-05
3.189651789080156e-07,8.711454427415119e-07,4.177088875111872e-07,2.7704599202061437e-05
3.178437118909634e-07,8.904734693219334e-07,4.1885962255219066e-07,2.802011138551838e-05
3.1670677815407767e-07,9.106482411079956e-07,4.198682792942293e-07,2.8305266232848637e-05
3.155530405438056e-07,9.316367677174091e-07,4.2073060525163846e-07,2.855833532435312e-05
3.143798830139024e-07,9.534123093098465e-07,4.2144066716453226e-07,2.877816949262801e-05
3.1318297970456445e-07,9.759516322226373e-07,4.2199262571435606e-07,2.8964112335985382e-05
3.1195668199730467e-07,9.99230779289195e-07,4.223822130081156e-07,2.9115820961893408e-05
3.106947359471773e-07,1.0232187063225257e-06,4.2260633715298024e-07,2.9233096704179986e-05
3.0939046276345173e-07,1.0478705655989883e-06,4.226614024260996e-07,2.931578832138296e-05
3.0803694894507176e-07,1.0731243381403802e-06,4.225426158250253e-07,2.9363798299421742e-05
3.066280713860698e-07,1.0989005818005004e-06,4.2224475133565007e-07,2.9377146877533e-05
3.051600908610828e-07,1.1251029423456552e-06,4.2176292137443387e-07,2.9356013684302062e-05
3.036332295469896e-07,1.1516195854412395e-06,4.2109359190544685e-07,2.930080439574762e-05
3.020530564730963e-07,1.1783253970657926e-06,4.202362482579722e-07,2.9212366190230487e-05
3.004303491311772e-07,1.2050854637804545e-06,4.191933096325106e-07,2.9092235173169176e-05
2.987780133230693e-07,1.2317626092953638e-06,4.179681478247561e-07,2.894262458092416e-05
2.9710744171900966e-07,1.2582267823328268e-06,4.165641648203512e-07,2.8766133362429937e-05
2.9542752017347176e-07,1.2843594247157078e-06,4.149848544357401e-07,2.8565421330920472e-05
2.93745114435186e-07,1.31005218079382e-06,4.1323367728851403e-07,2.834307392265597e-05
2.9206469976131817e-07,1.3352034970799718e-06,4.1131471912612756e-07,2.810177418548074e-05
2.903876946799605e-07,1.3597129025152064e-06,4.092341028621211e-07,2.784464004643901e-05
2.8871291599588034e-07,1.3834754425175814e-06,4.070005233821293e-07,2.757538683140464e-05
2.8703789975596707e-07,1.4063822510546394e-06,4.046241212066129e-07,2.729822487385697e-05
2.853597550914892e-07,1.4283269847884496e-06,4.0211448485482825e-07,2.7017665998908968e-05
2.836754741092721e-07,1.449213905269714e-06,3.994791071181747e-07,2.6738342069273803e-05
2.819825684371397e-07,1.468963586044428e-06,3.9672286467389897e-07,2.6464826242622886e-05
2.802793021764472e-07,1.487511603836501e-06,3.9384824075993024e-07,2.6201437042346468e-05
2.785637356363853e-07,1.5048019670235285e-06,3.908559935643301e-07,2.595204167297045e-05
2.7683287455035174e-07,1.5207835494361985e-06,3.877460371437825e-07,2.571991304603726e-05
2.750838962123568e-07,1.5354120896016503e-06,3.8451794821083076e-07,2.550768171718649e-05
2.7331803283071123e-07,1.5486521698193554e-06,3.8117092130446353e-07,2.53173510684512e-05
2.715436804442455e-07,1.5604761548953657e-06,3.7770396289432886e-07,2.515029954725259e-05
2.6977439111254226e-07,1.5708643979163084e-06,3.741167092946751e-07,2.500726535895251e-05
2.6802390058237766e-07,1.5798100466456146e-06,3.7041027003934496e-07,2.4888387665236192e-05
2.663035160523907e-07,1.587327875118637e-06,3.665878155541996e-07,2.4793336033252715e-05
2.6462243472494504e-07,1.5934622113388813e-06,3.6265488569250224e-07,2.472149169855553e-05
2.629882769488209e-07,1.5982822674209825e-06,3.5861918054704755e-07,2.46721413435332e-05
2.6140677761519216e-07,1.601864862229721e-06,3.544898468711319e-07,2.464463850199739e-05
2.598816035255679e-07,1.604282911109101e-06,3.502767773776803e-07,2.4638480124912257e-05
2.58415109814957e-07,1.605607399271537e-06,3.4599047804735177e-07,2.465329230501273e-05
2.570095334283081e-07,1.605912666366014e-06,3.416418170906136e-07,2.4688753968353173e-05
2.5566791444955423e-07,1.605278253956442e-06,3.3724117232880393e-07,2.47444835399981e-05
2.543953515954534e-07,1.6037886831677834e-06,3.3279797721554266e-07,2.481993234678931e-05
2.532006276380107e-07,1.601533604697697e-06,3.2832083472632697e-07,2.491433137788833e-05
2.52097133693096e-07,1.5986087073221463e-06,3.238175973927791e-07,2.502667541694383e-05
2.511029652972782e-07,1.5951150782057397e-06,3.1929541385780873e-07,2.5155702957944142e-05
2.502395612213706e-07,1.5911569257845291e-06,3.147609632069451e-07,2.529989610810179e-05
2.495284889070182e-07,1.5868404191841975e-06,3.102215348933722e-07,2.545754775679e-05
2.489887356122968e-07,1.5822736894661557e-06,3.056868785851889e-07,2.56268826443732e-05
2.486360910990652e-07,1.5775695680735081e-06,3.011698158233032e-07,2.5806169099742004e-05
2.484832292054889e-07,1.572859658888274e-06,2.9668482620026677e-07,2.5993737856362178e-05
2.485395294403242e-07,1.5683203990614563e-06,2.922460174567513e-07,2.618789588544163e-05
2.488112219975366e-07,1.5641870900774412e-06,2.878655317781825e-07,2.6386869073085118e-05
2.493019390539689e-07,1.560732723810984e-06,2.835533319080984e-07,2.658886874779637e-05
2.5001325995025944e-07,1.5582245379545334e-06,2.7931870883930733e-07,2.679220376977988e-05
2.509460990919009e-07,1.5568883413132157e-06,2.7517194597520736e-07,2.6995375759624986e-05
2.521037373114541e-07,1.55689521398072e-06,2.711245639826964e-07,2.719718326302899e-05
2.534941828112692e-07,1.5583693748623709e-06,2.671883425804621e-07,2.739680115604755e-05
2.551290774365551e-07,1.5614064605741415e-06,2.633740662790939e-07,2.7593750521807258e-05
2.570200358018176e-07,1.566090041744841e-06,2.5969058667923013e-07,2.7787743146631262e-05
2.591749157854928e-07,1.5725026900766986e-06,2.56144455834484e-07,2.797847158224505e-05
2.6159554761218253e-07,1.5807329646693022e-06,2.527399091967618e-07,2.816543342728448e-05
2.642775185295502e-07,1.5908787818653031e-06,2.4947932716807704e-07,2.83478586140167e-05
2.672118211150621e-07,1.6030469973462085e-06,2.463648899919932e-07,2.852476971701e-05
2.703873070858183e-07,1.6173484283460785e-06,2.434011813494041e-07,2.869510499680667e-05
2.7379246937765666e-07,1.6338894575903323e-06,2.4059718031529077e-07,2.885780251046928e-05
2.774163561742581e-07,1.6527659687049289e-06,2.3796620761377448e-07,2.901183250768928e-05
2.812487064166313e-07,1.6740633210504326e-06,2.3552371239613762e-07,2.9156181917496248e-05
2.8527843966426767e-07,1.69785748647927e-06,2.3328412343979182e-07,2.92897968992343e-05
2.8949135239903824e-07,1.7242097218064164e-06,2.3125858463836174e-07,2.941156256939668e-05
2.938688604431474e-07,1.7531537036665528e-06,2.2945421877059045e-07,2.952038088753637e-05
2.9838781156625964e-07,1.784681353041917e-06,2.278743145378183e-07,2.961537277599399e-05
3.0302106751653385e-07,1.8187337475041233e-06,2.2651916863349572e-07,2.9696213251672978e-05
3.0773916499556797e-07,1.8551988766365086e-06,2.253871025829383e-07,2.97634260859377e-05
3.125122783232579e-07,1.8939158180326455e-06,2.2447512265827988e-07,2.9818386035998688e-05
3.17310959367338e-07,1.934683543663805e-06,2.2377911556264444e-07,2.9863048302476756e-05
3.2210615818578694e-07,1.9772701611878378e-06,2.232932410309824e-07,2.989962892917335e-05
3.268703426802394e-07,2.0214202048044584e-06,2.2300902233300228e-07,2.9930361122125458e-05
3.3157897929190265e-07,2.066860908074305e-06,2.2291555440319566e-07,2.995732398848225e-05
3.362101789838012e-07,2.113308418183856e-06,2.230009784803801e-07,2.998232200126297e-05
3.40743153100282e-07,2.1604744344233404e-06,2.2325340552394338e-07,3.0006812167198383e-05
3.451574768957221e-07,2.208073172336769e-06,2.236605868465857e-07,3.0031870681706567e-05
3.49432744846817e-07,2.255826419845453e-06,2.242104212683208e-07,3.0058177087039937e-05
3.535484805763477e-07,2.3034632776371947e-06,2.248933484054852e-07,3.0086002126233088e-05
3.5748624139178707e-07,2.3507154047742192e-06,2.2570428088950538e-07,3.0115201607359027e-05
3.6123273253450476e-07,2.3973134712305354e-06,2.266416143555821e-07,3.014523068412744e-05
3.64779492839277e-07,2.4429868217191133e-06,2.2770467467030486e-07,3.0175193402758227e-05
3.681191449904708e-07,2.4874638652603817e-06,2.2889211108517407e-07,3.0203946293214647e-05
3.7124300827176103e-07,2.530473589069141e-06,2.3020093479815841e-07,3.0230284800503368e-05
3.741418284151179e-07,2.5717507831716614e-06,2.3162599607973147e-07,3.025318821144707e-05
3.76807059350881e-07,2.611044797631913e-06,2.331603967512774e-07,3.02720117424019e-05
3.792313106100846e-07,2.6481289845371047e-06,2.347959461315104e-07,3.0286545623186444e-05
3.814092488637383e-07,2.6828096194877112e-06,2.3652340031014728e-07,3.029698001114642e-05
3.8333902932339285e-07,2.714934604552648e-06,2.3833292209259981e-07,3.0303845513133063e-05
3.8502217659261347e-07,2.7443979419223896e-06,2.4021445830716107e-07,3.030794668440553e-05
3.8646183896412687e-07,2.7711344036109416e-06,2.4215816162203923e-07,3.0310285114204797e-05
3.8766181102204406e-07,2.795105558036783e-06,2.441549552402037e-07,3.0311978577741987e-05
3.8862751333482094e-07,2.816284146626657e-06,2.4619613059548265e-07,3.0314159141958568e-05
3.8936747764383287e-07,2.8346442948501406e-06,2.4827190999499004e-07,3.0317815803759224e-05
3.8989295482142256e-07,2.850159245634977e-06,2.503705738714243e-07,3.0323629212156866e-05
3.902155344593597e-07,2.8628016833237e-06,2.524786812668148e-07,3.033191688201659e-05
3.903452474864099e-07,2.872545200332368e-06,2.545820537084656e-07,3.03427026050927e-05
3.902905188834432e-07,2.8793676112529997e-06,2.566671973424077e-07,3.0355803064039672e-05
3.9005859437327384e-07,2.8832518269295563e-06,2.5872203275611745e-07,3.0370883956719758e-05
3.896558664070468e-07,2.884183125087722e-06,2.6073548112370684e-07,3.0387530063586047e-05
3.890895384713877e-07,2.8821469980404597e-06,2.6269684252440855e-07,3.0405328246291907e-05
3.883698730091384e-07,2.877129220461045e-06,2.6459544746689226e-07,3.0423895114717516e-05
3.8751050337665843e-07,2.8691175833353714e-06,2.66420297939752e-07,3.04428202849636e-05
3.865266433599094e-07,2.858105715762636e-06,2.68159821736261e-07,3.0461581726523718e-05
3.854331082143726e-07,2.8440986020343415e-06,2.698025493968656e-07,3.0479525434597772e-05
3.8424389175682705e-07,2.827116868798513e-06,2.7133886382999567e-07,3.0495912630290064e-05
3.829728560270061e-07,2.807197360653227e-06,2.727626961020024e-07,3.050994851674536e-05
3.816331561768447e-07,2.784390692129505e-06,2.740726426685272e-07,3.052078109098134e-05
3.802356382414479e-07,2.758757688464869e-06,2.7527246075054184e-07,3.0527514008238256e-05
3.787893740726861e-07,2.7303663731334683e-06,2.7636965660279486e-07,3.0529211640652064e-05
3.773037299193125e-07,2.699291398645949e-06,2.7737217602704603e-07,3.052486204440893e-05
3.757884699485617e-07,2.665615857549353e-06,2.782858637373553e-07,3.0513335596928554e-05
3.742525838187868e-07,2.6294324691918116e-06,2.7911418181209124e-07,3.0493390433764977e-05
3.727041217585837e-07,2.5908426692370806e-06,2.798589933609891e-07,3.0463716766102447e-05
3.711502745316678e-07,2.549955633283317e-06,2.8052104664384336e-07,3.0422994682366083e-05
3.695965027641424e-07,2.5068884271348148e-06,2.811001449180374e-07,3.0369990798914074e-05
3.680451919497661e-07,2.461765185032198e-06,2.815955857816888e-07,3.030377216105529e-05
3.6649508636328546e-07,2.414715053865638e-06,2.820067706719268e-07,3.0224007322496363e-05
3.649420814514017e-07,2.365872305924757e-06,2.8233306940271766e-07,3.0131086773629792e-05
3.633807460234839e-07,2.3153780440241416e-06,2.825728204247323e-07,3.0025911754408234e-05
3.618053810686749e-07,2.263380083192226e-06,2.827226653079389e-07,2.9909675344799768e-05
3.602104550132803e-07,2.210032620439463e-06,2.827777384632715e-07,2.978392949075119e-05
3.585914875466646e-07,2.1554974601022687e-06,2.827321028118507e-07,2.965070998979289e-05
3.569456498311432e-07,2.099943021640819e-06,2.825792933586802e-07,2.951246525396672e-05
3.552704718257712e-07,2.0435383697336967e-06,2.8231326117910736e-07,2.937187994865844e-05
3.5356206470030034e-07,1.986446118215699e-06,2.8192942476666044e-07,2.9231722497450903e-05
3.518152023787394e-07,1.9288194212234254e-06,2.814249260447807e-07,2.9094725957182805e-05
3.500247065769717e-07,1.870803108674023e-06,2.8079795990988177e-07,2.8963475285082972e-05
3.48186252219062e-07,1.812536371035584e-06,2.800473168115008e-07,2.8840287607677466e-05
3.462968257510931e-07,1.7541562407819081e-06,2.7917256596442554e-07,2.8727114854504326e-05
3.443552892102697e-07,1.695800639169927e-06,2.7817471588241956e-07,2.8625501972095666e-05
3.423617752126216e-07,1.6376111388366949e-06,2.7705746199599817e-07,2.8536585207015197e-05
3.403171057474743e-07,1.5797438551788866e-06,2.758280097061796e-07,2.8461104275308393e-05
3.382247085522885e-07,1.5223911533904174e-06,2.7449601765566357e-07,2.8399432248269208e-05
3.360924133425805e-07,1.4657939549034715e-06,2.7307116748643704e-07,2.83516094021208e-05
3.339305018339825e-07,1.41022527025206e-06,2.7156141856300484e-07,2.8317348273265204e-05
3.31748310076691e-07,1.355957312783293e-06,2.6997314013571764e-07,2.829606079627917e-05
3.295529312029807e-07,1.3032403182627011e-06,2.683128952197415e-07,2.828699444564229e-05
3.2734953779836825e-07,1.2523022670836404e-06,2.665893722258718e-07,2.8289423296013604e-05
3.2514233679658146e-07,1.2033589666129827e-06,2.648134822828639e-07,2.8302759385014317e-05
3.229362495527107e-07,1.1566255978294253e-06,2.629968363423813e-07,2.8326558472911572e-05
3.207382573477058e-07,1.1123261973841603e-06,2.611505218606561e-07,2.836049558531649e-05
3.185576550004617e-07,1.0706958744088527e-06,2.5928466302794373e-07,2.8404376708698243e-05
3.164054899469632e-07,1.0319727658913129e-06,2.574083954410944e-07,2.8458188494585132e-05
3.1429297813633466e-07,9.96385075175322e-07,2.5553047010474804e-07,2.852213438868988e-05
3.122297893510184e-07,9.64142093570021e-07,2.536601636242401e-07,2.859661006605792e-05
3.102239725655433e-07,9.354327791983006e-07,2.5180780618822106e-07,2.8682107953184333e-05
3.082825754314004e-07,9.104334149949276e-07,2.499846328393425e-07,2.8779071496669574e-05
3.0641173999872126e-07,8.89333242745899e-07,2.482026348208848e-07,2.8887740889330937e-05
3.046178212074386e-07,8.723824602642039e-07,2.4647609809365437e-07,2.900803606579809e-05
3.0290927024732515e-07,8.599338503864248e-07,2.448239777491341e-07,2.9139534017873016e-05
3.012966425773613e-07,8.524299702213372e-07,2.4326938040489113e-07,2.9281562984664363e-05
2.9979082526168325e-07,8.503304643231707e-07,2.4183608157568544e-07,2.9433310572682115e-05
2.984019865362623e-07,8.540317260822712e-07,2.4054605972367193e-07,2.9593829304687408e-05
2.971398471836623e-07,8.638318828899443e-07,2.3941871692375625e-07,2.9762029583020726e-05
2.960135985312747e-07,8.799475152787159e-07,2.384696511636797e-07,2.993687367976133e-05
2.9503093575373e-07,9.025511983769201e-07,2.3770953344493069e-07,3.0117708015091084e-05
2.9419772810533537e-07,9.318016084810793e-07,2.371443390217082e-07,3.0304389705805617e-05
2.93519196603645e-07,9.67857948199431e-07,2.367762476722897e-07,3.049712619590772e-05
2.9300078912057423e-07,1.0108785493576922e-06,2.366044136567864e-07,3.0696252557192484e-05
2.926468038662816e-07,1.0610049205396872e-06,2.3662515285463481e-07,3.090206202863308e-05
2.924580432523161e-07,1.118338639461914e-06,2.3683165378985767e-07,3.111468960544584e-05
2.924307976314225e-07,1.182922275636043e-06,2.3721446086964086e-07,3.1334044812662155e-05
2.9255731162901266e-07,1.2547292917346438e-06,2.377631331035244e-07,3.1559766969519355e-05
2.928271874773039e-07,1.333663092148405e-06,2.384677430106649e-07,3.17911912100264e-05
2.932301449504137e-07,1.4195669173081846e-06,2.393189065359292e-07,3.202733497092121e-05
2.9375996869601263e-07,1.512241458185551e-06,2.403072227656897e-07,3.226691203628405e-05
2.9441792425542675e-07,1.6114574838030052e-06,2.414245837542277e-07,3.250836608218039e-05
2.952129524583247e-07,1.716952706772844e-06,2.4266631054352214e-07,3.2749912775189126e-05
2.961576735981589e-07,1.828417186538601e-06,2.440303072781406e-07,3.298962811193589e-05
2.972635784117318e-07,1.945478190854274e-06,2.455139680736696e-07,3.3225636582735074e-05
2.985383947649e-07,2.06768926499981e-06,2.471130634414773e-07,3.345647558506008e-05
2.99985257834527e-07,2.1945300088886336e-06,2.488230423462528e-07,3.3681675074815864e-05
3.01603793613171e-07,2.3254209362782253e-06,2.5063967888460285e-07,3.3902186228958085e-05
3.0339223631407985e-07,2.459742558193923e-06,2.525582907831507e-07,3.412019108223491e-05
3.053476790632712e-07,2.596849426999513e-06,2.5457287824427064e-07,3.433849020820452e-05
3.074649935358398e-07,2.7360822373656584e-06,2.566759043012025e-07,3.4559946071300625e-05
3.0973673802149525e-07,2.876779420515714e-06,2.588590134710781e-07,3.478710199290394e-05
3.1215324767231014e-07,3.018286721138336e-06,2.611135387003983e-07,3.502191533828679e-05
3.1470230877181826e-07,3.1599648198344005e-06,2.6342953254983224e-07,3.5265576282358424e-05
3.173694358974845e-07,3.3011918967074462e-06,2.657946275501008e-07,3.5518451672537846e-05
3.201393621426731e-07,3.4413579720939116e-06,2.681942344891986e-07,3.578019439378642e-05
3.229992568239862e-07,3.579859238319761e-06,2.706127064482973e-07,3.604995229923546e-05
3.259419842239299e-07,3.716103900328569e-06,2.7303426655572e-07,3.6326564665605544e-05
3.289659610125353e-07,3.8495217302576115e-06,2.7544286279819185e-07,3.6608670342967705e-05
3.320714627971312e-07,3.979564135294522e-06,2.778215987557828e-07,3.689471668816549e-05
3.352568647112355e-07,4.105703063873954e-06,2.801531327075564e-07,3.718294437159733e-05
3.3851706810651746e-07,4.227439519459021e-06,2.8242081782754633e-07,3.747145248804171e-05
3.418430856251032e-07,4.3443157520654295e-06,2.8460965852282985e-07,3.775837341154151e-05
3.452219552748531e-07,4.455923115973738e-06,2.867072116295144e-07,3.804207148984615e-05
3.4863731765927485e-07,4.561904696561486e-06,2.8870400572931226e-07,3.832122350411732e-05
3.520699808778521e-07,4.661954930173692e-06,2.905930930062705e-07,3.859473662378935e-05
3.554979409545406e-07,4.7558157853210605e-06,2.923700353788609e-07,3.88615946723053e-05
3.588967058951014e-07,4.843266461176325e-06,2.940333798751308e-07,3.9120702573320497e-05
3.6224038286191617e-07,4.924108633209587e-06,2.9558407715263875e-07,3.9370803396710084e-05
3.655028949110047e-07,4.998154437537747e-06,2.970242864910808e-07,3.961060640167476e-05
3.686596991836345e-07,5.065221900861944e-06,2.98357093077676e-07,3.983906292275041e-05
3.7169033225969136e-07,5.125136574729034e-06,2.995869863586784e-07,4.0055528802405105e-05
3.74579773497337e-07,5.177736627899425e-06,3.007198976786867e-07,4.025973934707109e-05
3.7731768203674546e-07,5.222880420000418e-06,3.0176239925507364e-07,4.045170149205923e-05
3.7989654678618117e-07,5.260451816886412e-06,3.0272095091695425e-07,4.063153377028373e-05
3.8230920336598796e-07,5.290358298031923e-06,3.036021382771368e-07,4.079928944993216e-05
3.8454687269573436e-07,5.3125268376899534e-06,3.044131268406546e-07,4.095494827040903e-05
3.8659923079381497e-07,5.3269045550530915e-06,3.051610162115623e-07,4.109863358270147e-05
3.884560636494061e-07,5.333462970138776e-06,3.058521284658226e-07,4.123082809161192e-05
3.901087688465992e-07,5.332201768324466e-06,3.064920403338999e-07,4.135249105955772e-05
3.915504880583408e-07,5.323150789379074e-06,3.07085196298717e-07,4.1465128530278966e-05
3.9277548621576257e-07,5.306370365971803e-06,3.0763449832483594e-07,4.157071752031858e-05
3.937790697139118e-07,5.281949627568974e-06,3.0814228288283017e-07,4.1671455137954324e-05
3.9455829491943845e-07,5.250003574799236e-06,3.0861294203529056e-07,4.176948590763559e-05
3.951135493514946e-07,5.210670792038391e-06,3.0905600062619297e-07,4.186670791664828e-05
3.954498707739783e-07,5.164111969545508e-06,3.094871949863858e-07,4.196466459086378e-05
3.9557576681710965e-07,5.110509782214085e-06,3.099272095925992e-07,4.206449084561783e-05
3.955006771191352e-07,5.050071607947687e-06,3.10400287862317e-07,4.216685993955901e-05
3.9523372776598396e-07,4.9830328621313456e-06,3.109327593480588e-07,4.22719090571505e-05
3.9478334264830953e-07,4.909656775277033e-06,3.115500226764305e-07,4.23792075320654e-05
3.941568745943604e-07,4.830230940803209e-06,3.122733044314159e-07,4.248786286596946e-05
3.9336060883202337e-07,4.7450649231065775e-06,3.131183095213584e-07,4.259675538642256e-05
3.9240028313969507e-07,4.65449081324627e-06,3.1409532831792845e-07,4.2704789505272305e-05
3.9128227585994897e-07,4.558863955906267e-06,3.1521000215288466e-07,4.281107170791469e-05
3.900152733000033e-07,4.45856088505259e-06,3.164657567545597e-07,4.2914992787244574e-05
3.886117184872978e-07,4.353974536767225e-06,3.178676592253053e-07,4.301620479675358e-05
3.870879028992357e-07,4.24550838205096e-06,3.1942494307174694e-07,4.311449664137953e-05
3.854626220051255e-07,4.133570585292599e-06,3.2115108130845906e-07,4.320966742385939e-05
3.837557343471348e-07,4.018569007214904e-06,3.2306232264109604e-07,4.3301497571297604e-05
3.819864098816148e-07,3.900908377057013e-06,3.251755353475234e-07,4.338975760628313e-05
3.80170922343844e-07,3.7809887393456536e-06,3.275063462936096e-07,4.347416055658263e-05
3.7832161338466073e-07,3.659202393106798e-06,3.3006746606633037e-07,4.3554261758004855e-05
3.76447054431565e-07,3.5359298982893762e-06,3.3286690043781123e-07,4.362936055386557e-05
3.745520288835561e-07,3.4115374976878164e-06,3.3590788182715603e-07,4.3698485623595096e-05
3.7263758097487027e-07,3.2863764648687637e-06,3.391914213654479e-07,4.376048064627978e-05
3.707024758194756e-07,3.1607854985212886e-06,3.4271845827631825e-07,4.381409154228527e-05
3.687461362951261e-07,3.035096496620196e-06,3.464886171711764e-07,4.3857980500906436e-05
3.667716257621371e-07,2.909640147266217e-06,3.50497337597601e-07,4.389069200205321e-05
3.647870509242096e-07,2.784748096863876e-06,3.5473483822788773e-07,4.391063529600857e-05
3.628044842827108e-07,2.660751680816522e-06,3.591872506881326e-07,4.391609910088909e-05
3.6083766773871215e-07,2.5379784786965666e-06,3.638378875773037e-07,4.390526870125116e-05
3.5890129720439356e-07,2.4167471647746947e-06,3.686675732691706e-07,4.387624903781949e-05
3.570114220791402e-07,2.297360785693029e-06,3.7365511187096314e-07,4.382710154788183e-05
3.5518376030049247e-07,2.1801025582249845e-06,3.787779256938978e-07,4.375587964740971e-05
3.5343055849605116e-07,2.0652381735697504e-06,3.8401168836259997e-07,4.366068099485401e-05
3.5175921362005467e-07,1.9530195437826373e-06,3.8933090103316467e-07,4.3539742065007537e-05
3.501732824772182e-07,1.8436834851645115e-06,3.947123746266872e-07,4.3391542783384914e-05
3.4867451045384397e-07,1.7374472917051327e-06,4.0013821909076655e-07,4.321483581417644e-05
3.472640664216281e-07,1.6345048656954917e-06,4.055949917980567e-07,4.3008585919007064e-05
3.4594213167556874e-07,1.5350235771193658e-06,4.1107088722200144e-07,4.277194532147641e-05
3.447074154010229e-07,1.4391426340688881e-06,4.1655384432238077e-07,4.250432762345644e-05
3.435579322583326e-07,1.3469741377084985e-06,4.2203142661612077e-07,4.2205476780220786e-05
3.4249208379093266e-07,1.2586069274632499e-06,4.2749128665882723e-07,4.1875459695532855e-05
3.4150949743853306e-07,1.1741129846256537e-06,4.3292052823286285e-07,4.1514607591729556e-05
3.406123838906277e-07,1.0935528183322071e-06,4.3830554152086325e-07,4.112345826417488e-05
3.3980660671194765e-07,1.0169758841918207e-06,4.436334155953948e-07,4.070281032351094e-05
3.391001973790933e-07,9.444187863336256e-07,4.4889160004388676e-07,4.02539210184621e-05
3.384997476364512e-07,8.759055791293241e-07,4.540651251859464e-07,3.977864723052624e-05
3.380078463422827e-07,8.114495981440399e-07,4.591348426601818e-07,3.9279387399676494e-05
3.3762299389298e-07,7.510538287525435e-07,4.6407770829721757e-07,3.8758938743888176e-05
3.3734084318832286e-07,6.947083115328266e-07,4.688678597606354e-07,3.8220370574284085e-05
3.37155069660778e-07,6.42387117636979e-07,4.734777966443653e-07,3.76668826223857e-05
3.3705765372660195e-07,5.940479092551689e-07,4.778802879490704e-07,3.710169092753962e-05
3.370397305582254e-07,5.49633875949557e-07,4.820519720873565e-07,3.652802999141837e-05
3.370927078385604e-07,5.090772482222704e-07,4.85976371320505e-07,3.594917226096563e-05
3.3720871578414047e-07,4.723022770399272e-07,4.89642697796634e-07,3.536832564274952e-05
3.3738031506376014e-07,4.39224885210449e-07,4.930420151965965e-07,3.4788468769451566e-05
3.375994141599716e-07,4.097503217426525e-07,4.961655168957843e-07,3.421223086123473e-05
3.3785631530079925e-07,3.8377211903280936e-07,4.990054977370308e-07,3.3641835144898e-05
3.3813977822984554e-07,3.611738977097093e-07,5.01555974117346e-07,3.3079095786529234e-05
3.384377101025389e-07,3.418345676114365e-07,5.038118042677759e-07,3.252546171563099e-05
3.387382821150988e-07,3.256345659409824e-07,5.057679148843602e-07,3.198209786656788e-05
3.390307799965815e-07,3.1245767826262e-07,5.074201433604611e-07,3.1449965126286104e-05
3.393054551325572e-07,3.02186947532731e-07,5.087667750054071e-07,3.092984242686209e-05
3.395533111384382e-07,2.946988100679202e-07,5.098082643315219e-07,3.042229137608227e-05
3.397658399065214e-07,2.8985942011873003e-07,5.105450027257244e-07,2.9927633745089562e-05
3.399337540928677e-07,2.875245546959723e-07,5.109757152163015e-07,2.9445989083610967e-05
3.400460577313657e-07,2.875425925038673e-07,5.110974592533652e-07,2.8977338372433863e-05
3.400909932424364e-07,2.897584965158411e-07,5.109060797354185e-07,2.852158237366488e-05
3.400574918325285e-07,2.940164724813901e-07,5.103967064353983e-07,2.807862518858664e-05
3.399353667892964e-07,3.001619622405089e-07,5.095648144662656e-07,2.7648471776793928e-05
3.397149430885427e-07,3.080455688315467e-07,5.084084974487219e-07,2.7231273936808168e-05
3.393871481724508e-07,3.175271456716323e-07,5.069313385429483e-07,2.68273225263626e-05
3.3894384089291704e-07,3.2847590449401514e-07,5.051431038486871e-07,2.643701411055621e-05
3.3837898548008013e-07,3.4076726053402893e-07,5.030575490276689e-07,2.606076318655789e-05
3.3769092585621015e-07,3.5427976729925533e-07,5.006902380243671e-07,2.569885744614759e-05
3.368833289576324e-07,3.6889261585915634e-07,4.980576578320397e-07,2.535136860431272e-05
3.359634738821096e-07,3.84483473651312e-07,4.951767903009301e-07,2.501822259463552e-05
3.34939752925693e-07,4.009285381069739e-07,4.920648955101779e-07,2.469940172121117e-05
3.3381989120431836e-07,4.1810436719952436e-07,4.887395125415142e-07,2.43951716428268e-05
3.326103197988574e-07,4.3588845351980926e-07,4.85218828004854e-07,2.410621167340413e-05
3.3131679775782773e-07,4.541592197131536e-07,4.815219296693512e-07,2.3833594365615587e-05
3.299451947694197e-07,4.727979649801714e-07,4.776679873719718e-07,2.3578678408100225e-05
3.2850122644520804e-07,4.916909967522836e-07,4.736751040412234e-07,2.3343004092738725e-05
3.2698984839182317e-07,5.107292270645629e-07,4.695603963688507e-07,2.3128237775801293e-05
3.254161933803329e-07,5.298069543765446e-07,4.653408980372508e-07,2.293614374589031e-05
3.237873652557225e-07,5.488217696252353e-07,4.6103328389212924e-07,2.2768494840502788e-05
3.2211253617221816e-07,5.676748277521859e-07,4.5665251109025925e-07,2.2626913606440368e-05
3.204017467491273e-07,5.862707099527591e-07,4.522113865463459e-07,2.2512749221900172e-05
3.186650581742304e-07,6.045163075185504e-07,4.4772102074666127e-07,2.2427020251095875e-05
3.1691159559259554e-07,6.223200898136472e-07,4.4319089480212146e-07,2.2370356147009288e-05
3.151484385264339e-07,6.395944651171812e-07,4.386286394179018e-07,2.2342937489727698e-05
3.1338050173487894e-07,6.56260628186305e-07,4.3404013313216763e-07,2.23445260863466e-05
3.116110938632512e-07,6.722532076378684e-07,4.294299354327015e-07,2.237459582409872e-05
3.098428716825811e-07,6.875222959094273e-07,4.24802137050039e-07,2.2432441881522016e-05
3.08079840647464e-07,7.020305475370715e-07,4.20161545606286e-07,2.2517179837470048e-05
3.063286737670259e-07,7.157466119523597e-07,4.155137469682936e-07,2.262766891555152e-05
3.0459794941128843e-07,7.286399901902206e-07,4.1086342000484294e-07,2.276247517361452e-05
3.0289739472130077e-07,7.406801323682939e-07,4.062131189543328e-07,2.291995366953873e-05
3.012376491987281e-07,7.518387240862444e-07,4.0156413144345717e-07,2.3098396710304524e-05
2.996289817300176e-07,7.620939797137279e-07,3.969186443258921e-07,2.329619849344833e-05
2.980804694147672e-07,7.714363344683125e-07,3.922825110538853e-07,2.351211348060321e-05
2.96601994030032e-07,7.798717888970941e-07,3.876673783989256e-07,2.3745611579229707e-05
2.9520690027707674e-07,7.874181747694936e-07,3.83089643984026e-07,2.3997090943049052e-05
2.939114262680551e-07,7.940974863549569e-07,3.785667408786046e-07,2.4267781509065564e-05
2.927315714762175e-07,7.99932939193467e-07,3.741141010465286e-07,2.455950500368404e-05
2.916810587279841e-07,8.049534793323945e-07,3.6974378602791577e-07,2.4874472997024248e-05
2.907710227324153e-07,8.092018969240863e-07,3.6546416779278045e-07,2.521505844402373e-05
2.900099805986167e-07,8.127412155352559e-07,3.612805594077053e-07,2.558342312760821e-05
2.894036468885799e-07,8.156544463265955e-07,3.571962893357555e-07,2.598108283018321e-05
2.8895457752518656e-07,8.180372325281779e-07,3.532141342159185e-07,2.6408634808721453e-05
2.8866270478637327e-07,8.199882117871601e-07,3.4933799213219124e-07,2.686571490729655e-05
2.8852768059635424e-07,8.216019818861627e-07,3.4557309841419054e-07,2.7351072712664397e-05
2.885512093692318e-07,8.229658675786684e-07,3.419242513231888e-07,2.7862721327397466e-05
2.887368575490099e-07,8.241587186101902e-07,3.3839396737052767e-07,2.839817488962038e-05
2.8908753635414327e-07,8.25251087069323e-07,3.349820732831901e-07,2.8954712849406532e-05
2.8960343914693627e-07,8.263082750609544e-07,3.316866703768528e-07,2.9529597897204387e-05
2.902818158371477e-07,8.273949062109214e-07,3.285054167458313e-07,3.0120235893272668e-05
2.9111696747207733e-07,8.285758436189108e-07,3.254360227613655e-07,3.07242997645405e-05
2.920999508163458e-07,8.299110538307909e-07,3.224756606540864e-07,3.1339820594243387e-05
2.932195268968254e-07,8.314485473286492e-07,3.196202113234848e-07,3.196521365260723e-05
2.944637553918749e-07,8.332223117213529e-07,3.168648601678579e-07,3.259923227470061e-05
2.958205541125772e-07,8.352582042000742e-07,3.142056127511037e-07,3.32408949028992e-05
2.9727801739616057e-07,8.375834997964119e-07,3.116396654506189e-07,3.3889413223666826e-05
2.9882498348259405e-07,8.402333812945655e-07,3.0916450322690427e-07,3.454409592619861e-05
3.004504377597035e-07,8.432516084366943e-07,3.0677720737487405e-07,3.520420008267463e-05
3.021423237749816e-07,8.466880903561221e-07,3.0447437483338943e-07,3.5868758646293474e-05
3.038876931574808e-07,8.505989943859399e-07,3.0225195790543254e-07,3.653644348550984e-05
3.056737055381723e-07,8.55049317422691e-07,3.001047054986617e-07,3.7205482869787504e-05
3.0748888994516013e-07,8.601110597569759e-07,2.980261331706316e-07,3.7873618677035575e-05
3.0932544885674263e-07,8.65856949462038e-07,2.960097214162727e-07,3.8538111256303496e-05
3.111816784818905e-07,8.72356754128878e-07,2.940501887916447e-07,3.919581032004152e-05
3.130625086733695e-07,8.796757411804615e-07,2.9214331758645e-07,3.984326565622006e-05
3.149772229228568e-07,8.878694643053848e-07,2.9028459102850087e-07,4.047682428172184e-05
3.1693562421458075e-07,8.969765380581474e-07,2.884682119990197e-07,4.109270649888143e-05
3.189455730750588e-07,9.070167926214304e-07,2.8668720446531856e-07,4.1687104542285604e-05
3.210123653136147e-07,9.1799647939111e-07,2.8493412896600644e-07,4.2256291936815274e-05
3.2313866207908284e-07,9.299149281504459e-07,2.832020566402527e-07,4.2796654645047625e-05
3.253249713482302e-07,9.427685326429096e-07,2.814852694536399e-07,4.330464755434585e-05
3.275700731722784e-07,9.5655241892991e-07,2.7977891478434373e-07,4.377679105495285e-05
3.298706144592551e-07,9.712603563305623e-07,2.780781911841524e-07,4.4209748982197745e-05
3.322208627155686e-07,9.868819124635312e-07,2.763781058681389e-07,4.4600419815469104e-05
3.346135470579061e-07,1.003395906038229e-06,2.746739215394184e-07,4.494596505455232e-05
3.370408090307404e-07,1.0207625433871269e-06,2.729627345948317e-07,4.524377413374812e-05
3.394938543565029e-07,1.0389191558971485e-06,2.712453277665808e-07,4.54914500376561e-05
3.419627846590392e-07,1.0577812609138152e-06,2.6952551858763054e-07,4.568687662311133e-05
3.444392452038987e-07,1.0772470855597321e-06,2.678076909661376e-07,4.582833176160786e-05
3.469203078898796e-07,1.097202421750097e-06,2.6609639419341587e-07,4.5914608553783295e-05
3.494097312065234e-07,1.1175236727469342e-06,2.643989037352461e-07,4.5945158914443184e-05
3.5191602397853165e-07,1.1380805360633984e-06,2.62728644358469e-07,4.592021193201659e-05
3.544488134662088e-07,1.1587386901164363e-06,2.6110730103981726e-07,4.584076885671513e-05
3.5701516089248645e-07,1.1793603387592973e-06,2.5956503019045616e-07,4.570846316586451e-05
3.5961824441438776e-07,1.1998038614831902e-06,2.5814013581837287e-07,4.552534215893208e-05
3.6225841549732156e-07,1.219924981656687e-06,2.568772239180651e-07,4.529363833004852e-05
3.649339801192844e-07,1.2395788927142318e-06,2.55821531120401e-07,4.501560030526721e-05
3.676408024755337e-07,1.2586224121849449e-06,2.55012485740136e-07,4.4693410202182335e-05
3.7037148048367405e-07,1.2769169944549565e-06,2.544810222420804e-07,4.432918680858537e-05
3.7311538448303365e-07,1.294333275463276e-06,2.542501934110084e-07,4.3925101865339504e-05
3.758610663035181e-07,1.310754468263116e-06,2.543364792181657e-07,4.348358988283656e-05
3.785999240355957e-07,1.32607639339297e-06,2.5475078036122826e-07,4.3007477607746636e-05
3.8132792843835113e-07,1.3402072679698014e-06,2.5549916212704675e-07,4.249988031524755e-05
3.84044899271584e-07,1.3530695290842852e-06,2.565846011360945e-07,4.1963960170465446e-05
3.8675368447900895e-07,1.3646018587059513e-06,2.5801148211447226e-07,4.140273277581026e-05
3.894599627730486e-07,1.3747618969916365e-06,2.5979052027423703e-07,4.0819001844478986e-05
3.921708328068194e-07,1.3835306075086e-06,2.619406210252835e-07,4.021545245019293e-05
3.948922136771454e-07,1.3909134258995443e-06,2.644891574101077e-07,3.959486575149915e-05
3.976276184029981e-07,1.3969337390613618e-06,2.674724330603035e-07,3.8960279296272734e-05
4.003784756385983e-07,1.4016228546567988e-06,2.709351533852116e-07,3.831496821032967e-05
4.031446596408021e-07,1.4050148881328164e-06,2.749278321041452e-07,3.7662324339469954e-05
4.059248348655752e-07,1.407149158222398e-06,2.7950173808991973e-07,3.700574151549503e-05
4.087156172612712e-07,1.4080742732696816e-06,2.8470244488277416e-07,3.634853356730677e-05
4.115098490338265e-07,1.407847216279029e-06,2.905644682550352e-07,3.5693883178910544e-05
4.1429579875819714e-07,1.4065276002071838e-06,2.971084695580842e-07,3.504480219975105e-05
4.170574723142722e-07,1.4041730508134114e-06,3.043408436202505e-07,3.440407574577786e-05
4.1977539002822274e-07,1.4008388901369223e-06,3.1225446728969486e-07,3.377418590342895e-05
4.224281675073853e-07,1.3965786638592248e-06,3.208295391634148e-07,3.315723268129121e-05
4.249947851360692e-07,1.3914422071792866e-06,3.3003464499760397e-07,3.2554869862634146e-05
4.2745590043020395e-07,1.385473035734172e-06,3.398293844246901e-07,3.1968276607345776e-05
4.2979393500855934e-07,1.3787076025413028e-06,3.50169932590601e-07,3.139818810713175e-05
4.319933815415041e-07,1.3711761795558308e-06,3.610154804400753e-07,3.084498055936601e-05
4.340408010288389e-07,1.3629040733346711e-06,3.723307007187062e-07,3.0308781108760997e-05
4.3592370151601113e-07,1.3539120250694058e-06,3.8408364806860647e-07,2.978957123323433e-05
4.376295318463498e-07,1.3442160534053714e-06,3.962430230495779e-07,2.9287240345343416e-05
4.391456347889661e-07,1.3338281936923731e-06,4.0877620544947526e-07,2.8801557960486523e-05
4.4046016179493324e-07,1.3227576933239003e-06,4.216471255143435e-07,2.833210606663675e-05
4.4156292725937607e-07,1.3110116586289702e-06,4.3481448266261425e-07,2.787824853134231e-05
4.4244478150528153e-07,1.2985960701205371e-06,4.48230529435787e-07,2.743915071642373e-05
4.4309642154558496e-07,1.2855184687417255e-06,4.6184033164627713e-07,2.7013814355514162e-05
4.435078938009933e-07,1.2717922541230111e-06,4.7558269042361975e-07,2.660111338603913e-05
4.4366833898740776e-07,1.2574394348563835e-06,4.893926955512193e-07,2.619984206444081e-05
4.4356611673836004e-07,1.2424881637464085e-06,5.032043796462325e-07,2.580879876135707e-05
4.431898401303955e-07,1.2269673704738142e-06,5.169523043420285e-07,2.542692249101192e-05
4.4252980603551066e-07,1.210903645182978e-06,5.305713333046527e-07,2.505343125306776e-05
4.415790763409297e-07,1.194321177069151e-06,5.4399526305778e-07,2.468785328028513e-05
4.403339112655346e-07,1.1772436097944818e-06,5.571559959334282e-07,2.4329929778135197e-05
4.3879436694789497e-07,1.1596966806745026e-06,5.699839417050407e-07,2.397949321702128e-05
4.3696542042676107e-07,1.1417089498792231e-06,5.824097227269525e-07,2.3636409973888346e-05
4.348566385784998e-07,1.1233108682486223e-06,5.943676176069873e-07,2.3300580921328898e-05
4.3248008611737956e-07,1.1045358888086729e-06,6.057998328923114e-07,2.2971938147102162e-05
4.298489845767658e-07,1.085422504724251e-06,6.166580599046521e-07,2.26503921325852e-05
4.2697771997971157e-07,1.0660127119865586e-06,6.269012003104849e-07,2.2335761598859528e-05
4.238816763328104e-07,1.046348352651378e-06,6.364929227043887e-07,2.2027776094286253e-05
4.2057612117582883e-07,1.0264696321554716e-06,6.45400813034914e-07,2.172619184297757e-05
4.170752840052281e-07,1.0064149643115377e-06,6.535957993629464e-07,2.14309754280914e-05
4.1339288742448406e-07,9.862196290095708e-07,6.610519022314349e-07,2.1142496800314654e-05
4.0954309934041356e-07,9.659143142307146e-07,6.677465593109161e-07,2.0861674848719667e-05
4.0554065359233507e-07,9.455255639826029e-07,6.736604954167348e-07,2.0589994065051413e-05
4.0140130834919633e-07,9.250785083658663e-07,6.787769598935169e-07,2.032934469261126e-05
3.971432232192352e-07,9.046010448650028e-07,6.830812516710623e-07,2.008174087866156e-05
3.9278701366415613e-07,8.841265883013307e-07,6.865613942420951e-07,1.9849050439807485e-05
3.883549121022958e-07,8.636927470482857e-07,6.892099966902269e-07,1.96328397938532e-05
3.83872027558776e-07,8.433386212532256e-07,6.910254327592071e-07,1.943433089782872e-05
3.7936767874543953e-07,8.231055845485421e-07,6.920107104476729e-07,1.9254420453218874e-05
3.7487388269564097e-07,8.030425008420661e-07,6.92171945243163e-07,1.9093773762288588e-05
3.704238272785536e-07,7.832121173943797e-07,6.915191627973928e-07,1.895305099021994e-05
3.660520071690951e-07,7.636931576299585e-07,6.900681879786868e-07,1.8833169614121102e-05
3.617925855051544e-07,7.445751303650548e-07,6.878403871449779e-07,1.8735358670660896e-05
3.576753691540429e-07,7.259487263314588e-07,6.848604357542001e-07,1.8660963917602195e-05
3.537234224165629e-07,7.078990733356605e-07,6.81154547528276e-07,1.8611196259047e-05
3.4995351003161625e-07,6.905065611728787e-07,6.767497371692072e-07,1.858695558320444e-05
3.463774497575553e-07,6.738507782848986e-07,6.716736990797815e-07,1.85888055211144e-05
3.430038053707983e-07,6.580113564129368e-07,6.659551931846094e-07,1.8617167075977607e-05
3.3983936859434326e-07,6.43066396839299e-07,6.596245116474622e-07,1.867259741052952e-05
3.3688949408071124e-07,6.29090510426605e-07,6.527138910605346e-07,1.875590202810948e-05
3.341581631970388e-07,6.161508305600948e-07,6.452579462511603e-07,1.88680480026948e-05
3.316479766996034e-07,6.043007329670309e-07,6.37293399241626e-07,1.901001210127397e-05
3.2935956411559944e-07,5.935750640733095e-07,6.288581005466926e-07,1.918263784017324e-05
3.272923343020888e-07,5.839893540866465e-07,6.199908131031227e-07,1.9386531214982267e-05
3.2544672860549296e-07,5.75541765182285e-07,6.107317248540982e-07,1.9622021983732698e-05
3.2382465145488727e-07,5.682158476640779e-07,6.011223596322613e-07,1.9889191789917764e-05
3.22427948222338e-07,5.619829628642143e-07,5.912045937597522e-07,2.018794706484656e-05
3.212589993258148e-07,5.568040226985337e-07,5.810189682201989e-07,2.0518099435493387e-05
3.203243708773088e-07,5.526310924448779e-07,5.706034703903061e-07,2.087939044049458e-05
3.196372403537873e-07,5.494097717109382e-07,5.59994358858053e-07,2.1271407777187685e-05
3.192154411124343e-07,5.470823102628122e-07,5.492278034236862e-07,2.1693429926472028e-05
3.19076741886548e-07,5.455898846611695e-07,5.383395829025047e-07,2.2144290980574105e-05
3.192354219043526e-07,5.448733359460494e-07,5.273630220350098e-07,2.262230714053309e-05
3.1970141404630854e-07,5.448734045169813e-07,5.163279581403105e-07,2.3125258648386816e-05
3.204796475717704e-07,5.455303861327948e-07,5.052617013373787e-07,2.3650432800719494e-05
3.2156872737136696e-07,5.467827679556837e-07,4.941899789338302e-07,2.41947275671002e-05
3.2296013031812786e-07,5.485659885902263e-07,4.831365571725315e-07,2.475478106918276e-05
3.246384543853856e-07,5.50812048290659e-07,4.7212283378629897e-07,2.532708749079913e-05
3.265826554410935e-07,5.534499168549824e-07,4.6116859566268843e-07,2.5908062652310945e-05
3.2876861857031e-07,5.564068932005957e-07,4.5029305624213857e-07,2.6494040419673035e-05
3.311726150973202e-07,5.596107623504686e-07,4.3951533349072935e-07,2.708123600813528e-05
3.337729927870537e-07,5.62991940039108e-07,4.288549785364412e-07,2.7665737380417712e-05
3.365491540910781e-07,5.664847755685215e-07,4.183320575738612e-07,2.8243553154193617e-05
3.3947970871517355e-07,5.700278930104222e-07,4.079659421774061e-07,2.881069864831261e-05
3.425412718555026e-07,5.735632921650104e-07,3.9777445528190004e-07,2.936327890345528e-05
3.4570963212434733e-07,5.770347825668774e-07,3.877744250630829e-07,2.989753806767229e-05
3.489629129812431e-07,5.803880928809508e-07,3.7798215651013865e-07,3.0409893714905958e-05
3.5228256101543506e-07,5.835725834815591e-07,3.684127742666794e-07,3.089700287864279e-05
3.5565102949363885e-07,5.865416600185571e-07,3.5907896743945866e-07,3.13558551775833e-05
3.5904945036324075e-07,5.89251937898582e-07,3.49990488700614e-07,3.178383123457149e-05
3.6245686537842117e-07,5.916636746035652e-07,3.411551745917686e-07,3.2178698039131396e-05
3.658503909419067e-07,5.937415010268577e-07,3.3258026140906193e-07,3.253860994584252e-05
3.692062571540425e-07,5.954536499712418e-07,3.242730033536345e-07,3.286215147503885e-05
3.7250119822881995e-07,5.967725415074831e-07,3.162416851730597e-07,3.314836458717875e-05
3.757126506758719e-07,5.97678570953349e-07,3.084973049330653e-07,3.3396761724972394e-05
3.7881863292200385e-07,5.981631202017728e-07,3.0105445435172876e-07,3.360734204899945e-05
3.818000381592664e-07,5.982268718894437e-07,2.939312321018869e-07,3.378056832669938e-05
3.84643014923734e-07,5.978749479139472e-07,2.871486424137408e-07,3.391729933891073e-05
3.873371301764684e-07,5.971135050296374e-07,2.807287246842722e-07,3.4018701751221394e-05
3.898717016305445e-07,5.959498247703042e-07,2.746917115319796e-07,3.4086131065299156e-05
3.922342784820439e-07,5.943946938178821e-07,2.690538600883183e-07,3.4120969040283257e-05
3.944111112732082e-07,5.924643763626245e-07,2.638267271244166e-07,3.4124468876641134e-05
3.963886635187017e-07,5.901790010558116e-07,2.590172475141749e-07,3.409770842383073e-05
3.98154960009802e-07,5.875585037328799e-07,2.5462787754385765e-07,3.404169276254433e-05
3.9969925508066243e-07,5.846207562460129e-07,2.5065673616726954e-07,3.395754567071499e-05
4.0101114309228284e-07,5.81383064774275e-07,2.470978672647564e-07,3.384672180466497e-05
4.020813347999498e-07,5.778656386580132e-07,2.4394214574452894e-07,3.371117158904867e-05
4.029035822916537e-07,5.740954011193543e-07,2.411787428153767e-07,3.3553286589954685e-05
4.034755108180565e-07,5.701068100006488e-07,2.3879562274127606e-07,3.337556907187701e-05
4.0379760713177684e-07,5.659380973086182e-07,2.36778906034662e-07,3.318029624455312e-05
4.038717465455729e-07,5.61626585872993e-07,2.3511325275509648e-07,3.296938712140028e-05
4.0370054160033947e-07,5.572078745916632e-07,2.3378341418299037e-07,3.27443901089737e-05
4.0328776079152543e-07,5.527182384309815e-07,2.3277448183276334e-07,3.250650026884623e-05
4.026403006064733e-07,5.48194741983571e-07,2.3207113318087806e-07,3.225659698337918e-05
4.017707498915933e-07,5.436722220611308e-07,2.3165789240039414e-07,3.199529711746556e-05
4.0069677820194477e-07,5.391818369461405e-07,2.3151936711713442e-07,3.1723029703125424e-05
3.9943664648781257e-07,5.347517850136451e-07,2.316396360661653e-07,3.1440136043357756e-05
3.980057328242133e-07,5.304073436761861e-07,2.3200206942270642e-07,3.114698223831199e-05
3.964164105895832e-07,5.26169775277283e-07,2.325894950803945e-07,3.084406136897192e-05
3.946793352829558e-07,5.220549708337838e-07,2.333843089399425e-07,3.0532061351659496e-05
3.928051678358757e-07,5.18072978495319e-07,2.3436902265256186e-07,3.0211905111711897e-05
3.908055126534329e-07,5.14229620106132e-07,2.3552642266856012e-07,2.988480225688545e-05
3.8869229268927997e-07,5.105293660868014e-07,2.368388976562802e-07,2.955230822785885e-05
3.864773641111345e-07,5.069770719907627e-07,2.382884620930204e-07,2.921631101075257e-05
3.841726536269002e-07,5.035771842950178e-07,2.398572364834754e-07,2.887890420025288e-05
3.817896036984048e-07,5.003312491507172e-07,2.415270393975889e-07,2.8542225230656746e-05
3.7933819592168077e-07,4.972363985100463e-07,2.432792000658352e-07,2.8208345509766168e-05
3.7682649236851174e-07,4.942864520913337e-07,2.450956726707625e-07,2.7879208645659925e-05
3.7426237433446864e-07,4.91473548460976e-07,2.469603228922809e-07,2.7556581810554285e-05
3.716573191056593e-07,4.887879942573598e-07,2.48858831813638e-07,2.7242015539998285e-05
3.690277618636332e-07,4.862178145124862e-07,2.5077731308542965e-07,2.693681355573577e-05
3.663923456649362e-07,4.837497074095518e-07,2.5270125617825997e-07,2.664198991449708e-05
3.637690861114625e-07,4.813705634681727e-07,2.5461535331688785e-07,2.6358218771114042e-05
3.611741635722184e-07,4.790689711664661e-07,2.5650396463174945e-07,2.6085852998583244e-05
3.586212163087999e-07,4.768366461315776e-07,2.58352541439966e-07,2.5825040020214513e-05
3.5612146033032606e-07,4.7466901359751046e-07,2.601486305666021e-07,2.5575838092672744e-05
3.536840553197453e-07,4.725665321647994e-07,2.618810764957857e-07,2.533824191899213e-05
3.5131608110665434e-07,4.7053917594457647e-07,2.635394463427208e-07,2.5112129270097105e-05
3.490232070911996e-07,4.686101950377344e-07,2.6511480632531125e-07,2.489719843229869e-05
3.468110149173662e-07,4.668131721658821e-07,2.665998341561718e-07,2.469294814949306e-05
3.446858603474202e-07,4.6518406639766743e-07,2.679879677383297e-07,2.449869820992599e-05
3.426547230877518e-07,4.6375460086550474e-07,2.692734323803559e-07,2.431361722292708e-05
3.4072419103532747e-07,4.625494066292531e-07,2.704522794995495e-07,2.413673669594478e-05
3.388991011422464e-07,4.6158581448200257e-07,2.715231218098226e-07,2.3966979521736332e-05
3.3718148349677946e-07,4.60875643194106e-07,2.724868535571244e-07,2.380325214515132e-05
3.355704607609992e-07,4.6042745558795567e-07,2.7334575461450874e-07,2.36446050773288e-05
3.3406326179026897e-07,4.602485128196326e-07,2.7410259765133964e-07,2.3490395166891e-05
3.326568589822726e-07,4.6034792814730895e-07,2.7475979546667016e-07,2.3340339351368187e-05
3.3134855787565643e-07,4.60738435327061e-07,2.753189461007437e-07,2.3194406530960047e-05
3.30134461028294e-07,4.61433207599454e-07,2.75780893961114e-07,2.305262577696337e-05
3.2900791153335685e-07,4.6244155611438744e-07,2.7614573252974147e-07,2.2914957646366308e-05
3.279598196142519e-07,4.6376745770271083e-07,2.7641281844983313e-07,2.278130870473746e-05
3.2698010227168924e-07,4.6540933417054977e-07,2.7658113613698603e-07,2.2651649616072896e-05
3.260594076511602e-07,4.673608791018691e-07,2.766499179624381e-07,2.252613763571446e-05
3.251905468616925e-07,4.6961350548020287e-07,2.766190796625054e-07,2.240515348900981e-05
3.243693203293823e-07,4.721577678513152e-07,2.7648938596582953e-07,2.2289224729188603e-05
3.2359525615353426e-07,4.7498326664935846e-07,2.762627293648761e-07,2.2178881490698e-05
3.228713870538655e-07,4.780792053821883e-07,2.759416850135428e-07,2.2074526007850472e-05
3.2220230882895797e-07,4.814354589108022e-07,2.755287812430209e-07,2.197638308316812e-05
3.2159203955608893e-07,4.85042952040452e-07,2.750285238545946e-07,2.188453010856932e-05
3.210425704052578e-07,4.88892523595439e-07,2.744504707411375e-07,2.1798963512869103e-05
3.2055297112173205e-07,4.929730636015193e-07,2.738090448967485e-07,2.171971824640809e-05
3.201194467425415e-07,4.9727276528902e-07,2.7312233286033485e-07,2.1647098147662657e-05
3.197369348516317e-07,5.017834741002507e-07,2.7241234363431763e-07,2.1581923759878685e-05
3.194019619451977e-07,5.065012364225575e-07,2.717042046203289e-07,2.152555224211514e-05
3.191148768352429e-07,5.114212850996763e-07,2.7102327241488035e-07,2.147959665896828e-05
3.1887944145898983e-07,5.165346992000371e-07,2.703920242824712e-07,2.1445535755850226e-05
3.186998642571151e-07,5.218307839923257e-07,2.6982860994659496e-07,2.1424442432570256e-05
3.185778899849097e-07,5.273009522713798e-07,2.69347304387368e-07,2.141699058261949e-05
3.185121589824964e-07,5.329385338487363e-07,2.689599098256286e-07,2.1423752476981507e-05
3.184989338499104e-07,5.38734599239055e-07,2.6867740125720885e-07,2.144553613606934e-05
3.1853277365661177e-07,5.44674462179129e-07,2.6851118471099937e-07,2.1483468947235608e-05
3.186073885986143e-07,5.507377229064629e-07,2.684735332640154e-07,2.153884556738009e-05
3.187164292705653e-07,5.569013951817004e-07,2.685766149447316e-07,2.161295489374009e-05
3.188535179988296e-07,5.631438116897074e-07,2.6883020304369144e-07,2.1706969409915228e-05
3.1901216686974377e-07,5.694463663210813e-07,2.6923979011445234e-07,2.182185207219983e-05
3.191859061511605e-07,5.757922854205712e-07,2.698060365911932e-07,2.195825489757464e-05
3.193677130749705e-07,5.821640334457653e-07,2.705252495425696e-07,2.2116422719939544e-05
3.19548964318673e-07,5.885414927566369e-07,2.713913141459004e-07,2.229613562906944e-05
3.197198373338661e-07,5.949020582293952e-07,2.723993009898441e-07,2.2496715038845936e-05
3.198723463513845e-07,6.012218292222169e-07,2.735481587970861e-07,2.2717062830651614e-05
3.200033126117549e-07,6.07476501847041e-07,2.748392764076842e-07,2.2955709783569823e-05
3.2011318036475856e-07,6.136411802573794e-07,2.7627281055520416e-07,2.321090817271072e-05
3.202028496890948e-07,6.196896104805741e-07,2.7784659000339785e-07,2.3480753291709123e-05
3.2027419107548737e-07,6.255942544280819e-07,2.795576697706894e-07,2.376325999078704e-05
3.2033347726261957e-07,6.313268099413249e-07,2.8140289593205445e-07,2.4056390739571986e-05
3.203924435466523e-07,6.368577702112574e-07,2.8337846546499317e-07,2.435809069314561e-05
3.204656046234157e-07,6.421554043900181e-07,2.854807979285307e-07,2.4666337254954927e-05
3.205669280871252e-07,6.471855743885524e-07,2.877072032234021e-07,2.497917115319545e-05
3.207084425092143e-07,6.519126697358353e-07,2.900546412130521e-07,2.5294708357950908e-05
3.209016947783157e-07,6.56300400031282e-07,2.9251846647121557e-07,2.561114318124671e-05
3.211624079756998e-07,6.603122942065708e-07,2.950925064338041e-07,2.592672776126406e-05
3.2151516933034325e-07,6.63913489762229e-07,2.9776986898572585e-07,2.6239739015834758e-05
3.2199272497473457e-07,6.670733873591939e-07,3.0054339290434424e-07,2.6548461182669213e-05
3.226297707820157e-07,6.697668630839844e-07,3.03405149866971e-07,2.6851164956545017e-05
3.234566481697565e-07,6.719734385932074e-07,3.063456071048679e-07,2.714608570627789e-05
3.2449644250034584e-07,6.736755046914567e-07,3.0935301216150326e-07,2.743147970942869e-05
3.25764619432421e-07,6.748572218301637e-07,3.124133404195021e-07,2.770576890898335e-05
3.2727016060784825e-07,6.755058201428645e-07,3.1551114151541876e-07,2.796766516858921e-05
3.290178062551776e-07,6.756142092533185e-07,3.1863038268412977e-07,2.8216209598218903e-05
3.3100968202466397e-07,6.751812933866349e-07,3.217549025216892e-07,2.845075575852883e-05
3.3324509361915523e-07,6.742105869189778e-07,3.248691735605676e-07,2.8670912473553888e-05
3.357194967008364e-07,6.727107732539039e-07,3.279587605592877e-07,2.8876429691030345e-05
3.384246177129569e-07,6.706967580429507e-07,3.3101037387895304e-07,2.9067073445894563e-05
3.413498957594617e-07,6.681874485201393e-07,3.3401236240573577e-07,2.9242561939529853e-05
3.444834163861835e-07,6.652016304875389e-07,3.3695456539587985e-07,2.940254263457552e-05
3.478117427335315e-07,6.61755877723901e-07,3.398268620876507e-07,2.9546572704733214e-05
3.513190570817852e-07,6.578653239500951e-07,3.426186427926981e-07,2.9674107554033832e-05
3.549863644393703e-07,6.535452739088824e-07,3.453205053789188e-07,2.9784492470316142e-05
3.587924240879763e-07,6.488119194173691e-07,3.479263161033335e-07,2.9876964851887707e-05
3.627160426237573e-07,6.436830214470103e-07,3.5043411507944734e-07,2.9950693812956312e-05
3.667372325118512e-07,6.38179641034001e-07,3.528459397697083e-07,3.000485617050532e-05
3.7083645063264657e-07,6.323276811945277e-07,3.5516637780449454e-07,3.003871073522075e-05
3.749933439063808e-07,6.261587052142893e-07,3.574004305240585e-07,3.005162384813773e-05
3.7918603404226023e-07,6.197094261114475e-07,3.595521677953115e-07,3.004303274465028e-05
3.833909243464067e-07,6.130184135695904e-07,3.616241809020926e-07,3.0012388406146807e-05
3.8758324863696153e-07,6.061226023888578e-07,3.636176183026268e-07,2.9959138229596405e-05
3.917378572055781e-07,5.990586145532144e-07,3.655330157927659e-07,2.988279410277005e-05
3.9582928442026976e-07,5.918699208058976e-07,3.673702897483342e-07,2.9783093378233947e-05
3.998317370019688e-07,5.846134759808618e-07,3.69127511329484e-07,2.9660128307304608e-05
4.0371934012026095e-07,5.773578812175067e-07,3.7080084167534534e-07,2.9514270058694444e-05
4.0746608032058117e-07,5.701756990822236e-07,3.723866592508662e-07,2.9345955699021746e-05
4.110460443554337e-07,5.631373994759425e-07,3.738850309289678e-07,2.9155564041818915e-05
4.1443482638175407e-07,5.563068618639515e-07,3.753014322457793e-07,2.8943425740453027e-05
4.1761227725308534e-07,5.497373165802288e-07,3.766441374757257e-07,2.870986409197993e-05
4.2056495523703156e-07,5.434700911412272e-07,3.779206569924642e-07,2.8455213385568927e-05
4.232853072193453e-07,5.375370662578193e-07,3.79137030584645e-07,2.8179835377167505e-05
4.257684110008005e-07,5.319659553814703e-07,3.8029843143301405e-07,2.7884159472724617e-05
4.280105477693893e-07,5.267846437415628e-07,3.8140901302492854e-07,2.756873145469005e-05
4.3001043835993974e-07,5.220198248368033e-07,3.8247238945170975e-07,2.723424241176425e-05
4.3177018731267395e-07,5.176920780356971e-07,3.8349375926147757e-07,2.688153492992037e-05
4.3329468695637944e-07,5.138132989511535e-07,3.844811349192785e-07,2.651159976849971e-05
4.345907502593333e-07,5.103871088936444e-07,3.8544413207446976e-07,2.612556675895494e-05
4.356665186471224e-07,5.074104557777925e-07,3.863918272873274e-07,2.572467307899403e-05
4.365308601327016e-07,5.048760715390161e-07,3.873310021195447e-07,2.531020815013565e-05
4.3719317501801156e-07,5.027739671602529e-07,3.8826507736948366e-07,2.4883465351583733e-05
4.376631979751342e-07,5.010903600194972e-07,3.891939307253128e-07,2.444570697378441e-05
4.379496609142911e-07,4.998062902386262e-07,3.901150387584657e-07,2.3998129681731414e-05
4.380586764784029e-07,4.988981401946538e-07,3.9102530456287323e-07,2.354184750978672e-05
4.3799334318467025e-07,4.983390307334082e-07,3.919218299082969e-07,2.307791094244429e-05
4.377547870331496e-07,4.981010357567668e-07,3.9280140279446823e-07,2.2607349513420066e-05
4.373439146252552e-07,4.981586659948425e-07,3.9366002145037495e-07,2.213122571504365e-05
4.3676191958428743e-07,4.984898893378943e-07,3.9449293599263546e-07,2.1650705088536772e-05
4.360089484253139e-07,4.990723650748983e-07,3.952946984357579e-07,2.1167137043966428e-05
4.3508308746465123e-07,4.998795314323422e-07,3.9605921488083403e-07,2.0682125323617216e-05
4.3398062149959486e-07,5.008807061937357e-07,3.9678009838102493e-07,2.0197566981994198e-05
4.32696842385017e-07,5.020429384380846e-07,3.974511508680233e-07,1.971563558540981e-05
4.3122739019485997e-07,5.033314873481339e-07,3.980665245308333e-07,1.923869692483625e-05
4.295699779514703e-07,5.047101343898428e-07,3.9862037610754316e-07,1.8769184819444108e-05
4.27725128756315e-07,5.06143819581349e-07,3.991063017954957e-07,1.83094738608892e-05
4.256952565907882e-07,5.076044290660625e-07,3.9951705973973996e-07,1.7861755938209013e-05
4.2348337343095367e-07,5.090783841188428e-07,3.998444400582914e-07,1.7427937499731987e-05
4.21092660533749e-07,5.105706916616641e-07,4.000788884532535e-07,1.700959823990098e-05
4.185274872533484e-07,5.121008499560859e-07,4.002100927252753e-07,1.6607998189945596e-05
4.1579520680685725e-07,5.136956306847119e-07,4.0022924407431273e-07,1.6224087965908686e-05
4.129067787034122e-07,5.153863828605961e-07,4.001310523765208e-07,1.5858518294942734e-05
4.0987679033003846e-07,5.172078755726664e-07,3.999138138691981e-07,1.5511664397976767e-05
4.067243510190637e-07,5.191936297213909e-07,3.9957753878101064e-07,1.5183699617376522e-05
4.034725743997285e-07,5.213719935623468e-07,3.9912153816607305e-07,1.4874746801027296e-05
4.001450436620472e-07,5.237672614780796e-07,3.985435689232587e-07,1.4585044861461127e-05
3.967625240865553e-07,5.264027035276304e-07,3.978412341201244e-07,1.4315023347619947e-05
3.9334307030461e-07,5.293019351089815e-07,3.97015039607207e-07,1.4065240784831418e-05
3.899042529440806e-07,5.324896462892048e-07,3.960712986917724e-07,1.3836235898090588e-05
3.864640682859458e-07,5.359919592365141e-07,3.950218503020033e-07,1.3628428739186385e-05
3.830397158854701e-07,5.398331685301157e-07,3.9388077751786095e-07,1.3442141642584774e-05
3.7964661381469687e-07,5.440294619502597e-07,3.926615201258036e-07,1.3277636616250066e-05
3.762988156123339e-07,5.48585142347402e-07,3.913758107003883e-07,1.3135079187577538e-05
3.730097708401678e-07,5.534930260123526e-07,3.9003415258943634e-07,1.3014460197030805e-05
3.697924390569413e-07,5.587359913315688e-07,3.886468857934e-07,1.291556488619328e-05
3.666588688200718e-07,5.642880484482193e-07,3.872246806118769e-07,1.2838044403966538e-05
3.6362052979990725e-07,5.701153948685819e-07,3.8577919997113477e-07,1.278152293568081e-05
3.606889529313249e-07,5.761775153751604e-07,3.843237995742883e-07,1.2745643981893665e-05
3.5787469155634134e-07,5.824281861248292e-07,3.8287190701677387e-07,1.2730048179959891e-05
3.551857492674741e-07,5.888174839421385e-07,3.814340337560089e-07,1.2734317216602021e-05
3.5262758377722544e-07,5.952951741176899e-07,3.800169189633086e-07,1.2757947019384641e-05
3.5020416772405967e-07,6.01812962594843e-07,3.7862469340075025e-07,1.2800432200805016e-05
3.4791867431131056e-07,6.08323910951536e-07,3.772601846129806e-07,1.2861394012074326e-05
3.4577286411177046e-07,6.147819119583935e-07,3.7592602124317577e-07,1.2940558238152635e-05
3.437659018992709e-07,6.211455676087898e-07,3.7462567220024207e-07,1.3037608169659524e-05
3.4189425942272147e-07,6.27385152022282e-07,3.733642553339937e-07,1.3152194203003122e-05
3.401530375359375e-07,6.334859064202849e-07,3.7214817802366977e-07,1.328417945194277e-05
3.385381335123604e-07,6.39445178157846e-07,3.709843412962435e-07,1.3433848704129647e-05
3.370486110455772e-07,6.452666611610897e-07,3.698809585808045e-07,1.3601905563144728e-05
3.3568899600472286e-07,6.509541662666214e-07,3.688486695683165e-07,1.3789362339599213e-05
3.344714093542675e-07,6.565069656737e-07,3.67900266887872e-07,1.3997442044500312e-05
3.33416199828946e-07,6.619181629570382e-07,3.6704983563587365e-07,1.4227500264442165e-05
3.3255004150692247e-07,6.671744463165243e-07,3.6631245607092405e-07,1.448090322567854e-05
3.319031480544455e-07,6.722563932618572e-07,3.657056054323458e-07,1.4758837507071735e-05
3.3150655432753766e-07,6.771408443064438e-07,3.6525023037397273e-07,1.506212620593854e-05
3.313882347557037e-07,6.818042610677836e-07,3.649680402012383e-07,1.5391110496639472e-05
3.315700517128792e-07,6.862233964480165e-07,3.64877243374444e-07,1.574560032954358e-05
3.320702267092585e-07,6.903739577309866e-07,3.649911692626073e-07,1.6124916601570137e-05
3.3291023836306193e-07,6.942314967796419e-07,3.6532007697584406e-07,1.6528008719227988e-05
3.341185722570569e-07,6.977734904446662e-07,3.658735403720664e-07,1.6953564786523212e-05
3.357281760270581e-07,7.009784916498235e-07,3.666606566862818e-07,1.740009265267783e-05
3.377717066446477e-07,7.03823799867587e-07,3.676881399241392e-07,1.7866002264489223e-05
3.402765015602578e-07,7.062853555870188e-07,3.689595897524142e-07,1.8349684569559053e-05
3.4325988296311067e-07,7.083395465601646e-07,3.7047733489619827e-07,1.8849570808295692e-05
3.467282714242126e-07,7.09965588672273e-07,3.7224558475813105e-07,1.936416932312974e-05
3.5067978247557805e-07,7.111480773123519e-07,3.742735897892123e-07,1.989211849259585e-05
3.551068972759337e-07,7.118784253888111e-07,3.765765701352299e-07,2.0432355469784545e-05
3.5999886819169157e-07,7.121546197940194e-07,3.791733739772665e-07,2.0984429114052977e-05
3.6534385855556407e-07,7.119800052333536e-07,3.820824616385865e-07,2.1548739351540163e-05
3.7113020703545105e-07,7.113613843564545e-07,3.8531766737737993e-07,2.2126434746360552e-05
3.7734733255817e-07,7.103063523173182e-07,3.88885332232772e-07,2.2719026812226237e-05
3.8398542894480593e-07,7.088205992841219e-07,3.9278385380247505e-07,2.332797751575289e-05
3.910330263580213e-07,7.069068112604105e-07,3.97003944128923e-07,2.395437795625839e-05
3.9847475597059e-07,7.045657764945354e-07,4.0152866107060383e-07,2.4598792267127012e-05
4.0629197311728593e-07,7.017984949895849e-07,4.0633524709165546e-07,2.5261395094268e-05
4.1446579723181257e-07,6.986080844595683e-07,4.1139902400748756e-07,2.5942279641194945e-05
4.2297939904601113e-07,6.950017867072182e-07,4.1669684534402313e-07,2.664158844434757e-05
4.3181667301650477e-07,6.909927259065798e-07,4.222090509779118e-07,2.7359386836165107e-05
4.409581125778261e-07,6.865991213243244e-07,4.2792045783341313e-07,2.8095445233328197e-05
4.5037701074409705e-07,6.818410657647298e-07,4.3381954015284824e-07,2.8849023697018866e-05
4.6003771833292044e-07,6.767376976685833e-07,4.3989466644874666e-07,2.9618715692575316e-05
4.698957678316175e-07,6.713060312152861e-07,4.4613035354588287e-07,3.0402400684076868e-05
4.798992693396568e-07,6.655614216485897e-07,4.5250723291934546e-07,3.1197294522224486e-05
4.89991172809654e-07,6.59518384465857e-07,4.590033196251153e-07,3.200007837741652e-05
5.001120143917997e-07,6.531903434223189e-07,4.655935105153115e-07,3.280707368434949e-05
5.102023935710335e-07,6.465899441912211e-07,4.722503145065391e-07,3.361438905802149e-05
5.202038533748217e-07,6.397304955400098e-07,4.789477787728599e-07,3.441799752138238e-05
5.300583500401971e-07,6.326264193307009e-07,4.856643845225119e-07,3.521376975877873e-05
5.397082402772395e-07,6.252927538946575e-07,4.923818401516551e-07,3.5997503129528465e-05
5.490973292231964e-07,6.177449191753403e-07,4.990815335499332e-07,3.6764965217529976e-05
5.581728323791446e-07,6.09999088593946e-07,5.057412717594858e-07,3.751194708432461e-05
5.668876713725746e-07,6.020724158485422e-07,5.123341958612134e-07,3.82343097740103e-05
5.752004946307987e-07,5.939819289252206e-07,5.18830567276421e-07,3.8928011481533935e-05
5.830732732649254e-07,5.857437016545501e-07,5.252008052021611e-07,3.958911657359058e-05
5.904699531955146e-07,5.773752914542604e-07,5.314171548166446e-07,4.021380422359946e-05
5.973576461590822e-07,5.689014130636561e-07,5.374531683179988e-07,4.079840486436647e-05
6.037085573137248e-07,5.603582834435256e-07,5.432821865621922e-07,4.133947323597988e-05
6.095002170206946e-07,5.51792200093439e-07,5.488763963444454e-07,4.183385328471834e-05
6.147140501119e-07,5.432539655071928e-07,5.542074267435761e-07,4.227869132665028e-05
6.193341158826017e-07,5.34793160757435e-07,5.592474474693769e-07,4.2671442210233206e-05
6.233464346108038e-07,5.26454531585786e-07,5.639697059512766e-07,4.300994078123206e-05
6.267389910350968e-07,5.182776486450133e-07,5.6835038015866e-07,4.3292499278435135e-05
6.295027292171349e-07,5.102997432932386e-07,5.723718711898366e-07,4.3517925084389676e-05
6.316335300814281e-07,5.025611908740197e-07,5.760235852134433e-07,4.368545195363714e-05
6.331344504773174e-07,4.951114868927749e-07,5.792991560160177e-07,4.379465235960122e-05
6.340158347152583e-07,4.880116344109279e-07,5.821931289369249e-07,4.384536451868337e-05
6.342932919247949e-07,4.813315272504617e-07,5.846987157214935e-07,4.383764971028365e-05
6.339859011612889e-07,4.751447444905768e-07,5.868069669539115e-07,4.3771778006309995e-05
6.331144526129531e-07,4.6952374394772643e-07,5.885078082435993e-07,4.3648210027457895e-05
6.31699839467928e-07,4.645371420855085e-07,5.897916181881448e-07,4.3467568081660166e-05
6.297631908007248e-07,4.6024865970114154e-07,5.906499685856142e-07,4.323062190887344e-05
6.273269362347303e-07,4.567149331928214e-07,5.910764085668368e-07,4.293830361791532e-05
6.244146907293082e-07,4.5398166361816644e-07,5.910675541099229e-07,4.259176369537409e-05
6.21049576736487e-07,4.5208232475832136e-07,5.906231468259406e-07,4.219248534915011e-05
6.172527358984997e-07,4.5104014041064303e-07,5.897449116403128e-07,4.1742405679322086e-05
6.130431930387255e-07,4.5086921981324283e-07,5.884354144983747e-07,4.124393159864994e-05
6.084380384168306e-07,4.5157433273701936e-07,5.866974645660321e-07,4.069982592577766e-05
6.03452609651575e-07,4.531505698970922e-07,5.845340034645565e-07,4.011303602086224e-05
5.981017131169221e-07,4.5558411703893907e-07,5.819490992737099e-07,3.9486539726329616e-05
5.924014541362642e-07,4.588576068081497e-07,5.789499325360898e-07,3.8823261199130715e-05
5.863703788142227e-07,4.6295809559218777e-07,5.755482557169897e-07,3.812605180465959e-05
5.800297261097744e-07,4.6788006779238673e-07,5.717600999230943e-07,3.739770176665421e-05
5.734024713340744e-07,4.7362193259454317e-07,5.676035835818322e-07,3.664103704995666e-05
5.665116871456092e-07,4.801813917821925e-07,5.630962474386951e-07,3.585919072920018e-05
5.593805780251812e-07,4.875531617004502e-07,5.582538901908496e-07,3.5055928412334915e-05
5.520347272866863e-07,4.957276808318508e-07,5.530910095139683e-07,3.4235730475096684e-05
5.445047658525365e-07,5.046887043415582e-07,5.476219180655893e-07,3.340354738947338e-05
5.368268520506964e-07,5.144095952622475e-07,5.418620439514218e-07,3.256442939991121e-05
5.290390761736935e-07,5.248503715706827e-07,5.358285989148572e-07,3.172323251390666e-05
5.211763189712861e-07,5.359598751365699e-07,5.295409287355934e-07,3.088454274248843e-05
5.132678194636479e-07,5.476852677095934e-07,5.230212057093921e-07,3.005287029381557e-05
5.053376046814509e-07,5.599823058220372e-07,5.162936943368228e-07,2.9232903601198572e-05
