5.335906621486781e-07,4.798000835087576e-07,3.95016407004221e-07,2.5933818320554928e-05
5.357293234073777e-07,4.778279125240452e-07,3.9359799216992005e-07,2.537506958961282e-05
5.379774603300961e-07,4.759362047064869e-07,3.920647038246222e-07,2.4839193631065795e-05
5.403229171388365e-07,4.741551890432165e-07,3.9041919368054953e-07,2.4328800786344602e-05
5.427506505008886e-07,4.7251330891987113e-07,3.88663680728039e-07,2.384610276840858e-05
5.452450580421877e-07,4.7103684489532426e-07,3.8679960018874067e-07,2.339294807723808e-05
5.477900278658099e-07,4.697480013157977e-07,3.8482781883842467e-07,2.2970868013723245e-05
5.503697282410718e-07,4.686629718802209e-07,3.827495512220979e-07,2.2581142041311675e-05
5.529701449705361e-07,4.6779171996815863e-07,3.805683454517459e-07,2.2224885999402347e-05
5.55577419085135e-07,4.671394827159729e-07,3.782917940050305e-07,2.19031326156023e-05
5.581755248805882e-07,4.6670798987403354e-07,3.7593073664426594e-07,2.1616837819968866e-05
5.607470928411944e-07,4.6649553931009433e-07,3.7349730579185147e-07,2.136678640707025e-05
5.63274684612753e-07,4.664980702301697e-07,3.710046035824225e-07,2.1153457060184522e-05
5.657407629506856e-07,4.667111245944572e-07,3.684670395916344e-07,2.097691131146556e-05
5.681278375811582e-07,4.671311429080039e-07,3.6589902940669777e-07,2.0836732411324834e-05
5.704179204475965e-07,4.677558897049346e-07,3.6331322585966294e-07,2.0732051931297527e-05
5.72591169248402e-07,4.685827895068792e-07,3.607206176820339e-07,2.066166638840816e-05
5.746263149163338e-07,4.696059825777706e-07,3.581320355970939e-07,2.062417527997891e-05
5.765032533620758e-07,4.708152305816111e-07,3.555588713053541e-07,2.061810364694943e-05
5.782052148378211e-07,4.7219661228580797e-07,3.530120114873872e-07,2.0642004624837656e-05
5.797188745712353e-07,4.737332047542085e-07,3.505001879185173e-07,2.0694497523952065e-05
5.810339111089907e-07,4.754059130338071e-07,3.480293263602705e-07,2.077421176485741e-05
5.821433150324818e-07,4.771949345905622e-07,3.456030106487091e-07,2.087968166231977e-05
5.83042597425601e-07,4.790804497432803e-07,3.432230506654404e-07,2.1009251508701088e-05
5.837270175497391e-07,4.810418678508632e-07,3.4088933478443377e-07,2.1161027219072024e-05
5.841895711156122e-07,4.830580269116949e-07,3.385994462288661e-07,2.13329293264544e-05
5.844212779524355e-07,4.851090734515608e-07,3.3634924474951074e-07,2.1522845510727938e-05
5.844117127804557e-07,4.871770074402337e-07,3.341345376478757e-07,2.1728765669784932e-05
5.841493695206682e-07,4.892438379359168e-07,3.319522289742934e-07,2.1948812743521122e-05
5.836240211259284e-07,4.912896256665622e-07,3.298001373163019e-07,2.2181172941812922e-05
5.828290319277914e-07,4.932918088899879e-07,3.276771890182276e-07,2.2423967630401666e-05
5.817598337705412e-07,4.952257913101106e-07,3.255843963283673e-07,2.267514852880612e-05
5.804110136234161e-07,4.97066689334186e-07,3.235246390452132e-07,2.293247314402848e-05
5.787762210850659e-07,4.987906572332154e-07,3.215007674478213e-07,2.3193533469807998e-05
5.768503821863979e-07,5.003747082940769e-07,3.195136892077252e-07,2.3455793355299568e-05
5.746311729214883e-07,5.01797868656603e-07,3.175618578783404e-07,2.3716638336813063e-05
5.721181662223794e-07,5.030452376510678e-07,3.156418551985504e-07,2.397347074171527e-05
5.693110641239735e-07,5.041109773779422e-07,3.13749397119115e-07,2.422385774716235e-05
5.662090183633449e-07,5.049966446098262e-07,3.11880651103092e-07,2.4465704560240384e-05
5.628110631469575e-07,5.057062748441421e-07,3.100331925177732e-07,2.469738631015528e-05
5.591169102012996e-07,5.062419937772121e-07,3.082063524722041e-07,2.491775335968434e-05
5.551281923940817e-07,5.066024221242639e-07,3.064014576955413e-07,2.512600680193157e-05
5.508513669000134e-07,5.067829294999618e-07,3.0462196041268467e-07,2.5321523856576448e-05
5.463018023840522e-07,5.067759741266082e-07,3.0287343072163354e-07,2.5503706981755842e-05
5.415040779118787e-07,5.065717198394654e-07,3.011632132062119e-07,2.567190824674502e-05
5.364865438416286e-07,5.061592471454941e-07,2.9949954418148045e-07,2.5825429788676488e-05
5.31276494042598e-07,5.055277416399314e-07,2.978915554570557e-07,2.5963562674286398e-05
5.258998195076344e-07,5.046673955646908e-07,2.963508318817852e-07,2.6085707724744926e-05
5.203813892715827e-07,5.035696900324776e-07,2.9489159273032284e-07,2.61916554886888e-05
5.147437421914074e-07,5.02226813954807e-07,2.935278031894865e-07,2.628187063062224e-05
5.090061435589175e-07,5.006308079039927e-07,2.9226984517766344e-07,2.635748089613572e-05
5.031850484630034e-07,4.987735350271449e-07,2.9112309970837026e-07,2.6419967861819612e-05
4.972943489866564e-07,4.96649655703931e-07,2.9008882510953777e-07,2.6470826907939568e-05
4.913453278362565e-07,4.942630994224701e-07,2.891666401047713e-07,2.651137111152525e-05
4.853484788082434e-07,4.916311063943734e-07,2.883562434409195e-07,2.6542740900016768e-05
4.793164091988554e-07,4.887807216570058e-07,2.876567759781467e-07,2.6566131108662548e-05
4.732641075156845e-07,4.857429246342802e-07,2.870652237435269e-07,2.658306251845235e-05
4.672063707786008e-07,4.825507088364182e-07,2.8657573843240515e-07,2.6595463696821563e-05
4.6115641969995183e-07,4.792386560768707e-07,2.861799524625626e-07,2.660558643512872e-05
4.551277387782886e-07,4.7584071924536323e-07,2.858676720282813e-07,2.661591156879131e-05
4.491368311842943e-07,4.7238794667005084e-07,2.856276507618316e-07,2.662907189010457e-05
4.432041583465115e-07,4.68907206109313e-07,2.854480522520158e-07,2.664776639393938e-05
4.373528570791873e-07,4.6541995785299595e-07,2.8531690371982004e-07,2.66746796432966e-05
4.316077259626217e-07,4.619415660928276e-07,2.8522310768379567e-07,2.671242425798624e-05
4.2599626095519674e-07,4.5848191471522675e-07,2.851571848748676e-07,2.676352294911741e-05
4.2054796965386717e-07,4.5504646332395926e-07,2.851110086272965e-07,2.683042516969288e-05
4.152899793860606e-07,4.516369165474546e-07,2.8507721852794984e-07,2.6915495094315546e-05
4.102442524016402e-07,4.4825201569908886e-07,2.850496531675627e-07,2.7020916906564718e-05
4.054290445742671e-07,4.448890337611986e-07,2.850250264098262e-07,2.714855188043685e-05
4.008607133616878e-07,4.4154563426608886e-07,2.850035984639711e-07,2.7299806290131657e-05
3.9655336886184774e-07,4.3822124136264923e-07,2.84987065089364e-07,2.7475520099954085e-05
3.9251774884823256e-07,4.3491732800709493e-07,2.849756583774864e-07,2.767589063675062e-05
3.8876103007510183e-07,4.3163757092172393e-07,2.84967237176104e-07,2.7900490638464532e-05
3.8528740602310647e-07,4.2838953584272525e-07,2.8495791379839656e-07,2.814839774073233e-05
3.820987488008078e-07,4.251863448491007e-07,2.849428909862949e-07,2.8418384521451692e-05
3.791966099743068e-07,4.220450640178826e-07,2.849176358425882e-07,2.8709133321298712e-05
3.76585465894182e-07,4.189828279799616e-07,2.8487878257201657e-07,2.90194329985682e-05
3.742752594610396e-07,4.1601410737810185e-07,2.848239903695476e-07,2.9348285178935358e-05
3.722827290161142e-07,4.1314985880321776e-07,2.8475153943070157e-07,2.969490255503484e-05
3.7062959102819363e-07,4.10397578710857e-07,2.8466012840960877e-07,3.0058628370169048e-05
3.6933853660185146e-07,4.0776130586431153e-07,2.845488008736009e-07,3.043878956843596e-05
3.6843183952236974e-07,4.0524116515768793e-07,2.8441748321440053e-07,3.0834505464198746e-05
3.679302676230989e-07,4.0283403259768294e-07,2.8426737290515554e-07,3.1244521408982736e-05
3.6784910993324655e-07,4.0053671287004953e-07,2.841004339621715e-07,3.166714997468941e-05
3.6819504076099185e-07,3.983486823405703e-07,2.839192413927449e-07,3.2100324791406424e-05
3.6896580797159813e-07,3.9627101784426407e-07,2.8372677012670067e-07,3.25416902339476e-05
3.7015165474256677e-07,3.9430350176225096e-07,2.8352510244558594e-07,3.298865760129744e-05
3.717376718809508e-07,3.924432942317269e-07,2.8331487537498934e-07,3.3438406936782334e-05
3.73705297087045e-07,3.9068513163437816e-07,2.830962920658937e-07,3.3887881627512235e-05
3.7603212707621777e-07,3.8902218275889313e-07,2.8287049867934043e-07,3.433387334692693e-05
3.786918156206214e-07,3.874479531878977e-07,2.8264103957046087e-07,3.477323445814915e-05
3.816566863417172e-07,3.859581035871997e-07,2.8241453786002224e-07,3.520312024349456e-05
3.849041599454697e-07,3.8455015222441906e-07,2.821999296464277e-07,3.562111113429141e-05
3.884228215281364e-07,3.832227468684141e-07,2.8200763573800866e-07,3.6025181409739615e-05
3.9221165111963403e-07,3.819770715687658e-07,2.818486792471214e-07,3.641360780326425e-05
3.962732028199323e-07,3.808189331926878e-07,2.817329195062961e-07,3.678488593223527e-05
4.006078819257151e-07,3.797589975596544e-07,2.816678583919487e-07,3.713765870754172e-05
4.0521320740078677e-07,3.788098771512661e-07,2.8165917953998534e-07,3.7470638647602296e-05
4.100854574752012e-07,3.779819963218464e-07,2.8171203952185497e-07,3.778251260518571e-05
4.1521952218279706e-07,3.772836471347284e-07,2.818312223770721e-07,3.807187509539955e-05
4.2060779025598594e-07,3.767249748577262e-07,2.8201956273395985e-07,3.833722860798416e-05
4.262422688309168e-07,3.763196226068253e-07,2.822766356678937e-07,3.857701471846519e-05
4.3211811806522634e-07,3.7608371137513134e-07,2.825990608353276e-07,3.878964215686878e-05
4.3823247800072137e-07,3.760376729651021e-07,2.829813307806536e-07,3.897353494538037e-05
4.445788351668303e-07,3.76210057982708e-07,2.834165949466548e-07,3.912727235335669e-05
4.511426135990739e-07,3.7663588351401894e-07,2.838981912141077e-07,3.9249786613581106e-05
4.579005965882891e-07,3.773499644185658e-07,2.844214162884861e-07,3.934043389771303e-05
4.648236855145921e-07,3.783835096704907e-07,2.84983635766526e-07,3.9398966633979936e-05
4.7188458946818066e-07,3.7976493204941506e-07,2.855832331184289e-07,3.942560453406773e-05
4.790679743500292e-07,3.815189155920279e-07,2.8621965198784607e-07,3.9421128482912454e-05
4.863725418176909e-07,3.8366290553600614e-07,2.868935147742548e-07,3.938683989118283e-05
4.938024663223382e-07,3.862048778443554e-07,2.876048603371225e-07,3.932443666521054e-05
5.013588439467885e-07,3.8914336890520896e-07,2.883512850656861e-07,3.923588512110873e-05
5.090379523911896e-07,3.924682944286707e-07,2.8912785253610037e-07,3.912331072201607e-05
5.168330575714616e-07,3.961622904143037e-07,2.899280577639857e-07,3.898892519856179e-05
5.247351884721539e-07,4.002024113486282e-07,2.907446215993797e-07,3.883498189041119e-05
5.327315803434585e-07,4.045611782223758e-07,2.9156963892593107e-07,3.8663731288259066e-05
5.408043994650386e-07,4.092068348957196e-07,2.9239476862003005e-07,3.847736936701559e-05
5.489339862363211e-07,4.141036291689315e-07,2.932117142303173e-07,3.8277990965023906e-05
5.571046009179937e-07,4.192133305324166e-07,2.940122767443393e-07,3.806754362103905e-05
5.653051337916792e-07,4.244983593776157e-07,2.9478860205021965e-07,3.784777338115672e-05
5.735236017790797e-07,4.299246435093936e-07,2.955354211317359e-07,3.7620178199192214e-05
5.817426077306947e-07,4.354617147984951e-07,2.962532276207961e-07,3.738596928034527e-05
5.89940649913121e-07,4.4107997671916855e-07,2.969485274609387e-07,3.714603539112787e-05
5.980962775555649e-07,4.4674819060938255e-07,2.976309529685209e-07,3.690097104448603e-05
6.061897412221097e-07,4.5243360374245633e-07,2.983108155929913e-07,3.665120749122632e-05
6.142013987348358e-07,4.581038080996158e-07,2.989983419879244e-07,3.639714554520067e-05
6.221095330047996e-07,4.637283434499094e-07,2.997028531336262e-07,3.613917615068607e-05
6.298888809978705e-07,4.692792749439557e-07,3.0043090907893385e-07,3.587760413502681e-05
6.375108366966885e-07,4.7473125326615724e-07,3.0118485723251826e-07,3.561255631878009e-05
6.449465548180878e-07,4.800613717932457e-07,3.019632131746191e-07,3.5343937507731674e-05
6.521700867931953e-07,4.85248156186823e-07,3.0276270609148804e-07,3.5071456829644375e-05
6.591574576546077e-07,4.902700156318397e-07,3.0358109650761126e-07,3.479468406707135e-05
6.658837911202033e-07,4.951049278075756e-07,3.0441875015605877e-07,3.4513088429128806e-05
6.723225541386857e-07,4.997313607083192e-07,3.052772994403036e-07,3.4226076894077186e-05
6.784464164846267e-07,5.041297279267078e-07,3.0615746260377466e-07,3.393305173294143e-05
6.842282181764234e-07,5.082856693801785e-07,3.070589536354003e-07,3.3633445969748226e-05
6.896417610543322e-07,5.121933092598699e-07,3.079809782371182e-07,3.332670654242667e-05
6.946615042950022e-07,5.158533788151898e-07,3.089214712471729e-07,3.301225927634951e-05
6.992616033634479e-07,5.192674736464082e-07,3.0987747584218217e-07,3.26895086403195e-05
7.034162918184209e-07,5.224347537635151e-07,3.108471848777193e-07,3.235790385825554e-05
7.071015421597044e-07,5.25352366317585e-07,3.1182992263828304e-07,3.2017031824178636e-05
7.102963258995994e-07,5.28017160486823e-07,3.1282384241585626e-07,3.166663541713273e-05
7.12983174409899e-07,5.3042766772573e-07,3.138252097047933e-07,3.1306563461525195e-05
7.151492952127658e-07,5.325847836431673e-07,3.1482963892254226e-07,3.093677679698172e-05
7.167881797769422e-07,5.344906877863296e-07,3.158326355705125e-07,3.0557411800351474e-05
7.178997041071118e-07,5.361489657333732e-07,3.168290989756761e-07,3.016877530049973e-05
7.18488389763753e-07,5.375663218841533e-07,3.178130419881176e-07,2.977127236917095e-05
7.18561011657348e-07,5.387525876424728e-07,3.1877825942073194e-07,2.9365414709957622e-05
7.18124052404058e-07,5.397187916808985e-07,3.197199797653389e-07,2.895194630647408e-05
7.171820047117799e-07,5.404753100848782e-07,3.2063614070212924e-07,2.853191755289726e-05
7.157377714492532e-07,5.410301317706809e-07,3.2152684922578245e-07,2.8106583008735545e-05
7.13794776362383e-07,5.413879883519203e-07,3.2239275316613397e-07,2.7677209657141087e-05
7.113587586931892e-07,5.415515278723021e-07,3.232340833911107e-07,2.724495750529772e-05
7.084381823790937e-07,5.415222518481059e-07,3.240519942046029e-07,2.6810938546205e-05
7.05044560819143e-07,5.41299589820314e-07,3.248520199778834e-07,2.637642971353371e-05
7.011936047159564e-07,5.408801033548999e-07,3.256458181429552e-07,2.594307291473552e-05
6.969059562282022e-07,5.402584491748799e-07,3.264485133889432e-07,2.551293280990579e-05
6.922064226140635e-07,5.394307958157444e-07,3.2727423364095263e-07,2.508843236215015e-05
6.871230799407305e-07,5.38399842836791e-07,3.281332127023121e-07,2.467219415088517e-05
6.816868851190729e-07,5.371778633449233e-07,3.290307742407945e-07,2.426679079625022e-05
6.759296620172553e-07,5.357853347971453e-07,3.299672168189408e-07,2.387455374901285e-05
6.698812581742426e-07,5.342467078615652e-07,3.309380962719699e-07,2.3497583088611468e-05
6.635692214818644e-07,5.325879134577488e-07,3.319349794721493e-07,2.313784433585844e-05
6.570201459693227e-07,5.308383808607998e-07,3.3294679596810465e-07,2.2797171625680226e-05
6.502598638391043e-07,5.290339230380928e-07,3.3396141227260124e-07,2.2477143506946515e-05
6.433129926075258e-07,5.272153500007782e-07,3.3496706128842586e-07,2.2178942173411192e-05
6.362039547603915e-07,5.254234782630644e-07,3.3595328206687196e-07,2.190331272586025e-05
6.289587512336845e-07,5.236946506408087e-07,3.369103990036765e-07,2.165060554680408e-05
6.21604793016944e-07,5.220582151354024e-07,3.378281569327404e-07,2.1420858935361592e-05
6.141696754460774e-07,5.205356129156591e-07,3.38695946770748e-07,2.121392039514632e-05
6.066811430528401e-07,5.191422312457819e-07,3.395039670642148e-07,2.102957277544751e-05
5.991664895817131e-07,5.178910310986065e-07,3.402431902963961e-07,2.086762947147685e-05
5.916504608022478e-07,5.167932082937565e-07,3.409050709273125e-07,2.072798919159092e-05
5.841536292124913e-07,5.158556141606939e-07,3.414816400714441e-07,2.0610645915414736e-05
5.766916514204466e-07,5.150798441004973e-07,3.419653708544383e-07,2.05156649774785e-05
5.692750632749903e-07,5.144637753682046e-07,3.423495129539312e-07,2.0443138044544875e-05
5.619101575956836e-07,5.140027053089661e-07,3.4262899579504445e-07,2.03931108493284e-05
5.546021167272255e-07,5.136894788709143e-07,3.428005893961844e-07,2.036549217487677e-05
5.473607859465517e-07,5.135141766007403e-07,3.428617506730536e-07,2.035996526282514e-05
5.402054014239295e-07,5.134638564900383e-07,3.4280917593033865e-07,2.0375906360088325e-05
5.331635260353054e-07,5.135230497548968e-07,3.426385990628557e-07,2.0412345778622186e-05
5.262660169194241e-07,5.136745572958124e-07,3.423459324817059e-07,2.0468023641478103e-05
5.195441155666608e-07,5.138996560711673e-07,3.419282036552115e-07,2.054152346230152e-05
5.130300730207142e-07,5.141778532386063e-07,3.413835540926448e-07,2.063141697941505e-05
5.067577362929593e-07,5.144867267321403e-07,3.407113349462241e-07,2.0736370645300133e-05
5.007606025655616e-07,5.148020328009762e-07,3.399125968582198e-07,2.085520352912088e-05
4.950686147760572e-07,5.150981322975678e-07,3.389903218523861e-07,2.09869021254285e-05
4.897067387108487e-07,5.153494188318254e-07,3.3794949354329905e-07,2.1130593657188084e-05
4.846959188828608e-07,5.155322700356655e-07,3.3679691853903624e-07,2.128548876046835e-05
4.800537479498567e-07,5.1562523806332e-07,3.355403359299196e-07,2.145080000167589e-05
4.757936563504482e-07,5.156075837253307e-07,3.341869047000916e-07,2.1625644242766502e-05
4.719252870592409e-07,5.154585570606922e-07,3.327420193559807e-07,2.180897636497648e-05
4.6845799654403315e-07,5.151583820678466e-07,3.312095357854008e-07,2.1999613982532568e-05
4.65406223637753e-07,5.146900800012049e-07,3.295925539677345e-07,2.2196344908276323e-05
4.627962679336182e-07,5.140404736123415e-07,3.2789337976772444e-07,2.2398018377497896e-05
4.606727050532449e-07,5.131999002518782e-07,3.261134304021515e-07,2.2603529805046978e-05
4.590967842903293e-07,5.121612253461615e-07,3.242537252003369e-07,2.281172152037631e-05
4.5813370270196455e-07,5.109180692617904e-07,3.22315644173963e-07,2.302130347469941e-05
4.578387282379872e-07,5.094631359033721e-07,3.2030235202599447e-07,2.323085603210588e-05
4.582518137028607e-07,5.077883616779753e-07,3.182203593764139e-07,2.3438887422341345e-05
4.5939831848893117e-07,5.058867738123507e-07,3.160802126868792e-07,2.364393076845235e-05
4.6129004998643524e-07,5.037542543834762e-07,3.138961485354938e-07,2.3844679938993906e-05
4.639258885364424e-07,5.013896201699617e-07,3.1168424782238047e-07,2.40400836168348e-05
4.672926331919901e-07,4.987933539475674e-07,3.0946003120943236e-07,2.422934180105888e-05
4.713657827621211e-07,4.95966325649658e-07,3.072374548161878e-07,2.4411843613895497e-05
4.7611059024567425e-07,4.929087563881076e-07,3.050293776893121e-07,2.458706968201538e-05
4.814835594117922e-07,4.896194575247936e-07,3.028483059544375e-07,2.4754461382687217e-05
4.874347598144739e-07,4.860960340612642e-07,3.007061415678147e-07,2.491330437613289e-05
4.939122308994825e-07,4.823360294232617e-07,2.9861292652518825e-07,2.506268330317954e-05
5.008669755527834e-07,4.783377504056876e-07,2.96576078824708e-07,2.5201502483785268e-05
5.082543172756692e-07,4.741003963787154e-07,2.9460031164866013e-07,2.53285306561305e-05
5.160320706223415e-07,4.6962454342782926e-07,2.9268750490285396e-07,2.544245203046705e-05
5.241594715590889e-07,4.649132558684287e-07,2.90837163511154e-07,2.5541915747019103e-05
5.325962035240448e-07,4.5997475801268576e-07,2.8904752335868587e-07,2.5625578406611607e-05
5.412995969548583e-07,4.548274857739184e-07,2.873162537668389e-07,2.5692180132189e-05
5.502223087083905e-07,4.4950247885014064e-07,2.8564034985588805e-07,2.574070063340315e-05
5.593121510481926e-07,4.440380508872311e-07,2.840154036594511e-07,2.577049654319208e-05
5.685129030721611e-07,4.3847143851232206e-07,2.824355711888019e-07,2.5781247035519132e-05
5.777658585368233e-07,4.328346782311108e-07,2.8089592546438965e-07,2.5772758180398136e-05
5.870116816584231e-07,4.271557020457817e-07,2.7939577948518906e-07,2.574482764737847e-05
5.961912196004085e-07,4.214618715402432e-07,2.779388845771359e-07,2.5697229564085414e-05
6.052454238067039e-07,4.157815852726328e-07,2.765306541728528e-07,2.5629760576688542e-05
6.141152889264352e-07,4.1014197851980577e-07,2.7517771200186127e-07,2.5542275289910205e-05
6.227424423069083e-07,4.0456629108309046e-07,2.7389052263075146e-07,2.5434672975945608e-05
6.310707248372847e-07,3.9907335652386344e-07,2.7268443864235504e-07,2.530687986813355e-05
6.390484494257774e-07,3.936778508921191e-07,2.715778047845397e-07,2.515888116517763e-05
6.466303769332639e-07,3.883906803415525e-07,2.705888632506668e-07,2.4990798060342155e-05
6.537803375964156e-07,3.8321995636546424e-07,2.697329559240486e-07,2.480298249573573e-05
6.604758290629811e-07,3.7817222209297967e-07,2.6902139960142733e-07,2.4596105160206758e-05
6.667101442816761e-07,3.7325302966497175e-07,2.68461903792962e-07,2.437120680017861e-05
6.724876269217121e-07,3.684674417927771e-07,2.6806006118155324e-07,2.412969495580076e-05
6.778160022057421e-07,3.638215840421247e-07,2.67821952890845e-07,2.387331686378004e-05
6.82701909080624e-07,3.5932342146439427e-07,2.677559293236345e-07,2.360414604297382e-05
6.871502157997095e-07,3.54980856221561e-07,2.678714159143893e-07,2.3324550326389472e-05
6.911646517763819e-07,3.507990905787552e-07,2.6817608418886123e-07,2.3037092767923653e-05
6.947495640517679e-07,3.467798718663635e-07,2.68674248166719e-07,2.274439152572796e-05
6.979127843755534e-07,3.42923128379718e-07,2.69367127923109e-07,2.2448987285723846e-05
7.006668773659709e-07,3.3922950307084287e-07,2.70253679340382e-07,2.215321888893263e-05
7.030282756631052e-07,3.3570113233161996e-07,2.713305830704837e-07,2.185911389471251e-05
7.050172402180554e-07,3.3234025200995066e-07,2.7259146208484696e-07,2.1568341855362602e-05
7.066577647293373e-07,3.2914819914997373e-07,2.7402654566231014e-07,2.128225070142612e-05
7.07973921819379e-07,3.261264790533856e-07,2.7562311144059725e-07,2.100194947134607e-05
7.089853182724737e-07,3.232782002405541e-07,2.7736657844094696e-07,2.0728405079073267e-05
7.097071244189588e-07,3.20606988811028e-07,2.792417089123365e-07,2.0462558137519294e-05
7.101530025007131e-07,3.181139231369556e-07,2.8123311627948986e-07,2.0205448364419062e-05
7.103353326755333e-07,3.157957637893586e-07,2.8332571168607984e-07,1.995829698147652e-05
7.102630282169038e-07,3.136461911860058e-07,2.855052184455941e-07,1.9722507166810344e-05
7.099408257753588e-07,3.116597801378061e-07,2.8775778558440005e-07,1.949959697499657e-05
7.093699473599167e-07,3.0983567957129076e-07,2.9006930763025607e-07,1.9291109524951654e-05
7.085482811559671e-07,3.081771355356036e-07,2.9242544910899905e-07,1.9098561600605662e-05
7.07470762918791e-07,3.066888638178855e-07,2.9481181159749173e-07,1.892347425740712e-05
7.061315625060187e-07,3.053771940472718e-07,2.972138750637998e-07,1.8767432084143694e-05
7.04527143323163e-07,3.042521132696073e-07,2.996173398009432e-07,1.86320678898002e-05
7.026565564420842e-07,3.033268890093636e-07,3.020084025135907e-07,1.8518958004642068e-05
7.005188309944145e-07,3.026152330633346e-07,3.043731314010725e-07,1.8429468260131414e-05
6.981121850148352e-07,3.021291783104401e-07,3.066970569152327e-07,1.836458761804168e-05
6.954358724971639e-07,3.0187831028787697e-07,3.089656918681709e-07,1.832482265107025e-05
6.924909057588842e-07,3.018687358771467e-07,3.111649380956312e-07,1.831019261788073e-05
6.892793637049422e-07,3.021019596028176e-07,3.132814612051536e-07,1.8320302308396687e-05
6.858047802978758e-07,3.02575816724024e-07,3.1530366677333175e-07,1.8354451255607958e-05
6.820731929544372e-07,3.0328748642110163e-07,3.1722240749743685e-07,1.8411692213333986e-05
6.780923528087993e-07,3.042356773232924e-07,3.190302440420018e-07,1.849080380484556e-05
6.73869335937249e-07,3.0541982761370666e-07,3.207195849478568e-07,1.8590262046629943e-05
6.69409239251914e-07,3.068375872237212e-07,3.2228198947731854e-07,1.8708285514272467e-05
6.647153780062578e-07,3.084836242975793e-07,3.237107149249029e-07,1.884297183128812e-05
6.597894422530772e-07,3.103497785113563e-07,3.2500493854510623e-07,1.8992509494297253e-05
6.546319115566373e-07,3.1242554272524854e-07,3.2617085337743194e-07,1.9155384124277137e-05
6.492451518639084e-07,3.1470112307786004e-07,3.2721809220846646e-07,1.9330479213074922e-05
6.436407454671146e-07,3.171729820667203e-07,3.28155618262406e-07,1.951706157069693e-05
6.378476301578467e-07,3.19846766919823e-07,3.289901362579473e-07,1.971473030415383e-05
6.319135701818564e-07,3.227354169981212e-07,3.297264427462445e-07,1.9923370168323425e-05
6.258974318014791e-07,3.258549021428844e-07,3.3036920587095733e-07,2.0143038791974177e-05
6.19858329886347e-07,3.292194828388318e-07,3.309254582935829e-07,2.0373743240346868e-05
6.138490959739009e-07,3.3283813560872633e-07,3.3140583426590053e-07,2.061524863563518e-05
6.079175142785235e-07,3.3671426808922007e-07,3.3182369153810077e-07,2.086713395407621e-05
6.021128557501108e-07,3.408495914200064e-07,3.321932378904985e-07,2.112909458852532e-05
5.964907101947532e-07,3.452501520712572e-07,3.325283664662185e-07,2.140122085201475e-05
5.911125557175477e-07,3.4992897318367443e-07,3.3284288616870625e-07,2.1684030878494753e-05
5.860425395413757e-07,3.5490284992929747e-07,3.331506545701934e-07,2.1978309985734e-05
5.813434464031091e-07,3.601868346173238e-07,3.334640474701364e-07,2.2284901071686303e-05
5.770710094895313e-07,3.657896523382664e-07,3.3379203176713967e-07,2.260450203869478e-05
5.732677572637671e-07,3.717113829516866e-07,3.3413942723612106e-07,2.293747521049349e-05
5.699600958332977e-07,3.779434945731022e-07,3.345069236420268e-07,2.328370796953476e-05
5.671599422467084e-07,3.844702689134211e-07,3.348915620365091e-07,2.3642626051195e-05
5.648699422076218e-07,3.912705164200957e-07,3.35287889910301e-07,2.401338142825777e-05
5.630904522131989e-07,3.9831827139294267e-07,3.3568997156765137e-07,2.4395074426199083e-05
5.618243751892672e-07,4.0558307262010534e-07,3.360939052977222e-07,2.478690248574241e-05
5.610764101338102e-07,4.130308948359321e-07,3.364983292387404e-07,2.518823597332349e-05
5.608479728047163e-07,4.2062452467064047e-07,3.36902068465e-07,2.5598601365392346e-05
5.611332944752389e-07,4.283233178743185e-07,3.37302367611263e-07,2.6017565490087477e-05
5.619213627907065e-07,4.360835343506109e-07,3.3769521820226425e-07,2.644462796226336e-05
5.632018744638004e-07,4.4385927572877457e-07,3.3807657515969873e-07,2.687922747553673e-05
5.649686013520265e-07,4.5160424828305e-07,3.384445007302758e-07,2.7320812009676088e-05
5.672174164473828e-07,4.5927443147243574e-07,3.3880115581828353e-07,2.776885903310432e-05
5.699417929668507e-07,4.668298862818187e-07,3.391525193836127e-07,2.8222820837483974e-05
5.731286976432423e-07,4.7423406040367403e-07,3.3950605274774525e-07,2.8682033008191792e-05
5.76756488394008e-07,4.814524634106482e-07,3.3986819814953717e-07,2.9145614599498437e-05
5.807960218146163e-07,4.884532693245037e-07,3.402435465616613e-07,2.961238692804545e-05
5.852145766423272e-07,4.95208604608151e-07,3.4063565774206876e-07,3.0080844555896446e-05
5.899798894569225e-07,5.016948013874966e-07,3.4104731491448324e-07,3.0549179202913754e-05
5.950615737149197e-07,5.078918563676118e-07,3.4147956442451874e-07,3.1015338730962015e-05
6.004302604911765e-07,5.137821606702378e-07,3.4193174496502746e-07,3.1477129480545145e-05
6.060567689059631e-07,5.193496027868879e-07,3.4240304766430325e-07,3.1932349369584104e-05
6.119121032669093e-07,5.245812064576264e-07,3.428933611379912e-07,3.237890225346265e-05
6.179674584668089e-07,5.294692742145307e-07,3.434028573162319e-07,3.281488290495613e-05
6.241941521284454e-07,5.340094031713767e-07,3.4393149651454786e-07,3.3238656193646664e-05
6.30563791497426e-07,5.381959819140026e-07,3.44478107633286e-07,3.3648895936987455e-05
6.370475729336794e-07,5.420205823039532e-07,3.4503886503451017e-07,3.404449271936054e-05
6.436150276189546e-07,5.454736043017394e-07,3.4560650566268e-07,3.442434157376824e-05
6.502347270136864e-07,5.485458993478063e-07,3.461705129909953e-07,3.478717621588797e-05
6.568759702858011e-07,5.512285528626221e-07,3.467176184643395e-07,3.513154312339101e-05
6.635084113816736e-07,5.535119127344768e-07,3.4723293682354586e-07,3.5455825685831995e-05
6.70100190987821e-07,5.553862444510819e-07,3.4770163621926377e-07,3.575826417259192e-05
6.766168190498208e-07,5.568442880420683e-07,3.481102035328473e-07,3.6037035820481104e-05
6.830231678157942e-07,5.578839671844561e-07,3.4844677106909344e-07,3.629040931311106e-05
6.892900406880404e-07,5.585093893677043e-07,3.487006691248114e-07,3.651688435420412e-05
6.954011935989846e-07,5.587294030848385e-07,3.488620199182884e-07,3.6715245690372964e-05
7.01354349317714e-07,5.585553500107169e-07,3.4892179107357785e-07,3.688458050744566e-05
7.071561729343602e-07,5.57999627570168e-07,3.4887201837166984e-07,3.7024370362252534e-05
7.128156106048199e-07,5.570746193664801e-07,3.487062007089512e-07,3.713463768225847e-05
7.183378476221338e-07,5.55791354972235e-07,3.484199820892015e-07,3.721598029044992e-05
7.237206079857809e-07,5.541582026729043e-07,3.4801203542730194e-07,3.7269423987362944e-05
7.289545267406862e-07,5.521813759954994e-07,3.474846650640623e-07,3.729619429463594e-05
7.340249081644272e-07,5.498693760059696e-07,3.468430342940463e-07,3.7297524456970296e-05
7.389119508157202e-07,5.472385208546738e-07,3.460930956684175e-07,3.7274541595661604e-05
7.435923074637749e-07,5.443130975092e-07,3.452402467340749e-07,3.722820983198454e-05
7.480431698304051e-07,5.411210904709028e-07,3.442904114871188e-07,3.7159301517439794e-05
7.52244121006367e-07,5.37692211456976e-07,3.4325243086419074e-07,3.7068415752807315e-05
7.561753079971856e-07,5.340588120703435e-07,3.421387135264447e-07,3.695607851987973e-05
7.598154408380455e-07,5.302559663690494e-07,3.409640315970345e-07,3.682285341641576e-05
7.631412293183862e-07,5.26320062081279e-07,3.397441806655533e-07,3.666936872674792e-05
7.661277057269367e-07,5.222887165136532e-07,3.384946131645969e-07,3.649635615549858e-05
7.687484716071485e-07,5.18204073688439e-07,3.3723000106041517e-07,3.630482085956269e-05
7.709753555685227e-07,5.141151175997189e-07,3.359647503568052e-07,3.609627615739309e-05
7.727790044997594e-07,5.100737600008239e-07,3.347126193120948e-07,3.587299301001378e-05
7.741314224522202e-07,5.061288771706707e-07,3.334855802856145e-07,3.563828604855105e-05
7.750078056174501e-07,5.023242400034511e-07,3.3229302554897966e-07,3.539669024532302e-05
7.75386096151017e-07,4.986984672231873e-07,3.311421615896316e-07,3.5153828414685585e-05
7.75247471454829e-07,4.952845688443293e-07,3.3003984755413603e-07,3.4916008447978586e-05
7.745786785348072e-07,4.921098675651886e-07,3.28993932198086e-07,3.4689736572093547e-05
7.733726653131389e-07,4.891955599104964e-07,3.2801241573256365e-07,3.4481283212851544e-05
7.716266519034801e-07,4.865551877904238e-07,3.271018010047661e-07,3.429635917752069e-05
7.69340001725733e-07,4.841935843325535e-07,3.2626647447649467e-07,3.413988794858764e-05
7.665137097566703e-07,4.821075738652832e-07,3.255087336935857e-07,3.401582943815141e-05
7.631516152098864e-07,4.802882419153188e-07,3.248285513634232e-07,3.3927063877944095e-05
7.592614094594737e-07,4.787231109846863e-07,3.242232893077767e-07,3.3875421615766446e-05
7.54855179219507e-07,4.773967691386853e-07,3.236877691669229e-07,3.3861905989731926e-05
7.499514537539458e-07,4.762917775607501e-07,3.2321463068611067e-07,3.3887018182671964e-05
7.445771365623764e-07,4.753915764455949e-07,3.2279540738476537e-07,3.3951048947011924e-05
7.38767453698031e-07,4.746831367352236e-07,3.2242354316247345e-07,3.405428653072801e-05
7.325652154399624e-07,4.7415700531464245e-07,3.220979280359287e-07,3.4197160437704034e-05
7.26018151377087e-07,4.738052755411442e-07,3.2182317923721316e-07,3.4380331014318894e-05
7.191741438988287e-07,4.736195529640975e-07,3.216063905039636e-07,3.460470543822669e-05
7.120802036420924e-07,4.7359046733240786e-07,3.21453317920611e-07,3.4871372998445206e-05
7.047874251745643e-07,4.7370805414626296e-07,3.213663316565158e-07,3.518148198142136e-05
6.973558317494666e-07,4.739615431057984e-07,3.2134494742762426e-07,3.553607336418292e-05
6.898550695548257e-07,4.743395244067532e-07,3.2138783040166785e-07,3.5935877511904856e-05
6.82363197666923e-07,4.748318533194978e-07,3.214940604909113e-07,3.638111197329679e-05
6.749634559976856e-07,4.754305385272648e-07,3.2166304590726145e-07,3.687133254923865e-05
6.677369650126204e-07,4.7612709118676356e-07,3.2189458465006696e-07,3.740535892895156e-05
6.607570306160971e-07,4.769095789679798e-07,3.221898223285323e-07,3.7981245596613014e-05
6.54090289324736e-07,4.777626611861848e-07,3.2255165929594174e-07,3.8596261254485637e-05
6.477981194943111e-07,4.786688832925596e-07,3.229834772245831e-07,3.9246923170997936e-05
6.419327073334222e-07,4.796092080198965e-07,3.234873069153915e-07,3.9929125516958e-05
6.365327699784316e-07,4.805638099607676e-07,3.2406244794605696e-07,4.063827279527227e-05
6.316236213033488e-07,4.815136279826364e-07,3.24704558385697e-07,4.136934835689831e-05
6.272190194232687e-07,4.824412205409416e-07,3.2540618554063395e-07,4.211696931112487e-05
6.23321440688073e-07,4.833301088564289e-07,3.2615838618188855e-07,4.2875479339446863e-05
6.19922334771602e-07,4.841630044195045e-07,3.2695098903225797e-07,4.3639047897106935e-05
6.170048375448417e-07,4.84920251175266e-07,3.277714443669829e-07,4.440173268340648e-05
6.14547379183954e-07,4.855795229571516e-07,3.286043938785546e-07,4.515752856369896e-05
6.125252896600316e-07,4.861166898626799e-07,3.294328703486313e-07,4.590043885018397e-05
6.1091107837866e-07,4.865076920039592e-07,3.302409646598966e-07,4.662455074319551e-05
6.096767020553441e-07,4.867303854753814e-07,3.310165354044733e-07,4.732409016349594e-05
6.087971220412877e-07,4.867653619570669e-07,3.317517953833455e-07,4.799348665721116e-05
6.082502217802357e-07,4.865963053376993e-07,3.324419887915771e-07,4.862745842001333e-05
6.080133114756953e-07,4.862099630334494e-07,3.330834407676331e-07,4.922106607631437e-05
6.080631363515953e-07,4.855956202932117e-07,3.3367158468743227e-07,4.976977202258639e-05
6.083820826685253e-07,4.8474477500386e-07,3.34200363894158e-07,5e-06
6.089633019227532e-07,4.836520018373879e-07,3.346632274420737e-07,5e-06
6.098077384848577e-07,4.823173864148512e-07,3.3505418524308216e-07,5e-06
6.109162587588407e-07,4.80747923314749e-07,3.353683785262183e-07,5e-06
6.12283672083419e-07,4.789557463320528e-07,3.3560209644254067e-07,5e-06
6.138967764285128e-07,4.769552969591134e-07,3.357517259437609e-07,5e-06
6.157354556276607e-07,4.74761498952594e-07,3.358121950508487e-07,5e-06
6.177762730091786e-07,4.7238873690305203e-07,3.357766941625923e-07,5e-06
6.199973406490533e-07,4.698501974603714e-07,3.356380368467874e-07,5e-06
6.22380937969595e-07,4.671580232766785e-07,3.353901187677629e-07,5e-06
6.249123104108991e-07,4.643248298659153e-07,3.350287866327064e-07,5e-06
6.275760738779554e-07,4.61365950357854e-07,3.345520891612352e-07,5e-06
6.303519716708728e-07,4.583003545048489e-07,3.339597915539379e-07,5e-06
6.332132322086769e-07,4.551488980693366e-07,3.3325284737598946e-07,5e-06
6.361307704238081e-07,4.519315448329008e-07,3.324330733142731e-07,5e-06
6.390814085005091e-07,4.4866558074196244e-07,3.315026161209785e-07,5e-06
6.42052458917991e-07,4.4536501890545186e-07,3.304630555163508e-07,5e-06
6.45038755219592e-07,4.4204090925955114e-07,3.293146529698827e-07,5e-06
6.480391996266284e-07,4.387022997104169e-07,3.2805690175370106e-07,4.973607897105575e-05
6.510586771987592e-07,4.3535733016658364e-07,3.2669013799670466e-07,4.9234875312697856e-05
6.541099343169745e-07,4.3201376633260995e-07,3.252165084893281e-07,4.8703725497096695e-05
6.572100027661822e-07,4.2867887501883906e-07,3.236393232213625e-07,4.814643096386643e-05
6.603751521001329e-07,4.2535932784116813e-07,3.219617271642061e-07,4.7566292410021914e-05
6.636197211380607e-07,4.220612990435674e-07,3.2018666982790906e-07,4.696611369932938e-05
6.669566206669222e-07,4.187904372612619e-07,3.1831827624538804e-07,4.634828527173014e-05
6.703956501296434e-07,4.155525401965725e-07,3.1636283017746055e-07,4.571490934634992e-05
6.739419483946675e-07,4.12354940344828e-07,3.143288031511797e-07,4.5067914557946167e-05
6.775963150407295e-07,4.092063178675714e-07,3.122268702999521e-07,4.440915174616698e-05
6.813542746912291e-07,4.061149835447504e-07,3.1006975234254306e-07,4.374051288982015e-05
6.852041624598735e-07,4.030882256311341e-07,3.07870703440003e-07,4.306409277512869e-05
6.891276846532943e-07,4.001326000055432e-07,3.056414154718105e-07,4.2382361328255824e-05
6.93103042010077e-07,3.972534071126377e-07,3.033911556742712e-07,4.169827772398602e-05
6.971090790674709e-07,3.944533895711376e-07,3.011271281049703e-07,4.101530338316329e-05
7.011282629411091e-07,3.91732108655001e-07,2.988553323319461e-07,4.0337320161905996e-05
7.051456733821449e-07,3.8908707847483676e-07,2.965814878030922e-07,3.966845181987229e-05
7.091462304509039e-07,3.865150024643654e-07,2.943113240080358e-07,3.9012795966049154e-05
7.131159981419087e-07,3.8401115312797435e-07,2.920503898166544e-07,3.8374132027364345e-05
7.170462517377056e-07,3.8156862069301273e-07,2.8980422020933103e-07,3.775567934491878e-05
7.209329033394971e-07,3.7917980796229727e-07,2.8757869146659985e-07,3.7159962522912815e-05
7.247710183558202e-07,3.76839169142651e-07,2.853798782151111e-07,3.658885466038982e-05
7.285510046729784e-07,3.7454430700359885e-07,2.8321385546691057e-07,3.604379010835905e-05
7.322582792446777e-07,3.72295382959984e-07,2.8108772458267215e-07,3.5525987836142864e-05
7.358747338676973e-07,3.700946394273348e-07,2.7901136516974623e-07,3.503655898783424e-05
7.393829988423239e-07,3.6794516837676116e-07,2.769975829910975e-07,3.457653481282756e-05
7.427730236732745e-07,3.658485640745536e-07,2.7506002050712884e-07,3.4146882231258556e-05
7.460465213545805e-07,3.63804013321712e-07,2.7321081414589527e-07,3.374852360442336e-05
7.492153451453703e-07,3.618098276727056e-07,2.7145965759510825e-07,3.3382349590545e-05
7.522946315430395e-07,3.598650761844203e-07,2.6981404220315773e-07,3.30491866745808e-05
7.552956153322397e-07,3.57969448013885e-07,2.682798565107857e-07,3.27497158638727e-05
7.58221473583651e-07,3.561229255323973e-07,2.6686212233060433e-07,3.248438005182592e-05
7.610664312749187e-07,3.5432738088083845e-07,2.655662874143073e-07,3.2253267720810545e-05
7.638183416285643e-07,3.525882726258519e-07,2.6439913981539374e-07,3.2055997342893185e-05
7.664641734643366e-07,3.5091292694523e-07,2.633676698636415e-07,3.189175285878053e-05
7.689952743396761e-07,3.4930669526301e-07,2.6247732188770326e-07,3.1759504742008726e-05
7.714090943826694e-07,3.477710993649426e-07,2.617315785947005e-07,3.1658202783278824e-05
7.737071184725894e-07,3.463041748383132e-07,2.6113249021318077e-07,3.158677363650682e-05
7.758923931163556e-07,3.449015607053413e-07,2.606819177213348e-07,3.1543977246951004e-05
7.77968662425288e-07,3.4355891885739696e-07,2.603826539267175e-07,3.152824968929961e-05
7.799384897496828e-07,3.4227490117355387e-07,2.602382077043483e-07,3.1537612743506155e-05
7.818001064963995e-07,3.410516725333307e-07,2.602523260147264e-07,3.156966944909397e-05
7.83547717995817e-07,3.398928753096917e-07,2.604287283547841e-07,3.1621667742376564e-05
7.851776791389034e-07,3.3880204203525826e-07,2.607697571725277e-07,3.1690639250468155e-05
7.866956014104735e-07,3.3778226631464184e-07,2.612747414907861e-07,3.1773683952965636e-05
7.881159085440733e-07,3.3683583006667473e-07,2.619395318551932e-07,3.1868373973588425e-05
7.89453580313832e-07,3.3596378906433647e-07,2.627572197248043e-07,3.1973027486012984e-05
7.907173015848237e-07,3.35166241510742e-07,2.6372021912440747e-07,3.2086683464019e-05
7.919089088318475e-07,3.3444370893467997e-07,2.64822291830861e-07,3.2208906897967016e-05
7.930250892482245e-07,3.33799430877133e-07,2.660582107193079e-07,3.2339578130102944e-05
7.94057451093692e-07,3.332408060665165e-07,2.674219531170456e-07,3.2478679508587015e-05
7.949921695054002e-07,3.3277822017020804e-07,2.689054255008568e-07,3.262615000669956e-05
7.95811189002658e-07,3.3242240780697195e-07,2.704981025281721e-07,3.2781929288643944e-05
7.964938833583057e-07,3.3218264947521976e-07,2.7218749731082216e-07,3.294611833427606e-05
7.970172832833791e-07,3.320659631153978e-07,2.739603708030623e-07,3.31190829411472e-05
7.973555242868891e-07,3.3207653932429205e-07,2.758045575458611e-07,3.3301464833592345e-05
7.974807112312911e-07,3.3221580107422783e-07,2.7771060244632345e-07,3.3494137355534825e-05
7.97366590058779e-07,3.3248343007110526e-07,2.796715304605775e-07,3.369810814003613e-05
7.969927697573516e-07,3.328778544689775e-07,2.816804789694012e-07,3.3914373413597604e-05
7.963443686215615e-07,3.3339563459668553e-07,2.837281528691116e-07,3.414377070077857e-05
7.954080341829904e-07,3.340321077671764e-07,2.858023431659856e-07,3.4386895980587296e-05
7.941709679504474e-07,3.34784028412389e-07,2.8788990080454157e-07,3.464410130527776e-05
7.926235384821365e-07,3.356517119172772e-07,2.899788449083061e-07,3.491551324856079e-05
7.907604029162988e-07,3.3663958158300986e-07,2.920583299117246e-07,3.5201005113799226e-05
7.885788332132855e-07,3.377560168392729e-07,2.9411715920514297e-07,3.5500120113805663e-05
7.860774482747059e-07,3.390119743565943e-07,2.9614246857661186e-07,3.581198955881975e-05
7.83256599710257e-07,3.4041877379278787e-07,2.981191231874169e-07,3.613528019704735e-05
7.801184029002206e-07,3.41986684623783e-07,3.000298197464323e-07,3.646818788560942e-05
7.766658959777454e-07,3.4372323353925033e-07,3.018556001087024e-07,3.680850660994678e-05
7.729024666240445e-07,3.456312903455957e-07,3.035765749029944e-07,3.7153799075801846e-05
7.688312398985251e-07,3.4770915926192805e-07,3.0517299557255577e-07,3.7501645890442075e-05
7.644540876425556e-07,3.4995201639820124e-07,3.0662645514306486e-07,3.7849912472200313e-05
7.597713246190163e-07,3.523525478840129e-07,3.0792069982926825e-07,3.8196962789838175e-05
7.547820857865817e-07,3.5490032958035395e-07,3.0904248036889647e-07,3.8541753460581296e-05
7.494843120778839e-07,3.575811134881982e-07,3.099824118400589e-07,3.8883791971290814e-05
7.438745169324605e-07,3.603778218360828e-07,3.107344931142373e-07,3.922298991004925e-05
7.379478626115237e-07,3.632740905309748e-07,3.1129505620817386e-07,3.955943991496515e-05
7.316993192115447e-07,3.6625789719275997e-07,3.1166303665818724e-07,3.989314241182767e-05
7.251274496521134e-07,3.69321258757601e-07,3.118405790126513e-07,4.022374343837391e-05
7.182388195709892e-07,3.724572217912715e-07,3.1183264946895236e-07,4.055037959833449e-05
7.110477245114644e-07,3.756595659745007e-07,3.1164616855267617e-07,4.087166644273268e-05
7.035717624835868e-07,3.7892604686099207e-07,3.112889821463155e-07,4.1185779255104576e-05
6.958286877982479e-07,3.822603752422835e-07,3.107690372087128e-07,4.1490585592738536e-05
6.878354814409591e-07,3.856701197844946e-07,3.100940182277739e-07,4.178380360679078e-05
6.796082875059281e-07,3.8916379592500294e-07,3.0927104152997976e-07,4.206312239232409e-05
6.711645256505105e-07,3.9275081946229203e-07,3.083065542675273e-07,4.2326231685203494e-05
6.625271927989904e-07,3.964429683202977e-07,3.0720644032933823e-07,4.257078327738036e-05
6.537269690222438e-07,4.0025437921230077e-07,3.0597640925825853e-07,4.27943576869784e-05
6.447987768455811e-07,4.041988634977085e-07,3.046230127950741e-07,4.299448278635401e-05
6.357764622475968e-07,4.0828557468996953e-07,3.031543835491344e-07,4.316869102438723e-05
6.266909505649522e-07,4.1251703204837646e-07,3.015802008920668e-07,4.331461346258772e-05
6.175707653153793e-07,4.168915149912085e-07,2.9991110041687125e-07,4.3430126817819615e-05
6.084414532266932e-07,4.214055599275671e-07,2.9815739396259215e-07,4.3513470393687294e-05
5.993245549251127e-07,4.260527751404013e-07,2.9632804108449465e-07,4.3563219472371974e-05
5.902377033301941e-07,4.308217779741687e-07,2.944303628996624e-07,4.357816895669061e-05
5.811958730394744e-07,4.3569681673603564e-07,2.924700901623609e-07,4.355730681975112e-05
5.722141646669758e-07,4.4065965652451324e-07,2.904524116025293e-07,4.349994436102398e-05
5.63312442914702e-07,4.4569122758643296e-07,2.883846162373733e-07,4.340587685004496e-05
5.5451985003081e-07,4.507743742079611e-07,2.862791896714583e-07,4.327544091535961e-05
5.458751358735712e-07,4.558961661117193e-07,2.841540791568646e-07,4.3109434332826395e-05
5.374216078146195e-07,4.610465112492365e-07,2.8202876070173857e-07,4.290893565417542e-05
5.292007752225499e-07,4.6621556915958653e-07,2.7992001805265146e-07,4.267514895949582e-05
5.21249287004812e-07,4.7139454500628034e-07,2.7784084801785303e-07,4.2409338827945796e-05
5.1359964087968e-07,4.7657914956200046e-07,2.7580149584709027e-07,4.211278766287785e-05
5.062809839408343e-07,4.81771908690883e-07,2.738103340867895e-07,4.1786786200828265e-05
4.993181021223018e-07,4.869806607212013e-07,2.7187380083890284e-07,4.1432708508970344e-05
4.927323078199985e-07,4.922137863912847e-07,2.699970474949882e-07,4.105214805583166e-05
4.865456257291866e-07,4.974756587118199e-07,2.6818655602768026e-07,4.0647141370993293e-05
4.807830813397372e-07,5.027646898245118e-07,2.664520311359331e-07,4.0220434365034824e-05
4.7547032413707097e-07,5.080733338082175e-07,2.648046222380388e-07,3.977554499155517e-05
4.7062983998857726e-07,5.13388727225884e-07,2.6325345857131205e-07,3.931651873388365e-05
4.662786759868975e-07,5.186931672445846e-07,2.61804254774556e-07,3.8847565526168046e-05
4.624283914783564e-07,5.239643003084698e-07,2.604602184150512e-07,3.837273197776289e-05
4.590883513678712e-07,5.291758558131046e-07,2.592234772557835e-07,3.7895633651382784e-05
4.562717610464929e-07,5.342990790889966e-07,2.580968008720779e-07,3.741930805911479e-05
4.539987378245037e-07,5.393044974970013e-07,2.570853520065014e-07,3.6946247617326e-05
4.52292354999401e-07,5.441640032908452e-07,2.561968281296373e-07,3.647856476532533e-05
4.511719978139385e-07,5.48851805245756e-07,2.5543999940953843e-07,3.601819583291259e-05
4.506491949090189e-07,5.533431917297703e-07,2.548232748777906e-07,3.556709843654195e-05
4.50725989529471e-07,5.576133144794036e-07,2.5435411358579066e-07,3.5127431899056e-05
4.5139574219924003e-07,5.616381211728993e-07,2.540393996811255e-07,3.470168358858263e-05
4.5264797763843757e-07,5.653963336422969e-07,2.538861733806829e-07,3.4292699408104386e-05
4.5447514889982185e-07,5.688704159544104e-07,2.539013063113656e-07,3.390363882138391e-05
4.568742185474676e-07,5.720460905590697e-07,2.5408968669969373e-07,3.35379065601886e-05
4.598410595687129e-07,5.749113138690798e-07,2.544523185792788e-07,3.319907743263026e-05
4.633646100438387e-07,5.77455526520958e-07,2.5498654610281445e-07,3.289079275634062e-05
4.67425426583881e-07,5.796700138784186e-07,2.556889634573882e-07,3.261661960425708e-05
4.7199661103957865e-07,5.81550015695341e-07,2.5655745393719933e-07,3.237991886684786e-05
4.770443915634908e-07,5.830966273586413e-07,2.5758953695004484e-07,3.218376161557584e-05
4.825291864028882e-07,5.843158693430454e-07,2.5878018932915826e-07,3.203084494101036e-05
4.884107185968442e-07,5.852159328736023e-07,2.601218750274467e-07,3.192333559211675e-05
4.946543096712626e-07,5.85806069317762e-07,2.616050738532139e-07,3.1862658982826173e-05
5.012298601926557e-07,5.860981438911385e-07,2.632186017749219e-07,3.1849341617843625e-05
5.081056313310342e-07,5.861074464750746e-07,2.649507913900585e-07,3.1883041033613146e-05
5.152458953111326e-07,5.85850566796444e-07,2.6679080036463965e-07,3.196281263048336e-05
5.226116680174271e-07,5.853432123442568e-07,2.6872847845983765e-07,3.208746657587959e-05
5.30160328497519e-07,5.846002668947714e-07,2.70753122388226e-07,3.2255793308693376e-05
5.378469108051122e-07,5.836361771329982e-07,2.728529226044219e-07,3.246661858020549e-05
5.456284826924971e-07,5.824640167498907e-07,2.750157932739307e-07,3.271880339978277e-05
5.534672485685404e-07,5.810946505836319e-07,2.7723012879864486e-07,3.3011243487483396e-05
5.613297628733223e-07,5.795367674371563e-07,2.794846468837065e-07,3.3342840102893684e-05
5.691840364788614e-07,5.777969900963828e-07,2.817686790190269e-07,3.371241839554046e-05
5.769965083965547e-07,5.758804081565998e-07,2.8407391118208077e-07,3.4118595803162985e-05
5.847307210409796e-07,5.73791025408204e-07,2.863961423762879e-07,3.455963303578848e-05
5.923510357203583e-07,5.715307814360503e-07,2.887343046375134e-07,3.5033310826329574e-05
5.998299210989076e-07,5.690987011761455e-07,2.910871202458339e-07,3.553685275495583e-05
6.071506477169052e-07,5.664923504647284e-07,2.934512469102289e-07,3.6066916923731065e-05
6.143022328016171e-07,5.637109035270271e-07,2.9582193488020486e-07,3.6619703717612255e-05
6.212723592009218e-07,5.607572628767801e-07,2.981941294168299e-07,3.719114095776465e-05
6.280436802437736e-07,5.57637108677331e-07,3.0056365463931305e-07,3.7776992535297825e-05
6.345943256601251e-07,5.543559493526032e-07,3.02928208524382e-07,3.837286248037916e-05
6.40900230417946e-07,5.509171724461651e-07,3.052863318814028e-07,3.897425857678116e-05
6.46936267358225e-07,5.473221696736236e-07,3.0763496511462174e-07,3.9576777190956735e-05
6.526767083870207e-07,5.435724032982197e-07,3.099683079314761e-07,4.017626823353214e-05
6.580968261491453e-07,5.396719716007191e-07,3.122783940020877e-07,4.0768865228476505e-05
6.631735810539837e-07,5.356284180903631e-07,3.145563080765676e-07,4.135089023530358e-05
6.678839391453455e-07,5.31453153625254e-07,3.1679417172800365e-07,4.191874232859705e-05
6.722034676735247e-07,5.271626320313636e-07,3.1898728930890787e-07,4.246895408285813e-05
6.761070272955212e-07,5.227767220841138e-07,3.2113382630233605e-07,4.299840034403138e-05
6.795720424167703e-07,5.183148652146132e-07,3.232321383098515e-07,4.35043645193064e-05
6.825839313244187e-07,5.137969665836372e-07,3.252792539199873e-07,4.3984366080873654e-05
6.851389189426375e-07,5.092493490716355e-07,3.272711359681166e-07,4.44359643834846e-05
6.872404937902876e-07,5.047070187746821e-07,3.292026407799834e-07,4.4856702198382095e-05
6.888937409882706e-07,5.002082587690413e-07,3.3106716845753364e-07,4.5244260295633005e-05
6.901031891819868e-07,4.957874348243961e-07,3.328572448909753e-07,4.5596802230210134e-05
6.908733692235349e-07,4.9147155566677e-07,3.345654433211059e-07,4.591325736470001e-05
6.912088745700978e-07,4.872801405202219e-07,3.361848083249942e-07,4.619329963796306e-05
6.911141582754448e-07,4.832262096685816e-07,3.377094789607623e-07,4.643707749007321e-05
6.905938605780761e-07,4.793180496357635e-07,3.391347971552786e-07,4.664489115740304e-05
6.896524934437511e-07,4.755619463626779e-07,3.404557527699061e-07,4.681694147186409e-05
6.882935448542783e-07,4.7196382811981934e-07,3.4166555752257517e-07,4.6953209663665114e-05
6.865189788854208e-07,4.685282041684676e-07,3.4275565366223586e-07,4.705347735721296e-05
6.843297107248375e-07,4.6525659333812e-07,3.437166811524105e-07,4.711741915334651e-05
6.817282823864287e-07,4.621469157639249e-07,3.445410022660877e-07,4.714467115824833e-05
6.787228466755585e-07,4.5919290587968493e-07,3.4522539268380153e-07,4.713484490114566e-05
6.753297796933111e-07,4.563842588073267e-07,3.4577068501437394e-07,4.708755024810394e-05
6.71573929386429e-07,4.5370828234003504e-07,3.461798511583232e-07,4.700248520300448e-05
6.674867779619395e-07,4.5115143462758685e-07,3.464577492156276e-07,4.687954379200968e-05
6.631045189164107e-07,4.4869990995274364e-07,3.466120969083188e-07,4.6718862015783504e-05
6.584669406344553e-07,4.463406647100193e-07,3.466540294292985e-07,4.652082420941423e-05
6.536146452292505e-07,4.44063606077433e-07,3.4659708895293225e-07,4.628611572541052e-05
6.485847965378931e-07,4.418639701161638e-07,3.464548299240348e-07,4.601582692642537e-05
6.434082977176734e-07,4.3974360984208184e-07,3.462386652410242e-07,4.571150858643992e-05
6.381092921054927e-07,4.377099370835107e-07,3.4595656888505356e-07,4.537510173309684e-05
6.327064790795784e-07,4.3577234933463385e-07,3.4561259934315336e-07,4.5008779600430714e-05
6.272144579258968e-07,4.3393839581010324e-07,3.452074504525809e-07,4.461478490925898e-05
6.216437319894668e-07,4.3221248519013607e-07,3.44739310989862e-07,4.41953049917361e-05
6.160005348341883e-07,4.305970151247887e-07,3.442043394156826e-07,4.375239119033114e-05
6.102874801482388e-07,4.290933577794217e-07,3.435970569542875e-07,4.328790887128047e-05
6.045048802033017e-07,4.2770236766617157e-07,3.429109145926629e-07,4.2803532403587386e-05
5.986519982643163e-07,4.264255432568263e-07,3.421390879224025e-07,4.23008344260376e-05
5.927275836444904e-07,4.252649843587564e-07,3.4127507428863825e-07,4.1781415808980453e-05
5.867307242164444e-07,4.242211647193904e-07,3.403130052520857e-07,4.1246928777302535e-05
5.806626734211642e-07,4.232925290509058e-07,3.392490662981667e-07,4.06989700552915e-05
5.745280550872701e-07,4.2247988636127466e-07,3.380839739468041e-07,4.013895890625028e-05
5.683341651877242e-07,4.217913625398053e-07,3.368242773292105e-07,3.9568074649882865e-05
5.620895943204784e-07,4.212414371949565e-07,3.354813816637407e-07,3.8987262443407214e-05
5.558045571246471e-07,4.208451145089764e-07,3.3406903478641447e-07,3.8397343321852215e-05
5.494921872581405e-07,4.2061405291618243e-07,3.326008644614736e-07,3.7799271698695004e-05
5.431672895331433e-07,4.2055687698178e-07,3.3108894085786904e-07,3.719446560584567e-05
5.368431474204472e-07,4.206801040722415e-07,3.295429764605521e-07,3.6585036999483694e-05
5.305300405055031e-07,4.2098746077118137e-07,3.279699051003244e-07,3.5973827979240524e-05
5.242357398173122e-07,4.214788129322045e-07,3.263739091987988e-07,3.536428234363987e-05
5.179665407102864e-07,4.221499712681153e-07,3.247568120767112e-07,3.4760219387353694e-05
5.117286150335341e-07,4.2299311267337215e-07,3.231190035088828e-07,3.416563452860663e-05
5.055304178871648e-07,4.2399728482305327e-07,3.214604749436161e-07,3.3584653971671245e-05
4.993855666349959e-07,4.251488034402985e-07,3.197812349552142e-07,3.302155614831126e-05
4.933125476203289e-07,4.264318596109867e-07,3.180816842263973e-07,3.2480729540345914e-05
4.87330812832075e-07,4.2782968797767747e-07,3.1636391527155513e-07,3.196662248623948e-05
4.814581038223573e-07,4.293254486330179e-07,3.146338901146153e-07,3.148371819255401e-05
4.757103596967363e-07,4.30902740528133e-07,3.12903704167106e-07,3.103650664156053e-05
4.7010144678478954e-07,4.325468157034046e-07,3.1119285902293465e-07,3.0629426665027725e-05
4.646421030902344e-07,4.34245202482316e-07,3.0952718470589534e-07,3.0266670439446803e-05
4.5933972877779505e-07,4.3598575739254703e-07,3.0793452220720826e-07,2.995179774630808e-05
4.54200596024222e-07,4.377536214027546e-07,3.0643933376480685e-07,2.9687401551349933e-05
4.4923284374950133e-07,4.395308778683424e-07,3.050601568846962e-07,2.9475169079210107e-05
4.44446292288169e-07,4.4130149738696863e-07,3.038102967011845e-07,2.931625741903263e-05
4.3984965640670746e-07,4.430593855091586e-07,3.026994464422002e-07,2.9211555916659063e-05
4.3544892090239306e-07,4.4481294835869397e-07,3.017351254149419e-07,2.9161674078060718e-05
4.312472699863704e-07,4.4658376212316654e-07,3.0092383941591893e-07,2.916680829903296e-05
4.272458393910524e-07,4.484026164014965e-07,3.002718204812132e-07,2.9226773814099146e-05
4.234478186544736e-07,4.5030364787453616e-07,2.9978505469348013e-07,2.9341594586296827e-05
4.1986574668767036e-07,4.5231781493358566e-07,2.994682901307989e-07,2.9512364809276166e-05
4.165245568932203e-07,4.5447075253245957e-07,2.993235898239993e-07,2.9741443666674524e-05
4.1345640192652177e-07,4.5678451549262437e-07,2.993497386802557e-07,3.0031914380068665e-05
4.1069337214767727e-07,4.592771958028326e-07,2.9954314999844944e-07,3.0386950159479247e-05
4.082644427447972e-07,4.6195966302579653e-07,2.999004035809206e-07,3.0809318424063866e-05
4.0619529358076184e-07,4.64834045936516e-07,3.004210425290645e-07,3.130100558505253e-05
4.045072626315118e-07,4.6789483948489245e-07,3.011083221369777e-07,3.186294414865409e-05
4.0321652129146844e-07,4.711303434611488e-07,3.0196814145681586e-07,3.24948234475213e-05
4.0233499635254686e-07,4.745248995475565e-07,3.0300693266498444e-07,3.3195046832167955e-05
4.01871077512335e-07,4.7806186811103e-07,3.0422887442211623e-07,3.3960879197108895e-05
4.018296368949113e-07,4.817255279708487e-07,3.056342487542622e-07,3.478871417428171e-05
4.022123823380988e-07,4.855023266921238e-07,3.072193755728979e-07,3.56743392432039e-05
4.030177211942883e-07,4.89381581121932e-07,3.089773913445142e-07,3.6613140395132704e-05
4.042391773864501e-07,4.933545680185472e-07,3.109003193282191e-07,3.760025855220392e-05
4.0586392584930295e-07,4.974135408131729e-07,3.1298119364393237e-07,3.863073656115099e-05
4.0787396241037077e-07,5.015522779164563e-07,3.152136087334928e-07,3.9699714030596694e-05
4.102496502014386e-07,5.057664582179219e-07,3.1758971058089496e-07,4.08026471577651e-05
4.129732968608993e-07,5.100526069950398e-07,3.2009972910276234e-07,4.19353878346014e-05
4.160316255002189e-07,5.14407141157702e-07,3.2273303348694725e-07,4.309403535226114e-05
4.194166252669737e-07,5.18825772910448e-07,3.254786229416207e-07,4.4274693660334525e-05
4.231243904916828e-07,5.233020698029761e-07,3.2832449529083534e-07,4.547326631733889e-05
4.2715380334280883e-07,5.278268355792507e-07,3.312569246230548e-07,4.668528893593183e-05
4.315055614840664e-07,5.323898427113872e-07,3.342598709071277e-07,4.790578384358911e-05
4.361790331947841e-07,5.369807487109749e-07,3.373144610188947e-07,4.912918801095388e-05
4.4116874766030796e-07,5.415869266647792e-07,3.403999063971973e-07,5e-06
4.464646036497956e-07,5.461909931075095e-07,3.434954692965028e-07,5e-06
4.520538290759465e-07,5.507703315160815e-07,3.4658124974743066e-07,5e-06
4.5792043554136295e-07,5.552979165905551e-07,3.4963846279714533e-07,5e-06
4.6404232841198e-07,5.59743749011691e-07,3.526504352891614e-07,5e-06
4.7038957379933843e-07,5.640761905156039e-07,3.556028576294808e-07,5e-06
4.769255899629865e-07,5.68262594761981e-07,3.5848291377137707e-07,5e-06
4.836092471057853e-07,5.722701360187553e-07,3.6127922223660187e-07,5e-06
4.903967823088175e-07,5.76067285452019e-07,3.6398266725986684e-07,5e-06
4.972451739680953e-07,5.796258419636737e-07,3.665857128589225e-07,5e-06
5.041157286285203e-07,5.829233373867354e-07,3.6908016694589073e-07,5e-06
5.109740596946889e-07,5.859443109434357e-07,3.7145582481659324e-07,5e-06
5.177871165437937e-07,5.886803351404068e-07,3.7370036918879923e-07,5e-06
5.245218912799201e-07,5.911293547934565e-07,3.757995719555943e-07,5e-06
5.311467560980068e-07,5.932931983419635e-07,3.7773791041816527e-07,5e-06
5.37632502928087e-07,5.951750436924189e-07,3.7949980630814817e-07,5e-06
5.439530175914497e-07,5.967793399478027e-07,3.810707677967132e-07,5e-06
5.500874019325242e-07,5.98111182422799e-07,3.824381370297172e-07,5e-06
5.56022030752244e-07,5.991734277000936e-07,3.835918763072721e-07,5e-06
5.617497739025897e-07,5.999649404147367e-07,3.8452443053473283e-07,5e-06
5.672667594212933e-07,6.004809330120207e-07,3.85229095798898e-07,5e-06
5.725688454010635e-07,6.007143291379278e-07,3.8569943731685034e-07,5e-06
5.776487342435389e-07,6.006585808623757e-07,3.8593193922479186e-07,5e-06
5.82494206643681e-07,6.003099539806392e-07,3.859297956363941e-07,5e-06
5.870883054823266e-07,5.996677169700526e-07,3.85703198945441e-07,5e-06
5.9141262730501e-07,5.987358490623779e-07,3.852651450167311e-07,5e-06
5.954547647721293e-07,5.975276225273147e-07,3.846271521086603e-07,5e-06
5.992167099651953e-07,5.960683181547457e-07,3.83797923685417e-07,5e-06
6.027167121929346e-07,5.943928800264081e-07,3.8278416739863045e-07,5e-06
6.059820796726887e-07,5.925403616766186e-07,3.8159253543766156e-07,5e-06
6.090391440227578e-07,5.905482307259902e-07,3.8023161827539074e-07,5e-06
6.119080356392347e-07,5.884488351267956e-07,3.787126915749979e-07,5e-06
6.146055570968836e-07,5.862694062042036e-07,3.770490932951162e-07,5e-06
6.171527414021095e-07,5.840361512349664e-07,3.752551991578342e-07,5e-06
6.195793597223478e-07,5.817808012165498e-07,3.733462065777019e-07,5e-06
6.219221620805978e-07,5.795440412234401e-07,3.7133887116283713e-07,5e-06
6.242203235811639e-07,5.773726747256218e-07,3.692515179410624e-07,5e-06
6.265112821032523e-07,5.753134033122248e-07,3.671020762858462e-07,5e-06
6.288266303239528e-07,5.734068941556129e-07,3.649056525589572e-07,5e-06
6.311880848354732e-07,5.716845962468922e-07,3.626734020880048e-07,5e-06
6.336055880469724e-07,5.701685244088731e-07,3.604123819718807e-07,5e-06
6.360785279170336e-07,5.688724483468836e-07,3.581260284957725e-07,5e-06
6.386002638561151e-07,5.678034424051436e-07,3.5581535251159953e-07,5e-06
6.411653870223796e-07,5.669629173375034e-07,3.5348089071329604e-07,5e-06
6.437753118576161e-07,5.66347613660942e-07,3.5112517081138085e-07,5e-06
6.464375568807766e-07,5.659509412203233e-07,3.487533841696837e-07,5e-06
6.491598754336308e-07,5.657633073718204e-07,3.463713011095529e-07,4.922102198813223e-05
6.51944925344689e-07,5.657718305046431e-07,3.43983697950012e-07,4.821227975637491e-05
6.547906343141733e-07,5.65960694928089e-07,3.4159460504291737e-07,4.72167198861977e-05
6.576952859760591e-07,5.663121839418879e-07,3.39208055027531e-07,4.623782293113411e-05
6.606607372867865e-07,5.668082587912872e-07,3.368297705177249e-07,4.527886957285717e-05
6.636909598502589e-07,5.674319458305965e-07,3.3446910193483625e-07,4.434297443296489e-05
6.667885214047081e-07,5.681673808441651e-07,3.3213904598988816e-07,4.343301418768377e-05
6.699508995124246e-07,5.689983147431707e-07,3.2985436846902964e-07,4.255147367190049e-05
6.731681377364885e-07,5.699075559443727e-07,3.276293952891586e-07,4.1700291574475844e-05
6.764237816009067e-07,5.708788845493828e-07,3.2547709534453856e-07,4.0880779082693305e-05
6.796990635068835e-07,5.718976432608457e-07,3.234096762338064e-07,4.009363323742158e-05
6.829779047879481e-07,5.729487326374938e-07,3.2143877200553953e-07,3.933901262789347e-05
6.862494240630623e-07,5.740160842667331e-07,3.1957450354138844e-07,3.861661066497404e-05
6.895069583571747e-07,5.750837142740746e-07,3.178252060219964e-07,3.792571542350707e-05
6.927458389589747e-07,5.761361100597409e-07,3.161983123714868e-07,3.7265321301984025e-05
6.959621546677825e-07,5.77159377459086e-07,3.147006898279885e-07,3.6634294648578176e-05
6.991524392841292e-07,5.781427657948077e-07,3.133380675751518e-07,3.603152576554412e-05
7.02313512939575e-07,5.790772688942e-07,3.1211457475384326e-07,3.5456053378945985e-05
7.05442305008853e-07,5.799527829398436e-07,3.1103209159215397e-07,3.490714193301223e-05
7.08534633155664e-07,5.807580460005151e-07,3.1008914489241963e-07,3.438422400753777e-05
7.115831500223933e-07,5.814828346422184e-07,3.092804830623079e-07,3.388670645681025e-05
7.145772624915413e-07,5.821187898477058e-07,3.085974221693636e-07,3.34138103831783e-05
7.175047603772128e-07,5.82657394026831e-07,3.080282274710724e-07,3.296454931866048e-05
7.203520894091276e-07,5.830873437264903e-07,3.0755910259783486e-07,3.253774449852822e-05
7.231033424751266e-07,5.83394302898175e-07,3.0717602345172e-07,3.213201389957911e-05
7.257400820352072e-07,5.835626468390708e-07,3.068662328644585e-07,3.174579676746496e-05
7.282438266273687e-07,5.835770907246999e-07,3.0661843426403225e-07,3.1377428040624234e-05
7.306019753724261e-07,5.834232903208892e-07,3.064220824176933e-07,3.1025209704960084e-05
7.328135679961843e-07,5.830873821380883e-07,3.0626713208148e-07,3.068748068699822e-05
7.34889426575791e-07,5.825557368726815e-07,3.061445537258538e-07,3.0362778528886122e-05
7.36847016832063e-07,5.818159161269889e-07,3.0604659996890417e-07,3.0050104678603376e-05
7.387042076530851e-07,5.808574328311625e-07,3.059664975341072e-07,2.974911762503963e-05
7.404737484817498e-07,5.796707423365764e-07,3.05898399370912e-07,2.9460100006339946e-05
7.421602903529877e-07,5.78245230826431e-07,3.0583837013257215e-07,2.9183735277643152e-05
7.437617116417271e-07,5.7656918673238e-07,3.0578559928146736e-07,2.8920828711222608e-05
7.452713090061827e-07,5.74633846351956e-07,3.057417868563665e-07,2.867208153082981e-05
7.466777470493792e-07,5.724384023095986e-07,3.0570866486166054e-07,2.8437957792722652e-05
7.479663726315579e-07,5.699905647471859e-07,3.05686341625386e-07,2.8218631102021777e-05
7.49123243374427e-07,5.673037346400863e-07,3.056744825293533e-07,2.8013984393882568e-05
7.501364266572053e-07,5.643959920500903e-07,3.056749853716007e-07,2.7823656012764057e-05
7.5099312684029e-07,5.612908971260589e-07,3.056928407900713e-07,2.764713868874336e-05
7.51677233986377e-07,5.580166585671047e-07,3.057349339852016e-07,2.748387468524187e-05
7.52169441325288e-07,5.546034636889332e-07,3.058086360657567e-07,2.733329069189781e-05
7.52448511412242e-07,5.510829736377575e-07,3.059205845389293e-07,2.7194874698858718e-05
7.524918120881709e-07,5.474923232643877e-07,3.0607664024142444e-07,2.706838543169177e-05
7.522748667158944e-07,5.438769251798268e-07,3.062828279824376e-07,2.695408345261629e-05
7.517719959657438e-07,5.402862779522479e-07,3.0654521104421946e-07,2.685292110909484e-05
7.509590335942943e-07,5.367677252500482e-07,3.0686879877412705e-07,2.676677429462636e-05
7.498152646209865e-07,5.333643710251233e-07,3.072566890091706e-07,2.669862475888285e-05
7.483229607511531e-07,5.301147887516767e-07,3.0771026919561894e-07,2.665246997401999e-05
7.464677773635138e-07,5.27052076671218e-07,3.082306643890034e-07,2.6632960185022643e-05
7.442409565583292e-07,5.242035012102001e-07,3.088197474170919e-07,2.6644936937070264e-05
7.416397023343299e-07,5.215900310757002e-07,3.094793942448305e-07,2.669301155254933e-05
7.386648649533191e-07,5.192247801529313e-07,3.102101831851913e-07,2.6781247072511528e-05
7.353185179324813e-07,5.171119394565707e-07,3.1101089229537525e-07,2.6912931215963653e-05
7.316034441466687e-07,5.152475605721072e-07,3.1187838038708713e-07,2.709039813964852e-05
7.275246484718666e-07,5.136216829550645e-07,3.128072715336255e-07,2.7314917978747768e-05
7.230906409660413e-07,5.12220040462183e-07,3.137897058767997e-07,2.7586743813722413e-05
7.183137322688176e-07,5.110246176288475e-07,3.148153970088614e-07,2.7905350366258722e-05
7.132114923459396e-07,5.100152396477039e-07,3.1587197692517163e-07,2.826976267513876e-05
7.078083465612701e-07,5.091732404304741e-07,3.169461963379978e-07,2.8678842878260137e-05
7.021353873583742e-07,5.084843457830296e-07,3.1802709708031805e-07,2.9131488242603363e-05
6.962295587199315e-07,5.079385253856479e-07,3.191096150438519e-07,2.9626758784356908e-05
6.901312424237817e-07,5.075276445701957e-07,3.201948611237351e-07,3.0163950641809334e-05
6.83879954890516e-07,5.072430468394325e-07,3.2128678050207683e-07,3.074261049379367e-05
6.775136267256961e-07,5.07074727155741e-07,3.223882351678844e-07,3.1362483425751885e-05
6.710736852815932e-07,5.070116208569967e-07,3.234989615889256e-07,3.202340138003181e-05
6.646099063654653e-07,5.070414368394523e-07,3.246161196105607e-07,3.272512509221695e-05
6.581810798053774e-07,5.071507533099068e-07,3.257362306996027e-07,3.3467153140892826e-05
6.518539135176572e-07,5.073267576101434e-07,3.268564175198197e-07,3.424853519836016e-05
6.45700050224867e-07,5.075581647443234e-07,3.279744429107654e-07,3.5067733484170985e-05
6.397891319128316e-07,5.078330607165741e-07,3.2908892514519744e-07,3.5922549502102254e-05
6.341834679871125e-07,5.081366441029235e-07,3.3020031286892774e-07,3.681009596461052e-05
6.289391866899383e-07,5.084515400435905e-07,3.313111902540414e-07,3.772678355333028e-05
6.241073548715781e-07,5.087589603592042e-07,3.3242487724470106e-07,3.866835092318816e-05
6.197299240784459e-07,5.090390174235639e-07,3.3354353582051184e-07,3.962996778921549e-05
6.158356454060104e-07,5.092711420655188e-07,3.346668270357696e-07,4.060634457524957e-05
6.124404116953147e-07,5.094353144099585e-07,3.3579103032019174e-07,4.1591793041024047e-05
6.095493964982273e-07,5.095133469383664e-07,3.3690947701573525e-07,4.25802968072306e-05
6.071575852361133e-07,5.094890655991148e-07,3.3801401017005873e-07,4.356565662203558e-05
6.05249950314474e-07,5.093467255205325e-07,3.390952409022765e-07,4.4541643794982256e-05
6.038037899760849e-07,5.090690901081472e-07,3.4014159456482374e-07,4.55020563814904e-05
6.02792048892969e-07,5.086369263788975e-07,3.411390715610226e-07,4.644071525944562e-05
6.021848673818149e-07,5.080297601856383e-07,3.420725003976232e-07,4.735150115260101e-05
6.019499973315369e-07,5.072273771968346e-07,3.429281349093737e-07,4.8228430223724464e-05
6.020552375783872e-07,5.06211363505484e-07,3.436962299140035e-07,4.906572001715274e-05
6.024720853760621e-07,5.049663293408257e-07,3.443714903555519e-07,4.9857862687090384e-05
6.031757763000143e-07,5.034810582620478e-07,3.449516413716716e-07,5e-06
6.041418263651817e-07,5.017486782312665e-07,3.454354622559597e-07,5e-06
6.053457460550766e-07,4.997657078900464e-07,3.4582087030815465e-07,5e-06
6.067688239804845e-07,4.975312679707587e-07,3.461043198189159e-07,5e-06
6.084030142396355e-07,4.950474732557148e-07,3.462817140586116e-07,5e-06
6.102478685080526e-07,4.923213979020073e-07,3.4634942448975805e-07,5e-06
6.123027320950965e-07,4.893665775645622e-07,3.4630494557432943e-07,5e-06
6.145610100445176e-07,4.862019056506591e-07,3.4614705136426e-07,5e-06
6.170082756243622e-07,4.82849133850062e-07,3.458748578144588e-07,5e-06
6.196231469040108e-07,4.793307687025369e-07,3.454862595668595e-07,5e-06
6.223807698491149e-07,4.7566868471980464e-07,3.449774802574979e-07,5e-06
6.252577889524379e-07,4.718832322680152e-07,3.443442334081034e-07,5e-06
6.282350493707683e-07,4.679931783230904e-07,3.4358310132462647e-07,5e-06
6.31296485715611e-07,4.6401707691031597e-07,3.426924141930545e-07,5e-06
6.344257563521089e-07,4.599755492018918e-07,3.416725424152453e-07,5e-06
6.376022397471611e-07,4.5589227010718526e-07,3.405255143714397e-07,5e-06
6.407994267523201e-07,4.51792091443284e-07,3.392546218499328e-07,5e-06
6.439889261016886e-07,4.47698192659224e-07,3.378641391287672e-07,5e-06
6.47148415094338e-07,4.4363048036209563e-07,3.3635873244648645e-07,5e-06
6.502661091585872e-07,4.396049551886893e-07,3.3474250054230454e-07,5e-06
6.53337986075428e-07,4.3563368068144224e-07,3.330182166100739e-07,5e-06
6.563646783038685e-07,4.317257506226432e-07,3.311879130209218e-07,5e-06
6.593535183574573e-07,4.278887734895606e-07,3.292544913985507e-07,5e-06
6.623202438236754e-07,4.2412955570450287e-07,3.272226064209512e-07,4.9875211527237565e-05
6.65285194086892e-07,4.204537692480726e-07,3.250979032047377e-07,4.918918205171093e-05
6.682681603663474e-07,4.168657356969294e-07,3.228855969215902e-07,4.847777241193256e-05
6.712872146326634e-07,4.133686994040857e-07,3.205904190429297e-07,4.7744482465854054e-05
6.743592393622941e-07,4.0996515342720134e-07,3.18218084165202e-07,4.699239020840068e-05
6.774982569849845e-07,4.066578353119124e-07,3.157764094385081e-07,4.622426395655136e-05
6.807138589774254e-07,4.034511874537511e-07,3.132753805131209e-07,4.54426698213338e-05
6.840114786571133e-07,4.0035106062346934e-07,3.107271279841016e-07,4.4650067621486516e-05
6.873913843000101e-07,3.9736291026607033e-07,3.081457370582496e-07,4.3848931021492056e-05
6.908466325941979e-07,3.9449109682539283e-07,3.055456834965756e-07,4.304190843431551e-05
6.943634344832805e-07,3.9173914702880395e-07,3.029396724789189e-07,4.2231993529174766e-05
6.979241462934849e-07,3.891092943687773e-07,3.003377732328857e-07,4.142263600421002e-05
7.015114639991586e-07,3.8660133935759224e-07,2.9774781846732523e-07,4.0617749998695175e-05
7.051115598304374e-07,3.8421217052205384e-07,2.951762754454557e-07,3.9821628327145315e-05
7.087131617632365e-07,3.819368954906594e-07,2.926291555741476e-07,3.903876243209314e-05
7.123046775826694e-07,3.7976987430481406e-07,2.901122834442065e-07,3.8273575767019624e-05
7.158752883401761e-07,3.777038416680357e-07,2.8763110762842304e-07,3.7530135795833455e-05
7.194188700279469e-07,3.757290930111283e-07,2.851909005930161e-07,3.681191697960407e-05
7.229333584192189e-07,3.7383510160105255e-07,2.827971431797704e-07,3.6121667958727726e-05
7.26415286175702e-07,3.720133604735056e-07,2.804553891816702e-07,3.5461451825362204e-05
7.298561233959146e-07,3.702585308943517e-07,2.781710650001712e-07,3.4832855855748916e-05
7.332421390963194e-07,3.68567927275238e-07,2.759504989421301e-07,3.4237216448043216e-05
7.365559357471905e-07,3.669411090652283e-07,2.7380270367767616e-07,3.3675730408185525e-05
7.397806366878603e-07,3.6537866511388367e-07,2.717395747131481e-07,3.314948514387762e-05
7.429063664733844e-07,3.6387987114740603e-07,2.6977381903376014e-07,3.265947613698045e-05
7.459346693268044e-07,3.6244175643750345e-07,2.679165864273197e-07,3.220662996260012e-05
7.488769293330856e-07,3.610605012200538e-07,2.661765178789506e-07,3.179182067903418e-05
7.517475602050818e-07,3.5973295460553827e-07,2.645600011318728e-07,3.1415839179799336e-05
7.545568758075081e-07,3.584565329195104e-07,2.630717890224961e-07,3.1079312062664614e-05
7.573070567445373e-07,3.5722892303090224e-07,2.617157528627548e-07,3.078261081733113e-05
7.599913981033488e-07,3.5604961754090344e-07,2.604961870623176e-07,3.052574012006235e-05
7.625969457217353e-07,3.5492155209407727e-07,2.594187251131934e-07,3.030822330053217e-05
7.651099638497481e-07,3.538493487196936e-07,2.584892152012805e-07,3.0129130692531544e-05
7.675211545035391e-07,3.528354785858292e-07,2.577119946278726e-07,2.9987291520148186e-05
7.698272837790814e-07,3.518785436564144e-07,2.5708948201200014e-07,2.9881484115555573e-05
7.720290213860963e-07,3.509737843410085e-07,2.5662270843498504e-07,2.9810442145200685e-05
7.741285318906429e-07,3.501141967498554e-07,2.5631254948190736e-07,2.9772729069330707e-05
7.761287688011954e-07,3.492929550178184e-07,2.561608180163624e-07,2.976659498702674e-05
7.780316611533831e-07,3.4850643378057624e-07,2.561700432255208e-07,2.978988636063841e-05
7.798349426296846e-07,3.477547285111454e-07,2.563430061545192e-07,2.9840034849901484e-05
7.815324356761476e-07,3.470395897454524e-07,2.566824707579855e-07,2.9914116065325745e-05
7.831202059083841e-07,3.463628674753305e-07,2.571898292795129e-07,3.0008985658159527e-05
7.84603653739658e-07,3.457261585360508e-07,2.5786347801809217e-07,3.012156158285643e-05
7.859970865857251e-07,3.451302716606977e-07,2.58698363776982e-07,3.02492262405572e-05
7.87315484620039e-07,3.445747090286995e-07,2.5968671309883107e-07,3.039010153557092e-05
7.885675866313759e-07,3.440580157492784e-07,2.60820131547882e-07,3.05430266653529e-05
7.897552080457349e-07,3.435792929594044e-07,2.620916418777055e-07,3.070736365556125e-05
7.908749024318804e-07,3.431405913910853e-07,2.634953621458643e-07,3.088278246849843e-05
7.919180992013852e-07,3.4274847779245555e-07,2.650247195913725e-07,3.106904470149891e-05
7.928707789668456e-07,3.4241302760506065e-07,2.6667116768693445e-07,3.126586419328049e-05
7.937146547589081e-07,3.421452963940641e-07,2.684237844871321e-07,3.147296406273583e-05
7.944288648623905e-07,3.419554950066989e-07,2.7026970149137284e-07,3.169024527263691e-05
7.949902841827119e-07,3.4185203410208306e-07,2.7219528750778515e-07,3.191788346537008e-05
7.953730167361707e-07,3.4184075037709946e-07,2.741879872622773e-07,3.2156324359128066e-05
7.955492132465391e-07,3.4192482713732746e-07,2.762380128203859e-07,3.240623055367333e-05
7.95492617522996e-07,3.421058006565231e-07,2.783381544848711e-07,3.266838699248338e-05
7.951826732918969e-07,3.423840371341124e-07,2.8048141131059106e-07,3.2943561615853953e-05
7.94604158428788e-07,3.4275808233180966e-07,2.8265842679601247e-07,3.3232362998366334e-05
7.937432841216373e-07,3.4322531276149127e-07,2.848569875992455e-07,3.353516130411363e-05
7.925867926320367e-07,3.437846277739055e-07,2.870639815988703e-07,3.3852088959237905e-05
7.911245690744402e-07,3.444386388241886e-07,2.89267500315933e-07,3.4183060757890704e-05
7.893507132757048e-07,3.451942157984157e-07,2.9145680011456065e-07,3.4527745516028736e-05
7.872618297250587e-07,3.460622988857805e-07,2.936208001860469e-07,3.4885487944434744e-05
7.848557554493201e-07,3.4705648025283926e-07,2.957467543597693e-07,3.525522769724311e-05
7.821319583752702e-07,3.48190727215776e-07,2.978196559033264e-07,3.5635450140526714e-05
7.79091589462139e-07,3.4947784782682073e-07,2.9982235542899044e-07,3.6024182925250095e-05
7.757366821241918e-07,3.509276602863867e-07,3.01736068568383e-07,3.64190636354911e-05
7.720696384093373e-07,3.525450009476892e-07,3.035410743071264e-07,3.6817504827097467e-05
7.68092667260144e-07,3.5432981361052254e-07,3.052177788616191e-07,3.721693987602172e-05
7.638068178378412e-07,3.5627862636453207e-07,3.067479277894813e-07,3.761509432293394e-05
7.592116818613953e-07,3.5838522754866e-07,3.081154094148675e-07,3.801020746299407e-05
7.543057897705756e-07,3.606400771038157e-07,3.093070715619056e-07,3.840113000433249e-05
7.490866404496192e-07,3.6302966659559603e-07,3.103135607801671e-07,3.878728114857572e-05
7.435504795792586e-07,3.655376175650342e-07,3.111288539846938e-07,3.916849954852691e-05
7.376923176442593e-07,3.681482797310519e-07,3.117492282200729e-07,3.9544818504882266e-05
7.315070278635725e-07,3.708503490594322e-07,3.121735415977093e-07,3.9916191521650897e-05
7.249931137877462e-07,3.7363653089341347e-07,3.124038464883104e-07,4.028222910030183e-05
7.181571097442375e-07,3.765004904189889e-07,3.124450165466847e-07,4.064204263039359e-05
7.110133075838584e-07,3.79436513050269e-07,3.1230389774836103e-07,4.099423151538433e-05
7.035793631227843e-07,3.8244270639262963e-07,3.119882886098698e-07,4.133696246679934e-05
6.958731778899161e-07,3.8552295895678095e-07,3.115061097674605e-07,4.166810092235482e-05
6.879119357141315e-07,3.8868487101369144e-07,3.108650262791352e-07,4.198536909604251e-05
6.797119716521916e-07,3.9193693152026393e-07,3.100721308790207e-07,4.2286466898118185e-05
6.712908518871975e-07,3.952885688580026e-07,3.091338446798161e-07,4.256910291202771e-05
6.626716712577125e-07,3.987516478213647e-07,3.080560340239574e-07,4.283095706529952e-05
6.538851521562432e-07,4.023404414854685e-07,3.068444075666497e-07,4.306964680716413e-05
6.449662130693181e-07,4.0606891788826145e-07,3.0550553636326897e-07,4.3282743237800626e-05
6.35948680677307e-07,4.0994639571068117e-07,3.040475930523366e-07,4.3467826406338004e-05
6.268634702531122e-07,4.1397554471373674e-07,3.0248031922093127e-07,4.3622579397946427e-05
6.177391098423541e-07,4.1815473749310976e-07,3.008144393181781e-07,4.374493585210217e-05
6.086011553441909e-07,4.224805187644806e-07,2.9906037896509645e-07,4.3833196803740776e-05
5.994711512363504e-07,4.2694643054889155e-07,2.972272313669811e-07,4.38860039768504e-05
5.903667533345075e-07,4.315410088878272e-07,2.953224723125052e-07,4.39022235844911e-05
5.813030245150354e-07,4.3624848999576815e-07,2.933520068816323e-07,4.388091993529321e-05
5.722952195698008e-07,4.4105072712149257e-07,2.913212076577656e-07,4.382148562010333e-05
5.633633830042681e-07,4.4592879981857614e-07,2.892375486819499e-07,4.3723801581545004e-05
5.545368542527989e-07,4.5086572092393925e-07,2.871137022991391e-07,4.358829297306888e-05
5.458546255071408e-07,4.558487427059647e-07,2.849678083898495e-07,4.3415846574554345e-05
5.373603007072307e-07,4.608679679916418e-07,2.8281954081946585e-07,4.3207629060293515e-05
5.290957191652063e-07,4.6591371167995346e-07,2.806858799108488e-07,4.296493352386748e-05
5.210978839889296e-07,4.709772132390238e-07,2.785800141901169e-07,4.26891172170892e-05
5.133996956431427e-07,4.7605406561828774e-07,2.765123816238784e-07,4.23815583689924e-05
5.060307720012749e-07,4.811465592449733e-07,2.74491557523675e-07,4.204364488050719e-05
4.990164080780491e-07,4.86262231729524e-07,2.7252419038431437e-07,4.167685027563122e-05
4.923784061745247e-07,4.914091423990202e-07,2.706156360192665e-07,4.128287097240061e-05
4.861392294036797e-07,4.965913588524565e-07,2.687725682346765e-07,4.086384855541768e-05
4.803242911088931e-07,5.018070320189779e-07,2.67004873733792e-07,4.042263396186347e-05
4.7495959548229217e-07,5.070484186181444e-07,2.653238781402372e-07,3.996284861371537e-05
4.700679683892722e-07,5.123025205498874e-07,2.6373888508140816e-07,3.948863857610815e-05
4.656667778393582e-07,5.175515108366989e-07,2.622557814024064e-07,3.9004310254886074e-05
4.6176786380118333e-07,5.227728511620912e-07,2.608779420846096e-07,3.851400194238772e-05
4.5838083744377594e-07,5.279400297005222e-07,2.596076577044709e-07,3.802141597330742e-05
4.5551915154572886e-07,5.330240609113011e-07,2.584478541252437e-07,3.75296713559244e-05
4.532031878715427e-07,5.379952750241416e-07,2.574038404814381e-07,3.704133644202917e-05
4.5145628912494147e-07,5.428253686077018e-07,2.564834535177722e-07,3.6558594941638094e-05
4.5029810793426344e-07,5.474883214535332e-07,2.556956007300434e-07,3.608345130825492e-05
4.497404390968155e-07,5.519591463245647e-07,2.550488245151793e-07,3.5617929338301614e-05
4.49785584324e-07,5.562127087494607e-07,2.545507059265866e-07,3.516425350743314e-05
4.5042715114093096e-07,5.602247316223211e-07,2.5420823025971214e-07,3.4724974853040084e-05
4.5165490838884886e-07,5.63973807895301e-07,2.540285059277752e-07,3.430299804442946e-05
4.5346155520656435e-07,5.674423515271518e-07,2.540184371649893e-07,3.39015320994719e-05
4.558442939193367e-07,5.706160842396315e-07,2.5418292580565077e-07,3.352402066650697e-05
4.5879922251064217e-07,5.734829783051159e-07,2.545229891926788e-07,3.317406809011995e-05
4.62315484477964e-07,5.760324745360571e-07,2.5503598457545336e-07,3.285533743816593e-05
4.6637381013187373e-07,5.782558240436868e-07,2.5571850787042964e-07,3.2571410968813814e-05
4.70947423926664e-07,5.801481848448533e-07,2.565684307030345e-07,3.232565922899891e-05
4.7600261115328683e-07,5.817105055450658e-07,2.5758325703426017e-07,3.2121158271133835e-05
4.814997754809961e-07,5.829485828339003e-07,2.587579521875524e-07,3.1960605877990986e-05
4.873985488693525e-07,5.838703211321144e-07,2.6008497057047617e-07,3.184616502751989e-05
4.936640883016796e-07,5.844846737863671e-07,2.6155477934526104e-07,3.177925282835906e-05
5.002660826140948e-07,5.848032579977736e-07,2.6315617656331575e-07,3.1760383650479645e-05
5.071725745379856e-07,5.848411859536885e-07,2.648774675692411e-07,3.1789200064085466e-05
5.143476350610988e-07,5.846149156488388e-07,2.6670776791678297e-07,3.186473993173656e-05
5.217520919873021e-07,5.84140030376604e-07,2.6863687203082764e-07,3.1985792624395303e-05
5.293431336552465e-07,5.83431263649119e-07,2.706540164687851e-07,3.215112362958481e-05
5.370755869657155e-07,5.825028700225733e-07,2.7274733566527336e-07,3.2359529907498184e-05
5.449062838925028e-07,5.81367692030828e-07,2.749046985629598e-07,3.2609841978601666e-05
5.527971590454506e-07,5.800363296576857e-07,2.771144653096161e-07,3.2900925652405874e-05
5.6071447727316e-07,5.785171801875913e-07,2.7936532117740233e-07,3.323165365545502e-05
5.686259617182984e-07,5.768165700059271e-07,2.816465574581428e-07,3.360082377220929e-05
5.764977629088661e-07,5.749393100022644e-07,2.8394981364456905e-07,3.400702690706043e-05
5.842931104203965e-07,5.728891458485334e-07,2.8627084432759235e-07,3.4448497869474874e-05
5.919760174562804e-07,5.706677767658534e-07,2.886085436767277e-07,3.492299204888302e-05
5.995185800819246e-07,5.682740084158007e-07,2.9096160221511365e-07,3.5427708236346724e-05
6.069036893572782e-07,5.657052052287773e-07,2.933266500827732e-07,3.595928025798136e-05
6.141199900438568e-07,5.629603438653624e-07,2.956989120032125e-07,3.651388436723151e-05
6.211548016793165e-07,5.600421183590431e-07,2.980733075732723e-07,3.708742379582723e-05
6.279904135737865e-07,5.569559876334367e-07,3.0044563220273517e-07,3.7675637221629854e-05
6.346045844142379e-07,5.537072449630003e-07,3.028135481007346e-07,3.8274103476886185e-05
6.409728805565032e-07,5.502990895807869e-07,3.051755509072852e-07,3.887830601898752e-05
6.470698260084997e-07,5.467327535232162e-07,3.075285290260349e-07,3.948381789329492e-05
6.528693692089928e-07,5.430095640773633e-07,3.0986662819004805e-07,4.008646609866284e-05
6.583464769871214e-07,5.39133514037208e-07,3.1218182836995286e-07,4.068236111589826e-05
6.634778208775976e-07,5.351120790414025e-07,3.14465160452455e-07,4.12678018158152e-05
6.68240104976366e-07,5.309566477626354e-07,3.1670869037089936e-07,4.1839164516422665e-05
6.726086683339853e-07,5.266837031336456e-07,3.1890766335764434e-07,4.239296034512136e-05
6.765581787356265e-07,5.223131928175641e-07,3.210601828864266e-07,4.292604455728954e-05
6.800659074033406e-07,5.178646762295154e-07,3.231645431698505e-07,4.343568281036888e-05
6.8311716706346e-07,5.133581923113182e-07,3.252177165175925e-07,4.391937838005605e-05
6.857081276783314e-07,5.088201841686767e-07,3.272156171268844e-07,4.4374675667083866e-05
6.878422666422235e-07,5.04285749988599e-07,3.291530594480684e-07,4.479910350689856e-05
6.895246862504548e-07,4.99793245381319e-07,3.3102340696101306e-07,4.519032965248771e-05
6.90759944403592e-07,4.953771084600956e-07,3.328191539006434e-07,4.5546505605476093e-05
6.915526079594139e-07,4.910644364152664e-07,3.3453284582231395e-07,4.5866549931171474e-05
6.919073145987434e-07,4.868748623578754e-07,3.3615750196772837e-07,4.6150127481795794e-05
6.918285700415585e-07,4.828215449892902e-07,3.376872382464837e-07,4.6397379593772244e-05
6.913210754359485e-07,4.789129142350402e-07,3.391173764137032e-07,4.660860134816359e-05
6.903894114111631e-07,4.7515537582429973e-07,3.4044289002419285e-07,4.678399002387316e-05
6.890371433748638e-07,4.7155494507125395e-07,3.41656978740469e-07,4.692352425015412e-05
6.872663217794027e-07,4.681162015563592e-07,3.4275107439105267e-07,4.702698366185449e-05
6.850779547573825e-07,4.6484073522488364e-07,3.437158047028373e-07,4.709404178100676e-05
6.824746865425827e-07,4.6172654188240567e-07,3.4454351875671937e-07,4.712433468069864e-05
6.794647867738871e-07,4.587674338614536e-07,3.452309804546021e-07,4.71174745326401e-05
6.760647613840537e-07,4.55953189343073e-07,3.45779011729698e-07,4.707307214492392e-05
6.722995943071909e-07,4.5327121344176817e-07,3.4619057460523963e-07,4.699082652108891e-05
6.682009066368187e-07,4.507080792657547e-07,3.464705197779288e-07,4.687063251215081e-05
6.638050383860168e-07,4.4825009721267043e-07,3.4662656212762817e-07,4.671262657865664e-05
6.591519398218173e-07,4.4588431512118246e-07,3.466698399761194e-07,4.6517193141038484e-05
6.542823933010107e-07,4.4360069779247075e-07,3.466139042053e-07,4.628501744528487e-05
6.492337568997656e-07,4.413945140905545e-07,3.464723211256296e-07,4.601718963107031e-05
6.440371335461319e-07,4.3926763635117863e-07,3.462565167283597e-07,4.571525983730754e-05
6.387168656422941e-07,4.372274890947056e-07,3.459744800351351e-07,4.538116755818694e-05
6.332918494535984e-07,4.352834797264906e-07,3.456302880405616e-07,4.501708324557669e-05
6.277768766169195e-07,4.3344317424695857e-07,3.452246556841516e-07,4.4625245382813814e-05
6.221826303182908e-07,4.317110219171376e-07,3.447557923921803e-07,4.420783553088388e-05
6.16515504574304e-07,4.300894930015528e-07,3.4421987320083015e-07,4.376689823649934e-05
6.107782566643725e-07,4.285800581000818e-07,3.4361142962592425e-07,4.33042922596233e-05
6.049713324543059e-07,4.271836863192803e-07,3.429239191754287e-07,4.282168637388193e-05
5.990941209290126e-07,4.2590199883933613e-07,3.42150526156004e-07,4.2320648381071145e-05
5.93145485801647e-07,4.247372176772722e-07,3.412847615298205e-07,4.18027746095392e-05
5.871246136902952e-07,4.2368993043654364e-07,3.4032077252946183e-07,4.126971302611733e-05
5.810328427569464e-07,4.227586845255563e-07,3.392547589785076e-07,4.07230565573349e-05
5.748748737873817e-07,4.2194438430460464e-07,3.380874498383312e-07,4.016422131311871e-05
5.686580732391942e-07,4.2125525063971256e-07,3.368254051522925e-07,3.959438434980512e-05
5.623910908662531e-07,4.2070586204154e-07,3.35480039892337e-07,3.90144897079173e-05
5.560841845442776e-07,4.203113252438814e-07,3.3406511183528966e-07,3.8425358614831074e-05
5.49750515549865e-07,4.200834028007286e-07,3.3259425990736444e-07,3.7827946933393015e-05
5.434049062352104e-07,4.200308214192888e-07,3.31079565533702e-07,3.72236750863122e-05
5.370606513814271e-07,4.201601903392314e-07,3.2953075025911546e-07,3.661465793022306e-05
5.30728033587722e-07,4.2047530562391365e-07,3.279547541957523e-07,3.6003740564177914e-05
5.244148176528568e-07,4.209760706057447e-07,3.263557653048563e-07,3.5394369469937264e-05
5.181275236085494e-07,4.2165814546642385e-07,3.247357684238207e-07,3.479035844879533e-05
5.118729323664755e-07,4.2251302553485753e-07,3.23095826997228e-07,3.419559649208613e-05
