2e-07,5.13421829175432e-07,8.944064913779339e-07,2.8400437365205897e-05
2e-07,5.087587004103516e-07,8.89415258232303e-07,2.7711349196710176e-05
2e-07,5.041026323911335e-07,8.845176258152582e-07,2.703513828335669e-05
2e-07,4.994731784739336e-07,8.797456430339384e-07,2.637403576909407e-05
2e-07,4.948873320690506e-07,8.751269509418484e-07,2.5729986496268853e-05
2e-07,4.903590959441694e-07,8.706941678266876e-07,2.5104660387835025e-05
2e-07,4.858995374114422e-07,8.664889288155053e-07,2.449954732054689e-05
2e-07,4.815177293318076e-07,8.625563751861427e-07,2.3916123737787587e-05
2e-07,4.772235535880183e-07,8.589364212772287e-07,2.3355957054301026e-05
2e-07,4.730324577231289e-07,8.556581176447385e-07,2.2820685404742326e-05
2e-07,4.689683835977517e-07,8.527380878641359e-07,2.231192243568789e-05
2e-07,4.650611591430893e-07,8.501813182127349e-07,2.1831108843828425e-05
2e-07,4.613405797452674e-07,8.479824890351554e-07,2.137935026108268e-05
2e-07,4.57833124976249e-07,8.461278232942005e-07,2.0957339935632827e-05
2e-07,4.5456435530493576e-07,8.445993310284775e-07,2.056539627560076e-05
2e-07,4.5156394573981903e-07,8.43381085050396e-07,2.0203559120653367e-05
2e-07,4.4886697866455814e-07,8.424637897923513e-07,1.9871729870262522e-05
2e-07,4.46509347546388e-07,8.418466807832095e-07,1.9569839931653186e-05
2e-07,4.445230237942575e-07,8.415376123804499e-07,1.9297906218232205e-05
2e-07,4.429358640282387e-07,8.415488512634046e-07,1.9055917868319226e-05
2e-07,4.4177302814226044e-07,8.41889852512747e-07,1.8843738487754224e-05
2e-07,4.410564451136467e-07,8.425646933883659e-07,1.866111775236013e-05
2e-07,4.408026484026149e-07,8.4357541650793e-07,1.850770011460861e-05
2e-07,4.4102064284273215e-07,8.449235815342186e-07,1.8382981203812117e-05
2e-07,4.41710978808459e-07,8.466070364507928e-07,1.8286250530430122e-05
2e-07,4.428666099711232e-07,8.4861700926272e-07,1.8216549748512507e-05
1.9206243868584688e-06,4.444756054461298e-07,8.509377752870313e-07,1.8172713070693883e-05
1.7830718876468207e-06,4.4652371368609677e-07,8.535458820800235e-07,1.8153523768107943e-05
1.6550961619944325e-06,4.4899422010114156e-07,8.564084666026884e-07,1.815785727517228e-05
1.5365671233186492e-06,4.5186704336128814e-07,8.594835858723555e-07,1.818466789267955e-05
1.427324249574132e-06,4.551213845331747e-07,8.627238617817581e-07,1.823285879675772e-05
1.3271862087610616e-06,4.5874202057396383e-07,8.660814255370402e-07,1.830116294632159e-05
1.2359536079262706e-06,4.6272421402314384e-07,8.695111076025481e-07,1.8388091607689385e-05
1.1534073136257744e-06,4.670717553421665e-07,8.729720068573449e-07,1.849192920060857e-05
1.079306194066074e-06,4.7178995254728954e-07,8.764293818897364e-07,1.8610745267027344e-05
1.0133867874841062e-06,4.768817350517517e-07,8.798550338580141e-07,1.8742429285629127e-05
9.553637099141077e-07,4.823489584538468e-07,8.832239649788341e-07,1.888476320893174e-05
9.049293299604864e-07,4.881932334315044e-07,8.86510499571793e-07,1.9035533832494204e-05
8.617555323656475e-07,4.944132948925605e-07,8.896864160016361e-07,1.9192682660319212e-05
8.254985817728295e-07,5.01001468495935e-07,8.927196123726799e-07,1.9354472145890647e-05
7.958037594888165e-07,5.079420805919111e-07,8.955735938232079e-07,1.9519612560601622e-05
7.723068916507001e-07,5.152121333834276e-07,8.982085544237488e-07,1.968726934092524e-05
7.546339542560838e-07,5.227840243271568e-07,9.005827499942119e-07,1.9856917850839726e-05
7.42402962911778e-07,5.306297661065782e-07,9.026533556272369e-07,2.0028161203935795e-05
7.352278524714513e-07,5.38723494071426e-07,9.043773591323332e-07,2.020066853050148e-05
7.327205896745808e-07,5.47039644143857e-07,9.057135090802843e-07,2.0374190006429253e-05
7.344924691672538e-07,5.555490294804452e-07,9.066241047039109e-07,2.054850106999527e-05
7.401568338086706e-07,5.64217156095728e-07,9.070750087299331e-07,2.072328066782591e-05
7.493313647555015e-07,5.730063735914341e-07,9.070368986821737e-07,2.0898027973047007e-05
7.616392578300218e-07,5.818785741105906e-07,9.064896580288632e-07,2.107213444827394e-05
7.767110171012742e-07,5.907947239406951e-07,9.054245636596892e-07,2.124518727168785e-05
7.941864406479556e-07,5.997131878521339e-07,9.038401420327559e-07,2.141730548584145e-05
8.137166377343212e-07,6.085898744785318e-07,9.017361365247471e-07,2.1589165524851007e-05
8.349662281212854e-07,6.173785943273653e-07,8.991113178154097e-07,2.1761717705361678e-05
8.576139005007138e-07,6.260305631545339e-07,8.959648750130575e-07,2.193586330964057e-05
8.81351883363775e-07,6.344954223243484e-07,8.922986870373396e-07,2.2112232005452672e-05
9.058857327103287e-07,6.427240182709654e-07,8.881184378541274e-07,2.2291081078618358e-05
9.309333853203485e-07,6.506695576770308e-07,8.834325184682077e-07,2.2472335636183262e-05
9.562243363053385e-07,6.582860649384287e-07,8.782507561961088e-07,2.265573372891913e-05
9.815020175537165e-07,6.655277854542244e-07,8.725852593776476e-07,2.2840978119066188e-05
1.0065294321588706e-06,6.723518802850614e-07,8.664514557887412e-07,2.3027844401912604e-05
1.0310926034769978e-06,6.787211818523598e-07,8.598684648230261e-07,2.321628366642452e-05
1.0549975783518712e-06,6.846038139119928e-07,8.528635134276624e-07,2.34065219025458e-05
1.078065131331516e-06,6.899718498286366e-07,8.454794022763294e-07,2.359907545325902e-05
1.100128563814531e-06,6.948018942498567e-07,8.377744652700448e-07,2.3794654370621843e-05
1.1210341407981152e-06,6.990767112873675e-07,8.298131758126217e-07,2.399403010166709e-05
1.1406420518479305e-06,7.027852698746098e-07,8.216579091249846e-07,2.4197953453009906e-05
1.1588298696175563e-06,7.059200790531385e-07,8.133669554843501e-07,2.440714415995294e-05
1.1755035541187915e-06,7.084742705336566e-07,8.049953332184363e-07,2.4622292410648984e-05
1.1906103434319049e-06,7.104414697983232e-07,7.96596515142997e-07,2.484398219704229e-05
1.2041387407344368e-06,7.118169228223077e-07,7.882257858418623e-07,2.507252376425197e-05
1.216104770406734e-06,7.125967565907505e-07,7.799434215598283e-07,2.530779607149682e-05
1.2265360060161495e-06,7.127763506472269e-07,7.718134526042262e-07,2.5549209102978245e-05
1.2354609083916728e-06,7.123507428704619e-07,7.638980018258628e-07,2.5795792082077912e-05
1.2429044443373358e-06,7.113173619636666e-07,7.562526482355156e-07,2.6046329931227224e-05
1.2488873054133517e-06,7.096780613787031e-07,7.489250437099602e-07,2.629949046340427e-05
1.2534272177589069e-06,7.074378916256623e-07,7.419543451166169e-07,2.655395573633251e-05
1.256541759141967e-06,7.046026203326747e-07,7.353710820874467e-07,2.6808564559728886e-05
1.258251862140141e-06,7.01178343146645e-07,7.292006708797619e-07,2.706239287250548e-05
1.258586380126905e-06,6.971727653484691e-07,7.23473120047481e-07,2.7314728862478408e-05
1.2575853946353128e-06,6.925961574454299e-07,7.182330050651188e-07,2.7565020596493628e-05
1.2552993460397369e-06,6.874617262518019e-07,7.135387374011653e-07,2.7812872361965113e-05
1.251786536363855e-06,6.817851200517677e-07,7.094510859422634e-07,2.8058066354274212e-05
1.247111531929043e-06,6.75582670384391e-07,7.0602260964538e-07,2.8300533765246002e-05
1.2413432969934208e-06,6.688701076712642e-07,7.032972460076218e-07,2.8540229670957787e-05
1.234553444263277e-06,6.616631683924467e-07,7.013186327499128e-07,2.877696128642199e-05
1.226814448521561e-06,6.539785633548097e-07,7.001388601439896e-07,2.901026563594621e-05
1.2181955926985298e-06,6.458337330162608e-07,6.998223816164415e-07,2.9239369634450566e-05
1.2087584948332303e-06,6.372465266580726e-07,7.004441239160529e-07,2.946324039961452e-05
1.1985555435875192e-06,6.28236742820955e-07,7.020804051245115e-07,2.968075649160046e-05
1.1876315109876603e-06,6.188292891385324e-07,7.047950588230748e-07,2.9890939010285743e-05
1.1760275124344043e-06,6.09055814146314e-07,7.086288305874814e-07,3.0093081515994517e-05
1.1637850724325031e-06,5.989522882630979e-07,7.135960055186198e-07,3.0286702130746306e-05
1.1509478774794037e-06,5.885547889901515e-07,7.196861599306403e-07,3.047138086969344e-05
1.1375616702238458e-06,5.778974026267436e-07,7.268686211460594e-07,3.064658589623877e-05
1.1236736434249138e-06,5.670126755410961e-07,7.350965003593175e-07,3.081158624067534e-05
1.109332340028505e-06,5.559323105938769e-07,7.44308134009593e-07,3.096548937102823e-05
1.094588914698912e-06,5.446878458715746e-07,7.544273816716937e-07,3.1107317013310085e-05
1.0794975735895857e-06,5.333141481954914e-07,7.653649010512013e-07,3.12360564418975e-05
1.0641126889444728e-06,5.218544189875646e-07,7.770217510058678e-07,3.1350829376472776e-05
1.0484855123019702e-06,5.10359966364136e-07,7.892945412973709e-07,3.1451251241519127e-05
1.032664357997025e-06,4.988840837481097e-07,8.020783079460823e-07,3.1537696993905754e-05
1.0166963679544592e-06,4.874774077559715e-07,8.152656988357023e-07,3.161122734259159e-05
1.0006271269037913e-06,4.761873896056588e-07,8.287458563486455e-07,3.167330975781634e-05
9.84499493561564e-07,4.650582233862808e-07,8.42405172238492e-07,3.172551739823196e-05
9.68354741678363e-07,4.5413072565583706e-07,8.561296884257071e-07,3.1769276288021114e-05
9.522348931859457e-07,4.4344336026508396e-07,8.698091994612518e-07,3.1805836475097587e-05
9.361837170075061e-07,4.330326041783065e-07,8.833408431839697e-07,3.1836532029878586e-05
9.202463028057487e-07,4.2293249858633436e-07,8.966302262388855e-07,3.186304417104665e-05
9.044688705848837e-07,4.1317555671672256e-07,9.095918091859405e-07,3.188743067122814e-05
8.88898934732741e-07,4.0379383009454774e-07,9.221486238558258e-07,3.191197487080543e-05
8.735833863400309e-07,3.948184637529475e-07,9.342300230281996e-07,3.1938967918191884e-05
8.585647938837951e-07,3.862802166539553e-07,9.457695514600677e-07,3.1970482086997994e-05
8.438797253000763e-07,3.7821083264298504e-07,9.56705956811358e-07,3.200816423004217e-05
8.295592178987706e-07,3.706407364824151e-07,9.669865904583413e-07,3.205308396311773e-05
8.156288236385457e-07,3.6359428305692036e-07,9.765687160098649e-07,3.210569473070151e-05
8.021086078613919e-07,3.570882240814741e-07,9.854168509606809e-07,3.2165919835187485e-05
7.890136991594638e-07,3.511333704381333e-07,9.9350158216007e-07,3.2233279055904016e-05
7.763549713844591e-07,3.457355928160897e-07,1.000805495776015e-06,3.230695919235848e-05
7.641406330671258e-07,3.4089580379127e-07,1.0073324136459774e-06,3.238582128871795e-05
7.52377968792861e-07,3.3661239207301767e-07,1.0131120947541426e-06,3.2468415407651584e-05
7.410726217727055e-07,3.3288669986799643e-07,1.0181981002343077e-06,3.255306728984416e-05
7.302266166090247e-07,3.2972594328348327e-07,1.0226587929672462e-06,3.263802385678241e-05
7.198385587516178e-07,3.2713947389878375e-07,1.026564205431993e-06,3.2721589979070725e-05
7.099044539281098e-07,3.2513229778560873e-07,1.0299792018892793e-06,3.280221138446095e-05
7.004170444782715e-07,3.237020727847475e-07,1.032967731934639e-06,3.287850015913932e-05
6.913657978775296e-07,3.228403781198956e-07,1.0355982989721485e-06,3.2949225919481676e-05
6.827377424638e-07,3.225351709204484e-07,1.0379428042133116e-06,3.301329263259417e-05
6.745178967842719e-07,3.2277197147629406e-07,1.0400721282945023e-06,3.306969483097397e-05
6.666905955322462e-07,3.2353302549542857e-07,1.0420522698793296e-06,3.3117453388011896e-05
6.592415725815596e-07,3.247967883844836e-07,1.0439405514747394e-06,3.315554609467089e-05
6.52158956985726e-07,3.265411426184303e-07,1.0457816207998086e-06,3.318285411088518e-05
6.454337283004721e-07,3.287481973707161e-07,1.047604846900074e-06,3.3198185185037826e-05
6.390601077643297e-07,3.3140462074274767e-07,1.0494245330954869e-06,3.320042917728142e-05
6.330340903983501e-07,3.344970294475257e-07,1.0512421673441723e-06,3.3188771991115315e-05
6.273503533049175e-07,3.380080903455312e-07,1.0530501725580505e-06,3.316280833713039e-05
6.220002509864145e-07,3.41915982864988e-07,1.0548390186155396e-06,3.31224969076146e-05
6.169715239357186e-07,3.4619508360993627e-07,1.056606548149028e-06,3.306803875898912e-05
6.122482150575753e-07,3.508167028727345e-07,1.0583626197299822e-06,3.299978227466004e-05
6.078102200761651e-07,3.557498419090111e-07,1.0601241165564528e-06,3.291817628121929e-05
6.036331121738013e-07,3.609623990155976e-07,1.0619049027487131e-06,3.282369735744677e-05
5.996889053183951e-07,3.6642433474219633e-07,1.063710356732956e-06,3.271672241776844e-05
5.959480858636807e-07,3.7211113112603606e-07,1.065539911548137e-06,3.259744659258503e-05
5.923818591561683e-07,3.7800334898934406e-07,1.0673927579286105e-06,3.2465932019198365e-05
5.889626608761247e-07,3.8408243830425025e-07,1.0692713689267023e-06,3.232224036480421e-05
5.856631602216692e-07,3.9032699190403844e-07,1.0711812643727587e-06,3.216657479348458e-05
5.824556424215568e-07,3.9671198925543155e-07,1.0731275864228467e-06,3.1999424983339464e-05
5.793120092697587e-07,4.032099452406923e-07,1.075110667155858e-06,3.1821673534695864e-05
5.762035143831479e-07,4.097917964592072e-07,1.0771233497180609e-06,3.1634563683806136e-05
5.731009096672988e-07,4.164278431622124e-07,1.0791510659292604e-06,3.14395117978885e-05
5.699766239826472e-07,4.2308997836456e-07,1.081173171883209e-06,3.1237856772814004e-05
5.668081954288507e-07,4.297528385636584e-07,1.0831631522321516e-06,3.103066337575864e-05
5.635796803210708e-07,4.3639204185421896e-07,1.0850884452154946e-06,3.0818655377021785e-05
5.602806136156831e-07,4.429837397836893e-07,1.0869132347213469e-06,3.060225366444308e-05
5.569054819680246e-07,4.495076987049512e-07,1.0886030941169315e-06,3.0381654448418e-05
5.534536579907485e-07,4.5594881649696767e-07,1.090126595050367e-06,3.015700384291501e-05
5.499281779873368e-07,4.622949133610261e-07,1.0914550558418594e-06,2.992872331416251e-05
5.463344376153895e-07,4.68534875208638e-07,1.0925649392077557e-06,2.9697777763183813e-05
5.426787661362286e-07,4.7465811001012497e-07,1.0934393153485943e-06,2.9465650105611542e-05
5.389663287213643e-07,4.806526518307767e-07,1.0940633444449994e-06,2.923409202805901e-05
5.3520027842415e-07,4.865026169615462e-07,1.0944179788413746e-06,2.9004832710329664e-05
5.313823560685512e-07,4.921874469908257e-07,1.0944773979878508e-06,2.8779374074369567e-05
5.275132766576471e-07,4.976828812120922e-07,1.0942097678282256e-06,2.855904414713781e-05
5.23592926153164e-07,5.029630076761336e-07,1.0935789253591292e-06,2.8345322828662762e-05
5.19620924682629e-07,5.080028850610159e-07,1.0925456197334049e-06,2.8140132665922893e-05
5.155968533794277e-07,5.127799406263735e-07,1.0910685289562678e-06,2.7945852139282373e-05
5.115195576767583e-07,5.17273512767846e-07,1.0891060124937502e-06,2.776512863783925e-05
5.073871211945694e-07,5.21465014652614e-07,1.0866190615133946e-06,2.7600644861901813e-05
5.031987641479648e-07,5.253397057154621e-07,1.0835753011745478e-06,2.745490973274748e-05
4.989573858296635e-07,5.28887851172312e-07,1.0799528447736044e-06,2.733010766630332e-05
4.946712176443575e-07,5.321049385749065e-07,1.0757411655574178e-06,2.722801874350841e-05
4.903533704372014e-07,5.349911368245307e-07,1.070936809876032e-06,2.7150001931898607e-05
4.86019428907435e-07,5.375485295471168e-07,1.0655380143600443e-06,2.7097009079764774e-05
4.816861955225434e-07,5.39777692531209e-07,1.0595456026529756e-06,2.706957011339392e-05
4.77373026641797e-07,5.41676750937811e-07,1.0529686110495282e-06,2.706772259087608e-05
4.7310265721120975e-07,5.43242761679101e-07,1.045825477895953e-06,2.7090945065242386e-05
4.688997624712489e-07,5.444733226320039e-07,1.038138601149767e-06,2.713816476744033e-05
4.647892232781291e-07,5.453682791825419e-07,1.0299285918433368e-06,2.720783160527741e-05
4.607950137707344e-07,5.459331029316577e-07,1.0212124403915508e-06,2.729802374398085e-05
4.5693892310233934e-07,5.461819449114953e-07,1.0120043852948843e-06,2.7406579239899303e-05
4.53238838385539e-07,5.461366583560158e-07,1.00231662377438e-06,2.7531230045561266e-05
4.4970719794768637e-07,5.458233027800277e-07,9.921591142465202e-07,2.7669695612653327e-05
4.4635080972300826e-07,5.452708094574539e-07,9.815407548500114e-07,2.7819740342473188e-05
4.4317166979164857e-07,5.44514335336715e-07,9.704726991486776e-07,2.7979227818706318e-05
4.4016721128196985e-07,5.435996053837677e-07,9.58970593552483e-07,2.814616935124721e-05
4.3733034648441274e-07,5.425811891081265e-07,9.470541871433664e-07,2.831874040845026e-05
4.346502882285265e-07,5.415162389900167e-07,9.34747058669154e-07,2.849524943721209e-05
4.3211395134003535e-07,5.404603900615489e-07,9.220768624281905e-07,2.8674054121760662e-05
4.297075442942636e-07,5.394657268566427e-07,9.090729760295211e-07,2.88534621369487e-05
4.274175357772274e-07,5.385792136828427e-07,8.957627144918856e-07,2.9031717424359466e-05
4.25231145276556e-07,5.3784232521154e-07,8.821703715808504e-07,2.920710212199755e-05
4.2313866413464715e-07,5.372900040409061e-07,8.683188491341318e-07,2.937802792341563e-05
4.2113763358719523e-07,5.369479164077553e-07,8.542311813990848e-07,2.954302455910152e-05
4.192360466077992e-07,5.368303500300334e-07,8.39931570349011e-07,2.9700680876229303e-05
4.174535931512253e-07,5.36940587561788e-07,8.254461385555267e-07,2.98496079153703e-05
4.1582041289127436e-07,5.372738870237813e-07,8.108035180065913e-07,2.998842406023388e-05
4.143723369457955e-07,5.378206114882957e-07,7.960362026151558e-07,3.0115741157067274e-05
4.1314549145447676e-07,5.385664812537846e-07,7.811820749729675e-07,3.023017492105377e-05
4.1217367983362883e-07,5.394915408350656e-07,7.66284169575399e-07,3.033041000587309e-05
4.114865799809455e-07,5.405715305557607e-07,7.513889033356686e-07,3.0415289398909113e-05
4.111067781665061e-07,5.417809188325267e-07,7.365446266917091e-07,3.0483895338074164e-05
4.1104786081531907e-07,5.430938194610947e-07,7.217999032315202e-07,3.053563909962732e-05
4.113151047216923e-07,5.444824645732692e-07,7.072004209453923e-07,3.0570372543727604e-05
4.1190771720873143e-07,5.459161499691488e-07,6.927870974026262e-07,3.058845699149382e-05
4.128206525835132e-07,5.47361765862547e-07,6.78596623772121e-07,3.059069112175898e-05
4.1404440470751705e-07,5.487852848451961e-07,6.646617686963246e-07,3.057809165104772e-05
4.1556365701882295e-07,5.501536218290886e-07,6.510103779368615e-07,3.0551626813241705e-05
4.1735708233016685e-07,5.514363120022175e-07,6.37664146814586e-07,3.0512037473342302e-05
4.193990721815945e-07,5.526072747903132e-07,6.24638021120532e-07,3.04598119678576e-05
4.21663424838875e-07,5.536459492738165e-07,6.119422711654609e-07,3.0395236774539167e-05
4.241277328516849e-07,5.545361082732225e-07,5.99589381482361e-07,3.0318434590515417e-05
4.2677426526219647e-07,5.552637035208312e-07,5.876021664622195e-07,3.0229470295788605e-05
4.295859804676609e-07,5.558155242509433e-07,5.760161547955873e-07,3.0128628331680828e-05
4.3254278354991625e-07,5.561778780850389e-07,5.648753329910986e-07,3.00166918827748e-05
4.356217383423892e-07,5.563353932485794e-07,5.542254177511522e-07,2.9894947390850624e-05
4.387984363010821e-07,5.562712320027982e-07,5.441078812256267e-07,2.976493938942376e-05
4.4204646778130723e-07,5.559683545148664e-07,5.345560552893803e-07,2.9628190149320722e-05
4.4533670974250184e-07,5.554105684932497e-07,5.255933752508025e-07,2.9486021046959747e-05
4.4863853620944976e-07,5.545843878007114e-07,5.172332326866525e-07,2.9339608058196166e-05
4.519213536487272e-07,5.53482987090876e-07,5.094795238571578e-07,2.919029377306224e-05
4.551553074614021e-07,5.521089664309556e-07,5.02327187018134e-07,2.9039880264281525e-05
4.5831297335469406e-07,5.504723675598886e-07,4.957630078779271e-07,2.8890657605669896e-05
4.613710455199973e-07,5.485866250776929e-07,4.89767009995087e-07,2.874525696241192e-05
4.6430908516317256e-07,5.464667694664816e-07,4.843145497539846e-07,2.8606510637532502e-05
4.671070108394986e-07,5.441295031249711e-07,4.793794569584435e-07,2.847735866104447e-05
4.6974437647897645e-07,5.415928578280349e-07,4.749367840568226e-07,2.8360764016864656e-05
4.7220190384452364e-07,5.388756414000975e-07,4.7096333965008547e-07,2.825962027738562e-05
4.7446345297643566e-07,5.359986411453335e-07,4.6743880449368475e-07,2.8176672662722638e-05
4.7651535890316527e-07,5.329868630407855e-07,4.6434996823470297e-07,2.8114471726634363e-05
4.783443005674509e-07,5.298688338263986e-07,4.616936336789113e-07,2.8075334831499432e-05
4.799382323420606e-07,5.266729039665519e-07,4.594742675526576e-07,2.8061259843636077e-05
4.812894100814965e-07,5.234250083753334e-07,4.5769926952933654e-07,2.8073776101412883e-05
4.8239445050227e-07,5.201489727240286e-07,4.5637653813240253e-07,2.8113787858596803e-05
4.83251161496105e-07,5.168671047998691e-07,4.5551624485425737e-07,2.818148966605376e-05
4.838563257735359e-07,5.136002082100194e-07,4.551343558578024e-07,2.8276419017252917e-05
4.842063045794115e-07,5.103673553362845e-07,4.5525348015412466e-07,2.8397639233007435e-05
4.842987454711858e-07,5.071856365777845e-07,4.5589985722778845e-07,2.854395746374951e-05
4.841335466076027e-07,5.040698125550814e-07,4.5709883449395456e-07,2.8714102922948853e-05
4.837122429659264e-07,5.010329596647271e-07,4.588721349798485e-07,2.8906857027392573e-05
4.83036225948125e-07,4.980906357980974e-07,4.612380373356001e-07,2.912113632291953e-05
4.821065244249198e-07,4.952667728574367e-07,4.6421229053574765e-07,2.935601817862467e-05
4.809270523739943e-07,4.925948449547464e-07,4.678083839685174e-07,2.9610701138197217e-05
4.795087926756396e-07,4.901125704926266e-07,4.720367128264557e-07,2.9884407539000587e-05
4.778715998319565e-07,4.878545533337081e-07,4.769018878713895e-07,3.0176258125970502e-05
4.760434027398552e-07,4.858471493615155e-07,4.824021651452668e-07,3.0485139025028364e-05
4.7405728436097404e-07,4.841071622275597e-07,4.885356195621477e-07,3.080957898039165e-05
4.7194700466108473e-07,4.826428701830821e-07,4.953087527206364e-07,3.114770292869175e-05
4.6974398012077896e-07,4.814547954608881e-07,5.027408036396373e-07,3.1497281647108664e-05
4.6747778528479817e-07,4.805358167884454e-07,5.10863869132603e-07,3.1855791241145194e-05
4.6517738946887037e-07,4.798717572854956e-07,5.197213409821783e-07,3.222045041783466e-05
4.628703166677787e-07,4.794431900268895e-07,5.293646655754329e-07,3.25882981398779e-05
4.60581183267153e-07,4.792288425363631e-07,5.398483687914553e-07,3.2956336850561226e-05
4.5833124351521606e-07,4.792094896077236e-07,5.51224974430977e-07,3.332165577154842e-05
4.5613851998254407e-07,4.793697650924087e-07,5.635407189019202e-07,3.3681433740449093e-05
4.5401876370623177e-07,4.796975519072898e-07,5.768312813882872e-07,3.4032863323122256e-05
4.519869920719104e-07,4.801830521999809e-07,5.911168170993978e-07,3.4373107604786854e-05
4.5005778623864344e-07,4.808191753707717e-07,6.063972963486051e-07,3.469933646882791e-05
4.4824425499418e-07,4.816030556924011e-07,6.226511245406614e-07,3.500884659241781e-05
4.4655687935069637e-07,4.825360914594914e-07,6.398377669498112e-07,3.5299237253991466e-05
4.4500314005274107e-07,4.836207313160753e-07,6.579017792822393e-07,3.55685568637844e-05
4.435885212460613e-07,4.848565075185743e-07,6.767773623316556e-07,3.5815319427150355e-05
4.4231762871887377e-07,4.862387877439304e-07,6.963938613195639e-07,3.6038376745771634e-05
4.4119398808876324e-07,4.877607323265368e-07,7.166811821203594e-07,3.623672886460373e-05
4.402188658255375e-07,4.894153433688463e-07,7.375731346264355e-07,3.640937033885047e-05
4.3939055039758604e-07,4.911944394754607e-07,7.590080211346297e-07,3.655525120542218e-05
4.387054701494947e-07,4.930862631798524e-07,7.809279086819044e-07,3.667335703104632e-05
4.3815981134074e-07,4.950748036290739e-07,8.032758325043334e-07,3.676279761050162e-05
4.377492529863465e-07,4.971408294759071e-07,8.25989902939946e-07,3.68228392474903e-05
4.3746755822809676e-07,4.992637370425947e-07,8.489984402336407e-07,3.6852991668057416e-05
4.3730621807203177e-07,5.014236537095747e-07,8.72219615921097e-07,3.685317538182553e-05
4.3725523079844687e-07,5.036030708635991e-07,8.955633516130106e-07,3.682376303560433e-05
4.373033952868832e-07,5.057868899953166e-07,9.189320423373581e-07,3.676542073172294e-05
4.3743747404757607e-07,5.079606653248282e-07,9.422201644290322e-07,3.667891280243825e-05
4.3764128155666617e-07,5.101089354710862e-07,9.653149343251908e-07,3.6564985635001944e-05
4.378955751720422e-07,5.122148498094037e-07,9.88098386123332e-07,3.6424378964794924e-05
4.38178839807131e-07,5.142601147069529e-07,1.0104505264294408e-06,3.6258001824147025e-05
4.384688626830599e-07,5.162250172211294e-07,1.0322534758673865e-06,3.6067141337443795e-05
4.3874407766154003e-07,5.180898698800636e-07,1.053393904837656e-06,3.585348921629055e-05
4.389846048496379e-07,5.198385190302498e-07,1.073761814443622e-06,3.561901206071615e-05
4.391745691574957e-07,5.214617735818793e-07,1.093248806745915e-06,3.536584879728623e-05
4.393047338563555e-07,5.229567909887369e-07,1.1117486467331421e-06,3.5096276395012e-05
4.393729954534685e-07,5.243227382353583e-07,1.1291586405100216e-06,3.4812668536873496e-05
4.393827966901126e-07,5.255576416182117e-07,1.145380737079115e-06,3.4517407737538104e-05
4.393405497775473e-07,5.26657693212628e-07,1.160323344393362e-06,3.421277497741341e-05
4.392527797421073e-07,5.276170827527101e-07,1.17390313271031e-06,3.390086011581852e-05
4.391240895095829e-07,5.284288168760347e-07,1.1860456657986895e-06,3.3583510660059764e-05
4.3895647076992453e-07,5.29086481129797e-07,1.1966862602247691e-06,3.326229474701532e-05
4.3874905148695705e-07,5.295847524969404e-07,1.205770929881228e-06,3.2938452725942464e-05
4.3849761529355096e-07,5.299183309473591e-07,1.2132561845657824e-06,3.261286296534116e-05
4.381946009739421e-07,5.300820168129721e-07,1.219111048387645e-06,3.228606489982928e-05
4.3783091879122496e-07,5.300739806226159e-07,1.2233235819036208e-06,3.195834465859555e-05
4.3739962065581636e-07,5.298991004362455e-07,1.225906675891985e-06,3.16298620274937e-05
4.3689830201798297e-07,5.295688594693723e-07,1.2268969287345628e-06,3.130077756978445e-05
4.363278470576535e-07,5.290997288226604e-07,1.2263463819946242e-06,3.097132431241064e-05
4.356906551748232e-07,5.285114628896253e-07,1.2243122442567209e-06,3.064181785980265e-05
4.3499142832034685e-07,5.278254746365505e-07,1.2208500210067738e-06,3.0312659078698248e-05
4.342380516046282e-07,5.270655033877724e-07,1.216011335901226e-06,2.998435496410074e-05
4.334404427112008e-07,5.262583702323839e-07,1.20984468724398e-06,2.965752654412509e-05
4.326090995569893e-07,5.254306322034964e-07,1.2023969281925505e-06,2.93328800745674e-05
4.317540600637996e-07,5.246041934332516e-07,1.1937138849649008e-06,2.901115179902868e-05
4.308834839334652e-07,5.237960804671229e-07,1.1838404716583449e-06,2.8693034214260742e-05
4.300026271482518e-07,5.230215768617525e-07,1.1728212789754987e-06,2.8379089182466222e-05
4.291135062861593e-07,5.222955583735353e-07,1.1607011777919336e-06,2.8069690460947065e-05
4.282142553946868e-07,5.21629911231361e-07,1.1475254836096844e-06,2.776502555650348e-05
4.272988471153224e-07,5.210307988803046e-07,1.1333399995830716e-06,2.7465123033095734e-05
4.2635869521361397e-07,5.204987520127697e-07,1.1181914189375108e-06,2.7169879888908475e-05
4.25385983713456e-07,5.200305664460011e-07,1.1021281025760977e-06,2.6879108967740272e-05
4.243766204446518e-07,5.19621266248378e-07,1.0852002374842628e-06,2.6592607998600585e-05
4.233303818342655e-07,5.192648731542465e-07,1.0674590336280422e-06,2.631020081187199e-05
4.222485234202035e-07,5.189548920788218e-07,1.0489560687747617e-06,2.603173271465337e-05
4.211322401223536e-07,5.186857985061451e-07,1.0297436679822831e-06,2.575706390864419e-05
4.1998398645361117e-07,5.184531637736021e-07,1.009876548449077e-06,2.548608956263432e-05
4.188089048509369e-07,5.182517786211215e-07,9.894142554258532e-07,2.521879030602305e-05
4.176133680005749e-07,5.180756183063153e-07,9.68421908353619e-07,2.495528606493369e-05
4.164020377737968e-07,5.179196193702354e-07,9.469674281813338e-07,2.4695849878895222e-05
4.151759613996056e-07,5.17779262747992e-07,9.251185998378513e-07,2.4440871981974812e-05
4.1393211379670383e-07,5.176482936385585e-07,9.029448816180781e-07,2.4190769437862946e-05
4.126639909877161e-07,5.175181379188323e-07,8.805231131285591e-07,2.3945868539989165e-05
4.113631600777951e-07,5.173800090573087e-07,8.579421299838899e-07,2.370636128862809e-05
4.1002069720006463e-07,5.172279893568866e-07,8.353042396481184e-07,2.347238681103745e-05
4.0862713886588003e-07,5.17061211498144e-07,8.127240942194923e-07,2.324415097703512e-05
4.071720632973726e-07,5.168832983425132e-07,7.903253492572414e-07,2.3021983562686146e-05
4.05645148672281e-07,5.166982246807554e-07,7.682369564664531e-07,2.280631710190239e-05
4.040379421290767e-07,5.165058787195013e-07,7.465900223264523e-07,2.2597615597226024e-05
4.023442446722589e-07,5.163012461189048e-07,7.255134116840081e-07,2.23962830037588e-05
4.005589499671209e-07,5.160765776467769e-07,7.051275567050077e-07,2.2202592777143203e-05
3.986774259961568e-07,5.158244044834499e-07,6.855385313454636e-07,2.201669659025144e-05
3.966968095426278e-07,5.155399487676592e-07,6.668347746250821e-07,2.1838699693246515e-05
3.946177460220325e-07,5.152206361217732e-07,6.490871296996786e-07,2.166870771941601e-05
3.924441873615689e-07,5.14863059578255e-07,6.323507299057688e-07,2.1506805256182407e-05
3.9018178856355e-07,5.144614283898947e-07,6.166670764246727e-07,2.1353009739580155e-05
3.878369694886732e-07,5.14008511847896e-07,6.020657303091062e-07,2.1207249264832847e-05
3.854162018228021e-07,5.134964552885925e-07,5.885661376821768e-07,2.1069363009630372e-05
3.8292485535450004e-07,5.129172801332346e-07,5.761820722629405e-07,2.0939095081724948e-05
3.8036693486322176e-07,5.122648419223957e-07,5.649303946370385e-07,2.0816088896517936e-05
3.7774597540251436e-07,5.115374081019161e-07,5.548412053461283e-07,2.069989541227373e-05
3.7506560202440007e-07,5.107383542234515e-07,5.459646455084737e-07,2.058997348512586e-05
3.723294776906721e-07,5.098756853426497e-07,5.383710121055415e-07,2.048567323629992e-05
3.695416192952995e-07,5.08962779735815e-07,5.321435639944908e-07,2.0386224737345803e-05
3.6670643675480045e-07,5.080184193276775e-07,5.273671599186015e-07,2.0290737814891266e-05
3.638278993656277e-07,5.070632046581564e-07,5.241167295942346e-07,2.019820607664528e-05
3.609094462621567e-07,5.06115509762719e-07,5.224477735601115e-07,2.0107532115418235e-05
3.5795450280888107e-07,5.051923950362895e-07,5.223899941209775e-07,2.001758585926197e-05
3.5496605647928035e-07,5.043154332541546e-07,5.239449445841029e-07,1.9927265134979446e-05
3.5194626600680155e-07,5.035166212345718e-07,5.270880463830275e-07,1.9835520938761386e-05
3.488968040541796e-07,5.028404282962304e-07,5.317741082282172e-07,1.9741354529519104e-05
3.458191056897561e-07,5.023414689626939e-07,5.379436425385839e-07,1.96438188643721e-05
3.4271518466767127e-07,5.020786002716627e-07,5.45526113699698e-07,1.9542036703964795e-05
3.395891018426302e-07,5.021061627525888e-07,5.544395032952821e-07,1.943522415112762e-05
3.364467615769655e-07,5.024662921294952e-07,5.645904221164697e-07,1.9322717575341973e-05
3.332940055931349e-07,5.031881078179013e-07,5.758776339629777e-07,1.920401475649682e-05
3.301359664300848e-07,5.042942418877189e-07,5.881970913203818e-07,1.9078824264917245e-05
3.2697819268552387e-07,5.058087447419604e-07,6.014455357071973e-07,1.894710027608376e-05
3.238270584108625e-07,5.077592723109382e-07,6.155219930871872e-07,1.880903523867597e-05
3.2068923724993484e-07,5.101721042541558e-07,6.303292827366836e-07,1.866500121422184e-05
3.1757254113312267e-07,5.130658434852688e-07,6.457768756118206e-07,1.851546632183928e-05
3.144866360148029e-07,5.164493390509498e-07,6.617827342931883e-07,1.836091459226868e-05
3.114413903077208e-07,5.203241502483615e-07,6.782719991110653e-07,1.8201793598635734e-05
3.0844564672609053e-07,5.246884837042015e-07,6.951727067243729e-07,1.8038507508186974e-05
3.0550738459139854e-07,5.295384138532047e-07,7.124099973678143e-07,1.787142558744493e-05
3.02633044703378e-07,5.348656670196354e-07,7.29901909630526e-07,1.7700875751005422e-05
2.998266279423008e-07,5.406559735353043e-07,7.475590714942699e-07,1.7527139968436757e-05
2.970895889983778e-07,5.468900041389415e-07,7.652873840196061e-07,1.735047108974024e-05
2.9442119973787287e-07,5.535443454441068e-07,7.829905369049863e-07,1.717115008004524e-05
2.918197625248643e-07,5.605904120873499e-07,8.00571170038296e-07,1.6989583760832858e-05
2.8928392020467173e-07,5.679928852195209e-07,8.179330491184974e-07,1.6806379681448148e-05
2.868127122557518e-07,5.757096974469839e-07,8.349841380682904e-07,1.6622343753589868e-05
2.8440648922573053e-07,5.836928947347279e-07,8.516377907683084e-07,1.6438417857832046e-05
2.820710950220947e-07,5.918906638712707e-07,8.678128763967859e-07,1.6255586736103692e-05
2.798214193279197e-07,6.002513297003456e-07,8.834352080914697e-07,1.607476836441256e-05
2.7767912576616394e-07,6.087265059386179e-07,8.984387684361948e-07,1.589673398536675e-05
2.756672124926533e-07,6.172716505149869e-07,9.127640839525172e-07,1.5722114863731705e-05
2.738067122548729e-07,6.258459995389875e-07,9.263549764859209e-07,1.5551470947076578e-05
2.7211536140158164e-07,6.344129092780197e-07,9.391561487673063e-07,1.5385325988509118e-05
2.706067464558351e-07,6.429404933949679e-07,9.511130298537178e-07,1.52241265976596e-05
2.6929041581070844e-07,6.514020449679751e-07,9.621759648544406e-07,1.5068182236720105e-05
2.681722672522828e-07,6.597739407281971e-07,9.72307132421815e-07,1.4917658172972925e-05
2.6725405774395445e-07,6.680311161429944e-07,9.814832106300597e-07,1.4772619463769006e-05
2.665328744254772e-07,6.761442996854445e-07,9.896907716523277e-07,1.463307739991792e-05
2.660017252202484e-07,6.840808241049951e-07,9.96919595480152e-07,1.4499043953178028e-05
2.6565077398477395e-07,6.918067773874332e-07,1.0031601580691654e-06,1.4370670209106155e-05
2.6546836662340345e-07,6.992887384991033e-07,1.008406934601686e-06,1.4248463187268439e-05
2.6544171444748576e-07,7.064949481408325e-07,1.0126646662316508e-06,1.4133410767763413e-05
2.65557083417338e-07,7.133952306960505e-07,1.015953106193894e-06,1.4026909111371247e-05
2.657999985486343e-07,7.199593437664513e-07,1.0183082355419954e-06,1.3930603042105798e-05
2.6615625188707574e-07,7.261556941087725e-07,1.019780189540853e-06,1.3846243695056086e-05
2.6661256695543386e-07,7.319515815644408e-07,1.020428684962775e-06,1.3775543324686871e-05
2.671559002891707e-07,7.373138339020473e-07,1.0203185195951151e-06,1.3720075615087472e-05
2.6777289599080386e-07,7.422099255003045e-07,1.0195173017651205e-06,1.3681317360903107e-05
2.684510783860905e-07,7.4660974638546e-07,1.0180943914587278e-06,1.3660733386152564e-05
2.69181249152198e-07,7.504860056386464e-07,1.0161185477169418e-06,1.365973898717263e-05
2.699586004612709e-07,7.538135092772652e-07,1.0136532197525394e-06,1.367956785304416e-05
2.7078083206236174e-07,7.565696585015376e-07,1.0107516597154021e-06,1.372116257509554e-05
2.716452613131611e-07,7.587355397320268e-07,1.007454671727705e-06,1.3785124989779183e-05
2.725473999059713e-07,7.602963520141919e-07,1.003791174610556e-06,1.3871718652444845e-05
2.734806447298738e-07,7.612416413827777e-07,9.997805256441331e-07,1.398091591595438e-05
2.744362393302632e-07,7.615647795234644e-07,9.954353033192902e-07,1.4112456887628303e-05
2.754036925324645e-07,7.612619286680436e-07,9.907632928107521e-07,1.426588938676618e-05
2.7637180793520645e-07,7.60333596149474e-07,9.857692534455771e-07,1.4440595220670487e-05
2.773296173361159e-07,7.587896948393983e-07,9.804574753180263e-07,1.4635806613117966e-05
2.7826699527696037e-07,7.566541064381289e-07,9.7483395093772e-07,1.4850609924542724e-05
2.791761485135314e-07,7.53964768815793e-07,9.689061923920369e-07,1.5083946681620517e-05
2.800530312091477e-07,7.507695316659987e-07,9.626810012821642e-07,1.5334606776581914e-05
2.808960380618889e-07,7.47120821900802e-07,9.561628024883384e-07,1.560119359044249e-05
2.8170334876281147e-07,7.430710329412158e-07,9.493536080494513e-07,1.5882087435549105e-05
2.824721205860084e-07,7.386682853875074e-07,9.422531838496513e-07,1.6175466320657182e-05
2.831996436325585e-07,7.339534167719824e-07,9.348590166563588e-07,1.6479379212586946e-05
2.8388514618742214e-07,7.289612191491434e-07,9.27167107614804e-07,1.679181546006959e-05
2.8453091722658657e-07,7.237262268289693e-07,9.191744688192984e-07,1.7110738579013565e-05
2.8514238932843126e-07,7.182882268693013e-07,9.108827546756985e-07,1.7434083664666503e-05
2.85728072053851e-07,7.126928679320885e-07,9.022995907523315e-07,1.7759745596806033e-05
2.862984919235416e-07,7.069884518796131e-07,8.934358807103645e-07,1.8085585846826404e-05
2.868636261019732e-07,7.012221499382951e-07,8.843026511124564e-07,1.840944783647204e-05
2.874316728435728e-07,6.954360584416313e-07,8.749099636259832e-07,1.872918664778972e-05
2.88010299361218e-07,6.896637321028719e-07,8.652672064503748e-07,1.9042751644799883e-05
2.886072994516413e-07,6.839293116197064e-07,8.553848583396024e-07,1.9348286924922845e-05
2.892293811081032e-07,6.782489594089968e-07,8.452770103861632e-07,1.9644151003119395e-05
2.8988133672018307e-07,6.726330670949618e-07,8.349618275423564e-07,1.992885153390149e-05
2.905660460941062e-07,6.670886280511404e-07,8.244594887550031e-07,2.020098609907374e-05
2.912838242365808e-07,6.616207917088501e-07,8.13791246855261e-07,2.04592326122018e-05
2.9203184797253266e-07,6.562330867242835e-07,8.029819514765804e-07,2.0702353220451334e-05
2.9280510762817824e-07,6.509271950076256e-07,7.920635053205502e-07,2.092917076955769e-05
2.9359750461691197e-07,6.457027886832617e-07,7.810755649779741e-07,2.1138552752328287e-05
2.944014688615477e-07,6.405580792410971e-07,7.700625594004428e-07,2.132949310545846e-05
2.952072746272588e-07,6.354925403728638e-07,7.590691499282294e-07,2.150127571084366e-05
2.960035432043799e-07,6.305099232978e-07,7.48137380464691e-07,2.1653553032593134e-05
2.967795217507488e-07,6.25618168333509e-07,7.373062271874738e-07,2.1786247951947475e-05
2.9752895053065576e-07,6.208282288002864e-07,7.266111507237966e-07,2.1899398177276146e-05
2.98252649614282e-07,6.161545242491164e-07,7.160828252026037e-07,2.1993081417661256e-05
2.989571907208911e-07,6.116142051414856e-07,7.057468064659239e-07,2.206740289909714e-05
2.9965127281847054e-07,6.072232339355191e-07,6.956246780187811e-07,2.2122472377832087e-05
3.0034299196567484e-07,6.029934158659787e-07,6.857355768775428e-07,2.2158376561842326e-05
3.0103949772313376e-07,5.989338878757932e-07,6.760972025195435e-07,2.21751757569578e-05
3.017474539524352e-07,5.950536439430075e-07,6.667255259000073e-07,2.2172904997144414e-05
3.024718367749329e-07,5.913611111646529e-07,6.576331549114701e-07,2.215156774678548e-05
3.0321433854352605e-07,5.878631151179171e-07,6.488283764596547e-07,2.2111176578681465e-05
3.039734570325973e-07,5.845666115893919e-07,6.403156775167424e-07,2.2051942070477454e-05
3.047454574451193e-07,5.814810421314769e-07,6.320959968944351e-07,2.1974611696750344e-05
3.055251363378904e-07,5.786173492830032e-07,6.241676536899292e-07,2.1880718804113745e-05
3.0630632002313966e-07,5.759841657088538e-07,6.16530122572478e-07,2.1772470714493697e-05
3.070820990758597e-07,5.735847461231983e-07,6.09189085798353e-07,2.1652353753646444e-05
3.078447777528251e-07,5.714172380463397e-07,6.021594954535533e-07,2.152280744733536e-05
3.0858598867049433e-07,5.694786079806177e-07,5.954640449104264e-07,2.1386122174223885e-05
3.092974599035289e-07,5.677686356437e-07,5.891284373260205e-07,2.124442771386419e-05
3.099724435010601e-07,5.662889000809129e-07,5.831788657764721e-07,2.109967625731257e-05
3.106071705377728e-07,5.650376447990242e-07,5.776421444262847e-07,2.0953621348204128e-05
3.11200859627754e-07,5.640062879999893e-07,5.725441943315834e-07,2.080779607007661e-05
3.117542871783925e-07,5.631793967696493e-07,5.679065318129424e-07,2.066351470703337e-05
3.122685003664005e-07,5.625357976035718e-07,5.637431684092595e-07,2.052190546757055e-05
3.127443217816204e-07,5.620497246666571e-07,5.60059281544505e-07,2.0383941772983303e-05
3.1318298917737515e-07,5.61692168531076e-07,5.568522087339595e-07,2.0250461211238272e-05
3.1358702356928e-07,5.614321713027168e-07,5.541142292286403e-07,2.01221865616636e-05
3.13959275935038e-07,5.612381713461691e-07,5.518349402915032e-07,1.999976251882892e-05
3.14300855458393e-07,5.610796858244324e-07,5.500007333580229e-07,1.988382019689369e-05
3.1461014103378064e-07,5.60928399705271e-07,5.485933314384694e-07,1.9775052465848024e-05
3.148832932286172e-07,5.6075805519076e-07,5.475926525342071e-07,1.9674242072878325e-05
3.1511563872675097e-07,5.605444142117765e-07,5.469830254444432e-07,1.9582190028912666e-05
3.153028866731245e-07,5.602662209927079e-07,5.467567747013935e-07,1.949956546196629e-05
3.154410270829606e-07,5.599057871549854e-07,5.469145403512275e-07,1.942678673678949e-05
3.1552544650161944e-07,5.594478434925461e-07,5.474645824991325e-07,1.9364017414959126e-05
3.155509757985773e-07,5.588779989553501e-07,5.484207311966518e-07,1.9311234511582e-05
3.1551260254332554e-07,5.581825770526129e-07,5.498007329593719e-07,1.9268292131353e-05
3.154053025472213e-07,5.573489629956967e-07,5.51626830953384e-07,1.923497626158953e-05
3.152236169281095e-07,5.563649008975132e-07,5.539251077201317e-07,1.921108506715252e-05
3.149624691357839e-07,5.552182084154099e-07,5.567206177145275e-07,1.9196533871089898e-05
3.146184474403071e-07,5.538989654726686e-07,5.600305898822129e-07,1.9191417770969e-05
3.141898630541342e-07,5.524016944049041e-07,5.63859993120768e-07,1.919596440015564e-05
3.1367565598897354e-07,5.507244551298863e-07,5.682014107988832e-07,1.9210404530939624e-05
3.130743044187604e-07,5.488671404752221e-07,5.730384319948066e-07,1.9234837311824912e-05
3.1238312013168666e-07,5.468313024175873e-07,5.783517279072793e-07,1.926914034810352e-05
3.1159804028662075e-07,5.446196955754108e-07,5.841255469141749e-07,1.931297299477034e-05
3.1071430001793517e-07,5.422346369548053e-07,5.903512304504871e-07,1.9365863108606635e-05
3.097271879317594e-07,5.396768077946264e-07,5.970282763004241e-07,1.9427256486216115e-05
3.086319550962873e-07,5.369456272258994e-07,6.041642449653945e-07,1.949646361292525e-05
3.0742389390153107e-07,5.340401354606842e-07,6.117715988281722e-07,1.957259286409125e-05
3.06098994806027e-07,5.309588844883743e-07,6.19862163858955e-07,1.9654562270644478e-05
3.046540784881604e-07,5.276996206166955e-07,6.28442739978812e-07,1.9741165239570995e-05
3.03087043946088e-07,5.242595234001965e-07,6.375121198263207e-07,1.983111096518404e-05
3.013981509363696e-07,5.206354356568154e-07,6.470590888475374e-07,1.992302203565738e-05
2.995908114626628e-07,5.168248792319476e-07,6.570624116580405e-07,2.001543412498177e-05
2.976713245453144e-07,5.128286480772323e-07,6.674921813097355e-07,2.0106811726785184e-05
2.9564929143039253e-07,5.086540660791269e-07,6.783124924774232e-07,2.0195561417095432e-05
2.935392912921982e-07,5.043171813894472e-07,6.894844749684796e-07,2.0280046629140506e-05
2.9136210670654914e-07,4.998410059932731e-07,7.00965494223451e-07,2.035861572670958e-05
2.8914333857194533e-07,4.952500476452009e-07,7.127056815423398e-07,2.0429637833265016e-05
2.869099257682569e-07,4.905669161795092e-07,7.246474474728559e-07,2.049155139415069e-05
2.8468768114899764e-07,4.858129322129271e-07,7.367271396087247e-07,2.0542960727774788e-05
2.825013950649719e-07,4.81008151390519e-07,7.488754275634359e-07,2.0582782739137727e-05
2.803759669087934e-07,4.761693161767518e-07,7.610184908544966e-07,2.0610364526807567e-05
2.7833606179001195e-07,4.71308775482761e-07,7.730823217594651e-07,2.062548952409173e-05
2.76403886831204e-07,4.6643530241857223e-07,7.849976400781924e-07,2.0628270487911718e-05
2.745982127770123e-07,4.615555725834045e-07,7.967023905057759e-07,2.0618983095940407e-05
2.729373869524196e-07,4.5667715486725865e-07,8.081417175809101e-07,2.059791094203542e-05
2.7144346587720005e-07,4.5181284657875005e-07,8.192667363183141e-07,2.056529083490749e-05
2.701432302190214e-07,4.469814548564019e-07,8.300329892382908e-07,2.052140195184284e-05
2.690667794384577e-07,4.422032963522645e-07,8.403989428070704e-07,2.046670544001705e-05
2.682455369175729e-07,4.374964956916088e-07,8.503250128003312e-07,2.040188848536572e-05
2.677102309504439e-07,4.328785712895457e-07,8.597729018144139e-07,2.032779397436184e-05
2.6748932356723287e-07,4.283697951849662e-07,8.687043146429491e-07,2.0245312851234146e-05
2.676068583446309e-07,4.2399282017813567e-07,8.770797351769286e-07,2.0155279052516706e-05
2.68079758468492e-07,4.197687000690107e-07,8.848586293055931e-07,2.0058388273757926e-05
2.6891723136667237e-07,4.1571392805871676e-07,8.920003832884979e-07,1.9955189738270947e-05
2.70122950115453e-07,4.118409027026449e-07,8.98464888807408e-07,1.984617516888855e-05
2.716969466911196e-07,4.081597931440306e-07,9.04212769419418e-07,1.973190352870133e-05
2.7363519617305693e-07,4.046792310239257e-07,9.092054393222412e-07,1.961307445338216e-05
2.759285923115678e-07,4.014053672046418e-07,9.134055094172495e-07,1.949054016331842e-05
2.785631597116141e-07,3.983403724951238e-07,9.167783149921127e-07,1.936529284085843e-05
2.815215585144944e-07,3.954820909518845e-07,9.192958256742435e-07,1.923844432503711e-05
2.8478520157804197e-07,3.9282515318275535e-07,9.209426514327007e-07,1.9111200200989545e-05
2.8833560435468085e-07,3.9036188648433754e-07,9.217197294350364e-07,1.8984819206869207e-05
2.921543083501048e-07,3.880831976073983e-07,9.216417744287052e-07,1.886054983488041e-05
2.9622291250593507e-07,3.8598225481481133e-07,9.207303162010401e-07,1.8739563223257283e-05
3.0052389746168234e-07,3.840604280554394e-07,9.19007697438974e-07,1.8622898253681467e-05
3.050412651611764e-07,3.82330024566314e-07,9.164952470219038e-07,1.8511416095888626e-05
3.0976125792086145e-07,3.808121206714474e-07,9.132136055927449e-07,1.8405765229576043e-05
3.1467281782893355e-07,3.7953477564944173e-07,9.091823418833908e-07,1.830635576558036e-05
3.197672050252265e-07,3.785328500649622e-07,9.044204716541079e-07,1.8213352770683755e-05
3.250381148067422e-07,3.77844035237904e-07,8.989494017493255e-07,1.8126705280208102e-05
3.304813232052189e-07,3.7750154028873353e-07,8.927954895100076e-07,1.804619727426124e-05
3.3609175419046817e-07,3.7752990260055905e-07,8.859901785098291e-07,1.7971502325385445e-05
3.418597407944807e-07,3.779453654804206e-07,8.785696608207155e-07,1.790224024128908e-05
3.477693327339092e-07,3.787571203260097e-07,8.705752393265396e-07,1.7838006887961184e-05
3.5379892667452137e-07,3.7996742006049477e-07,8.620515754152167e-07,1.7778339429664502e-05
3.599226247145693e-07,3.8157112452265527e-07,8.530424591198015e-07,1.772266185368595e-05
3.661113091696037e-07,3.835555729572544e-07,8.435896995871035e-07,1.7670302063629997e-05
3.723342944046424e-07,3.859020377873305e-07,8.337373807711385e-07,1.7620584146440882e-05
3.785619353918483e-07,3.885890038112323e-07,8.235355646554811e-07,1.757291296454434e-05
3.847665070473453e-07,3.915951463342088e-07,8.130386637107781e-07,1.7526780012182948e-05
3.909198548400246e-07,3.949004517284119e-07,8.023017552709194e-07,1.7481697046156835e-05
3.969912622211985e-07,3.984864040789526e-07,7.913797474727372e-07,1.7437124185878858e-05
4.029480089117677e-07,4.0233593328061953e-07,7.803282129114698e-07,1.739248669786723e-05
4.0875693343206405e-07,4.064330196856533e-07,7.692018291400734e-07,1.7347392264261538e-05
4.143852261366203e-07,4.1076267643815143e-07,7.580504678462205e-07,1.730195863653412e-05
4.198006060728666e-07,4.153107645014282e-07,7.46916221399251e-07,1.725693211022818e-05
4.249718912627554e-07,4.2006177045185325e-07,7.358327110916948e-07,1.721353686634752e-05
4.298698540323906e-07,4.249961835797082e-07,7.248261138299219e-07,1.7173287213372856e-05
4.344677215107316e-07,4.300914890413536e-07,7.139175566070316e-07,1.713784266576375e-05
4.3874197541082976e-07,4.353260473459546e-07,7.031260472825337e-07,1.7108846428253408e-05
4.4267347584906454e-07,4.4068121584338103e-07,6.924718663127047e-07,1.708774658734063e-05
4.462470289484464e-07,4.461400929969865e-07,6.819807420958233e-07,1.7075673431082944e-05
4.494493440165147e-07,4.516854792590989e-07,6.716850981303574e-07,1.7073433986710573e-05
4.5226844242195616e-07,4.572994558975754e-07,6.616192063152721e-07,1.708156521155594e-05
4.546949521556728e-07,4.629636121781165e-07,6.518128739377582e-07,1.7100370503011638e-05
4.5672225826520005e-07,4.686580226340642e-07,6.422899468522896e-07,1.712997613382322e-05
4.5834533133567283e-07,4.743593850021792e-07,6.330723143899658e-07,1.7170457475481413e-05
4.595601347212656e-07,4.800400396943533e-07,6.241844352766805e-07,1.722197412775119e-05
4.6036328284479283e-07,4.85668440622016e-07,6.156519678237486e-07,1.7284832080731742e-05
4.6075157064068717e-07,4.912103039026369e-07,6.074955560243839e-07,1.7359660203073604e-05
4.607223086437667e-07,4.966301747673576e-07,5.997267792770769e-07,1.7447963260170373e-05
4.6027415794502976e-07,5.018929296425894e-07,5.923484795194237e-07,1.7552658912170815e-05
4.594074130736444e-07,5.06963869278201e-07,5.853579770829657e-07,1.767795230599084e-05
4.581241385749022e-07,5.118079094420389e-07,5.787518879551365e-07,1.7828708780003245e-05
4.564285947246029e-07,5.163897029004654e-07,5.725286479546714e-07,1.8009840819876113e-05
4.543271764423303e-07,5.206750322559685e-07,5.666866900763096e-07,1.822583123594049e-05
4.518283051426461e-07,5.24632466763406e-07,5.612232839262503e-07,1.848036076471817e-05
4.4894326469063777e-07,5.282342519890821e-07,5.56137983465837e-07,1.87760712318904e-05
4.4568677913453655e-07,5.314562537393379e-07,5.514375187251849e-07,1.9114574805930688e-05
4.4207671074348823e-07,5.342776385930624e-07,5.471370552355039e-07,1.9496742004979528e-05
4.381336992187685e-07,5.366814012459253e-07,5.432557563608357e-07,1.9923070750214544e-05
4.338799102002475e-07,5.386566664755768e-07,5.39810221043065e-07,2.039396118415938e-05
4.2933673275629466e-07,5.402017659506986e-07,5.368128045554147e-07,2.090986541445141e-05
4.245235361013558e-07,5.413252308263244e-07,5.342771540420073e-07,2.147131606498681e-05
4.1945817513348585e-07,5.420434170167985e-07,5.322255641710608e-07,2.207886412759676e-05
4.14157876104938e-07,5.423766555621624e-07,5.306908342923608e-07,2.273298679196655e-05
4.086394490146782e-07,5.423466132106417e-07,5.297110108240418e-07,2.3434032166899803e-05
4.0291940599459045e-07,5.419754004911477e-07,5.293213512356657e-07,2.4182178234012232e-05
3.9701489828451033e-07,5.412848237964371e-07,5.295480847013241e-07,2.4977303235513845e-05
3.9094453212662286e-07,5.40295363165347e-07,5.304061612279989e-07,2.581879885136876e-05
3.847282411286208e-07,5.390258464625701e-07,5.319011199143517e-07,2.670544021211401e-05
3.7838693208904273e-07,5.374932979608566e-07,5.34033381627781e-07,2.763528920571379e-05
3.719424474260353e-07,5.357132340636246e-07,5.368016271959911e-07,2.8605591240526208e-05
3.654178031311933e-07,5.33702157904248e-07,5.402026017196736e-07,2.9612744906277422e-05
3.588372977844287e-07,5.314805879194147e-07,5.442285382862504e-07,3.0652387838453055e-05
3.522271879374811e-07,5.290732465803466e-07,5.488650736872936e-07,3.171954423345048e-05
3.456168334730268e-07,5.265062449054513e-07,5.540906440694143e-07,3.280881695534668e-05
3.3903744740690716e-07,5.238040782338342e-07,5.598769190220639e-07,3.3914668945030066e-05
3.3251874333023767e-07,5.209905769062978e-07,5.661903256506134e-07,3.5031732462893605e-05
3.2608683391562e-07,5.180936983946702e-07,5.729945186530884e-07,3.6154956004061735e-05
3.1976396101761434e-07,5.151469274488975e-07,5.802516944273835e-07,3.727953575265872e-05
3.135690447623025e-07,5.121839387643322e-07,5.879215671186038e-07,3.8400773038853e-05
3.0751821767967293e-07,5.09232626480986e-07,5.959595854793435e-07,3.951399139922078e-05
3.01625298599315e-07,5.063132334332918e-07,6.043165119520847e-07,4.0614634474043855e-05
2.9590330312184136e-07,5.034395037918653e-07,6.129401665473727e-07,4.1698594392522655e-05
2.903661689473855e-07,5.006216022264731e-07,6.217780989678572e-07,4.276251957259563e-05
2.850285320346573e-07,4.978689312017119e-07,6.307799621074741e-07,4.3803802813707616e-05
2.7990385845897e-07,4.951901443333366e-07,6.398998409423053e-07,4.4820322064418376e-05
2.750026664775962e-07,4.925917533150849e-07,6.490981976522265e-07,4.581017541298778e-05
2.7033196252645695e-07,4.900780640210487e-07,6.583410134741689e-07,4.6771498282869044e-05
2.658960637218191e-07,4.876515420283905e-07,6.675949551912475e-07,4.770233086622381e-05
2.616980920625119e-07,4.85312129552705e-07,6.768230174203434e-07,4.860050791021667e-05
2.5774196110504124e-07,4.830562510051831e-07,6.859861567053217e-07,4.946360633094517e-05
2.5403553356393036e-07,4.808765395456059e-07,6.950484410248151e-07,5e-06
2.505945050220477e-07,4.787623427746318e-07,7.039782018751273e-07,5e-06
2.474445266614332e-07,4.767010258020544e-07,7.127441084538529e-07,5e-06
2.4462017429501345e-07,4.746797737137522e-07,7.213114784927805e-07,5e-06
2.421613450781905e-07,4.7268689544810064e-07,7.296414331150887e-07,5e-06
2.40107855680988e-07,4.707116622375808e-07,7.376924515157194e-07,5e-06
2.3849482325882557e-07,4.687427781367213e-07,7.454242543566917e-07,5e-06
2.373513311048109e-07,4.667677400914385e-07,7.528017092638285e-07,5e-06
2.3670156181545891e-07,4.6477482929630864e-07,7.59795356521375e-07,5e-06
2.36565736442547e-07,4.6275576006270206e-07,7.663790684568683e-07,5e-06
2.3695903416829056e-07,4.607064006171625e-07,7.725273260493233e-07,5e-06
2.3788970242698907e-07,4.586260883309594e-07,7.782133029709442e-07,5e-06
2.393586275138367e-07,4.5651706105834034e-07,7.834085036345338e-07,5e-06
2.413603998766416e-07,4.5438360853674745e-07,7.880842206556323e-07,5e-06
2.4388463119124204e-07,4.5223023035981034e-07,7.922139147508948e-07,5e-06
2.469173653128109e-07,4.500602529327729e-07,7.95774803381018e-07,5e-06
2.504453119003437e-07,4.478761555244585e-07,7.987475716751505e-07,5e-06
2.544658277414877e-07,4.4568037629026537e-07,8.011157155362381e-07,5e-06
2.589968481348742e-07,4.434753526095563e-07,8.02867313818453e-07,5e-06
2.6407672976320486e-07,4.412626842406122e-07,8.039988772407147e-07,5e-06
2.69755382075494e-07,4.390422292798271e-07,8.045167501473537e-07,5e-06
2.7608423325081765e-07,4.368119953570488e-07,8.044331816920534e-07,5e-06
2.831080998566621e-07,4.3456820975092877e-07,8.037604429942726e-07,5e-06
2.9086061115389423e-07,4.32305550692295e-07,8.025082343752807e-07,5e-06
2.9936224928543767e-07,4.300184507562934e-07,8.006851090305121e-07,5e-06
3.086188851610861e-07,4.277026862703169e-07,7.98300265490878e-07,5e-06
3.186229730710097e-07,4.2535613284064043e-07,7.953634496684817e-07,5e-06
3.2935807642417477e-07,4.229790596514746e-07,7.918848184375681e-07,5e-06
3.4080246468267433e-07,4.205737254590088e-07,7.878754107666912e-07,5e-06
3.529298304279932e-07,4.1814240992105994e-07,7.833469647230234e-07,5e-06
3.657099487599597e-07,4.1568591302313563e-07,7.783124638550091e-07,4.967993466521829e-05
3.791109266036494e-07,4.132053796844611e-07,7.727892235189835e-07,4.883588238857318e-05
3.931005442268064e-07,4.107059162420293e-07,7.668041318452569e-07,4.795511495365383e-05
4.076454379030873e-07,4.0819917547718293e-07,7.603974366598026e-07,4.704024418265083e-05
4.22710906461894e-07,4.0570497439380296e-07,7.536198231016887e-07,4.609393418468965e-05
4.38261374644296e-07,4.032515650408404e-07,7.465240199809696e-07,4.5118856958451396e-05
4.542588351792797e-07,4.0087264767785843e-07,7.391587355751538e-07,4.411774505593584e-05
4.7066085993933037e-07,3.98601339403241e-07,7.315689030385519e-07,4.3093475703748496e-05
4.874198425960678e-07,3.964650791444341e-07,7.237989537762136e-07,4.20490864304003e-05
5.044818073154621e-07,3.9448525334769884e-07,7.158948077515112e-07,4.098772868466344e-05
5.217853517751428e-07,3.926791331835017e-07,7.079032242575338e-07,3.991274759214334e-05
5.392628918556928e-07,3.910604322284038e-07,6.998692039314426e-07,3.882796220501994e-05
5.568439651524428e-07,3.896400713570754e-07,6.918337191952489e-07,3.7737856567184994e-05
5.744577431318571e-07,3.8842746092175866e-07,6.838335358621429e-07,3.664743000506018e-05
5.920324985092401e-07,3.8742953456762883e-07,6.759019519652532e-07,3.556182907912078e-05
6.094943552246785e-07,3.8664837213292325e-07,6.680686952253404e-07,3.448598859243229e-05
6.26768384119266e-07,3.860802258455371e-07,6.603586248219993e-07,3.342445317202611e-05
6.437804817698579e-07,3.857169344361465e-07,6.527902847549582e-07,3.238150448266441e-05
6.604576172255686e-07,3.8554927481726384e-07,6.453763917068166e-07,3.136146927074519e-05
6.76727541868364e-07,3.855696117383764e-07,6.381259169716026e-07,3.0368895067137928e-05
6.925197221855408e-07,3.857715444350949e-07,6.310449712362217e-07,2.9408487473148528e-05
7.077667057431842e-07,3.861482115603811e-07,6.241368139791417e-07,2.848494515275435e-05
7.22404388304654e-07,3.866911755275197e-07,6.174038050644624e-07,2.7602800301878967e-05
7.363710813629247e-07,3.8738954975833545e-07,6.108502706020744e-07,2.676626195739521e-05
7.496066067349177e-07,3.8822944310994633e-07,6.044826061264124e-07,2.597905428308321e-05
7.620526131239449e-07,3.891940564236835e-07,5.983070981721807e-07,2.524429134076712e-05
7.736536477188652e-07,3.902642250387011e-07,5.92329090084867e-07,2.456440223324241e-05
7.843583679431315e-07,3.914194878352775e-07,5.865540586121813e-07,2.3941098936894264e-05
7.94121234384075e-07,3.926401488229883e-07,5.809879187291149e-07,2.337541518614346e-05
8.02904000851376e-07,3.939106123427733e-07,5.75634986585531e-07,2.286780615355253e-05
8.106771115889567e-07,3.952219945197115e-07,5.704958027056622e-07,2.241826247588071e-05
8.174215506455273e-07,3.9657111017532e-07,5.655689294686903e-07,2.2026424146315708e-05
8.231283895879828e-07,3.9795689019145617e-07,5.608570948997439e-07,2.169167898785893e-05
8.27795868352196e-07,3.9937745528766827e-07,5.563731781112e-07,2.1413224789306093e-05
8.314282202596137e-07,4.008284250456753e-07,5.521421780901098e-07,2.119009319104862e-05
8.340358454901389e-07,4.023019755119403e-07,5.481984520143071e-07,2.102112672776832e-05
8.356339799983559e-07,4.0378776394011973e-07,5.445802180358829e-07,2.0904906446316927e-05
8.362408769135332e-07,4.0527575704958e-07,5.41325478049741e-07,2.083967506730601e-05
8.358765912189399e-07,4.067583453046778e-07,5.384715051349067e-07,2.082331188694556e-05
8.34562222805843e-07,4.0823031080127407e-07,5.360556065541685e-07,2.085337544652453e-05
8.323204090623384e-07,4.096876900645619e-07,5.341134736874283e-07,2.0927176193181828e-05
8.291761812047011e-07,4.1112652184036175e-07,5.326748288338663e-07,2.1041805564721693e-05
8.251563721222444e-07,4.125425807938829e-07,5.317607585567959e-07,2.1194117571524948e-05
8.202891553678936e-07,4.1393254968358564e-07,5.313853533292628e-07,2.1380774529474718e-05
8.146051125903105e-07,4.15294228135529e-07,5.3155907358156e-07,2.1598430131742482e-05
8.081375213637074e-07,4.166246582405136e-07,5.322911364353436e-07,2.184396251059992e-05
8.009208160474036e-07,4.179187734576004e-07,5.335900394401235e-07,2.2114609414960887e-05
7.929889607426324e-07,4.1916961305240004e-07,5.35463254349388e-07,2.240795335904081e-05
7.843748549699045e-07,4.203693550819934e-07,5.37919359699777e-07,2.272181748831837e-05
7.751107710629518e-07,4.215111339021296e-07,5.409728235176096e-07,2.305417053861947e-05
7.652289809144147e-07,4.225900409076797e-07,5.4464741467874e-07,2.3403090158592404e-05
7.547622282197594e-07,4.2360185998288287e-07,5.489762244748773e-07,2.3766733287820638e-05
7.437446593303582e-07,4.245414623817307e-07,5.5399907686788e-07,2.414325089384887e-05
7.322121776181017e-07,4.254025798297504e-07,5.597578325589465e-07,2.453068067822807e-05
7.202012847605031e-07,4.2617775945374e-07,5.662902361593989e-07,2.4926917984205342e-05
7.077478416081103e-07,4.2685787943002273e-07,5.736235295638078e-07,2.532982891306916e-05
6.948869248015878e-07,4.274323480592761e-07,5.81769723066266e-07,2.57374234716464e-05
6.816537650059249e-07,4.278895798425086e-07,5.907251450008207e-07,2.614793952291787e-05
6.680853561562663e-07,4.282167908965583e-07,6.004747325597271e-07,2.655982058413143e-05
6.542227967664737e-07,4.284003854221828e-07,6.109977744449785e-07,2.6971642027213064e-05
6.4011382550694e-07,4.284277782195321e-07,6.222716353608935e-07,2.738198127145546e-05
6.258123436037552e-07,4.282891846327096e-07,6.342736751106863e-07,2.7789261427004997e-05
6.113736969723782e-07,4.279785099844868e-07,6.469831535842799e-07,2.819167848377298e-05
5.968497813830326e-07,4.2749349070955366e-07,6.60381570551644e-07,2.858724719737889e-05
5.822875555771845e-07,4.2683469107241797e-07,6.744485778683614e-07,2.8973868624696197e-05
5.677302891269971e-07,4.2600444803794344e-07,6.891554730685835e-07,2.9349384181620635e-05
5.532193918532045e-07,4.2500721669336717e-07,7.044606548316194e-07,2.971174382358449e-05
5.387955346483228e-07,4.2384939767753367e-07,7.203079241606856e-07,3.0059326995514912e-05
5.24498263606503e-07,4.225372431251744e-07,7.366271686534723e-07,3.039117578593612e-05
5.103642042358966e-07,4.210752375200957e-07,7.533374363940494e-07,3.070692923379866e-05
4.964260629215272e-07,4.19466413235685e-07,7.703504617958243e-07,3.100656104490588e-05
4.827139704377211e-07,4.1771307652651466e-07,7.875724773410344e-07,3.129015272744188e-05
4.692569403638506e-07,4.158169197687755e-07,8.049055726717722e-07,3.155786469257421e-05
4.5608253795678103e-07,4.1377898190574975e-07,8.222509763081461e-07,3.1810084581012796e-05
4.432162966612952e-07,4.1159977539720825e-07,8.395123463575074e-07,3.2047548513307745e-05
4.306828477611964e-07,4.092795862382936e-07,8.565955268401594e-07,3.2271320821326987e-05
4.1850816413772276e-07,4.068186713630704e-07,8.734066996446528e-07,3.248270219126965e-05
4.067197026634628e-07,4.0421679421089026e-07,8.898533980361419e-07,3.2683152717576614e-05
3.953435816215577e-07,4.01472495598687e-07,9.058489422847514e-07,3.287423822864976e-05
3.8440227055300796e-07,3.985831605310743e-07,9.213172727259613e-07,3.305755428106427e-05
3.7391506104111967e-07,3.9554601108478175e-07,9.361950266427312e-07,3.323461971961917e-05
3.6389954102235495e-07,3.923593309092208e-07,9.504304413609323e-07,3.340677522528502e-05
3.543715497600121e-07,3.8902313238796576e-07,9.63980248302952e-07,3.3575098254251126e-05
3.453440951140985e-07,3.85539192650764e-07,9.768056056083395e-07,3.3740326465965364e-05
3.3682669678427613e-07,3.819109213927038e-07,9.888681623052415e-07,3.390280011960885e-05
3.2882477152575933e-07,3.781429291122115e-07,1.0001273830304657e-06,3.4062470126216656e-05
3.213392182958104e-07,3.742403342945748e-07,1.0105408150738552e-06,3.421900114003229e-05
3.14367026796392e-07,3.702082698102113e-07,1.0200678338169985e-06,3.4371919396887656e-05
3.079025060667905e-07,3.660521035708782e-07,1.0286743491875968e-06,3.4520745335758866e-05
3.019386377461413e-07,3.6177955819861095e-07,1.03633477337292e-06,3.4665094680145534e-05
2.964678516644005e-07,3.574037845153696e-07,1.043030303809283e-06,3.4804724899892914e-05
2.914812929631617e-07,3.529431977907863e-07,1.048746210762478e-06,3.4939519665451084e-05
2.869674819134239e-07,3.4841754726145937e-07,1.0534705034253272e-06,3.5069459461357794e-05
2.829122514882604e-07,3.438448492098405e-07,1.0571955076611365e-06,3.5194601493718686e-05
2.7930041823723376e-07,3.3924116902323196e-07,1.0599242183064821e-06,3.531503135314031e-05
2.761177293307302e-07,3.346214820579496e-07,1.0616785347928074e-06,3.543077618430236e-05
2.733514402602566e-07,3.3000100198254037e-07,1.062501443174135e-06,3.554172231587686e-05
2.7098985491083456e-07,3.253970357412994e-07,1.0624498537995147e-06,3.56475743582855e-05
2.690218658442542e-07,3.208296385812477e-07,1.0615834551150744e-06,3.574784803077391e-05
2.6743625761997e-07,3.163196561764809e-07,1.0599569465314464e-06,3.584186239465336e-05
2.662206687541372e-07,3.118862917393961e-07,1.0576189511604031e-06,3.592874110566341e-05
2.653613446377113e-07,3.075474247982064e-07,1.0546154895044852e-06,3.600747027190944e-05
2.648436575555763e-07,3.0332107659730845e-07,1.050992832628986e-06,3.607700265326136e-05
2.646517690816967e-07,2.9922454169189575e-07,1.046797654396333e-06,3.613634317055391e-05
2.6476775917566736e-07,2.952724299950121e-07,1.042076464493838e-06,3.6184571071460266e-05
2.6517177600290704e-07,2.914758171167272e-07,1.0368744000893631e-06,3.62208234231177e-05
2.6584289842850537e-07,2.87842106362391e-07,1.0312321455122421e-06,3.624433193731417e-05
2.6675977586175885e-07,2.843757590779037e-07,1.0251839790197542e-06,3.625452729246888e-05
2.679008916371997e-07,2.8108034610968924e-07,1.0187603843648651e-06,3.625109580568256e-05
2.692450162971354e-07,2.7795998021556164e-07,1.0119918908780625e-06,3.623393105364207e-05
2.707722053667128e-07,2.750184799785369e-07,1.0049093112153934e-06,3.620301205340568e-05
2.72464917715374e-07,2.7225804328816926e-07,9.975421081642245e-07,3.615824765452752e-05
2.743095693357872e-07,2.6967895490914157e-07,9.899179015334377e-07,3.609939116869091e-05
2.762978824640593e-07,2.672802594300477e-07,9.820619858003842e-07,3.602610961668183e-05
2.784258415097968e-07,2.650621156358423e-07,9.739960751718515e-07,3.593810700691961e-05
2.806908772555744e-07,2.63028288872818e-07,9.657369529950027e-07,3.583514209294017e-05
2.8308919890144765e-07,2.6118531268526825e-07,9.57295516647437e-07,3.571695544301088e-05
2.85613916385286e-07,2.5953961249275716e-07,9.486774222642841e-07,3.558325761977075e-05
2.882548781487842e-07,2.58097159887476e-07,9.398852982445569e-07,3.5433814204638015e-05
2.9099978730415065e-07,2.56866718270954e-07,9.309216010915451e-07,3.5268506783174956e-05
2.9383527657319107e-07,2.5586278132089594e-07,9.217914899266792e-07,3.508730997882552e-05
2.9674759675115085e-07,2.551034969902516e-07,9.125037845186469e-07,3.4890242941762125e-05
2.997226544543815e-07,2.546060364713375e-07,9.030693438685543e-07,3.467741747632899e-05
3.0274581615790674e-07,2.543863256741807e-07,8.934984182514878e-07,3.4449278254968635e-05
3.058020132712771e-07,2.544625661822711e-07,8.837981730723095e-07,3.4206891663333613e-05
3.088764728289457e-07,2.5485797282777803e-07,8.739715535204581e-07,3.3952016163108506e-05
3.1195577948640754e-07,2.556021150190912e-07,8.640179236618116e-07,3.3686921003857044e-05
3.150274555348495e-07,2.567302960346753e-07,8.539339775166031e-07,3.341411141951023e-05
3.180788640770609e-07,2.582807199317539e-07,8.437141989017162e-07,3.313607903141597e-05
3.210977459665379e-07,2.60291622355281e-07,8.333523226033374e-07,3.285517050764777e-05
3.2407265067591963e-07,2.6279850968350857e-07,8.228436326544609e-07,3.257364694469461e-05
3.269922900023465e-07,2.6583071038239305e-07,8.121858094000522e-07,3.229381838898795e-05
3.298460482960552e-07,2.694084619425981e-07,8.013785526294471e-07,3.2018057428561666e-05
3.3262479281080237e-07,2.735417407023057e-07,7.904235348076279e-07,3.174870713106818e-05
3.353199686098947e-07,2.782312588901845e-07,7.793238987322642e-07,3.148800039584069e-05
3.379226657096896e-07,2.8347099725793747e-07,7.680830528815207e-07,3.12380150423956e-05
3.404243961662773e-07,2.8925033240006506e-07,7.567042183182099e-07,3.1000639148723965e-05
3.42818231096724e-07,2.9555443788499746e-07,7.451905829964292e-07,3.0777509623596226e-05
3.450986570814656e-07,3.023637534592607e-07,7.335451648560534e-07,3.056993669729077e-05
3.4726136690467913e-07,3.096540623757445e-07,7.217707694413716e-07,3.037889329756869e-05
3.4930451715229373e-07,3.173980381896822e-07,7.098704624353209e-07,3.02050909497353e-05
3.5122980850468695e-07,3.255684158413201e-07,6.97848272603711e-07,3.0049069732538933e-05
3.5304180248219406e-07,3.3414155868942647e-07,6.85709723593755e-07,2.9911224106615405e-05
3.547457415943436e-07,3.4309972418331344e-07,6.734621339786287e-07,2.9791740266959602e-05
3.5634489286858404e-07,3.524313175291665e-07,6.611148662444961e-07,2.9690484143423243e-05
3.578395300361814e-07,3.621286446561079e-07,6.486797329514671e-07,2.9606930563841174e-05
3.592277979014274e-07,3.721832236522274e-07,6.361718188305903e-07,2.9540212952576026e-05
3.6050691030087564e-07,3.8258106420053523e-07,6.23610424927995e-07,2.948926742133665e-05
3.616741257263217e-07,3.9330050672185274e-07,6.110187352197179e-07,2.9452965143621136e-05
3.6272698886425593e-07,4.0431199894967777e-07,5.9842128549583e-07,2.9430187450277808e-05
3.6366293859828905e-07,4.1557857399190563e-07,5.858411126989875e-07,2.9419876774153345e-05
3.644789701392601e-07,4.270574399601615e-07,5.732996316862821e-07,2.9421081773398384e-05
3.651715600463986e-07,4.38702605369829e-07,5.608192978845447e-07,2.9432988725986743e-05
3.6573723738418654e-07,4.5046699887718536e-07,5.484252684343092e-07,2.9454931984148204e-05
3.6617335703435725e-07,4.623022266096755e-07,5.361432544036464e-07,2.9486365660359253e-05
3.6647774100318897e-07,4.741564660144197e-07,5.239965679199207e-07,2.9526786743393328e-05
3.666475730897021e-07,4.859733970564434e-07,5.120066215533431e-07,2.9575629399042915e-05
3.666795500010533e-07,4.976941383418208e-07,5.001958036198261e-07,2.9632167754280644e-05
3.665718121562244e-07,5.092615463407035e-07,4.885893746566465e-07,2.9695475008200237e-05
3.6632554043962963e-07,5.206236115390978e-07,4.772149509249939e-07,2.976445208113996e-05
3.6594438704564156e-07,5.317341942571714e-07,4.660997043759683e-07,2.983787668093076e-05
3.6543277389051095e-07,5.42552968332996e-07,4.552674467010643e-07,2.9914425613973968e-05
3.6479474905624976e-07,5.530452969686189e-07,4.4473802808866205e-07,2.999270335922528e-05
3.6403396928909437e-07,5.63181020450551e-07,4.345280144291444e-07,3.0071377437702e-05
3.631549132659189e-07,5.729321315145371e-07,4.246503994645629e-07,3.0149391743905627e-05
3.6216489971024797e-07,5.822705558477926e-07,4.1511424298147174e-07,3.0226043102542696e-05
3.6107601784283596e-07,5.911669861443312e-07,4.0592645707131255e-07,3.030085219648858e-05
3.599054376038972e-07,5.995905902258765e-07,3.9709518808077813e-07,3.037339278189065e-05
3.586727876165592e-07,6.075095980035154e-07,3.8863184991325006e-07,3.0443171810543487e-05
3.573959590633937e-07,6.148925888568576e-07,3.805499595401589e-07,3.050953863915946e-05
3.560886751182876e-07,6.217098199896743e-07,3.728623406074257e-07,3.0571643659898664e-05
3.5476115204199254e-07,6.27934536728039e-07,3.65579700973017e-07,3.062850405262172e-05
3.5342207848599745e-07,6.335434330999404e-07,3.587107465500919e-07,3.0679178885283175e-05
3.5207994401174456e-07,6.38515478567093e-07,3.5226242082189634e-07,3.072295501941305e-05
3.5074339189655144e-07,6.42831627853925e-07,3.4624045183557905e-07,3.0759436966604307e-05
3.4942107415924346e-07,6.464781061751133e-07,3.40649822278819e-07,3.0788545365136105e-05
3.4812105765313286e-07,6.494517358118163e-07,3.354945922005489e-07,3.0810493338457696e-05
3.4685047356620466e-07,6.517640360249938e-07,3.307789166775829e-07,3.0825759544623896e-05
3.4561693910962947e-07,6.534413077608372e-07,3.2650921945636537e-07,3.0834994530726026e-05
3.444299618881955e-07,6.545191965233133e-07,3.2269366739992645e-07,3.0838851425157955e-05
3.4329957019965603e-07,6.550346785432158e-07,3.193383567192831e-07,3.083792556996117e-05
3.4223494606150445e-07,6.550205796096253e-07,3.1644457428366505e-07,3.0832890592352556e-05
3.412457351468829e-07,6.545038463792005e-07,3.1400923206750716e-07,3.0824577327234984e-05
3.4034371173753875e-07,6.535062154425365e-07,3.120260735212713e-07,3.081382443562756e-05
3.3954292882286817e-07,6.520466605008277e-07,3.1048577010382626e-07,3.0801264140126715e-05
3.3885805135554497e-07,6.501436355741197e-07,3.093762544866189e-07,3.078720543795204e-05
3.383012349858789e-07,6.478151235421258e-07,3.086847210896464e-07,3.0771609406030244e-05
3.378798705900363e-07,6.450777077069629e-07,3.083992768119379e-07,3.075411236011573e-05
3.3759647071787245e-07,6.419460589211149e-07,3.085085512233089e-07,3.0734097103767885e-05
3.374491640190402e-07,6.384329991695617e-07,3.090025578739429e-07,3.071081082188226e-05
3.374315829771261e-07,6.3454987587623e-07,3.098761859862928e-07,3.068345337575228e-05
3.3753282661904557e-07,6.303065714087498e-07,3.111303894981327e-07,3.065116656538159e-05
3.377381094638429e-07,6.257122986031341e-07,3.127691700112673e-07,3.061298140190385e-05
3.3802983507215874e-07,6.207784742974788e-07,3.1479729433449264e-07,3.056782516400316e-05
3.3838892644205657e-07,6.155209935348627e-07,3.172222730487405e-07,3.0514614839723408e-05
3.387956383502909e-07,6.0995889395172e-07,3.20057015158818e-07,3.0452411607305188e-05
3.3922955148366737e-07,6.041114595882536e-07,3.2331744418795143e-07,3.03805728510224e-05
3.3967052346799414e-07,5.979974905203522e-07,3.270160847002454e-07,3.029882262618305e-05
3.4010055697388353e-07,5.916359544589665e-07,3.311576512976016e-07,3.020723018477141e-05
3.405036986534471e-07,5.850453331942771e-07,3.3573900090949425e-07,3.0106125599979357e-05
3.408645030957971e-07,5.782430795951883e-07,3.407514832987801e-07,2.9995964647192146e-05
3.411683801312674e-07,5.71247175061594e-07,3.4618349730236056e-07,2.987717622299541e-05
3.4140277835989556e-07,5.64077264184069e-07,3.5202120583800244e-07,2.9750049690953143e-05
3.4155680839800184e-07,5.567531084592826e-07,3.5824700865412566e-07,2.9614698866328027e-05
3.4162108150536015e-07,5.492927374901851e-07,3.648402196519893e-07,2.9471126423596546e-05
3.415890285985704e-07,5.417134074540037e-07,3.7178378461552743e-07,2.9319407821176062e-05
3.41457720433538e-07,5.340346938297531e-07,3.790730544205406e-07,2.915990216409536e-05
3.412274083760436e-07,5.262801183133396e-07,3.8671981571329997e-07,2.8993292932981056e-05
3.409009052428308e-07,5.184764685895007e-07,3.9474836808198037e-07,2.882041297824925e-05
3.404827651152424e-07,5.106536398814736e-07,4.0318577498154773e-07,2.864201369764917e-05
3.399782642127641e-07,5.028442792991697e-07,4.120546370581006e-07,2.845863621860451e-05
3.393938624369129e-07,4.950803877966621e-07,4.213728717084768e-07,2.8270699374265337e-05
3.3873936897453656e-07,4.873895719307644e-07,4.311547351077915e-07,2.8078839382372522e-05
3.380287468201977e-07,4.797951538980665e-07,4.414096023153351e-07,2.788425612775885e-05
3.372777359426356e-07,4.7231879281481763e-07,4.521406718513097e-07,2.7688743873679945e-05
3.365007767356524e-07,4.6498156786119507e-07,4.6334339081123276e-07,2.74944647473091e-05
3.357096731689728e-07,4.578032541578761e-07,4.750033484086442e-07,2.7303738734078588e-05
3.349140217099092e-07,4.5080239293310603e-07,4.870957917470357e-07,2.711892976485105e-05
3.341222079966788e-07,4.439972770460042e-07,4.995879937247968e-07,2.6942359947785794e-05
3.3334187986191545e-07,4.3740589945647574e-07,5.124446120319954e-07,2.6776214031054435e-05
3.3258062079464857e-07,4.310440841285943e-07,5.256336425452831e-07,2.6622453521418743e-05
3.318470259488228e-07,4.2492399697832757e-07,5.391277939617745e-07,2.648275791322454e-05
3.311506527352713e-07,4.190569606402326e-07,5.529004902082419e-07,2.635846634147943e-05
3.30501160201814e-07,4.134591155984107e-07,5.669208171711692e-07,2.625049876922576e-05
3.2990845303006265e-07,4.0815248682826744e-07,5.811503650840084e-07,2.6159285296837795e-05
3.293834467082557e-07,4.031598881225587e-07,5.955436890301832e-07,2.608475558759504e-05
3.2893809583926677e-07,3.985008162311323e-07,6.100529022871306e-07,2.6026415168777898e-05
3.285847764196041e-07,3.941922753203368e-07,6.246319612798313e-07,2.5983478738149795e-05
3.2833491422477545e-07,3.902512213899753e-07,6.392355696871314e-07,2.595498872683845e-05
3.281968421096427e-07,3.866954562631557e-07,6.538157194440375e-07,2.593987345069121e-05
3.2817443810786616e-07,3.835427379003196e-07,6.683231094177214e-07,2.593697231515708e-05
3.282672613938829e-07,3.8080858846126115e-07,6.827122612198706e-07,2.594507411610768e-05
3.284708133127046e-07,3.785040503571945e-07,6.969431191113465e-07,2.596295779495653e-05
3.2877662044631186e-07,3.766350902769389e-07,7.109788483374344e-07,2.598939239643953e-05
3.291735746123229e-07,3.7520357578618286e-07,7.247845563090478e-07,2.6023096789336397e-05
3.296498012793293e-07,3.742080681044822e-07,7.383267869726301e-07,2.6062717008041917e-05
3.301930701233554e-07,3.73642964881459e-07,7.51571122128497e-07,2.610686356629329e-05
3.3079048742057227e-07,3.7349664798119954e-07,7.644803475531504e-07,2.6154176405200486e-05
3.314287840905122e-07,3.737510993269021e-07,7.770168640797737e-07,2.62033401812296e-05
3.320946584253904e-07,3.743835856268181e-07,7.891465239768619e-07,2.6253024317993827e-05
3.3277455858716604e-07,3.753682365912871e-07,8.008395701903871e-07,2.630183309926971e-05
3.334542765408356e-07,3.7667602929393097e-07,8.120699632050248e-07,2.6348342810094465e-05
3.3411980932023047e-07,3.7827431432088243e-07,8.228153389127315e-07,2.639116790591397e-05
3.347604598015501e-07,3.8012817461336313e-07,8.330560028113918e-07,2.642897339659096e-05
3.353719562341662e-07,3.822034471630468e-07,8.427719880478626e-07,2.6460458124415188e-05
3.35956382940851e-07,3.8446798972696953e-07,8.519405488968463e-07,2.64843558622514e-05
3.3651915646924017e-07,3.868901336868893e-07,8.605355097284408e-07,2.649942555588523e-05
3.370661644119801e-07,3.894377769866682e-07,8.685281556024897e-07,2.6504412620836247e-05
3.376027013742832e-07,3.9207937870879846e-07,8.758904708106371e-07,2.649802872599189e-05
3.38133529723384e-07,3.947840769977281e-07,8.825993600426386e-07,2.6478985693347612e-05
3.38664523852145e-07,3.975203117070992e-07,8.88637126083193e-07,2.644609495455673e-05
3.3920494267943393e-07,4.002550672840223e-07,8.939890070939564e-07,2.639843719610317e-05
3.397663964614351e-07,4.0295464226086523e-07,8.986448509005444e-07,2.6335537989245293e-05
3.403592992848144e-07,4.055867092531789e-07,9.026054658537107e-07,2.625741958723164e-05
3.4099122040870236e-07,4.0812280761972e-07,9.058854743025179e-07,2.616446819451166e-05
3.4166732908903604e-07,4.105400331598978e-07,9.085083428547657e-07,2.6057203485419424e-05
3.4239099328705225e-07,4.128213000384121e-07,9.104980337073605e-07,2.593609890844574e-05
3.431649891199128e-07,4.149536896996804e-07,9.118734032850868e-07,2.58015273512823e-05
3.439944073473592e-07,4.169257594927707e-07,9.126470315045995e-07,2.565378958503722e-05
3.44889353918004e-07,4.1872572333822935e-07,9.128260691052687e-07,2.5493144523826224e-05
3.4586460597766923e-07,4.2034100464947745e-07,9.124129595445656e-07,2.531985241549973e-05
3.46936408070077e-07,4.217598483268065e-07,9.114063472589677e-07,2.513436079634963e-05
3.4811885523389137e-07,4.2297461437764354e-07,9.098027683053447e-07,2.493763913648729e-05
3.4942187038938853e-07,4.239828235519727e-07,9.075985163254324e-07,2.4731379004227217e-05
3.508504484742033e-07,4.2478422232785113e-07,9.047920939518422e-07,2.4517844725884164e-05
3.5240424034829686e-07,4.2537773582407275e-07,9.013887143129136e-07,2.4299527090541345e-05
3.540778288445633e-07,4.257616603322384e-07,8.974042251606104e-07,2.4078841072131563e-05
3.5586138759771707e-07,4.2593542456453707e-07,8.928634265438072e-07,2.385798813204795e-05
3.577410714641213e-07,4.259001763744412e-07,8.877945075661987e-07,2.3639085018361585e-05
3.5970005534266407e-07,4.25658925162389e-07,8.822261340398277e-07,2.3424479652547642e-05
3.6172081164864345e-07,4.252172167405445e-07,8.76188699012892e-07,2.321690819897085e-05
3.6378700871835705e-07,4.245828389248367e-07,8.697164753989462e-07,2.3019328827770945e-05
3.658840050764181e-07,4.2376510816284757e-07,8.628476898879207e-07,2.283462571017107e-05
3.679991917098864e-07,4.227758162448853e-07,8.556221618736835e-07,2.2665389598378306e-05
3.7012251893116006e-07,4.2162983270798187e-07,8.480796859521798e-07,2.2513831836319108e-05
3.7224646461839117e-07,4.203430401294578e-07,8.402601297750595e-07,2.238181236643012e-05
3.7436553271066274e-07,4.189297419931409e-07,8.32201533977636e-07,2.227092534827277e-05
3.7647497448973065e-07,4.174020756231449e-07,8.239365723096188e-07,2.2182587564988107e-05
3.78568749177787e-07,4.157712328125078e-07,8.154924250374398e-07,2.2118101751691566e-05
3.806383062650528e-07,4.140480657975777e-07,8.068941951971137e-07,2.2078669661217765e-05
3.8267338695460743e-07,4.1224173066191296e-07,7.981667163093052e-07,2.2065343424120928e-05
3.846639738155048e-07,4.1035878237928024e-07,7.893337997551309e-07,2.207894418299801e-05
3.8660115966480726e-07,4.0840405045660524e-07,7.80420361632674e-07,2.211998546820848e-05
3.8847603781827323e-07,4.063817890998556e-07,7.714590820304259e-07,2.2188604223436413e-05
3.902782851869517e-07,4.042972140693829e-07,7.624953557196256e-07,2.228448964558702e-05
3.919961494663322e-07,4.021581318779631e-07,7.535860034380108e-07,2.240686106859208e-05
3.9361738283581683e-07,3.999740038431056e-07,7.44793682303602e-07,2.255454752280466e-05
3.9512999631232593e-07,3.9775317883401645e-07,7.361813165243754e-07,2.2726110465421812e-05
3.9652248779792036e-07,3.95502336857036e-07,7.278108685213377e-07,2.2919940919586374e-05
3.977835071060471e-07,3.9322788036226077e-07,7.197466654821296e-07,2.313433832738408e-05
3.9890134409400357e-07,3.9093649891011857e-07,7.120583570192991e-07,2.336757549412521e-05
3.998640927850882e-07,3.8863605973618044e-07,7.048205182905645e-07,2.361793557490301e-05
4.006611376653938e-07,3.8633740520535357e-07,6.98109902340251e-07,2.3883726131553315e-05
4.012850667917793e-07,3.840540344601045e-07,6.920013026004718e-07,2.416326924813085e-05
4.0173183050157035e-07,3.817997472766649e-07,6.865616544301773e-07,2.445483878021589e-05
4.0199921331555813e-07,3.7958781254612717e-07,6.818437188768073e-07,2.4756549269016187e-05
4.020856085876278e-07,3.774317273728551e-07,6.778827051924095e-07,2.5066276464861885e-05
4.019893980381426e-07,3.753449586287511e-07,6.746962144480343e-07,2.538166201398692e-05
4.017087206335765e-07,3.733399054588414e-07,6.72286171705012e-07,2.570015930771034e-05
4.012419447389531e-07,3.714275602123008e-07,6.706443942205849e-07,2.601908042867676e-05
4.0058823265826843e-07,3.6961777268410813e-07,6.697616263333369e-07,2.633566101985748e-05
3.997476025329329e-07,3.679191145985992e-07,6.69633691484691e-07,2.66471353718897e-05
3.987205034165325e-07,3.663375993336761e-07,6.702597193635854e-07,2.695076915843709e-05
3.9750700139695065e-07,3.6487582887660507e-07,6.71635994093109e-07,2.7243854680264184e-05
3.961064209882132e-07,3.6353554167357776e-07,6.737538644718825e-07,2.7523731930881603e-05
3.9451792146175545e-07,3.623231260434245e-07,6.766045628025595e-07,2.7787840075146833e-05
3.927407548463778e-07,3.61252388232065e-07,6.801847142690268e-07,2.8033756260039788e-05
3.907740685142992e-07,3.603408275800666e-07,6.844966842876417e-07,2.825924370285484e-05
3.886179519537808e-07,3.596040107884221e-07,6.895457066976223e-07,2.846236779243158e-05
3.8627509541226347e-07,3.590529463095259e-07,6.953402711947154e-07,2.864161381554609e-05
3.83750947238275e-07,3.586937834362379e-07,7.018963014080827e-07,2.879585662342041e-05
3.81052618492736e-07,3.585287925932834e-07,7.092373967237445e-07,2.8924209265422478e-05
3.781880122878728e-07,3.585581755265736e-07,7.173894836106117e-07,2.9025942353802044e-05
3.751659130140318e-07,3.587829638257416e-07,7.263757948031451e-07,2.9100534154632973e-05
3.71996457499187e-07,3.592100465170371e-07,7.362126787673065e-07,2.9147727043226222e-05
3.6869124687483656e-07,3.5985640002491924e-07,7.469044196772851e-07,2.9167497239906195e-05
3.652633412061237e-07,3.6074875099636064e-07,7.584386386611131e-07,2.915998115017749e-05
3.617268985058656e-07,3.6192063990074774e-07,7.707837215870254e-07,2.9125497065325233e-05
3.580966394484595e-07,3.6341045456408906e-07,7.83890213008499e-07,2.9064719883717766e-05
3.543882084288361e-07,3.652596696837962e-07,7.976969988241873e-07,2.8978813902803785e-05
3.506184559066078e-07,3.6750920972293307e-07,8.121390013177974e-07,2.886932984785335e-05
3.468047697854765e-07,3.7019509424541934e-07,8.271531375952517e-07,2.873796483189809e-05
3.4296546488916676e-07,3.7334538449364993e-07,8.426811874523833e-07,2.8586363521427943e-05
3.391208610511216e-07,3.7697899503601657e-07,8.58668492248216e-07,2.8416052373656512e-05
3.35291931232012e-07,3.81106791973741e-07,8.750597203621807e-07,2.8228597765390746e-05
3.314979716817433e-07,3.8573410125685634e-07,8.917961237056558e-07,2.802590510786783e-05
3.2775708266808873e-07,3.9086215188440797e-07,9.08816507492466e-07,2.7810333407142548e-05
3.240880034456509e-07,3.9648712120531455e-07,9.260591797896351e-07,2.7584487290131208e-05
3.205098262291113e-07,4.025976953172683e-07,9.434626421664631e-07,2.73509059204056e-05
3.1704023914491405e-07,4.0917373547613675e-07,9.609658781299623e-07,2.7111856583746532e-05
3.136944809241873e-07,4.1618804696110274e-07,9.785087535517172e-07,2.686923755424614e-05
3.104856133698848e-07,4.2360981932844025e-07,9.960321459061079e-07,2.66245403068136e-05
3.0742547865542674e-07,4.314068230883229e-07,1.0134770711473378e-06,2.637886411556287e-05
3.045253367522718e-07,4.395459189033064e-07,1.030781431701846e-06,2.6132974178300955e-05
3.017961314774904e-07,4.47992693250254e-07,1.047876287940786e-06,2.588736945960065e-05
2.992484578684136e-07,4.5671056054051294e-07,1.0646863543287178e-06,2.5642336980745506e-05
2.968919717598372e-07,4.656600206735367e-07,1.0811345039532494e-06,2.539798376772693e-05
2.947342309959572e-07,4.747984454589083e-07,1.0971455630166974e-06,2.515426686685466e-05
2.9277927551469266e-07,4.840802655252583e-07,1.1126471536364417e-06,2.4911066265429168e-05
2.9102707925682237e-07,4.934571997957411e-07,1.1275694206963208e-06,2.4668284254928852e-05
2.8947413671984357e-07,5.028780535839539e-07,1.1418457465693592e-06,2.442591791458151e-05
2.881141208750348e-07,5.12289113374858e-07,1.1554132775259022e-06,2.418410621830033e-05
2.869387131351853e-07,5.216370281380684e-07,1.1682114894247605e-06,2.3943156009967034e-05
2.8593957364285467e-07,5.308740075826016e-07,1.1801802431880305e-06,2.370352925649267e-05
2.851113275532077e-07,5.399627097950344e-07,1.1912591427962505e-06,2.346581977273718e-05
2.844532999086024e-07,5.488770889766189e-07,1.2013881914707465e-06,2.3230753710754653e-05
2.8396762549222713e-07,5.575975510180826e-07,1.2105091248599584e-06,2.299919195500303e-05
2.836553909392356e-07,5.661047707859276e-07,1.218566253600912e-06,2.277209280890111e-05
2.835145090538232e-07,5.74378285357358e-07,1.2255077618341977e-06,2.255041423924773e-05
2.835403174030438e-07,5.823990117824628e-07,1.2312910360156613e-06,2.233497888011171e-05
2.83727181727122e-07,5.901498468710129e-07,1.235891275563542e-06,2.21263812601196e-05
2.840690252467474e-07,5.976135022252064e-07,1.2393061357580831e-06,2.192500876333282e-05
2.845587096802016e-07,6.047716175095286e-07,1.2415510562185057e-06,2.173113043240998e-05
2.851874915359018e-07,6.116055388974815e-07,1.2426497252692072e-06,2.1544934873768506e-05
2.859447216304582e-07,6.180962842983789e-07,1.2426294827194204e-06,2.1366503244116784e-05
2.8681784144256913e-07,6.2422352825945e-07,1.2415238601978714e-06,2.1195796551508692e-05
2.877929639874436e-07,6.299653707077816e-07,1.2393766304567234e-06,2.1032682715484922e-05
2.8885546056019445e-07,6.353001768199658e-07,1.2362444613089158e-06,2.0876971797817413e-05
2.899901466238596e-07,6.402088838209732e-07,1.2321968384509095e-06,2.072843357946415e-05
2.911811704341311e-07,6.446757506145584e-07,1.2273103413556977e-06,2.0586793825376136e-05
2.9241281113605084e-07,6.486881680353829e-07,1.2216590997423493e-06,2.0451715899705183e-05
2.936732385190164e-07,6.522357835517008e-07,1.215308153341007e-06,2.032277259573866e-05
2.949590548810577e-07,6.553085934198588e-07,1.208312848777053e-06,2.019944482357362e-05
2.962750883431793e-07,6.578952903368784e-07,1.2007215647959567e-06,2.008121662551791e-05
2.976292130067169e-07,6.599831515213529e-07,1.1925783585577334e-06,1.996776843485343e-05
2.990273939112997e-07,6.615593473852812e-07,1.1839239468700551e-06,1.985913309546308e-05
3.00471785863861e-07,6.626126496062535e-07,1.1747966194748834e-06,1.9755661931679214e-05
3.019607718622307e-07,6.631341255350933e-07,1.1652367911876902e-06,1.965782225461804e-05
3.034897152873672e-07,6.631166907724031e-07,1.1552930605716265e-06,1.9565995850643867e-05
3.050519983442193e-07,6.625548213952921e-07,1.1450222296294106e-06,1.9480403524990318e-05
3.0664008204076264e-07,6.614444478419522e-07,1.1344835101027472e-06,1.9401149840597574e-05
3.0824642150543945e-07,6.597825585445921e-07,1.1237358650203721e-06,1.932830478481105e-05
3.098637758472013e-07,6.575671580745504e-07,1.1128413956145606e-06,1.926192809509664e-05
3.1148564006500073e-07,6.547973550233273e-07,1.1018692433206656e-06,1.920204012573481e-05
3.1310837746063205e-07,6.514733912426232e-07,1.0908965663799195e-06,1.914869016501045e-05
3.1473392947148853e-07,6.475975599035914e-07,1.0800069278053266e-06,1.910213053009333e-05
3.163704653105392e-07,6.431752324822627e-07,1.069285455684222e-06,1.9062841493523705e-05
3.18030982662067e-07,6.382152196625639e-07,1.058810266301161e-06,1.9031324574662853e-05
3.19732272842136e-07,6.327304212946996e-07,1.0486438911910386e-06,1.900790282769078e-05
3.214949120450296e-07,6.267379404346464e-07,1.0388298484264078e-06,1.8992736030432847e-05
3.233416812862059e-07,6.20258250334417e-07,1.0293946089357198e-06,1.898607200555203e-05
