4.4698552942595385e-07,3.8541177255675066e-07,3.15061366846437e-07,3.2023775070853494e-05
4.4837439710290974e-07,3.846096857551053e-07,3.141216113893682e-07,3.178485055200101e-05
4.496082946249098e-07,3.8378780175287755e-07,3.1321923059170287e-07,3.152411803025839e-05
4.5068153369810344e-07,3.829470416323143e-07,3.1235422732443516e-07,3.124158943561228e-05
4.515925836060357e-07,3.8209111462053096e-07,3.115252556516996e-07,3.093742357703795e-05
4.523425482372832e-07,3.81226618951831e-07,3.107305315666039e-07,3.061191919150157e-05
4.5293434954316366e-07,3.8036120737896533e-07,3.099700352448436e-07,3.026548863419821e-05
4.533734436967315e-07,3.795012238037775e-07,3.092461955913633e-07,2.989862338665486e-05
4.5366814284258004e-07,3.7864998805665653e-07,3.085626776458589e-07,2.951188757477265e-05
4.53828601485566e-07,3.7780777806272655e-07,3.0792300980803214e-07,2.910592803552379e-05
4.5386567355927526e-07,3.7697309250270036e-07,3.073294023706282e-07,2.868147165093221e-05
4.537898089569872e-07,3.7614360658271704e-07,3.0678230088048877e-07,2.823934219260175e-05
4.536107417997062e-07,3.7531734307738e-07,3.062810449473888e-07,2.7780497168520045e-05
4.5333788250178576e-07,3.7449389452147706e-07,3.058240511743961e-07,2.7306038775614256e-05
4.529794579392929e-07,3.736739956597901e-07,3.0540834999013374e-07,2.681725446968128e-05
4.5254151707941675e-07,3.7285880738600136e-07,3.050298376521433e-07,2.631574219533393e-05
4.520291893890045e-07,3.7204999787130096e-07,3.046838972142859e-07,2.580351347099907e-05
4.5144813740494395e-07,3.712489504790213e-07,3.043655241602993e-07,2.5282940257975306e-05
4.5080374082619207e-07,3.704559515021996e-07,3.040693326897087e-07,2.4756546288359894e-05
4.500997931312035e-07,3.696705632452605e-07,3.037899548435657e-07,2.4226778925320072e-05
4.493385809655553e-07,3.688914867414208e-07,3.035224505697236e-07,2.3695927905853837e-05
4.4852146927537754e-07,3.6811579986254185e-07,3.0326235864939216e-07,2.3166214625898364e-05
4.476491661976347e-07,3.673385884169151e-07,3.0300636350332387e-07,2.2639904864969792e-05
4.4672224836867397e-07,3.6655288063435576e-07,3.027531249594768e-07,2.2119308631243584e-05
4.4574162978603e-07,3.657511019487187e-07,3.025023300239153e-07,2.160665646667683e-05
4.447079933251839e-07,3.6492787534223926e-07,3.022535501096245e-07,2.110395150658219e-05
4.4362133131255067e-07,3.640810480960997e-07,3.020066200550085e-07,2.0612908301497165e-05
4.4248199916101046e-07,3.6321145996020066e-07,3.0176162748919625e-07,2.0134962031808512e-05
4.4129231392555436e-07,3.623238334037135e-07,3.015181440327132e-07,1.9671267192614346e-05
4.4005715124319976e-07,3.614264871196971e-07,3.012756612242965e-07,1.92227331211784e-05
4.387829967303875e-07,3.605283631192275e-07,3.010349750584558e-07,1.8790217059588373e-05
4.374760550374136e-07,3.596362256983354e-07,3.007981731152737e-07,1.8374799342263784e-05
4.3614114290817385e-07,3.5875386075706617e-07,3.0056696685736453e-07,1.7977888881404545e-05
4.347824461144976e-07,3.5788320608949365e-07,3.003414902980757e-07,1.7601078290884727e-05
4.3340446844037286e-07,3.570264971475489e-07,3.0012054793411306e-07,1.7245894123812094e-05
4.320112572223886e-07,3.5618703923071385e-07,2.999025051440208e-07,1.691361339806954e-05
4.3060512343808296e-07,3.553678934860889e-07,2.9968583755076585e-07,1.660532274034954e-05
4.2918603489443117e-07,3.5457131509804204e-07,2.994695506970219e-07,1.632228147033686e-05
4.277510111534033e-07,3.5380116442224533e-07,2.9925425321953723e-07,1.606631968371124e-05
4.2629417468615496e-07,3.530659414663461e-07,2.990429644538897e-07,1.5839936495288807e-05
4.2480848777732745e-07,3.5237845538877006e-07,2.988408725118346e-07,1.564611314590708e-05
4.232876394296029e-07,3.517527013222564e-07,2.986552080211879e-07,1.548805699403679e-05
4.2172594451006827e-07,3.5120168192373467e-07,2.984956813057188e-07,1.5368957334028585e-05
4.201172263637355e-07,3.507382304424011e-07,2.9837491046888516e-07,1.5291727898168352e-05
4.184549340916963e-07,3.5037841104850375e-07,2.983079563573732e-07,1.5258747871414364e-05
4.1673290866416564e-07,3.501438879430129e-07,2.983108829287143e-07,1.527165356888327e-05
4.149461588867279e-07,3.50060462454428e-07,2.983996360945709e-07,1.5331228676219873e-05
4.1309278232064425e-07,3.5015458428825114e-07,2.9858851716541124e-07,1.543741137895646e-05
4.1117504187272e-07,3.5044985517088034e-07,2.988879599679549e-07,1.5589403301042735e-05
4.0919713972385814e-07,3.509647849497497e-07,2.993041363289822e-07,1.5785836704890382e-05
4.0716353953546403e-07,3.517127067679836e-07,2.998398147957524e-07,1.6024950883620552e-05
4.050818554686691e-07,3.527019683179004e-07,3.004941948075697e-07,1.630475227681984e-05
4.0296607878482476e-07,3.539351221910589e-07,3.0126283880532664e-07,1.6623159915921305e-05
4.008346899344154e-07,3.5540871491974826e-07,3.0213875340486513e-07,1.6978156858470832e-05
3.9870613479338543e-07,3.5711438666136367e-07,3.031145401102919e-07,1.7367945823275797e-05
3.965972448663901e-07,3.590408410675578e-07,3.0418614801733e-07,1.7791046223043862e-05
3.945270455804793e-07,3.6117565438147576e-07,3.053559395318123e-07,1.8246280956474538e-05
3.925231138396429e-07,3.635052469641365e-07,3.0663188322731324e-07,1.873270021932569e-05
3.906224377173929e-07,3.660141045451486e-07,3.080243448338443e-07,1.924952113431662e-05
3.888640275820599e-07,3.686846131094421e-07,3.0954293733347027e-07,1.979607732530035e-05
3.872809757157928e-07,3.7149652637530046e-07,3.1119397625119645e-07,2.037170497501573e-05
3.8589780155943863e-07,3.7442728360861857e-07,3.129793903567684e-07,2.0975543735305534e-05
3.847315005610552e-07,3.7745472941495057e-07,3.148971023345255e-07,2.1606334155534134e-05
3.8379473025926744e-07,3.805599400168299e-07,3.169417272937762e-07,2.226230809917269e-05
3.8309967875468924e-07,3.8372740664976365e-07,3.19105116971732e-07,2.2941212787272133e-05
3.826584480757662e-07,3.869426638263569e-07,3.213771338355849e-07,2.3640429736688472e-05
3.824799156781131e-07,3.9018958643076724e-07,3.237470134091241e-07,2.435709824154297e-05
3.825684302303269e-07,3.934497414453364e-07,3.2620444808037965e-07,2.508822791076552e-05
3.829256845110577e-07,3.96703809227319e-07,3.2873898908933604e-07,2.583083695644472e-05
3.8355184237163356e-07,3.999328115631597e-07,3.31338303266146e-07,2.658209100850158e-05
3.844440134017778e-07,4.0311809828867715e-07,3.339871468120529e-07,2.7339378379412092e-05
3.855952249842177e-07,4.062410360491336e-07,3.3666856242752017e-07,2.8100284143828826e-05
3.8699931297498797e-07,4.0928307501900134e-07,3.393678648965797e-07,2.8862514012279408e-05
3.8866204991461295e-07,4.1222629112404816e-07,3.420757248021533e-07,2.9623840660441962e-05
3.906096357372036e-07,4.15054359866551e-07,3.4478601037934014e-07,3.038204608417948e-05
3.928858409052338e-07,4.177529569706002e-07,3.474913976934845e-07,3.113483027983037e-05
3.955404262959432e-07,4.2030855590224254e-07,3.50181683642507e-07,3.187972330322953e-05
3.9861907704729953e-07,4.2270678040666753e-07,3.5284445916273324e-07,3.261402813428113e-05
4.021598577854592e-07,4.2493246630311776e-07,3.5546604657600077e-07,3.333480761649308e-05
4.061924444742765e-07,4.2697093832112706e-07,3.5803231466717684e-07,3.4038917554260587e-05
4.107363413162954e-07,4.288080266197794e-07,3.605293538700113e-07,3.47230584143787e-05
4.1579903136523826e-07,4.3042884770333965e-07,3.6294370115944477e-07,3.538382839571769e-05
4.2137590836296575e-07,4.3181795354927995e-07,3.6526295693089964e-07,3.6017796289048884e-05
4.2745194761489097e-07,4.329620017162234e-07,3.674781056071703e-07,3.6621597839578305e-05
4.340042931249178e-07,4.33852444155817e-07,3.695855863308213e-07,3.719200357993077e-05
4.4100517946512653e-07,4.344849090317188e-07,3.7158575459502313e-07,3.772596403205e-05
4.4842404062957776e-07,4.3485615807967213e-07,3.7347983972121947e-07,3.822076708672106e-05
4.562280073379776e-07,4.3496234192227366e-07,3.752693207270925e-07,3.867429731945069e-05
4.643831130425586e-07,4.347996622340642e-07,3.7695642882257283e-07,3.9085140567627e-05
4.7285926221056004e-07,4.34365936951305e-07,3.785431808373719e-07,3.9452442995971836e-05
4.816368628490518e-07,4.3366227635800703e-07,3.8002957978311966e-07,3.977569965520863e-05
4.907094707584566e-07,4.3269412065832794e-07,3.8141293169574044e-07,4.005458612497414e-05
5.000800053257673e-07,4.3147008236801434e-07,3.8268860417952007e-07,4.0288893507569925e-05
5.097537187565144e-07,4.3000008490774964e-07,3.8385144776688314e-07,4.047867849681516e-05
5.197339838274671e-07,4.2829598449891965e-07,3.848975347024809e-07,4.062455970780404e-05
5.300221520330118e-07,4.263728945984912e-07,3.858247854749325e-07,4.072789226382318e-05
5.40616648662689e-07,4.242477894100149e-07,3.8663114935030657e-07,4.079070087533678e-05
5.515096210065904e-07,4.219366353711165e-07,3.8731232730666634e-07,4.081546125408659e-05
5.626835457288811e-07,4.19452939206466e-07,3.8786154860421283e-07,4.0804826995535526e-05
5.741098671114101e-07,4.168099240649568e-07,3.882713399565793e-07,4.076135682381237e-05
5.857509277264915e-07,4.1402699566428523e-07,3.8853554217694665e-07,4.068730947451091e-05
5.975632865983197e-07,4.1113531529001716e-07,3.886497109243569e-07,4.058458253798308e-05
6.09499172630379e-07,4.0817650104268475e-07,3.886099155975251e-07,4.0454784390670224e-05
6.21506218349684e-07,4.0519688934415493e-07,3.8841192305825465e-07,4.029934780283083e-05
6.335268774489647e-07,4.0224247369534613e-07,3.880520604853875e-07,4.011965620955705e-05
6.454981103392928e-07,3.9935569516484314e-07,3.875289128438839e-07,3.9917190193837544e-05
6.573521943993401e-07,3.965746965450731e-07,3.868446714834626e-07,3.969363894010689e-05
6.690185135972675e-07,3.93934188457721e-07,3.8600557311575905e-07,3.945094580259042e-05
6.80425449683267e-07,3.9146473715750706e-07,3.850207495921158e-07,3.919133373960804e-05
6.915029844589746e-07,3.891903125929522e-07,3.8390018249346023e-07,3.8917326898119055e-05
7.021858329472001e-07,3.871273510953239e-07,3.826541288125794e-07,3.8631723533946084e-05
7.124149104535491e-07,3.8528639052357935e-07,3.8129419679181796e-07,3.833748509248232e-05
7.22136361455926e-07,3.8367405028338103e-07,3.798333080707441e-07,3.803755700116351e-05
7.312996893862823e-07,3.8229406459877007e-07,3.78283547207508e-07,3.77346839239148e-05
7.398571342429074e-07,3.811473585018229e-07,3.766539500027331e-07,3.7431277885670795e-05
7.477647554006371e-07,3.8023126109522686e-07,3.7495048782652175e-07,3.712933152202241e-05
7.549842200113906e-07,3.795396320318665e-07,3.731788234697922e-07,3.683034915533593e-05
7.61484501319632e-07,3.7906530346748037e-07,3.7134679734535204e-07,3.653533739853757e-05
7.672412174647791e-07,3.7880300497298004e-07,3.6946336084653615e-07,3.624491571768452e-05
7.722335657140327e-07,3.787505334727093e-07,3.6753643837934843e-07,3.59595321132479e-05
7.764436069377166e-07,3.7890812323149814e-07,3.655732997580875e-07,3.567971212936458e-05
7.79859058413478e-07,3.792762181092921e-07,3.6358226731933925e-07,3.5406245665314784e-05
7.824753709031719e-07,3.7985253620162173e-07,3.6157364665826633e-07,3.514020835582629e-05
7.84294267944178e-07,3.8063095751785076e-07,3.5955997267910954e-07,3.4882804648882385e-05
7.853202033645449e-07,3.8160200612669564e-07,3.5755575197522273e-07,3.463516324762855e-05
7.855582111841983e-07,3.827528218814765e-07,3.555758378140499e-07,3.4398214306966885e-05
7.850142907083708e-07,3.840675515288046e-07,3.536327366435444e-07,3.4172629028379356e-05
7.836969523271629e-07,3.8552928937751115e-07,3.517349712213184e-07,3.395873992140881e-05
7.816182206942018e-07,3.8712248524729365e-07,3.498874324969549e-07,3.375646374958927e-05
7.787931205569252e-07,3.8883408529804354e-07,3.4809285195714464e-07,3.356532650973914e-05
7.752379886272785e-07,3.906521759443165e-07,3.463534888260634e-07,3.3384635484453116e-05
7.709686358495184e-07,3.92563314940629e-07,3.44671942299652e-07,3.3213731964631866e-05
7.659998748295672e-07,3.94551003863978e-07,3.430505734306259e-07,3.3052180860361574e-05
7.603476577531923e-07,3.965961298740125e-07,3.4149109757916987e-07,3.2899809499108964e-05
7.54032834166834e-07,3.9867825556836466e-07,3.3999571408890637e-07,3.275663272767703e-05
7.470834808343804e-07,4.0077629630552905e-07,3.385680886780867e-07,3.262271588572831e-05
7.395338848388619e-07,4.0286841925229394e-07,3.372123382024835e-07,3.249799231240684e-05
7.314218021802475e-07,4.049317946464219e-07,3.359311950670714e-07,3.238209533013455e-05
7.227866070340793e-07,4.0694286703798386e-07,3.34724756607097e-07,3.227429822285744e-05
7.136690855698582e-07,4.0887898192600225e-07,3.3358990689418943e-07,3.2173598355478756e-05
7.041137397011808e-07,4.1072123729988725e-07,3.3252104914944246e-07,3.2078893675076114e-05
6.941724443764047e-07,4.124559035553776e-07,3.3151237227527746e-07,3.198912450636757e-05
6.839038742294009e-07,4.1407262466410717e-07,3.305597419341015e-07,3.190328763334282e-05
6.733679454254038e-07,4.155618737036486e-07,3.2966034166688706e-07,3.1820411871347775e-05
6.626213596650363e-07,4.1691422544121975e-07,3.288108661359272e-07,3.1739600579346037e-05
6.517160126907652e-07,4.1812162511258757e-07,3.280066325648109e-07,3.166006088268345e-05
6.40697582100772e-07,4.191791915265728e-07,3.2724298888206247e-07,3.1581068398382533e-05
6.296045300979117e-07,4.2008517287260144e-07,3.2651804425896824e-07,3.1502004693594205e-05
6.184693429585431e-07,4.2083975552274756e-07,3.258340457752764e-07,3.142254687215335e-05
6.073223079820805e-07,4.214456331810607e-07,3.251959272686945e-07,3.13428503480136e-05
5.96196264274996e-07,4.219096683288032e-07,3.2460875835691585e-07,3.1263562321438866e-05
5.851283930301011e-07,4.222425873901656e-07,3.240764235118724e-07,3.118570784896195e-05
5.741567177522241e-07,4.2245637523514965e-07,3.236012665873456e-07,3.1110552597882714e-05
5.633150458414135e-07,4.22561683603217e-07,3.231839102813293e-07,3.103948819045257e-05
5.526313444395793e-07,4.225670197726042e-07,3.228235386368727e-07,3.097394920587973e-05
5.421295850307032e-07,4.224798564642068e-07,3.225183946608973e-07,3.0915343230623805e-05
5.318324311422715e-07,4.2230943407378026e-07,3.222667316881152e-07,3.0864971586195064e-05
5.217634370428489e-07,4.22069819962955e-07,3.220684479554153e-07,3.0823934493446105e-05
5.119481952213299e-07,4.217795433008379e-07,3.219252173653228e-07,3.0793030915393965e-05
5.024136373684297e-07,4.2145738150196575e-07,3.218383363582378e-07,3.077268225612391e-05
4.931852219180502e-07,4.2111876761344797e-07,3.218067937785049e-07,3.076289382239988e-05
4.842835980143349e-07,4.2077566776704783e-07,3.218266797914308e-07,3.076324219965526e-05
4.757236477252657e-07,4.2043922021549175e-07,3.218912794880091e-07,3.0772913284269346e-05
4.6751710833687155e-07,4.201226285376345e-07,3.219915120000403e-07,3.0790836612725143e-05
4.5967645910242827e-07,4.1984159823401017e-07,3.221162547970756e-07,3.081588045219065e-05
4.522159004897067e-07,4.1961201509102564e-07,3.2225255524167446e-07,3.084700280145988e-05
4.451483322191637e-07,4.1944702378281436e-07,3.223864075770897e-07,3.0883295311491104e-05
4.384824017803956e-07,4.19355140136369e-07,3.225036829414063e-07,3.092395361938773e-05
4.322225583740077e-07,4.193396548831778e-07,3.225904763155027e-07,3.096826788741288e-05
4.263701194251646e-07,4.1939961051612245e-07,3.226335110754831e-07,3.101568467357554e-05
4.209238193609333e-07,4.195317238839861e-07,3.226207272989652e-07,3.1065894672966166e-05
4.158800052686723e-07,4.1973158371192985e-07,3.225414173266252e-07,3.1118883722282156e-05
4.112317949063875e-07,4.1999408869534004e-07,3.223864074363615e-07,3.117492104717871e-05
4.069683520056785e-07,4.203142970592057e-07,3.2214922158629825e-07,3.1234465566633395e-05
4.03076003202083e-07,4.206882950209015e-07,3.2182758782899014e-07,3.129799063667979e-05
3.9953938119873216e-07,4.211125903511747e-07,3.2142279939430254e-07,3.1365787927301125e-05
3.9634106824542e-07,4.215824987608291e-07,3.209368197132584e-07,3.1437862778009807e-05
3.93462026935693e-07,4.2209218069241143e-07,3.203704763123634e-07,3.1513970231371754e-05
3.9088365364661106e-07,4.226366954279308e-07,3.197240999249553e-07,3.1593696355489175e-05
3.885891280600745e-07,4.2321279032201773e-07,3.1899884818803484e-07,3.167647529217216e-05
3.86564794042373e-07,4.23816602653191e-07,3.181968234954183e-07,3.176153466460432e-05
3.848023572626038e-07,4.244407497263646e-07,3.173201651273741e-07,3.184784940217394e-05
3.832979582290746e-07,4.2507401040414575e-07,3.163709611630414e-07,3.193419920367458e-05
3.8204773934118594e-07,4.2570335060386576e-07,3.153521047429476e-07,3.201927940389983e-05
3.810448330686194e-07,4.2631559160768856e-07,3.142676727201782e-07,3.210171394951277e-05
3.8027936147925206e-07,4.2689731331530906e-07,3.131230612866284e-07,3.217999121573446e-05
3.797394735924843e-07,4.2743437315780784e-07,3.11925250514807e-07,3.225246741129495e-05
3.794127118930933e-07,4.2791284844423387e-07,3.106817947853857e-07,3.2317451383287846e-05
3.79288469616899e-07,4.28319958280201e-07,3.0939880126051996e-07,3.237331445505061e-05
3.7936057417797903e-07,4.2864282453287857e-07,3.08079938168512e-07,3.241863781978159e-05
3.796270772445534e-07,4.288675680622794e-07,3.06727167656018e-07,3.2452363861705686e-05
3.800878599323072e-07,4.2898152354787006e-07,3.053430109971849e-07,3.2473822629039377e-05
3.80743202620606e-07,4.289752128746359e-07,3.0393313675300286e-07,3.2482585114231655e-05
3.815923800443503e-07,4.2884152630468797e-07,3.025073777242677e-07,3.2478257831473636e-05
3.8263102771546173e-07,4.2857532161530534e-07,3.010788137881024e-07,3.246037842601586e-05
3.838497179055982e-07,4.281740183010772e-07,2.996620964636546e-07,3.2428462045780585e-05
3.852350000014461e-07,4.276374314298178e-07,2.982720001244492e-07,3.238210052104033e-05
3.8677224351745846e-07,4.269680679810028e-07,2.9692223151622855e-07,3.232099734559174e-05
3.884487219144913e-07,4.261722950942691e-07,2.956250886638572e-07,3.2244977025144794e-05
3.902543012118722e-07,4.2526173666528666e-07,2.9439237469215897e-07,3.215410135533564e-05
3.921800024922257e-07,4.2425466016513523e-07,2.9323576921950123e-07,3.204881264429301e-05
3.942168095263464e-07,4.2317555970304936e-07,2.921654458681417e-07,3.1929875272616055e-05
3.963546476660407e-07,4.2205155074035503e-07,2.9118819784278076e-07,3.179814286122097e-05
3.9858066787812535e-07,4.2090753172750905e-07,2.9030653669281804e-07,3.165436196991813e-05
4.0087844741261257e-07,4.1976355592561545e-07,2.8951948394281664e-07,3.149912916709411e-05
4.0322997339390007e-07,4.1863553099270137e-07,2.888247225006438e-07,3.133308049062553e-05
4.056180128676625e-07,4.175380109151561e-07,2.882203570034912e-07,3.1157260668985136e-05
4.080257703175614e-07,4.164868509273218e-07,2.877057652159631e-07,3.097335862552772e-05
4.1043547757519616e-07,4.154989140067379e-07,2.872823213265389e-07,3.0783605089157524e-05
4.128284866315749e-07,4.14589034419736e-07,2.8695304143152827e-07,3.0590484795311375e-05
4.151869085251418e-07,4.137676904957813e-07,2.867207816446265e-07,3.0396472035838543e-05
4.1749487277938477e-07,4.1304036541881533e-07,2.865868334308396e-07,3.020382622663056e-05
4.19737708944264e-07,4.124074282764697e-07,2.865511790023657e-07,3.001442321215904e-05
4.2190115275252343e-07,4.118649818582503e-07,2.866145774866541e-07,2.982965228992995e-05
4.239731429590172e-07,4.114071233029319e-07,2.8678159176862324e-07,2.965040468070282e-05
4.259458377730214e-07,4.1102837529964254e-07,2.8706199208936865e-07,2.9477120765964146e-05
4.278146296883621e-07,4.107245563106483e-07,2.874684950297888e-07,2.930985787212585e-05
4.2957533409282563e-07,4.1049161488533726e-07,2.880129151486569e-07,2.914835490563975e-05
4.312226843052964e-07,4.1032451161128715e-07,2.8870537411328165e-07,2.8992086756703807e-05
4.3275122686182136e-07,4.102179646635958e-07,2.8955676812177944e-07,2.8840336374975842e-05
4.341572363460384e-07,4.10167818719018e-07,2.9057948359055145e-07,2.8692309828773937e-05
4.3543993518317253e-07,4.101718145738613e-07,2.9178458524391647e-07,2.8547288703419342e-05
4.3660113563181047e-07,4.102298480063093e-07,2.9317932929134967e-07,2.8404787822463195e-05
4.3764354552654436e-07,4.1034352459991477e-07,2.9476672072833965e-07,2.8264658466030652e-05
4.3856943302502574e-07,4.1051480191527097e-07,2.965451382245406e-07,2.81270972176747e-05
4.393806007887581e-07,4.107444245218204e-07,2.985080227904887e-07,2.799259979360191e-05
4.400784112805415e-07,4.11031500610575e-07,3.006447871694378e-07,2.7861916281972524e-05
4.406632962342354e-07,4.1137348989637496e-07,3.029421387845807e-07,2.7735986233069293e-05
4.4113476588120576e-07,4.117652421679175e-07,3.053848562574665e-07,2.7615811251173134e-05
4.4149138404023095e-07,4.1219872411353177e-07,3.0795658954281585e-07,2.750229789819665e-05
4.4172988552251025e-07,4.126642547885304e-07,3.106416258049326e-07,2.739612532567612e-05
4.4184449956849146e-07,4.131509613467753e-07,3.134266395011858e-07,2.729766372040427e-05
4.418274642514732e-07,4.1364584325710527e-07,3.1630049351516044e-07,2.720700176483649e-05
4.416707826942294e-07,4.141332353886933e-07,3.192528576861611e-07,2.712410547837384e-05
4.413677412036278e-07,4.145951631599864e-07,3.222731203610463e-07,2.7048998577637987e-05
4.409124344085528e-07,4.150123855494377e-07,3.253495400388082e-07,2.698186262501709e-05
4.402987351158081e-07,4.153659315959333e-07,3.2846950811820826e-07,2.692307832924752e-05
4.395210046967082e-07,4.1563786331386135e-07,3.316208721166252e-07,2.687326751523442e-05
4.385755396661947e-07,4.1581112681848367e-07,3.3479218323777647e-07,2.6833329188060808e-05
4.3746051187628756e-07,4.158692421090897e-07,3.3797154628585647e-07,2.6804379878074177e-05
4.3617452839164313e-07,4.1579638962113697e-07,3.4114571629750177e-07,2.6787530945598888e-05
4.347157468956565e-07,4.1557988309920563e-07,3.443002525395466e-07,2.6783600949452355e-05
4.3308221639607314e-07,4.1521439625865203e-07,3.474202617535235e-07,2.6792973965139866e-05
4.312724105316144e-07,4.1470282663465024e-07,3.504906412737112e-07,2.681567370956864e-05
4.2928531232844146e-07,4.140520441946521e-07,3.5349570941621117e-07,2.6851513005577577e-05
4.271199792873993e-07,4.132679975800836e-07,3.564194855785573e-07,2.690017861011172e-05
4.2477485284999326e-07,4.1235429892174727e-07,3.592460801681608e-07,2.696122903817249e-05
4.2224802318923456e-07,4.113142267783865e-07,3.619589961570793e-07,2.7034037417573792e-05
4.1953905005675074e-07,4.101538480556862e-07,3.645404611793457e-07,2.711771194734408e-05
4.16651009930069e-07,4.088831607402306e-07,3.669719216032553e-07,2.7211034043276567e-05
4.1359193432110745e-07,4.075136177144453e-07,3.692353939917914e-07,2.7312456696025485e-05
4.1037589687351066e-07,4.060548517110497e-07,3.713142415087674e-07,2.742017223555173e-05
4.070225368552835e-07,4.0451408021187856e-07,3.73192373861636e-07,2.7532222907727063e-05
4.035542088293957e-07,4.0289687773387865e-07,3.748534369415898e-07,2.7646637516342853e-05
3.999928887424979e-07,4.0120706830184044e-07,3.762814950791701e-07,2.776164610325013e-05
3.96358865821081e-07,3.994470372971018e-07,3.774624025189017e-07,2.787600905131015e-05
3.926707689697666e-07,3.976190626662737e-07,3.7838535235045815e-07,2.7989255797428038e-05
3.889458705407957e-07,3.9572585539110757e-07,3.79044433155295e-07,2.810154432880413e-05
3.8520035977463107e-07,3.937697431888712e-07,3.794387465925596e-07,2.8213270285659786e-05
3.814494060488991e-07,3.917516168925725e-07,3.795709432999916e-07,2.832483517574353e-05
3.777073098876624e-07,3.8967112789552953e-07,3.794463207408105e-07,2.843666811573261e-05
3.7398800307418864e-07,3.875285433790461e-07,3.790731966171608e-07,2.854931883428703e-05
3.703052078639364e-07,3.853272552520345e-07,3.784626176697286e-07,2.866352080591147e-05
3.666723102598843e-07,3.830765849611044e-07,3.7762645607907527e-07,2.8780217424101197e-05
3.631024807572888e-07,3.8079500144122274e-07,3.7657579906184247e-07,2.890055195728735e-05
3.5960848615125255e-07,3.7851259651640477e-07,3.75321629109244e-07,2.9025814918984643e-05
3.562027705877867e-07,3.762703445855748e-07,3.738767591892737e-07,2.9157341728059447e-05
3.5289948398795426e-07,3.741146838501235e-07,3.7225596012744906e-07,2.929639540275518e-05
3.497172303398062e-07,3.720905897034586e-07,3.7047425692605576e-07,2.9444106366902284e-05
3.466792887681961e-07,3.702376504283089e-07,3.6854644471383704e-07,2.960148006106592e-05
3.4381015014180234e-07,3.685891375306665e-07,3.6648806370998747e-07,2.976940691215994e-05
3.411311275005265e-07,3.671729292846933e-07,3.64315207222453e-07,2.9948649300232672e-05
3.3865922588998253e-07,3.66014556960892e-07,3.6204266726110846e-07,3.0139834591414937e-05
3.3640910225074394e-07,3.651407440072345e-07,3.596829853541231e-07,3.0343446304138307e-05
3.343948321754514e-07,3.645810795501832e-07,3.572477443793922e-07,3.055977309495249e-05
3.326313351952249e-07,3.64367100851908e-07,3.547488998830317e-07,3.078881270682539e-05
3.3113627238665e-07,3.6452863181685063e-07,3.521983310476703e-07,3.1030164870808025e-05
3.29929489809067e-07,3.650890262113141e-07,3.496064802590325e-07,3.1282958130038724e-05
3.290287130112913e-07,3.660632069310049e-07,3.46981375242514e-07,3.154586711914103e-05
3.2844582111724766e-07,3.6745968531359204e-07,3.443282830181942e-07,3.181725576191938e-05
3.2818664372280665e-07,3.692828674362989e-07,3.4164991821754687e-07,3.2095408744203716e-05
3.282525540435874e-07,3.7153308751519023e-07,3.389476051746958e-07,3.237875931521388e-05
3.286413991688639e-07,3.7420631360327776e-07,3.3622347906861057e-07,3.266604591022882e-05
3.293477619232833e-07,3.7729415495536655e-07,3.334829270501706e-07,3.295638482749337e-05
3.3036549500365985e-07,3.8078262050424954e-07,3.307352072752462e-07,3.3249282899545545e-05
3.3169217996971745e-07,3.8465080137964465e-07,3.279911958996357e-07,3.354462352820943e-05
3.333293860068289e-07,3.888711722074393e-07,3.2526163564337784e-07,3.3842619331763173e-05
3.352781877914755e-07,3.9341157919848844e-07,3.2255856511226165e-07,3.414369221525906e-05
3.3753709429317196e-07,3.9823915810242927e-07,3.1989766581812784e-07,3.444827824758219e-05
3.401044647005806e-07,4.033250528158993e-07,3.173001574784917e-07,3.4756626390617744e-05
3.429819780671845e-07,4.086461928322789e-07,3.147949786838999e-07,3.506871697018338e-05
3.461775773509891e-07,4.141820579132511e-07,3.124187128663167e-07,3.5384363100690776e-05
3.497065856665501e-07,4.199099639148917e-07,3.1021066657552967e-07,3.5703369032627e-05
3.5358874036066024e-07,4.258035435790283e-07,3.082069448529436e-07,3.602555461256456e-05
3.578413158066756e-07,4.318344038853307e-07,3.06438442834574e-07,3.635060706558632e-05
3.624725445928221e-07,4.3797389686508046e-07,3.049312404784409e-07,3.667787119155915e-05
3.6748000443898273e-07,4.441939237530122e-07,3.037059551282601e-07,3.700620942442765e-05
3.728539557194812e-07,4.5046787241128843e-07,3.0277703721331065e-07,3.7333980604063095e-05
3.7858157625626457e-07,4.5677050348745174e-07,3.0215371899239765e-07,3.7659095337226476e-05
3.8464893646273436e-07,4.630755158618265e-07,3.0184086463701284e-07,3.797910561320141e-05
3.9104042581805637e-07,4.6935350000500686e-07,3.01838919043982e-07,3.829131707216839e-05
3.977364409753248e-07,4.7557305258215857e-07,3.021443634839292e-07,3.859290359222807e-05
4.0471107492097353e-07,4.81704026312518e-07,3.027498660826883e-07,3.8880997990832295e-05
4.119319175452968e-07,4.877196698329721e-07,3.036438967284882e-07,3.915276326823445e-05
4.193617398031386e-07,4.935963982509437e-07,3.0481217857215106e-07,3.9405507473858975e-05
4.269605967402749e-07,4.993128195317063e-07,3.062400960228418e-07,3.963688895479655e-05
4.346886165791111e-07,5.048503075601248e-07,3.0791325451909065e-07,3.984511624967993e-05
4.4250981429430744e-07,5.101961331578671e-07,3.0981679333494914e-07,4.002898843817909e-05
4.503944791083068e-07,5.153460780857815e-07,3.1193479281156914e-07,4.018775563256558e-05
4.5831772866139536e-07,5.203021209133926e-07,3.1425002748407323e-07,4.0320902703607854e-05
4.662555282132191e-07,5.250668474864183e-07,3.167442799005679e-07,4.042798028101433e-05
4.7418130307161684e-07,5.296399051864203e-07,3.1939818405030946e-07,4.050858004460282e-05
4.820648649516779e-07,5.340180721058773e-07,3.221900395132756e-07,4.0562418110579825e-05
4.898731018597742e-07,5.381969529644059e-07,3.250952637942244e-07,4.0589362570135774e-05
4.975716074538744e-07,5.421719732233786e-07,3.280870343225021e-07,4.058934270623623e-05
5.051284034559061e-07,5.459387896194707e-07,3.3113681777873e-07,4.0562232586134735e-05
5.125196545043909e-07,5.494944347013903e-07,3.342147071124039e-07,4.050780522929646e-05
5.197321132756115e-07,5.528374090738157e-07,3.372902534064531e-07,4.0425832133514255e-05
5.267590468253745e-07,5.559664322432853e-07,3.40333417583234e-07,4.031635406513182e-05
5.335954538603474e-07,5.588819733630291e-07,3.4331520150357897e-07,4.017995278768117e-05
5.402379525407545e-07,5.615906253351476e-07,3.462079421866015e-07,4.001778177010152e-05
5.466868994473985e-07,5.641066072566855e-07,3.489852826038153e-07,3.983138356375461e-05
5.529475114503817e-07,5.664482849895919e-07,3.516220928881465e-07,3.962249643982759e-05
5.59028759264206e-07,5.686343734255452e-07,3.5409441248165457e-07,3.9392904899087104e-05
5.649390870532327e-07,5.706828976106518e-07,3.563799046093325e-07,3.914429260325446e-05
5.706814344217255e-07,5.726116758847863e-07,3.584593428599196e-07,3.887812677826332e-05
5.762512499938817e-07,5.744398097212685e-07,3.6031732502101327e-07,3.859563036530867e-05
5.816375134650526e-07,5.761880557789127e-07,3.619418144093536e-07,3.829783076218529e-05
5.868257989663507e-07,5.778754537484459e-07,3.633257840632329e-07,3.798562033936085e-05
5.918030149982799e-07,5.795161082673337e-07,3.6446995046233383e-07,3.765978635000119e-05
5.96561483285034e-07,5.811198848091919e-07,3.6538165057771703e-07,3.7321005835623906e-05
6.010990556316728e-07,5.826936814793917e-07,3.6607087310792453e-07,3.696981348027458e-05
6.054153030409324e-07,5.842406203941202e-07,3.6654775486562634e-07,3.660657699646778e-05
6.095072513095264e-07,5.857590834603864e-07,3.6682155982226665e-07,3.6231528164476224e-05
6.133672352296896e-07,5.872431021009779e-07,3.668995966507487e-07,3.5844854809174126e-05
6.169833930263446e-07,5.88683490410254e-07,3.667870993359841e-07,3.544681603190983e-05
6.203421359618833e-07,5.900683861264663e-07,3.6648910256203926e-07,3.503783834335253e-05
6.234305875266303e-07,5.913827114451343e-07,3.660117462511404e-07,3.461858362421488e-05
6.262373554078086e-07,5.926077189952323e-07,3.6536124858061616e-07,3.419001438690969e-05
6.287524917243089e-07,5.937214624267431e-07,3.645431550509654e-07,3.3753438009815165e-05
6.309693604398806e-07,5.946995596808108e-07,3.6356288343112366e-07,3.3310454739828134e-05
6.328883368761381e-07,5.955157707401607e-07,3.624268795676181e-07,3.286279787313462e-05
6.345172398372168e-07,5.961430288759541e-07,3.611452288584528e-07,3.2412163943921434e-05
6.358663617941478e-07,5.965556440385447e-07,3.5973367528933454e-07,3.1960118111733304e-05
6.369431423979354e-07,5.967322827374446e-07,3.5821251886384904e-07,3.1508049579873495e-05
6.377504596149145e-07,5.966580469200569e-07,3.5660476948136384e-07,3.1057121220980686e-05
6.382885353987786e-07,5.963239355746697e-07,3.549356140247785e-07,3.0608223491342636e-05
6.385596148072537e-07,5.957247563724165e-07,3.532322208473684e-07,3.0161969794600787e-05
6.385718151563598e-07,5.948582223130732e-07,3.515225289170718e-07,2.9718736017228144e-05
6.383384097782543e-07,5.937249612716794e-07,3.498325661472669e-07,2.927871823796822e-05
6.378742638154215e-07,5.9232745301279e-07,3.4818379839266764e-07,2.8841993349763702e-05
6.371928407265027e-07,5.906680324788027e-07,3.465921957865641e-07,2.840860148204359e-05
6.363048775414845e-07,5.887479927477116e-07,3.4506916932836377e-07,2.797867558850413e-05
6.352184902534179e-07,5.865695541193872e-07,3.436232599694574e-07,2.755256498500179e-05
6.339391350968276e-07,5.841385367766121e-07,3.422609192985327e-07,2.713085308473753e-05
6.324692578205478e-07,5.814637042457685e-07,3.4098623258532896e-07,2.671427523435044e-05
6.308114004183461e-07,5.785546430160115e-07,3.398005861319643e-07,2.630360454090713e-05
6.289755860779637e-07,5.754222650606982e-07,3.387024980397913e-07,2.589954044579203e-05
6.269839068394585e-07,5.720799862930995e-07,3.3768763246368536e-07,2.55026646879534e-05
6.248665524264837e-07,5.685427863856888e-07,3.367491370571995e-07,2.5113513253047862e-05
6.226531584798046e-07,5.648256495952222e-07,3.3587827284796785e-07,2.4732693600967706e-05
6.203671448498715e-07,5.60942485766085e-07,3.350653637403399e-07,2.436095289998665e-05
6.180260104523048e-07,5.569053229245171e-07,3.343002333338014e-07,2.3999185772129347e-05
6.156443500796551e-07,5.527241307009893e-07,3.335720907815973e-07,2.364840636989356e-05
6.13234694878244e-07,5.484067024126e-07,3.328708042849124e-07,2.330969700470712e-05
6.108067929606796e-07,5.439584469960603e-07,3.321889995766817e-07,2.2984139344911927e-05
6.083693873831604e-07,5.393828374864913e-07,3.315221380885037e-07,2.2672726849861412e-05
6.059333297183769e-07,5.346821037329226e-07,3.308666034852982e-07,2.237626187515888e-05
6.035126489213551e-07,5.29858125783284e-07,3.302182851512241e-07,2.2095295050617308e-05
6.011239091127392e-07,5.249134289959034e-07,3.295729526939071e-07,2.18301719135631e-05
5.98784164141339e-07,5.198508516470186e-07,3.2892687575925504e-07,2.1581126484470652e-05
5.965080779135986e-07,5.146722906477533e-07,3.282758048674409e-07,2.1348301094941558e-05
5.943077260742507e-07,5.093789014284353e-07,3.276138260245144e-07,2.113167784910932e-05
5.921946687949121e-07,5.039736760225319e-07,3.269348212140125e-07,2.0930992320640773e-05
5.901794436045534e-07,4.984638812856911e-07,3.2623547115180013e-07,2.074569698383107e-05
5.882690486320027e-07,4.928600911757687e-07,3.255164414226359e-07,2.057500112056124e-05
5.864661426522857e-07,4.871734313674547e-07,3.247809592665472e-07,2.0417953545242848e-05
5.847690943765503e-07,4.814145267465545e-07,3.240323763291767e-07,2.027350691942569e-05
5.831723521788568e-07,4.755939262995432e-07,3.23272199785327e-07,2.0140549389477586e-05
5.816699073465326e-07,4.6972282485190114e-07,3.2249932436478503e-07,2.001793681744405e-05
5.802600355794403e-07,4.638136799714215e-07,3.21711155484552e-07,1.9904530502539417e-05
5.789450328518235e-07,4.5788055802447283e-07,3.2090708274474497e-07,1.9799210385306813e-05
5.777260594131795e-07,4.51940699248252e-07,3.200919525267128e-07,1.9700853278992427e-05
5.765992925273969e-07,4.460173932808557e-07,3.1927561262172626e-07,1.960830988686306e-05
5.755559679079168e-07,4.4014056209728136e-07,3.184694804274144e-07,1.9520418778293367e-05
5.745844952979853e-07,4.343437978419297e-07,3.176846026219606e-07,1.943603596059697e-05
5.736721343044108e-07,4.28660845559434e-07,3.169317085967003e-07,1.9354044498371264e-05
5.728055854365532e-07,4.2312327562133315e-07,3.162212884577164e-07,1.927335567558484e-05
5.719722038877311e-07,4.177587020380096e-07,3.1556300206396236e-07,1.919290973464252e-05
5.711614923917545e-07,4.125892380896722e-07,3.1496486526049014e-07,1.9111665710178203e-05
5.703646006006408e-07,4.076307845250002e-07,3.1443347400644004e-07,1.902858582146076e-05
5.695727769817189e-07,4.028932790341011e-07,3.139746716580405e-07,1.8942626672886058e-05
5.687778219912968e-07,3.983813857754128e-07,3.1359370643671133e-07,1.8852743406864755e-05
5.679742635251597e-07,3.940955990327836e-07,3.132959952670783e-07,1.8757906436083107e-05
5.671606342089894e-07,3.9003376520764717e-07,3.1308793115911807e-07,1.8657122755672534e-05
5.663405447410604e-07,3.8619176561336243e-07,3.1297582129636997e-07,1.8549450728448574e-05
5.655246717006824e-07,3.825627951438012e-07,3.1296381967908e-07,1.843401406187256e-05
5.647307863636392e-07,3.7913767412066273e-07,3.130531521414482e-07,1.831003668396247e-05
5.639808441478674e-07,3.759078308319221e-07,3.132426461818761e-07,1.8176898587329224e-05
5.632977034719725e-07,3.728679393161972e-07,3.135293569656361e-07,1.8034189235231005e-05
5.627026808211121e-07,3.700153958944586e-07,3.13909818996038e-07,1.788173035283002e-05
5.622138874285871e-07,3.673484859170821e-07,3.143821711693845e-07,1.7719553401113354e-05
5.618445185799487e-07,3.648652436561516e-07,3.14946622980248e-07,1.7547845626695427e-05
5.616006974505921e-07,3.625624161352911e-07,3.156032266750378e-07,1.7366876048018537e-05
5.614811389562622e-07,3.6043451140483607e-07,3.163495794295637e-07,1.7176920459093937e-05
5.614793448283287e-07,3.584737491104695e-07,3.171802377518432e-07,1.6978236545993807e-05
5.615852200822979e-07,3.5667065205720295e-07,3.1808741120195737e-07,1.6771117651774827e-05
5.617849171492125e-07,3.550145897017875e-07,3.190615721284212e-07,1.6555975834448982e-05
5.620606559941794e-07,3.534941520796007e-07,3.2009108708899386e-07,1.6333379771974272e-05
5.623909150518228e-07,3.520976911651245e-07,3.211616320607963e-07,1.61040830185159e-05
5.627513253547907e-07,3.5081433481182925e-07,3.2225629617841985e-07,1.5869102493142225e-05
5.631176756004098e-07,3.496344799759802e-07,3.233567552604804e-07,1.5629765753273503e-05
5.634689810648959e-07,3.485496117373186e-07,3.2444511182440703e-07,1.538763676842129e-05
5.637865655650893e-07,3.475539788052638e-07,3.255045524691635e-07,1.5144348294197192e-05
5.640507598769193e-07,3.4664695648141644e-07,3.265184341739125e-07,1.490143672311904e-05
5.642399057652601e-07,3.458319113727204e-07,3.274697757724933e-07,1.4660275054956906e-05
5.643326333533307e-07,3.4511382558572853e-07,3.283419393182921e-07,1.4422120681805927e-05
5.643130632400618e-07,3.4449896402566827e-07,3.2912011405913075e-07,1.4188195231128934e-05
5.641766487730155e-07,3.439936376387143e-07,3.297929385774861e-07,1.395970101191543e-05
5.639309892262926e-07,3.43601489432851e-07,3.303528711426939e-07,1.3737787558938512e-05
5.635909771181586e-07,3.433235383417385e-07,3.307957177627557e-07,1.3523569335259805e-05
5.631737703296147e-07,3.431610520128493e-07,3.311205936414859e-07,1.3318196036977118e-05
5.626970549491715e-07,3.4311631075663465e-07,3.3132936885406287e-07,1.3122903954923641e-05
5.621794683331147e-07,3.431897153876961e-07,3.314248149966565e-07,1.2939095731835148e-05
5.616400840093457e-07,3.43377239511188e-07,3.314085423628458e-07,1.2768427163930825e-05
5.610964173925947e-07,3.436709226421877e-07,3.3128039212584075e-07,1.2612691103443467e-05
5.605629029224083e-07,3.4406069386182945e-07,3.3104032172243443e-07,1.247352589672371e-05
5.600506382758936e-07,3.445350194067957e-07,3.306910369290803e-07,1.2352221489211755e-05
5.595679239642614e-07,3.450803158517592e-07,3.302382026324596e-07,1.2249682108204456e-05
5.591198302103937e-07,3.456808335330085e-07,3.296887513279755e-07,1.2166440890024616e-05
5.587060694145606e-07,3.463197767274673e-07,3.290496512820469e-07,1.2102688630239e-05
5.583201194888087e-07,3.469806201901259e-07,3.283272937874616e-07,1.2058306250598945e-05
5.579516097718436e-07,3.476478772619644e-07,3.2752741869430425e-07,1.2032889496455209e-05
5.575906901834009e-07,3.483085469414775e-07,3.266554709160389e-07,1.2025798066609853e-05
5.572329459986794e-07,3.489538867961136e-07,3.257173271931942e-07,1.2036285355707293e-05
5.568830898640744e-07,3.495786529272223e-07,3.247206065465909e-07,1.2063700962003365e-05
5.565550090934497e-07,3.5017872525881945e-07,3.2367533804722137e-07,1.2107684092636728e-05
5.562680590480044e-07,3.50750493858804e-07,3.2259396483204413e-07,1.2168267083761028e-05
5.560422752823082e-07,3.512912654443655e-07,3.214913952788453e-07,1.2245855585210851e-05
5.558948689965538e-07,3.517983191403505e-07,3.2038377798294405e-07,1.2341116160713788e-05
5.558378268718401e-07,3.522672026483099e-07,3.192865206405087e-07,1.2454842184797495e-05
5.558760167992393e-07,3.5269106077266223e-07,3.1821391572584355e-07,1.2587823369638617e-05
5.560070574911882e-07,3.5306078834807094e-07,3.171796879037565e-07,1.2740701941823946e-05
5.56224160541855e-07,3.5336501885846405e-07,3.161963908264082e-07,1.2913844165132367e-05
5.565216171310049e-07,3.535905224122011e-07,3.152743905236548e-07,1.3107267445385093e-05
5.568995299276703e-07,3.5372366698335367e-07,3.144218970048556e-07,1.3320636092734022e-05
5.573630901961593e-07,3.537523080167424e-07,3.1364568887746163e-07,1.3553349590400955e-05
5.579187933520817e-07,3.5366716144074617e-07,3.129525106854206e-07,1.3804711353423224e-05
5.585734380507472e-07,3.534618661743001e-07,3.123503474685061e-07,1.4074111015431907e-05
5.593343884639881e-07,3.5313155837119475e-07,3.118472020429774e-07,1.4361163041038807e-05
5.602083971936196e-07,3.526712834782921e-07,3.1144839550107997e-07,1.4665770778083929e-05
5.612005595424211e-07,3.5207572247479575e-07,3.111555481313725e-07,1.4988108046165865e-05
5.623134340174197e-07,3.513398271751185e-07,3.109671236436257e-07,1.5328529692946734e-05
5.635454758756272e-07,3.504597183048202e-07,3.1087981396956764e-07,1.568743555157404e-05
5.648902213505754e-07,3.494340233597371e-07,3.108916383958621e-07,1.6065119189964105e-05
5.663380138729194e-07,3.4826490558448325e-07,3.1100475549517716e-07,1.6461612675850734e-05
5.67878782946296e-07,3.469585916043307e-07,3.1122470602374384e-07,1.687656363063301e-05
5.695023044984591e-07,3.455259810478487e-07,3.115573769940003e-07,1.7309233570495498e-05
5.711960514303204e-07,3.439826412816089e-07,3.120068727818484e-07,1.775858702078172e-05
5.729437122042708e-07,3.423481596942196e-07,3.125759360789413e-07,1.8223322572162413e-05
5.747259101561455e-07,3.406452825461248e-07,3.1326905670982125e-07,1.870184967520133e-05
5.765226995883972e-07,3.388981802350649e-07,3.1409481605982946e-07,1.91923293371182e-05
5.783167723955946e-07,3.3713019660505837e-07,3.150638558636401e-07,1.9692808548889155e-05
5.800960664093579e-07,3.353628059912613e-07,3.161846974874957e-07,2.020142372759144e-05
5.818538030072146e-07,3.3361619767211817e-07,3.174613334304679e-07,2.0716615123005388e-05
5.83584923640274e-07,3.319094094611881e-07,3.188925110406429e-07,2.123724465644413e-05
5.852814106929556e-07,3.30259522384029e-07,3.204719313909819e-07,2.1762545283298548e-05
5.869309485692714e-07,3.2868264375748696e-07,3.221902189383623e-07,2.229191993982753e-05
5.885206132434279e-07,3.2719576467199285e-07,3.240370348899176e-07,2.2824680840675047e-05
5.900420311678989e-07,3.258157538263456e-07,3.260007766087769e-07,2.3359853528300573e-05
5.914930811368291e-07,3.2455676840373287e-07,3.28067190427167e-07,2.389614639950588e-05
5.928753356308845e-07,3.2342882355057337e-07,3.302190633092775e-07,2.443205863395217e-05
5.941895796324221e-07,3.22437372303145e-07,3.324372900298076e-07,2.496597138306043e-05
5.954324420213235e-07,3.2158409663009487e-07,3.34703165400449e-07,2.5496139470371258e-05
5.965964092199514e-07,3.208691975667918e-07,3.370007043672311e-07,2.6020646276323176e-05
5.97671556289901e-07,3.2029355111098057e-07,3.3931712296119233e-07,2.653739285435017e-05
5.986465295049225e-07,3.198586590079721e-07,3.416420245030548e-07,2.704412284644772e-05
5.99509155717367e-07,3.1956550832245327e-07,3.439668457596933e-07,2.753846387112723e-05
6.002463714629499e-07,3.1941580668752485e-07,3.462836488866913e-07,2.8017981124630327e-05
6.008435801862894e-07,3.1941462582465224e-07,3.4858334196826656e-07,2.8480242335242688e-05
6.01285433959467e-07,3.195696337403577e-07,3.508558757297168e-07,2.892292586781254e-05
6.015573810805277e-07,3.1988666209849855e-07,3.530919321524768e-07,2.934395730066315e-05
6.016458475723789e-07,3.203662534036313e-07,3.5528368307497677e-07,2.974156370828897e-05
6.01537674623486e-07,3.210034600166837e-07,3.574260642076883e-07,3.0114232051264173e-05
6.012214398957953e-07,3.217890903965559e-07,3.5952001554667367e-07,3.0460658512377118e-05
6.006922682869188e-07,3.227106321189873e-07,3.615738080529521e-07,3.077971919759217e-05
5.999578167305146e-07,3.2375287363667953e-07,3.635998955500449e-07,3.107050696139254e-05
5.99040305165954e-07,3.2489915449974013e-07,3.656104747856907e-07,3.1332481493068395e-05
5.979718757139108e-07,3.261347149181973e-07,3.676147234062903e-07,3.15655988203588e-05
5.967862056669539e-07,3.2745158593296096e-07,3.696182586402422e-07,3.177023560819543e-05
5.955118079683128e-07,3.2885051529235416e-07,3.7162410828068217e-07,3.194695066755021e-05
5.941694278060675e-07,3.303377375071716e-07,3.736330709168747e-07,3.2096257796749685e-05
5.927729627793766e-07,3.319213355637288e-07,3.756426238188803e-07,3.2218506887553085e-05
5.913325582429135e-07,3.336113927829245e-07,3.776458452857075e-07,3.23138898811303e-05
5.898579380239671e-07,3.354222584032707e-07,3.796314683788026e-07,3.238252428759443e-05
5.88360949227869e-07,3.3737431629931306e-07,3.815851534228189e-07,3.2424523057634274e-05
5.868577028555986e-07,3.3949434510272627e-07,3.834913179763589e-07,3.244000919223515e-05
5.85370543941204e-07,3.418144058690392e-07,3.853343894775493e-07,3.2429105857162294e-05
5.839281982507363e-07,3.44369480090865e-07,3.870999709433028e-07,3.239193500240495e-05
5.825612618439966e-07,3.471939291344846e-07,3.887765694342014e-07,3.232861492060435e-05
5.812952208173082e-07,3.503181690175125e-07,3.90355964376621e-07,3.223924048464586e-05
5.80146732892556e-07,3.5376655747505507e-07,3.918314961558075e-07,3.212387351888778e-05
5.79123600328743e-07,3.575557704675841e-07,3.9319607388539406e-07,3.198256371644483e-05
5.78226267929877e-07,3.616939925470768e-07,3.944409786858171e-07,3.181538096150953e-05
5.774506969978795e-07,3.661813866608094e-07,3.9555589745457047e-07,3.1622460448226235e-05
5.76791397950549e-07,3.7101112363435704e-07,3.9652984939587027e-07,3.1404061320881085e-05
5.762426396768877e-07,3.761702068633751e-07,3.9735225107562904e-07,3.116060882792464e-05
5.757981699744516e-07,3.8164099629012587e-07,3.9801416511603215e-07,3.089271098411016e-05
5.754509083007771e-07,3.874056552673292e-07,3.985090175340272e-07,3.0601148964146886e-05
5.751923565605304e-07,3.934506188099656e-07,3.9883185950783156e-07,3.028682844166445e-05
5.750112765671062e-07,3.9976571163581093e-07,3.98978177529881e-07,2.9950724204074977e-05
5.748927381369323e-07,4.063406273998632e-07,3.9894385784626867e-07,2.959386839991425e-05
5.748182193776755e-07,4.131631784361429e-07,3.9872654578244683e-07,2.92173522303471e-05
5.747663663833772e-07,4.202173061027624e-07,3.983269867232968e-07,2.8822288754467432e-05
5.747143411674024e-07,4.274807935149858e-07,3.977484296634521e-07,2.8409770695077264e-05
5.746403936110693e-07,4.3492599662897255e-07,3.9699446199859794e-07,2.798087309354654e-05
5.745260357916828e-07,4.425216769547789e-07,3.96067407563737e-07,2.7536694970315808e-05
5.743546279863944e-07,4.502326258735262e-07,3.9496799565151273e-07,2.7078422298108192e-05
5.741080282064461e-07,4.580188805628914e-07,3.9369575644498923e-07,2.6607398980087908e-05
5.737655463481335e-07,4.6583654004624365e-07,3.922495088677532e-07,2.6125180523198818e-05
5.733064516243648e-07,4.7363963254658977e-07,3.9062798443106633e-07,2.563352462393021e-05
5.727154295940803e-07,4.813819088871983e-07,3.8883135389239273e-07,2.5134292730086905e-05
5.719873308354459e-07,4.890179340427795e-07,3.8686294545276886e-07,2.462932074031469e-05
5.71125665206017e-07,4.965042859078123e-07,3.847291182855283e-07,2.4120359876471504e-05
5.701357351088054e-07,5.038011955328287e-07,3.824378139839161e-07,2.36091335560032e-05
5.690194622581489e-07,5.108731467238945e-07,3.7999841937730346e-07,2.3097438294166893e-05
5.677759496342849e-07,5.176876993992112e-07,3.774227403459895e-07,2.258716065638553e-05
5.664058674113962e-07,5.242139646242252e-07,3.747250856071079e-07,2.2080183177284148e-05
5.649159461271574e-07,5.304219850045553e-07,3.7192205946641717e-07,2.1578252256370885e-05
5.633222146117384e-07,5.362827442284837e-07,3.6903300813054633e-07,2.108288862981222e-05
5.616510497088623e-07,5.417689395781478e-07,3.6607928295406117e-07,2.059539306104116e-05
5.599350447238934e-07,5.468571471806933e-07,3.6308162149922703e-07,2.0116914417884106e-05
5.582057915752107e-07,5.515308343325471e-07,3.600580728804301e-07,1.9648489213570443e-05
5.564912835085473e-07,5.557823174626421e-07,3.570241117110242e-07,1.9191023610275586e-05
5.54818269296156e-07,5.596121571849878e-07,3.5399470606822774e-07,1.874527675835596e-05
5.532131026537406e-07,5.630269196854796e-07,3.509865863575603e-07,1.83119678316002e-05
5.516996138753308e-07,5.660369657626423e-07,3.4801790783648987e-07,1.7892084899715006e-05
5.502964708967624e-07,5.686553494117962e-07,3.451054183125449e-07,1.7487218566322275e-05
5.490154271898322e-07,5.708980454337547e-07,3.4226264037212496e-07,1.7099614333707566e-05
5.478622855808832e-07,5.727830000528498e-07,3.3950060726701943e-07,1.6731886064610206e-05
5.468416231182684e-07,5.7432770571767e-07,3.3682931553148854e-07,1.638661833012598e-05
5.459613061049414e-07,5.755488219761236e-07,3.342581945280233e-07,1.6066165157547847e-05
5.452318446972554e-07,5.764631318316814e-07,3.3179540371780875e-07,1.5772725182790022e-05
5.446620502903949e-07,5.770883414819378e-07,3.2944663825278037e-07,1.5508441102908053e-05
5.442552735299565e-07,5.774464709922596e-07,3.2721448554679925e-07,1.527535427178509e-05
5.440077079982121e-07,5.775681747589018e-07,3.2509865691481016e-07,1.507529898604723e-05
5.439086502488296e-07,5.774922929611104e-07,3.230965053251936e-07,1.4909814986117474e-05
5.439420856702757e-07,5.772604349887094e-07,3.212035130681518e-07,1.4780080425202262e-05
5.440890989361789e-07,5.769113730372626e-07,3.194136804494066e-07,1.4686859621021268e-05
5.443303899681172e-07,5.764796100719266e-07,3.177198881681749e-07,1.4630478193564984e-05
5.446473465125471e-07,5.759984330067565e-07,3.161150516527898e-07,1.461085049547136e-05
5.450218354294548e-07,5.755041017420307e-07,3.145937653201577e-07,1.462756339611261e-05
5.454361159600611e-07,5.750383119448238e-07,3.131524425946383e-07,1.4679990780719693e-05
5.458728570968252e-07,5.746471473482037e-07,3.1178809297394874e-07,1.4767400355807538e-05
5.463148498923834e-07,5.743760939565772e-07,3.1049759669536465e-07,1.488901536152377e-05
5.467450898820223e-07,5.742635563038371e-07,3.092780034969647e-07,1.5044007726787795e-05
5.471488920777004e-07,5.743366178563959e-07,3.081278015422116e-07,1.5231422776682819e-05
5.47517924037424e-07,5.746109083714999e-07,3.070475446946877e-07,1.5450058206569487e-05
5.478515825195563e-07,5.750931801215182e-07,3.0603827525139106e-07,1.569835456249254e-05
5.481524078983618e-07,5.757848788309404e-07,3.050998471863957e-07,1.5974368882522882e-05
5.48419872088563e-07,5.766852387584756e-07,3.0423077494682213e-07,1.6275841459198045e-05
5.486481999065239e-07,5.777924557292947e-07,3.034287947544403e-07,1.6600301312010126e-05
5.488278602137213e-07,5.791035807840639e-07,3.0269196498877766e-07,1.6945170113188758e-05
5.489472757335169e-07,5.806135181681367e-07,3.02019531419374e-07,1.7307853629761684e-05
5.489929636669675e-07,5.823135607232751e-07,3.0141147733244683e-07,1.768580198981659e-05
5.489488001266111e-07,5.841907846705064e-07,3.008676702712273e-07,1.8076528091136936e-05
5.487960108433965e-07,5.862275772422097e-07,3.003873021519724e-07,1.847761586081152e-05
5.48514807044044e-07,5.884009051068498e-07,2.999679897910185e-07,1.8886757076031567e-05
5.480865120862976e-07,5.906832574091062e-07,2.9960459081787054e-07,1.930178897440481e-05
5.474938943453255e-07,5.930462140173807e-07,2.9928873547687785e-07,1.9720649525311995e-05
5.467197764804988e-07,5.954640889051739e-07,2.9900953612032536e-07,2.0141249833106906e-05
5.457460159138179e-07,5.979142048286502e-07,2.987552369469985e-07,2.056138339333336e-05
5.445540052296027e-07,6.003743766396724e-07,2.9851632050176177e-07,2.097873600435149e-05
5.431267799870464e-07,6.028209484878027e-07,2.982897220613072e-07,2.1390953791131934e-05
5.414525486117641e-07,6.052294755264739e-07,2.9808000412867245e-07,2.1795729473862802e-05
5.395278568686811e-07,6.07577900563933e-07,2.9789516573124966e-07,2.2190863762621164e-05
5.373575569367862e-07,6.098493802156038e-07,2.977417280816432e-07,2.257426560428761e-05
5.349516043428663e-07,6.120322864414827e-07,2.9762324835473906e-07,2.294392489895911e-05
5.323218623862685e-07,6.141183364410826e-07,2.975412359572164e-07,2.329792437324066e-05
5.2948153062828e-07,6.16099673277052e-07,2.974962751721274e-07,2.3634511592919918e-05
5.264464140520082e-07,6.179654743523307e-07,2.974880781653877e-07,2.3952173983184092e-05
5.232352639790017e-07,6.197006108273337e-07,2.9751479938274196e-07,2.4249653483471648e-05
5.198690409604805e-07,6.212865421714371e-07,2.975730021852906e-07,2.452591367809e-05
5.163702727002078e-07,6.227027978606654e-07,2.976585492329035e-07,2.4780111104877265e-05
5.127615070870061e-07,6.239297090454815e-07,2.977676274193957e-07,2.5011580281642875e-05
5.090630697878515e-07,6.249520530930663e-07,2.978973924651968e-07,2.521979577387727e-05
5.05291822663031e-07,6.25761273357618e-07,2.9804688329028e-07,2.5404310355325328e-05
5.014611431268817e-07,6.263555888671921e-07,2.9821823129049876e-07,2.556473819556567e-05
4.97583290279491e-07,6.267379324077228e-07,2.984157665141013e-07,2.570080730535878e-05
4.936746651737997e-07,6.269118995678028e-07,2.9864299936134283e-07,2.5812396437012063e-05
4.89759367907559e-07,6.268783279470855e-07,2.989010135999031e-07,2.58994958012404e-05
4.858666666662707e-07,6.266343559330323e-07,2.9918897024555103e-07,2.5962174077605398e-05
4.820249305151124e-07,6.261735491746617e-07,2.9950465542550933e-07,2.6000681034297172e-05
4.782580247099628e-07,6.254860793418004e-07,2.998443189529312e-07,2.6015602032031446e-05
4.7458761861425067e-07,6.245595300934206e-07,3.0020247964555017e-07,2.6007846312021e-05
4.710391395213982e-07,6.233804135649169e-07,3.005723084677885e-07,2.597852651141165e-05
4.6764371042761366e-07,6.219363085696808e-07,3.0094586710019965e-07,2.5928922465259408e-05
4.644325578969674e-07,6.202189903558254e-07,3.013135331834404e-07,2.586049069540417e-05
4.614301205533474e-07,6.182268836125701e-07,3.016635552910328e-07,2.577482793322106e-05
4.586518242241501e-07,6.159639523534665e-07,3.01982621498356e-07,2.5673625551517785e-05
4.5610586965000686e-07,6.134369164468956e-07,3.022572055203836e-07,2.5558660860735e-05
4.53796440314845e-07,6.106544816140279e-07,3.024746790477518e-07,2.543179995348361e-05
4.517263620563346e-07,6.076270131625523e-07,3.0262342512096766e-07,2.529495144648492e-05
4.4989903837151e-07,6.043647178132985e-07,3.026928186848819e-07,2.5149956432682252e-05
4.4832070148610774e-07,6.008762780209297e-07,3.026736768056669e-07,2.49984636472013e-05
4.47002439282241e-07,5.971693291228308e-07,3.0255815246676497e-07,2.4841838838434106e-05
4.459613060631785e-07,5.932521651157935e-07,3.023393479905726e-07,2.468112388699041e-05
4.452196049084809e-07,5.891362172336876e-07,3.020121232848373e-07,2.4517045242361648e-05
4.44801902895195e-07,5.848383884135535e-07,3.015743578741899e-07,2.4350056317914002e-05
4.44733331213474e-07,5.803813330281396e-07,3.0102634337341327e-07,2.418039326969977e-05
4.450420821185011e-07,5.75791204665735e-07,3.003688082872417e-07,2.4008149585865075e-05
4.457621696229796e-07,5.710944255918008e-07,2.996028703002395e-07,2.38333644483435e-05
4.46930546303158e-07,5.663154481057218e-07,2.987317751954293e-07,2.365607889940282e-05
4.485798302701007e-07,5.614764784157071e-07,2.977610988989355e-07,2.3476339746713896e-05
4.5073262363305437e-07,5.565985502302475e-07,2.9669742706276216e-07,2.3294173593295145e-05
4.533992076412689e-07,5.517023438705943e-07,2.9554733322492344e-07,2.310954312217993e-05
4.565773568555689e-07,5.468082729353315e-07,2.943164561708281e-07,2.292230316425729e-05
4.6025407314362784e-07,5.419369930337744e-07,2.93009188530684e-07,2.273219029346673e-05
4.644084087442733e-07,5.371096600490504e-07,2.9163047879444926e-07,2.2538851518941706e-05
4.6901330849011346e-07,5.323462828245989e-07,2.901881935440267e-07,2.2341901921170746e-05
4.74035630833755e-07,5.276633143381574e-07,2.88692763137525e-07,2.2141013290938198e-05
4.79436336869094e-07,5.230728198833986e-07,2.871545921641559e-07,2.193600982004375e-05
4.851730202847336e-07,5.18583571085786e-07,2.855825942483097e-07,2.1726922159796883e-05
4.912027959448828e-07,5.142028880444932e-07,2.83984896465881e-07,2.1514000886893092e-05
4.97481884052368e-07,5.099387831713135e-07,2.8236962345224017e-07,2.129774590056201e-05
5.039627939703817e-07,5.058012101291789e-07,2.807443971414991e-07,2.1078983541604447e-05
5.105933281551949e-07,5.018002967692012e-07,2.7911606531134966e-07,2.0858930017839225e-05
5.173188807648392e-07,4.979432743655399e-07,2.774911681947281e-07,2.0639119150905112e-05
5.240861801493543e-07,4.942343440642412e-07,2.758757456947589e-07,2.0421178192063704e-05
5.308475011312338e-07,4.906776679345755e-07,2.742748080356915e-07,2.020660128662428e-05
5.375637694157545e-07,4.872795506194082e-07,2.7269216178206964e-07,1.99966444710667e-05
5.442027401305501e-07,4.840481386575664e-07,2.7113000704378577e-07,1.9792323638953798e-05
5.507341914840267e-07,4.809927427563211e-07,2.6958842767081963e-07,1.959445222201313e-05
5.571290670861362e-07,4.781230709958019e-07,2.6806551803771e-07,1.940366909200269e-05
5.633622589459376e-07,4.754470269531063e-07,2.665580920224711e-07,1.922042338754185e-05
5.69413143810388e-07,4.729685848607072e-07,2.6506266932993433e-07,1.904495055889046e-05
5.75263954421526e-07,4.706878856660981e-07,2.6357634706003925e-07,1.8877328824057107e-05
5.809000264041696e-07,4.6860385779393797e-07,2.62097119285486e-07,1.871765690582029e-05
5.863113611870191e-07,4.6671757856953965e-07,2.6062424602758565e-07,1.8566290655278005e-05
5.914932798633944e-07,4.650324448164354e-07,2.591594955875766e-07,1.8423998529708787e-05
5.964458802210897e-07,4.6355107773511457e-07,2.577086450880133e-07,1.8291910668770585e-05
6.011716406792388e-07,4.6227378533539465e-07,2.562809469661517e-07,1.817128163805737e-05
6.056725048243174e-07,4.611991111706232e-07,2.5488609263047827e-07,1.8063224288602525e-05
6.09949074176801e-07,4.603234042171461e-07,2.535321533979552e-07,1.7968566456926644e-05
6.140008267098183e-07,4.59640536210077e-07,2.5222622504777244e-07,1.788789083071201e-05
6.17825527278383e-07,4.591437088432184e-07,2.509756472588492e-07,1.782169659907442e-05
6.214182149698926e-07,4.5882680843913185e-07,2.497881525181438e-07,1.777054332477192e-05
6.247701217265182e-07,4.5868257225141144e-07,2.486712849060368e-07,1.773513089593243e-05
6.278681728210822e-07,4.5869959250889046e-07,2.476321216722412e-07,1.7716416742669268e-05
6.306962180119951e-07,4.588620793863381e-07,2.466772212602706e-07,1.7715785973338438e-05
6.332373285053446e-07,4.5915302877758313e-07,2.4581223418869253e-07,1.773510650699217e-05
6.354759536546037e-07,4.5955769976415653e-07,2.450415897014677e-07,1.7776592802628156e-05
6.374007094011788e-07,4.6006376965859783e-07,2.44368359062143e-07,1.7842600527989403e-05
6.39008196765995e-07,4.606586191959511e-07,2.437938905692553e-07,1.793543899123025e-05
6.403050129591979e-07,4.6132818032807357e-07,2.433175015088747e-07,1.805716998973301e-05
6.413046614542411e-07,4.6205896104536e-07,2.429362696820821e-07,1.8209414903360967e-05
6.420212939283553e-07,4.6284078539465597e-07,2.4264477593215464e-07,1.8393260850585345e-05
6.424659387569029e-07,4.636689503590532e-07,2.4243563655081503e-07,1.8609231010355387e-05
6.426466863166118e-07,4.6454474690238503e-07,2.423010418735706e-07,1.8857219596894894e-05
6.425699117296808e-07,4.6547235822360937e-07,2.422344399222991e-07,1.913644174983404e-05
6.422411590913597e-07,4.6645417871698953e-07,2.422321981026233e-07,1.944550053160602e-05
6.416659401938606e-07,4.6748910080777454e-07,2.4229534958552943e-07,1.978255654430296e-05
6.408504564270936e-07,4.6857512479866686e-07,2.424304296832954e-07,2.014551361435737e-05
6.398021612907101e-07,4.6971443135384147e-07,2.4264805767661035e-07,2.053215926136102e-05
6.385302627254588e-07,4.7091804699763153e-07,2.4296007459435847e-07,2.0940266000803408e-05
6.370472396979758e-07,4.722073276493946e-07,2.4337768418954947e-07,2.1367688338150822e-05
6.353700382491109e-07,4.736099386945417e-07,2.439107573356759e-07,2.1812446419423045e-05
6.335178834356841e-07,4.751518727833472e-07,2.4456714032314484e-07,2.2272764468389487e-05
6.315094368318668e-07,4.768516226163347e-07,2.4535297279641017e-07,2.274706261295987e-05
6.29364727031999e-07,4.787193803365826e-07,2.4627419594223883e-07,2.3233906778663075e-05
6.271110551524625e-07,4.807581697377425e-07,2.473369638672805e-07,2.373191894773607e-05
6.247858988503811e-07,4.829645760326911e-07,2.48546530417592e-07,2.4239680076528146e-05
6.22432389359726e-07,4.853295829601656e-07,2.499059918370567e-07,2.475566742031573e-05
6.200918050878714e-07,4.87839458450529e-07,2.5141557115596014e-07,2.527824321332531e-05
6.177993282343332e-07,4.90476275347546e-07,2.530732007783287e-07,2.5805692531531e-05
6.155828480061156e-07,4.93218479725001e-07,2.54875932334353e-07,2.633629035014582e-05
6.134626436185365e-07,4.960416599450098e-07,2.5682018436887996e-07,2.686836679472037e-05
6.114522901651115e-07,4.989189094205164e-07,2.5890126273785484e-07,2.7400365466720264e-05
6.095616255912387e-07,5.018212123108029e-07,2.6111388731604584e-07,2.793090625524018e-05
6.078019990762872e-07,5.047196537057462e-07,2.634524752122767e-07,2.8458828621193048e-05
6.061901441798503e-07,5.075888995878165e-07,2.659097663013801e-07,2.898318423933933e-05
6.047459918807839e-07,5.104092543412708e-07,2.684754573044748e-07,2.9503206907141053e-05
6.034880315547509e-07,5.131657855022626e-07,2.711360494144279e-07,3.001829968459098e-05
6.024319509915531e-07,5.15844810726808e-07,2.7387545189319765e-07,3.0528009036467575e-05
6.015907453985972e-07,5.184305207151339e-07,2.766765556606288e-07,3.103194380971073e-05
6.00973129215731e-07,5.209045054226245e-07,2.795233516410033e-07,3.1529672041525066e-05
6.005815404215671e-07,5.23247241534764e-07,2.824018255282798e-07,3.20206636138672e-05
6.004117988764911e-07,5.254391758333221e-07,2.8529899638849585e-07,3.2504301176296344e-05
6.004541164022308e-07,5.274610991167915e-07,2.882014340391504e-07,3.29798812397841e-05
6.00693844374986e-07,5.292944032528768e-07,2.910951603439293e-07,3.344651461196783e-05
6.011113486133315e-07,5.309215763332344e-07,2.939673420082273e-07,3.3903018621803674e-05
6.016828000211096e-07,5.323276588653939e-07,2.968077866283302e-07,3.434798037682926e-05
6.023830348445344e-07,5.335013398486983e-07,2.99608616286722e-07,3.4780000550577774e-05
6.031879743077475e-07,5.344338369466152e-07,3.023631048381425e-07,3.519800642188587e-05
6.040745780810428e-07,5.351176753037636e-07,3.050645561316446e-07,3.5601563402799607e-05
6.050197945680556e-07,5.355478984164322e-07,3.077051367614144e-07,3.5991124032883954e-05
6.060004136499466e-07,5.357241186546777e-07,3.102757131711433e-07,3.636811214464365e-05
6.06994098418886e-07,5.356499047564748e-07,3.127669446609791e-07,3.673479041027351e-05
6.079801432250065e-07,5.353297071538186e-07,3.1516994297308504e-07,3.7093967104063104e-05
6.089381681884975e-07,5.347673261872479e-07,3.174760985453741e-07,3.744865583657662e-05
6.098456641791357e-07,5.339669789499394e-07,3.196773927427313e-07,3.780181126430661e-05
6.106768685750965e-07,5.329338168671027e-07,3.2176704618535445e-07,3.815618375596771e-05
6.114035780910973e-07,5.316724178321938e-07,3.237393415111741e-07,3.851421618875179e-05
6.119977723610735e-07,5.301856241357278e-07,3.255893251102921e-07,3.887795358145577e-05
6.124359503491653e-07,5.284749922465758e-07,3.273131850788733e-07,3.924908713505093e-05
6.127030388536024e-07,5.265413446656086e-07,3.2890857287692967e-07,3.962915303550198e-05
6.127925923428348e-07,5.243851850110929e-07,3.3037460668187147e-07,4.001964540825104e-05
6.127030319412399e-07,5.220074195652416e-07,3.317115239601548e-07,4.0421876194422916e-05
6.124336999336058e-07,5.194094072804664e-07,3.3291996016650837e-07,4.083670383591946e-05
6.11983089974859e-07,5.165919361787834e-07,3.340005842438632e-07,4.126431286683664e-05
6.113483229577407e-07,5.135543838533936e-07,3.349536864103817e-07,4.170418954167662e-05
6.105256588569242e-07,5.102952693014096e-07,3.3577789020678375e-07,4.215541992323887e-05
6.095116727477924e-07,5.068143066026083e-07,3.364690333217957e-07,4.261717248637974e-05
6.083031377395827e-07,5.031154856917651e-07,3.3702036086207786e-07,4.3088983436445646e-05
6.068954328908376e-07,4.99209614156337e-07,3.3742402012257947e-07,4.3570703146556427e-05
6.052817491406368e-07,4.951143010916152e-07,3.3767307446398566e-07,4.406228822438146e-05
6.034541602993375e-07,4.908513453185854e-07,3.3776249255274725e-07,4.45636036635925e-05
6.014046434843962e-07,4.864433011032002e-07,3.37688582801123e-07,4.5074281065592935e-05
5.991248764455082e-07,4.819112838739199e-07,3.3744845107660644e-07,4.559363955504164e-05
5.966066121547942e-07,4.772756286162846e-07,3.370406676084027e-07,4.612064439283211e-05
5.938428270758549e-07,4.7255887218215674e-07,3.3646588289914415e-07,4.665386821211673e-05
5.90827510997016e-07,4.67787323451597e-07,3.35725962131764e-07,4.7191455733527775e-05
5.875555054951227e-07,4.629887920416685e-07,3.348227083939345e-07,4.7731101183284164e-05
5.840252268097654e-07,4.581891377898753e-07,3.33757794159088e-07,4.827003353990683e-05
5.802410731636352e-07,4.5341022600742044e-07,3.3253356826824205e-07,4.8805046756435886e-05
5.762111712013591e-07,4.486693853329794e-07,3.311537540400071e-07,4.933260470962555e-05
5.719433709950844e-07,4.439809571843975e-07,3.2962366997798284e-07,4.984895191112127e-05
5.674444246616205e-07,4.393585025183688e-07,3.279497886184137e-07,5e-06
5.627218327922822e-07,4.348146656954347e-07,3.261388226325321e-07,5e-06
5.577848089813295e-07,4.303594107854765e-07,3.241972571992096e-07,5e-06
5.52643616514287e-07,4.259993692938539e-07,3.2213189207662225e-07,5e-06
5.47309064041345e-07,4.2173940196378105e-07,3.1995061953808586e-07,5e-06
5.4179223973036e-07,4.1758509362245064e-07,3.176625939838003e-07,5e-06
5.361039595771152e-07,4.1354339667185655e-07,3.152778674655615e-07,5e-06
5.302548450666321e-07,4.0962128390312424e-07,3.128071173745716e-07,5e-06
5.242559415828321e-07,4.058251755871906e-07,3.102620680482784e-07,5e-06
5.181186169739018e-07,4.021616584743886e-07,3.076569320799465e-07,5e-06
5.118538349811439e-07,3.9863827185977937e-07,3.0501062469005063e-07,5e-06
5.054723353176077e-07,3.9526461573996774e-07,3.023472899943264e-07,5e-06
4.989866456678301e-07,3.92053339189038e-07,2.996929123229226e-07,5e-06
4.924130916201347e-07,3.890194569080757e-07,2.9707072569070966e-07,5e-06
4.857719216318281e-07,3.861779638760758e-07,2.945000051589324e-07,5e-06
4.790882013641104e-07,3.835411786267331e-07,2.9199889109699477e-07,5e-06
4.723942887097513e-07,3.811175357603e-07,2.8958743241217215e-07,5e-06
4.6572851847593325e-07,3.789119464881056e-07,2.872875886454489e-07,5e-06
4.5912924806795246e-07,3.7692632536652993e-07,2.8512150427003305e-07,5e-06
4.526299690705117e-07,3.751603470628366e-07,2.831098260205345e-07,5e-06
4.4625853928889024e-07,3.7361301859959457e-07,2.812698442171726e-07,5e-06
4.400405104021118e-07,3.7228407716695646e-07,2.796141316556989e-07,5e-06
4.3400513450736467e-07,3.711745993789416e-07,2.781501718733781e-07,5e-06
4.281897142123305e-07,3.7028677744600353e-07,2.768803502914559e-07,5e-06
4.2263798424837385e-07,3.696223226154954e-07,2.7580268269109864e-07,5e-06
4.173936711089157e-07,3.691801675129135e-07,2.749133615431072e-07,5e-06
4.1249592616234605e-07,3.689550355864432e-07,2.7421019085491164e-07,4.981205513977772e-05
4.079801137656992e-07,3.689370567714171e-07,2.736937630052039e-07,4.9279318741714006e-05
4.038794644726096e-07,3.6911190352026354e-07,2.733656076290429e-07,4.873299460801735e-05
4.0022365662382975e-07,3.694615622488257e-07,2.7322600512619074e-07,4.817806388458382e-05
3.9703695192700796e-07,3.699660843821968e-07,2.732729853966693e-07,4.761923295177031e-05
3.9434063687234716e-07,3.706063113753865e-07,2.7350276458809855e-07,4.7060848059700095e-05
3.9215965365010647e-07,3.71365774980686e-07,2.7391198771304907e-07,4.650687804752065e-05
3.905262692172334e-07,3.722301534878566e-07,2.744992610782455e-07,4.596099938502091e-05
3.894750742924519e-07,3.7318616181161047e-07,2.752630884670267e-07,4.542680136567298e-05
3.8903343882064794e-07,3.742211793552639e-07,2.7619860136551325e-07,4.490794946708426e-05
3.8921599204381755e-07,3.753226205343993e-07,2.772969214592649e-07,4.440810411785638e-05
3.9002672467129027e-07,3.764771238571955e-07,2.7854663758160066e-07,4.393062667294102e-05
3.9146599020589683e-07,3.7767047375367063e-07,2.799348074183761e-07,4.3478270078592296e-05
3.9353712368381426e-07,3.788882714151271e-07,2.814471900628639e-07,4.305306155989997e-05
3.9624945696755367e-07,3.801159793061691e-07,2.830689827067054e-07,4.265653427664229e-05
3.996182012565128e-07,3.8133821332740457e-07,2.8478603599122184e-07,4.229019142846405e-05
4.0366127697427993e-07,3.8253975511422657e-07,2.865851700058187e-07,4.1955823259863385e-05
4.0839236123618175e-07,3.8370877546041687e-07,2.884534560885058e-07,4.165549718729772e-05
4.138140319817506e-07,3.848383829629786e-07,2.903779566500297e-07,4.139139260883582e-05
4.1991583939134676e-07,3.859242850129689e-07,2.9234565800791533e-07,4.116565131832748e-05
4.2667577776275146e-07,3.86961829237139e-07,2.9434281705801263e-07,4.0980238882699047e-05
4.3406189712230426e-07,3.8794556449145993e-07,2.9635510104440777e-07,4.083679182435433e-05
4.420337164245836e-07,3.8887085008851063e-07,2.9836845631633573e-07,4.073649460763148e-05
4.5054314901814244e-07,3.8973534482331035e-07,3.003690612461497e-07,4.0680014893194754e-05
4.5953486790364864e-07,3.9053946992798964e-07,3.0234337745386727e-07,4.0667465403546284e-05
4.6894708685998963e-07,3.912868001929237e-07,3.042796607753059e-07,4.069836248254775e-05
4.78713000900328e-07,3.919839338573939e-07,3.061687172896388e-07,4.0771574760525374e-05
4.887628224948425e-07,3.926387157615121e-07,3.08002262147454e-07,4.088527005907649e-05
4.990256349741346e-07,3.932577012568378e-07,3.097711264748508e-07,4.103691448191231e-05
5.094302724236634e-07,3.938446706214828e-07,3.114650098049417e-07,4.1223381471358586e-05
5.199069278719993e-07,3.9440112009352887e-07,3.1307321440151325e-07,4.1441152503863316e-05
5.303912397786663e-07,3.949275038384136e-07,3.1458551825574445e-07,4.168653249567581e-05
5.408296503631614e-07,3.95423546083564e-07,3.15992142805374e-07,4.1955794072306926e-05
5.511818508874476e-07,3.958883631756442e-07,3.172827744968503e-07,4.224521436774422e-05
5.614171206985951e-07,3.9632118649181116e-07,3.1844604034877506e-07,4.255105530845481e-05
5.715073918173277e-07,3.9672100128686883e-07,3.194700561064749e-07,4.286954079237027e-05
5.814225059104066e-07,3.9708475875771704e-07,3.203432390429788e-07,4.319681753283344e-05
5.911289464999919e-07,3.974064369018922e-07,3.210549011097028e-07,4.3528907489029656e-05
6.005903058539541e-07,3.976777900109975e-07,3.2159599614819477e-07,4.386172748042156e-05
6.097690030164672e-07,3.978902508749608e-07,3.2195956509035487e-07,4.4191211547517714e-05
6.186281282822066e-07,3.980375932753287e-07,3.2214043427238693e-07,4.4513505870017776e-05
6.271314320823875e-07,3.981181436789177e-07,3.221352062726526e-07,4.482520501645368e-05
6.352422292852171e-07,3.981355332212695e-07,3.219429427549836e-07,4.512355662150793e-05
6.42923165240441e-07,3.980978938997107e-07,3.2156569563075705e-07,4.5406532732408004e-05
6.501377506384819e-07,3.98015506685744e-07,3.2100823461260423e-07,4.567275656854621e-05
6.568540001796755e-07,3.978979083556715e-07,3.202768277135817e-07,4.592134778701242e-05
6.630488805270639e-07,3.9775180965206187e-07,3.193783587087481e-07,4.6151746771807924e-05
6.687097845597816e-07,3.9757999129142906e-07,3.183214503422189e-07,4.636356113755934e-05
6.73830593650791e-07,3.973813096074695e-07,3.1711786275459253e-07,4.655642052872981e-05
6.784060642189935e-07,3.9715224059453116e-07,3.1578128681223487e-07,4.672980956566082e-05
6.824299372185332e-07,3.9688960805213843e-07,3.1432511102756826e-07,4.6882957152557126e-05
6.858958592616658e-07,3.965928726211739e-07,3.127617821313378e-07,4.701491946130398e-05
6.887976707224218e-07,3.9626434156105535e-07,3.111029975959303e-07,4.712485248799093e-05
6.91129519874441e-07,3.959077041165588e-07,3.0936000703803155e-07,4.721228397779593e-05
6.928870718666113e-07,3.955262740465224e-07,3.075439283408339e-07,4.7277220275451364e-05
6.940690658992071e-07,3.951220960630953e-07,3.0566525772509065e-07,4.7320107236015384e-05
6.946785615960618e-07,3.9469681256580243e-07,3.037333898291208e-07,4.734174342329713e-05
6.947244388991138e-07,3.9425294019401173e-07,3.0175748369268856e-07,4.7343169703329355e-05
6.942226139511803e-07,3.9379347788797306e-07,2.9974890133575614e-07,4.73255031761091e-05
6.931945573573801e-07,3.9332067017239315e-07,2.9772490638001647e-07,4.728976139795606e-05
6.916634164976093e-07,3.9283516817606285e-07,2.95710779178131e-07,4.7236784659899216e-05
6.89650920467116e-07,3.923354946721447e-07,2.937376864551448e-07,4.716726082637384e-05
6.871765787664529e-07,3.9181860426441117e-07,2.9183841638840905e-07,4.7081776627291575e-05
6.842590700211297e-07,3.9128135101135604e-07,2.900441632940142e-07,4.69809204370322e-05
6.809189997844178e-07,3.9072078277395293e-07,2.8838291601381345e-07,4.6865500864427366e-05
6.771812313505996e-07,3.9013325178426585e-07,2.868785463754141e-07,4.673673103591048e-05
6.73075437879548e-07,3.895147432817922e-07,2.855500635334932e-07,4.6596131438577225e-05
6.686348572053975e-07,3.8886259488543503e-07,2.8441173783257885e-07,4.644523256619454e-05
6.638936356052104e-07,3.881755683082958e-07,2.834743720318791e-07,4.6285450865438566e-05
6.588834290643785e-07,3.874516773643953e-07,2.827461186164815e-07,4.611824978883526e-05
6.536316039692319e-07,3.866866059419632e-07,2.822322223566411e-07,4.59452995540995e-05
6.481628839966929e-07,3.858742188658483e-07,2.8193505685523827e-07,4.5768437207294565e-05
6.425019524401295e-07,3.850089404912864e-07,2.8185428433024806e-07,4.558950876148006e-05
6.366736128503053e-07,3.840882982792008e-07,2.819864031610526e-07,4.541021655322165e-05
6.307010062104359e-07,3.831127620359605e-07,2.8232476180369346e-07,4.5232022513597604e-05
6.24603899841385e-07,3.820830086912486e-07,2.8286134435901606e-07,4.5056114460649485e-05
6.183979078009679e-07,3.809978603785271e-07,2.835901224401093e-07,4.4883416182351836e-05
6.120946693253612e-07,3.798542675626202e-07,2.845089840885149e-07,4.471460669472366e-05
6.057021992576868e-07,3.7864770306039313e-07,2.856178148149861e-07,4.4550125646861966e-05
5.992251805086224e-07,3.7737193368241074e-07,2.869150036411312e-07,4.4390180538074847e-05
5.926669757797513e-07,3.76019346739604e-07,2.883957849645888e-07,4.423479402530778e-05
5.860343522319533e-07,3.745822513239925e-07,2.900532782734405e-07,4.408387171538535e-05
5.793417058423565e-07,3.7305386451516963e-07,2.918807008475544e-07,4.393718969467735e-05
5.726107220187064e-07,3.7142900927112407e-07,2.9387206725622874e-07,4.379428728181421e-05
5.658662387851633e-07,3.6970477336570747e-07,2.960209891109972e-07,4.365443966857011e-05
5.591316625776049e-07,3.67879697211165e-07,2.9832038258469053e-07,4.351682585349397e-05
5.524262380002036e-07,3.6595190736626266e-07,3.0076421270453785e-07,4.338074965309487e-05
5.457654167963104e-07,3.639190020485564e-07,3.033485675837997e-07,4.324574411213944e-05
5.391624566736964e-07,3.6178037941847033e-07,3.060701881347633e-07,4.311156405392881e-05
5.326287186192987e-07,3.595394610662545e-07,3.0892393065023014e-07,4.2978142528095975e-05
5.261732932888274e-07,3.572035531102306e-07,3.1190109844574626e-07,4.284555810194449e-05
5.198026207551548e-07,3.547820478488037e-07,3.1498901547936804e-07,4.271402889539837e-05
5.135198318411003e-07,3.5228573874225024e-07,3.1817107468440466e-07,4.258392468382677e-05
5.073242249749528e-07,3.497277307799048e-07,3.214267921444371e-07,4.2455763044456206e-05
5.012113979629401e-07,3.471227708742462e-07,3.2473226007155207e-07,4.2330134600071224e-05
4.951744775642159e-07,3.4448448861788264e-07,3.280611445857313e-07,4.220753100115825e-05
4.89206377803454e-07,3.418235237169535e-07,3.3138578533667534e-07,4.2088143759910905e-05
4.833015000214832e-07,3.3914723836840984e-07,3.34678598011893e-07,4.197176578884111e-05
4.774564472567316e-07,3.364604609322872e-07,3.379144982330795e-07,4.1857845648923685e-05
4.7167240126713435e-07,3.3376805713884537e-07,3.410732051029169e-07,4.174559697165353e-05
4.659584060326844e-07,3.3107828325344765e-07,3.4413921964023005e-07,4.1634047657343405e-05
4.6033101633241864e-07,3.284028116151589e-07,3.470993769409861e-07,4.152202304166848e-05
4.5481189132549593e-07,3.2575284137754397e-07,3.499402449607284e-07,4.140813845552245e-05
4.494269791854511e-07,3.231363263448753e-07,3.5264765883997605e-07,4.129085776669349e-05
4.442043947147446e-07,3.2055929572654e-07,3.552077145903639e-07,4.1168600459361266e-05
4.3917046186128217e-07,3.1802925490905216e-07,3.5760722732676724e-07,4.103983308028946e-05
4.3434844677099675e-07,3.155574681576039e-07,3.598336582871321e-07,4.090309291030141e-05
4.297594625603647e-07,3.131589844562163e-07,3.6187474224233797e-07,4.075695009064365e-05
4.2542214668675145e-07,3.1085199752566965e-07,3.637180460666593e-07,4.059998535232793e-05
4.213512622376537e-07,3.0865749432855246e-07,3.653520978971917e-07,4.043086030341543e-05
4.175567344327573e-07,3.065978090761491e-07,3.667685001817618e-07,4.024846922416212e-05
4.140440792280549e-07,3.046951144479425e-07,3.6796239483756796e-07,4.005208236341113e-05
4.108162452168046e-07,3.029725549144936e-07,3.6893216312274997e-07,3.9841385947813375e-05
4.078748045116464e-07,3.0145518648591147e-07,3.6967976987184203e-07,3.961637740217841e-05
4.0521906573639114e-07,3.001668800526267e-07,3.702097567074947e-07,3.9377162779788034e-05
4.028465363810877e-07,2.991261779609818e-07,3.705268721274825e-07,3.912380855915446e-05
4.007578695349745e-07,2.983448851897314e-07,3.7063515759248594e-07,3.885636586835047e-05
3.989612447973487e-07,2.978285295655196e-07,3.705390151512375e-07,3.8574981069375946e-05
3.974699554322368e-07,2.9757739624916816e-07,3.7024431308746265e-07,3.827992909977643e-05
3.962964210572487e-07,2.975884889723056e-07,3.697583045481147e-07,3.7971556845964114e-05
3.9544871283842285e-07,2.978587293894516e-07,3.6908942029809063e-07,3.7650268920990064e-05
3.949295185186672e-07,2.983878811002969e-07,3.6824784759694684e-07,3.731660355517733e-05
3.947362662064266e-07,2.9917809748498765e-07,3.6724557003542666e-07,3.697125749516271e-05
3.94862730735193e-07,3.0023028065603754e-07,3.660951437518199e-07,3.661497712390266e-05
3.953002519920475e-07,3.015412107415856e-07,3.648082484771821e-07,3.62484352842451e-05
3.960373638737778e-07,3.031031099311088e-07,3.6339524981295253e-07,3.5872239527317385e-05
3.970599944057389e-07,3.049045702735125e-07,3.618663189300571e-07,3.548714232177047e-05
3.9835303457855305e-07,3.0693315972866394e-07,3.602325374175315e-07,3.5094398696010424e-05
3.9990108881103114e-07,3.091806176041724e-07,3.5850597763000174e-07,3.4696012526516494e-05
4.016879432805533e-07,3.1164794627998857e-07,3.5670028863751114e-07,3.429465202391121e-05
4.036972097288534e-07,3.1434524963702693e-07,3.548312573478184e-07,3.389333264131505e-05
4.0591466818033814e-07,3.172856639009273e-07,3.5291532238298725e-07,3.349508199059377e-05
4.083301266646695e-07,3.204784587247919e-07,3.509672585543841e-07,3.310267475946582e-05
4.1093721609590675e-07,3.2392564609287557e-07,3.4899950287075575e-07,3.2718450486472054e-05
4.1373100171941993e-07,3.276226515663617e-07,3.47022944612298e-07,3.2344212959063735e-05
4.167055888642339e-07,3.3156130371000573e-07,3.450475385907123e-07,3.198120136572771e-05
4.198542795393647e-07,3.35732717037288e-07,3.430822651369404e-07,3.1630119577640494e-05
4.2317108225489175e-07,3.4012921869971124e-07,3.411346599382564e-07,3.1291195188599274e-05
4.266509278356449e-07,3.44745003399336e-07,3.392100892867984e-07,3.096424071048161e-05
4.3028933460091285e-07,3.4957476904893517e-07,3.373111554442337e-07,3.0648711544518715e-05
4.3408284785160034e-07,3.5461177627647204e-07,3.3543734152340123e-07,3.0343763432700236e-05
4.3802901284118135e-07,3.5984655071753004e-07,3.3358499115623284e-07,3.0048310348929414e-05
4.4212595398788996e-07,3.652657609944805e-07,3.3174830034775665e-07,2.9761086137236028e-05
4.4637266057787744e-07,3.708515517609129e-07,3.29921289782394e-07,2.948071536129157e-05
4.5076874148856314e-07,3.765811734680975e-07,3.280989019537992e-07,2.9205810980671844e-05
4.553128591510423e-07,3.8242717828972613e-07,3.2627629039602064e-07,2.8935098106597492e-05
4.6000169232009924e-07,3.883598572773086e-07,3.244481379679308e-07,2.8667520920740278e-05
4.6483014857591593e-07,3.943511698843515e-07,3.226091842826535e-07,2.840231191052207e-05
4.6979092973182546e-07,4.003760950515303e-07,3.2075484762185677e-07,2.813903106772826e-05
4.7487284215500624e-07,4.064099937690578e-07,3.1888113035506703e-07,2.787755605199704e-05
4.800596111232087e-07,4.124261650422154e-07,3.1698428575567695e-07,2.7617996808787022e-05
4.853308400941879e-07,4.183967949286325e-07,3.150607865013159e-07,2.736054414683807e-05
4.906648029781438e-07,4.242950448773429e-07,3.131076463124985e-07,2.7105338162827786e-05
4.960408617864293e-07,4.3009486726522024e-07,3.111225465704785e-07,2.6852492899520366e-05
5.014392644049707e-07,4.357695335453781e-07,3.091038233444227e-07,2.6602278821785244e-05
5.068385463792799e-07,4.412926846500982e-07,3.0705145071855304e-07,2.635526469011559e-05
5.122134694971351e-07,4.466417761661557e-07,3.0496831532702517e-07,2.6112275353677647e-05
5.175349619484953e-07,4.517998218149421e-07,3.028598365041483e-07,2.5874234076699626e-05
5.22770985376299e-07,4.567537405552243e-07,3.007323902291459e-07,2.5642010189402842e-05
5.278882110539764e-07,4.614917926809813e-07,2.985923105712151e-07,2.5416317966105657e-05
5.328542199480041e-07,4.660023767196793e-07,2.964463899177609e-07,2.519765569701887e-05
5.376387422944447e-07,4.7027368407407855e-07,2.943038216063477e-07,2.4986259185310385e-05
5.422145218994566e-07,4.742935352549221e-07,2.9217821818311964e-07,2.4782074959758562e-05
5.465589917744925e-07,4.780494177048965e-07,2.90087518267278e-07,2.45847856335939e-05
5.50655660009014e-07,4.815285269106189e-07,2.880509755266067e-07,2.4393913463524912e-05
5.54493898961123e-07,4.847182092739232e-07,2.860861270212121e-07,2.4209003780671727e-05
5.580669631613443e-07,4.876063663724651e-07,2.842091398129319e-07,2.4029837877816848e-05
5.613691521329031e-07,4.901809876481251e-07,2.824365627932905e-07,2.38565590311705e-05
5.643942066343361e-07,4.924302171258193e-07,2.807845167780971e-07,2.3689613341393383e-05
5.671364605422071e-07,4.943433010222878e-07,2.7926629555298646e-07,2.3529549273079505e-05
5.695941674989433e-07,4.959109737608113e-07,2.778916068344389e-07,2.337680580483876e-05
5.717716728751928e-07,4.971256904869591e-07,2.766675540394666e-07,2.32315659806255e-05
5.736772803937177e-07,4.97982098500875e-07,2.7560033992091324e-07,2.3093698922151942e-05
5.753198110799404e-07,4.984771040164903e-07,2.7469659592621653e-07,2.296278173584276e-05
5.767080036350268e-07,4.986100021097061e-07,2.7396242982783587e-07,2.283815981718941e-05
5.778500951568755e-07,4.983834565554164e-07,2.734017493453719e-07,2.2719061470863465e-05
5.787513523856608e-07,4.978045630705364e-07,2.730173898897967e-07,2.260485728627204e-05
5.794127254202111e-07,4.968846094059969e-07,2.728142346499385e-07,2.2495385790334924e-05
5.798324384462212e-07,4.956380324925117e-07,2.7280080495100414e-07,2.2391055031214414e-05
5.80008740302395e-07,4.940813648883767e-07,2.729879494871089e-07,2.2292619016572087e-05
5.799418740879636e-07,4.922316634940781e-07,2.733859676404523e-07,2.2200852532465437e-05
5.796348251323282e-07,4.901049521159701e-07,2.740023446860821e-07,2.211639622949947e-05
5.790933866512304e-07,4.877160549007103e-07,2.7484170495271765e-07,2.2039909545050065e-05
5.783256058593618e-07,4.850800008667723e-07,2.7590779796863066e-07,2.1972428322588933e-05
5.773398275484117e-07,4.822134672842034e-07,2.772050000754815e-07,2.1915596062281075e-05
5.761419267308199e-07,4.791345479081814e-07,2.7873675373034293e-07,2.18715332176068e-05
5.747342345415738e-07,4.7586098587203635e-07,2.805024505903776e-07,2.184244651512523e-05
5.731182036451092e-07,4.7240892490349605e-07,2.824968829333652e-07,2.1830230378891897e-05
5.713004947433207e-07,4.687945319457721e-07,2.847123634033129e-07,2.18362133070749e-05
5.692974370884019e-07,4.6503705383911027e-07,2.8713977545015385e-07,2.1861080284123746e-05
5.671324891648609e-07,4.6115890215723094e-07,2.8976752135279625e-07,2.190492046991685e-05
5.648301653698646e-07,4.5718281337020036e-07,2.925813396802409e-07,2.1967313671435805e-05
5.62413347064398e-07,4.531295099720749e-07,2.955666226582911e-07,2.2047402928707568e-05
5.599034759661952e-07,4.490164606523305e-07,2.9871070676484145e-07,2.2143957023547464e-05
5.573194634952032e-07,4.448570072825372e-07,3.020022912656844e-07,2.225543836302625e-05
5.546754605264224e-07,4.406602355809284e-07,3.0542906298537623e-07,2.2380064279171184e-05
5.519802520825958e-07,4.364319348319554e-07,3.0897666388198626e-07,2.2515847863220866e-05
5.492382782281837e-07,4.321767002284749e-07,3.126291160554311e-07,2.266063488640716e-05
5.464504379817466e-07,4.279005373749463e-07,3.1636852664609034e-07,2.2812168190606947e-05
5.436148510368235e-07,4.2361218268132857e-07,3.201740761285675e-07,2.296818954492533e-05
5.407285181664662e-07,4.1932209090042745e-07,3.240219332134397e-07,2.312655893326175e-05
5.377895075535044e-07,4.150404127527007e-07,3.2788667820262307e-07,2.328534545050905e-05
5.348004858047329e-07,4.107759741151879e-07,3.3174318346442497e-07,2.3442840497534893e-05
5.317736506488973e-07,4.065364266929046e-07,3.355675622467368e-07,2.359752083021597e-05
5.287322989701208e-07,4.023285207683853e-07,3.3933734512859694e-07,2.374804903344141e-05
5.257071776926189e-07,3.981577991365959e-07,3.4303158691978996e-07,2.3893300585935103e-05
5.22732063534125e-07,3.940279056580586e-07,3.466306350449632e-07,2.403232392400069e-05
5.198406142374128e-07,3.8994059011509783e-07,3.501155543813724e-07,2.4164239767455623e-05
5.170645974816711e-07,3.8589632117589156e-07,3.5346808313627403e-07,2.4288161049492995e-05
5.144336621507104e-07,3.818945894643147e-07,3.566713581320205e-07,2.440316358514089e-05
5.119736121974848e-07,3.7793443613725607e-07,3.5971058756119146e-07,2.450831231706721e-05
5.097025925551718e-07,3.7401519850117257e-07,3.6257291269555114e-07,2.4602710028345905e-05
5.076294059758397e-07,3.701370136716832e-07,3.6524681875092823e-07,2.4685486156471232e-05
5.05755166959886e-07,3.663021247312281e-07,3.677221187333951e-07,2.4755731622615758e-05
5.040756403858514e-07,3.625160017701501e-07,3.699897981843835e-07,2.481247690722934e-05
5.025837619008141e-07,3.587857131285658e-07,3.720409333233832e-07,2.485474927204635e-05
5.012728085967382e-07,3.5511693828564574e-07,3.7386641478616295e-07,2.4881646212795976e-05
5.001370097751154e-07,3.5151269628660857e-07,3.754580068265218e-07,2.489235746821995e-05
4.991691936817146e-07,3.479736502150673e-07,3.7680886237473886e-07,2.4886143091440063e-05
4.98361829948712e-07,3.444983452119693e-07,3.779129980496876e-07,2.4862318705338948e-05
4.97711804231644e-07,3.410834856419937e-07,3.787648166955146e-07,2.482029419634536e-05
4.972209679359806e-07,3.3772536134538176e-07,3.7935886384597027e-07,2.4759677639851026e-05
4.968919094829742e-07,3.344215502848009e-07,3.7968966948235953e-07,2.4680377711185795e-05
4.967258388356594e-07,3.311711119423923e-07,3.7975224901181717e-07,2.458261322562704e-05
4.967232015550188e-07,3.2797429504277485e-07,3.795434745462477e-07,2.4466812429315197e-05
4.968832193465499e-07,3.248336156745481e-07,3.790644460249918e-07,2.43334915216234e-05
4.972030214011933e-07,3.217548604723627e-07,3.7832258290992886e-07,2.418325920816162e-05
4.976779603067622e-07,3.187460339482288e-07,3.773304521661108e-07,2.401697046088749e-05
4.983010281325247e-07,3.158159065326552e-07,3.761024244703923e-07,2.383587169148257e-05
4.990609771377057e-07,3.129741960057245e-07,3.746534112674225e-07,2.364162173430807e-05
4.999425657726972e-07,3.102329368250302e-07,3.729996550386465e-07,2.343620032985431e-05
5.009292510395773e-07,3.076076985882323e-07,3.711584082645494e-07,2.322174537834185e-05
5.02004261728721e-07,3.051168315431494e-07,3.6914613660448634e-07,2.3000435875734384e-05
5.031488760182382e-07,3.027789663339611e-07,3.669774940526496e-07,2.277453235096193e-05
5.043411901068189e-07,3.0061130534932386e-07,3.646654445873463e-07,2.2546446319029167e-05
5.055575437653019e-07,2.986293360979425e-07,3.622210405110396e-07,2.231864670478457e-05
5.067750907359303e-07,2.968469856784309e-07,3.59653260145003e-07,2.2093476979834963e-05
5.079725632668548e-07,2.9527676531033905e-07,3.56970142626906e-07,2.1873121844157057e-05
5.091296828593203e-07,2.9393002604720094e-07,3.541799864577551e-07,2.1659793514405995e-05
5.102284662656829e-07,2.928172343345237e-07,3.5129099352184987e-07,2.1455919701787147e-05
5.11255478251674e-07,2.9194758276850053e-07,3.483103502483624e-07,2.1264116835519465e-05
5.122023625767851e-07,2.913276229558725e-07,3.4524440225224124e-07,2.1086994028713587e-05
5.130656539021996e-07,2.909600973537975e-07,3.420997786382768e-07,2.092694110942038e-05
5.138467188538718e-07,2.908444241674077e-07,3.3888379995672905e-07,2.0785980231248827e-05
5.145511694945432e-07,2.909777433959097e-07,3.3560332325337376e-07,2.0665681921268767e-05
5.151871874787527e-07,2.913551079601681e-07,3.32263431166702e-07,2.0567112101225158e-05
5.157625682705122e-07,2.919702285785153e-07,3.288672684259448e-07,2.0490822402114733e-05
5.162820830878968e-07,2.9281809429435985e-07,3.254166620492155e-07,2.043691717135045e-05
5.167467712627886e-07,2.9389798252478746e-07,3.219131867117218e-07,2.0405149122381424e-05
