3.5618615719276463e-07,4.2851361434034657e-07,2.2064706554279955e-06,2.444651466334844e-05
3.570458185599293e-07,4.3279487876977064e-07,2.165221215417741e-06,2.4112441631633097e-05
3.577838319307845e-07,4.3735244620527813e-07,2.1235895301099997e-06,2.3774851899073223e-05
3.5840284928645224e-07,4.421375965859765e-07,2.0816783278202732e-06,2.3434983464043038e-05
3.5890574154700274e-07,4.471007837842376e-07,2.03958250858706e-06,2.3094123926831463e-05
3.5929496674825795e-07,4.521916088573473e-07,1.9973964764799408e-06,2.2753465787347905e-05
3.595741396241213e-07,4.573591163382557e-07,1.955224647237904e-06,2.2414029059748317e-05
3.597516893180993e-07,4.625518028406197e-07,1.913186428033609e-06,2.2076734456819832e-05
3.598417830122942e-07,4.6771786392617646e-07,1.8714097832312989e-06,2.174258192373494e-05
3.5986093083992976e-07,4.7280700127237386e-07,1.8300189458704518e-06,2.1412763983575897e-05
3.598248268912086e-07,4.777723048121681e-07,1.789127931187378e-06,2.108861804758612e-05
3.5974831705928004e-07,4.825698993044512e-07,1.7488436637824708e-06,2.077146551740292e-05
3.596462088493296e-07,4.871581235453235e-07,1.7092723579644957e-06,2.0462452757773857e-05
3.595328211497864e-07,4.914982771901413e-07,1.6705230213988885e-06,2.016248745136449e-05
3.59420726628906e-07,4.955553453189684e-07,1.6327076672793957e-06,1.987224870373184e-05
3.593193269767172e-07,4.992984929779091e-07,1.5959396766446302e-06,1.9592196411706447e-05
3.5923404300210453e-07,5.027041599550139e-07,1.5603309830031215e-06,1.932261337854996e-05
3.5916737799169296e-07,5.057621660317882e-07,1.5259890039356545e-06,1.906378174953132e-05
3.5912096605804093e-07,5.084807763170801e-07,1.4930133980803562e-06,1.8816241936028653e-05
3.590960538667336e-07,5.108854583432079e-07,1.46149183208484e-06,1.858090968700643e-05
3.590921971996177e-07,5.130105016834505e-07,1.4314985003912662e-06,1.835895594196268e-05
3.5910636606856297e-07,5.148898800553645e-07,1.4031011274440658e-06,1.815158839911257e-05
3.5913410251540257e-07,5.165533749117474e-07,1.3763699243285887e-06,1.795987172322413e-05
3.591712280756551e-07,5.180272728340486e-07,1.351375586436335e-06,1.7784670758030568e-05
3.5921330337616613e-07,5.193364273722721e-07,1.3281824997253776e-06,1.762681951980947e-05
3.592538352870136e-07,5.205047576297331e-07,1.3068524244660696e-06,1.7487428351064123e-05
3.592838826174647e-07,5.215528903265093e-07,1.287453694287439e-06,1.7368028659083225e-05
3.592930123192436e-07,5.224957514102232e-07,1.2700629481649342e-06,1.7270447395499675e-05
3.592706976237586e-07,5.23344377959685e-07,1.2547582781080334e-06,1.7196584739346742e-05
3.592075711088553e-07,5.241125654317275e-07,1.2416064106106954e-06,1.7148251635442988e-05
3.5909644545470905e-07,5.248236788411596e-07,1.230648098713073e-06,1.7127088139436678e-05
3.589335704766417e-07,5.255136319589421e-07,1.2218908637410832e-06,1.7134511557880927e-05
3.5871926132395505e-07,5.262309009944524e-07,1.2153114940649859e-06,1.7171656605959767e-05
3.5845732722476547e-07,5.270345123198451e-07,1.2108619765760354e-06,1.723932141591944e-05
3.581545750465934e-07,5.279895751998614e-07,1.2084762972828476e-06,1.7337934892052825e-05
3.578205185149212e-07,5.291607202821032e-07,1.2080773357102348e-06,1.7467529470141234e-05
3.574657798980485e-07,5.306057750178474e-07,1.2095789064850157e-06,1.762770302390541e-05
3.570994553927439e-07,5.323745050057554e-07,1.2128813997142307e-06,1.7817575907207715e-05
3.567284534460014e-07,5.345131759028797e-07,1.2178668521376605e-06,1.803577280461538e-05
3.5636061265735886e-07,5.37068778362915e-07,1.2244007087222342e-06,1.8280481657925463e-05
3.560081041354479e-07,5.400880509040828e-07,1.2323434716343191e-06,1.854961978390829e-05
3.556859478075733e-07,5.436120915565599e-07,1.2415658698981131e-06,1.8841050993336213e-05
3.554074795376105e-07,5.476712893205272e-07,1.2519532124267252e-06,1.915273789381596e-05
3.5518292061803826e-07,5.522847945375897e-07,1.2633953851388e-06,1.948277762935938e-05
3.550209025448082e-07,5.574645143967702e-07,1.2757776334513843e-06,1.982939004725446e-05
3.549287464932701e-07,5.632211297020918e-07,1.2889832149347821e-06,2.019093730583701e-05
3.5491124076464744e-07,5.695684514716882e-07,1.3029005142735404e-06,2.056596472503837e-05
3.549696950240643e-07,5.76523984718148e-07,1.3174249252707077e-06,2.095320932065713e-05
3.551017807214272e-07,5.841066851392749e-07,1.332456920414958e-06,2.135154426602513e-05
3.5530202086443977e-07,5.923321466382975e-07,1.3479005027940953e-06,2.1759866060292244e-05
3.55562289063989e-07,6.012070315464124e-07,1.3636637398343868e-06,2.217695529859785e-05
3.5587201610387285e-07,6.107262113185884e-07,1.3796641222742034e-06,2.2601347166231705e-05
3.562185980901489e-07,6.208727345932783e-07,1.395835835464887e-06,2.303125804356418e-05
3.5658870768901854e-07,6.316206818375978e-07,1.41213129010125e-06,2.3464592842330122e-05
3.569699687229403e-07,6.429412798725498e-07,1.4285174814110578e-06,2.389900123753671e-05
3.573510364849084e-07,6.548090050221818e-07,1.4449707272410064e-06,2.4331945075631727e-05
3.577204549052632e-07,6.672024587877905e-07,1.4614676238264082e-06,2.476078748172753e-05
3.5806661209545174e-07,6.80097897287068e-07,1.477974201991411e-06,2.518290834138768e-05
3.583790880391055e-07,6.934612724749952e-07,1.4944430806411288e-06,2.559577362597232e-05
3.5864970484687634e-07,7.072468547995829e-07,1.5108234591681418e-06,2.5996906272008603e-05
3.588720321273996e-07,7.214008006823905e-07,1.5270783308363757e-06,2.638383540267949e-05
3.5904068715891404e-07,7.358627526147445e-07,1.5431977494823034e-06,2.67541076178626e-05
3.591514915003759e-07,7.505648078140062e-07,1.559197561917921e-06,2.71053487899996e-05
3.5920105077478473e-07,7.654311121740238e-07,1.5751031414680654e-06,2.74353629581948e-05
3.5918645348683354e-07,7.803792579507854e-07,1.590929563093196e-06,2.7742252417906435e-05
3.591064421208736e-07,7.953229627570381e-07,1.6066697972534539e-06,2.802446396323648e-05
3.589615847304005e-07,8.101762310742591e-07,1.6222929864887311e-06,2.828070205032716e-05
3.587520880437863e-07,8.248578536137426e-07,1.6377479621882812e-06,2.850980031293882e-05
3.5847612277552757e-07,8.392918609717725e-07,1.6529682504052554e-06,2.8710679747650635e-05
3.581304849005468e-07,8.53403727705214e-07,1.667878560954472e-06,2.888240049124165e-05
3.577115164020114e-07,8.671173754781265e-07,1.6824043212916623e-06,2.9024226844590887e-05
3.572149760933655e-07,8.803548881733252e-07,1.696483873993516e-06,2.9135673007515936e-05
3.5663684676594245e-07,8.93037589050767e-07,1.7100800992481189e-06,2.9216516188552e-05
3.5597501445078157e-07,9.050874984450815e-07,1.7231868684042343e-06,2.9266760891292207e-05
3.5522925928720605e-07,9.164291948519395e-07,1.7358245525249134e-06,2.9286642908765332e-05
3.544001712470112e-07,9.269922560313256e-07,1.7480240746677552e-06,2.9276705430066492e-05
3.5348962405096066e-07,9.367133734687195e-07,1.7598115842038291e-06,2.9237792153396557e-05
3.525022388275381e-07,9.45537813739591e-07,1.7712058065596863e-06,2.9170911456663318e-05
3.5144494356597096e-07,9.534199098231701e-07,1.7822248160949531e-06,2.907709975751853e-05
3.5032481554075925e-07,9.603212833751574e-07,1.792891218424873e-06,2.8957383843803856e-05
3.4914755172765825e-07,9.662082359462562e-07,1.8032298448768345e-06,2.8812932578054065e-05
3.479168261625857e-07,9.710514053696409e-07,1.8132601975507224e-06,2.864536582500645e-05
3.4663426180946844e-07,9.748279321903036e-07,1.8229898702965698e-06,2.845694199110548e-05
3.453006123385143e-07,9.775243591307992e-07,1.8324138667238465e-06,2.825045593657611e-05
3.4391788823167557e-07,9.79138629486383e-07,1.8415207051518848e-06,2.802899853499581e-05
3.424904629532884e-07,9.79679829441043e-07,1.850300375246592e-06,2.779573953373081e-05
3.4102389836546213e-07,9.791651266319016e-07,1.8587479831169426e-06,2.7553748411419157e-05
3.395231308766992e-07,9.776155145755683e-07,1.866862239721653e-06,2.7305842662598045e-05
3.3799176738869445e-07,9.750533881636894e-07,1.874641583808201e-06,2.7054467892416532e-05
3.3643255260586297e-07,9.715030633982077e-07,1.8820794682234376e-06,2.6801622928296388e-05
3.3484848507215426e-07,9.669922518345163e-07,1.889159805493123e-06,2.6548847444347783e-05
3.3324371698186965e-07,9.615517857200188e-07,1.8958581655155499e-06,2.629726832629469e-05
3.316236068243033e-07,9.55213641816816e-07,1.9021542655448867e-06,2.604768781696428e-05
3.2999401054026323e-07,9.480102505232279e-07,1.9080504650414523e-06,2.580068607643291e-05
3.283602291616925e-07,9.399759537688641e-07,1.9135839107678642e-06,2.555670977811861e-05
3.2672583704948287e-07,9.311482553026363e-07,1.9188257773474546e-06,2.53161469819212e-05
3.250920068045725e-07,9.21567788651788e-07,1.9238727425258045e-06,2.5079404630269705e-05
3.234582007680594e-07,9.112777907831606e-07,1.9288410110912245e-06,2.484698438048949e-05
3.21823498240699e-07,9.003237488685193e-07,1.9338632893140425e-06,2.4619523810930465e-05
3.2018738100696175e-07,8.88753888440484e-07,1.939077321625648e-06,2.439778270512853e-05
3.185500015032908e-07,8.766204676693605e-07,1.944604921809793e-06,2.4182603497220232e-05
3.169120702701523e-07,8.639795282313002e-07,1.950540740718337e-06,2.3974883860517566e-05
3.1527474417536895e-07,8.508876292790673e-07,1.9569629534750583e-06,2.377553976974875e-05
3.136402086212801e-07,8.373990311448741e-07,1.963952801382008e-06,2.358541037329841e-05
3.1201248950813515e-07,8.235682271892346e-07,1.971605285451773e-06,2.340512656059411e-05
3.1039717827333124e-07,8.094580349209895e-07,1.98002724867289e-06,2.323501668942095e-05
3.0879991829154576e-07,7.951469499138575e-07,1.989328368699058e-06,2.3075091711485752e-05
3.072251425502709e-07,7.807288440280722e-07,1.9996104526700108e-06,2.292512173307056e-05
3.0567688040793465e-07,7.663057052385077e-07,2.0109568355317183e-06,2.278478225692101e-05
3.0416148322006787e-07,7.519789596741896e-07,2.02342322582724e-06,2.265379678540873e-05
3.026892863509294e-07,7.378433724038745e-07,2.037032406326232e-06,2.2532024782053932e-05
3.012735165121871e-07,7.239847426283734e-07,2.0517715750888113e-06,2.241950706430865e-05
2.999285789084497e-07,7.104805393277731e-07,2.0675927295490193e-06,2.231648386850657e-05
2.9867003880506267e-07,6.974033765151859e-07,2.0844237923812358e-06,2.222337095953036e-05
2.9751552081505463e-07,6.848256046491602e-07,2.1021854008297746e-06,2.2140663708310958e-05
2.964842845063834e-07,6.728200149075954e-07,2.1207956611884584e-06,2.2068778832539096e-05
2.955958186938184e-07,6.614560424531431e-07,2.1401708779343608e-06,2.200790926069224e-05
2.948693484476387e-07,6.507964235404186e-07,2.1602427310326093e-06,2.1957962882500305e-05
2.943232908436275e-07,6.408970231636774e-07,2.180979573038184e-06,2.191862809263648e-05
2.9397288572878626e-07,6.31806972836059e-07,2.2023875995325117e-06,2.1889550245823708e-05
2.9382749436722933e-07,6.235653896518325e-07,2.224490665226604e-06,2.18704791607566e-05
2.938901716032988e-07,6.161965790214029e-07,2.2473014729594705e-06,2.186126621841972e-05
2.9415977069893945e-07,6.097084295416247e-07,2.270797928424727e-06,2.1861745455458504e-05
2.946330113922479e-07,6.040945308472952e-07,2.294913528023485e-06,2.1871603123329733e-05
2.9530498832918855e-07,5.993378988838769e-07,2.319540358138536e-06,2.189032639604748e-05
2.961701483513427e-07,5.954142184748953e-07,2.3445383890008428e-06,2.191724057079601e-05
2.9722338831614225e-07,5.92292322328211e-07,2.36974601076348e-06,2.19515482092411e-05
2.9845889612739694e-07,5.899324179578806e-07,2.394987199757597e-06,2.199231936849012e-05
2.998692589147784e-07,5.882857675099273e-07,2.420073000992576e-06,2.2038477747116893e-05
3.014472053238205e-07,5.872981770422693e-07,2.4448010860350534e-06,2.2088885484613018e-05
3.03186699296453e-07,5.869163024641275e-07,2.46896118892476e-06,2.214259600057825e-05
3.050810287992843e-07,5.870936067008428e-07,2.4923523447509146e-06,2.2199131102817942e-05
3.0712039717972014e-07,5.877930180510596e-07,2.514807474605115e-06,2.2258538484836988e-05
3.0929132619883387e-07,5.889863525731935e-07,2.5362069047997533e-06,2.2321223990945253e-05
3.115770499989802e-07,5.906525381140832e-07,2.5564676608339755e-06,2.238773456155717e-05
3.139578260362689e-07,5.92775120198445e-07,2.57552282508642e-06,2.245864106306532e-05
3.164116186308666e-07,5.953382522806057e-07,2.5933163057198065e-06,2.2534581295292552e-05
3.1891631910696e-07,5.983217887195639e-07,2.609814848240572e-06,2.2616345792770318e-05
3.214532744155257e-07,6.016987579052068e-07,2.625015930678858e-06,2.270486304611243e-05
3.240091869992805e-07,6.054379118281436e-07,2.6389369597252662e-06,2.2801113297875517e-05
3.2657446261982745e-07,6.095078781776707e-07,2.651595444414137e-06,2.290603669981367e-05
3.291400256197813e-07,6.138772423482418e-07,2.6630002500815566e-06,2.302044905188801e-05
3.3169526966973485e-07,6.18511384020943e-07,2.673156135762983e-06,2.314496688498216e-05
3.3422758205346235e-07,6.233712063290328e-07,2.682065949047116e-06,2.327992954178494e-05
3.367225203721385e-07,6.284165268993353e-07,2.6897240846988047e-06,2.3425321901822547e-05
3.391641609432222e-07,6.336116181676323e-07,2.696109652098787e-06,2.3580734259449186e-05
3.415357289628908e-07,6.389266173867515e-07,2.7011880385834787e-06,2.3745389411769368e-05
3.438204285431825e-07,6.443337328044084e-07,2.70492148778121e-06,2.391821674589176e-05
3.460023019228231e-07,6.498044630417291e-07,2.707278410254434e-06,2.4097916117341533e-05
3.480664887522892e-07,6.553097541179195e-07,2.708232666592213e-06,2.428299190114622e-05
3.499988282387742e-07,6.608193348253148e-07,2.7077628059574507e-06,2.447177838764324e-05
3.517861373204805e-07,6.662997585224636e-07,2.705862903719865e-06,2.4662471481754e-05
3.534172189113434e-07,6.717139689500988e-07,2.702557990268925e-06,2.4853195634693406e-05
3.548835981947514e-07,6.770241844566754e-07,2.6979131259302697e-06,2.5042118801542224e-05
3.561802297161483e-07,6.821969168843932e-07,2.692030923502505e-06,2.5227564055144305e-05
3.5730594593385633e-07,6.872067668037868e-07,2.6850351352991087e-06,2.540808004623486e-05
3.582622168996724e-07,6.92036184009972e-07,2.677049871971978e-06,2.558248167132293e-05
3.59051050433959e-07,6.96670892924206e-07,2.668191650049548e-06,2.574986196740691e-05
3.5967464484138345e-07,7.010947504265136e-07,2.658575122473425e-06,2.5909555845471385e-05
3.601359809005086e-07,7.05289178383872e-07,2.6483164931043978e-06,2.606105624938531e-05
3.604378879460876e-07,7.092372899030396e-07,2.637526368655431e-06,2.6203920397882637e-05
3.6058160158521046e-07,7.12926783379133e-07,2.626298297380797e-06,2.6337695523294048e-05
3.6056656104603727e-07,7.163477301335551e-07,2.6146997813295543e-06,2.6461866583050123e-05
3.603908840191214e-07,7.194885957827839e-07,2.6027678687799304e-06,2.6575850329971043e-05
3.6005213572657524e-07,7.223345605461337e-07,2.5905105241381698e-06,2.667904400400746e-05
3.595493061577829e-07,7.248684929686544e-07,2.57791437844144e-06,2.677086152110116e-05
3.588852450216442e-07,7.270738812595079e-07,2.5649566398968062e-06,2.6850723863295607e-05
3.5806650170678223e-07,7.289382564242462e-07,2.551614025499404e-06,2.691805435414155e-05
3.571002870856825e-07,7.304545676309442e-07,2.537862047352377e-06,2.6972290288164002e-05
3.559920585243379e-07,7.316192817445547e-07,2.5236679916557133e-06,2.701289891838948e-05
3.5474538811465e-07,7.324290428500708e-07,2.508986700992333e-06,2.7039423876946644e-05
3.533624880614244e-07,7.328794807223821e-07,2.4937621930517204e-06,2.705152611446325e-05
3.518441125142408e-07,7.329671715207273e-07,2.4779314778520992e-06,2.7048948474293537e-05
3.501894956043375e-07,7.32692031255092e-07,2.461427011222854e-06,2.703144376613148e-05
3.4839713995470827e-07,7.32057727788445e-07,2.444177804669406e-06,2.699876530105822e-05
3.4646571226469977e-07,7.310699356413337e-07,2.4261120102480503e-06,2.6950754042084792e-05
3.443943912687192e-07,7.297342276127373e-07,2.4071624927562754e-06,2.688749391281581e-05
3.421834180553163e-07,7.280566165171873e-07,2.387272590689373e-06,2.680945223132352e-05
3.398344532065216e-07,7.260465554973241e-07,2.3663975311134714e-06,2.6717489935056838e-05
3.373498933812706e-07,7.23717976758606e-07,2.344500630183924e-06,2.6612710404752977e-05
3.347326925774629e-07,7.210865794242595e-07,2.3215492718740675e-06,2.649623257753384e-05
3.319880422065893e-07,7.181660820022881e-07,2.297516499977806e-06,2.636901648717581e-05
3.291261083015996e-07,7.149657271227405e-07,2.272388106488728e-06,2.6231811420365882e-05
3.2616424950507173e-07,7.114896716104237e-07,2.2461710179766984e-06,2.6085171008004397e-05
3.231273305007295e-07,7.07738338587187e-07,2.218900722250509e-06,2.592947820642139e-05
3.2004672321404637e-07,7.037107655622969e-07,2.1906454980698606e-06,2.576506793133557e-05
3.1695992322534765e-07,6.994062033293972e-07,2.161501894363756e-06,2.559252321117817e-05
3.139100993210063e-07,6.948244055834286e-07,2.131580919108103e-06,2.541296216059719e-05
3.1094308011980016e-07,6.899668462214167e-07,2.1009979731714048e-06,2.5228054677159728e-05
3.081022644374126e-07,6.84840702856731e-07,2.069879895839372e-06,2.503978105038077e-05
3.0542465007423987e-07,6.79461453267406e-07,2.0383832108558244e-06,2.485012623663851e-05
3.029398646783786e-07,6.738493339540128e-07,2.006705382067749e-06,2.4660862629053463e-05
3.0067165699609585e-07,6.680237835881476e-07,1.975079330481762e-06,2.447355502658096e-05
2.9863965052019965e-07,6.620021270965759e-07,1.943754041481004e-06,2.428983790898769e-05
2.9685992825012844e-07,6.558007282071048e-07,1.9129692678609558e-06,2.411175251502754e-05
2.953455065697652e-07,6.494341944515017e-07,1.882934410233829e-06,2.3941854661821427e-05
2.941068090896236e-07,6.42913562274383e-07,1.8538201178344864e-06,2.378309162380105e-05
2.931514195266476e-07,6.362463395169186e-07,1.8257614184368462e-06,2.36386345016888e-05
2.924846927632795e-07,6.294383499736124e-07,1.7988627256298798e-06,2.351174306161785e-05
2.921117097841445e-07,6.224968231710597e-07,1.773200324493525e-06,2.3405622894166e-05
2.9203856624694504e-07,6.154339851288952e-07,1.748829885536707e-06,2.332325104363541e-05
2.9227208262932403e-07,6.08268018446826e-07,1.7258037285641797e-06,2.3267213605916503e-05
2.9281849995895893e-07,6.010206422134129e-07,1.7041830225329315e-06,2.3239608416632558e-05
2.936818548151369e-07,5.937148430839185e-07,1.6840322787077569e-06,2.324201637209302e-05
2.948625810260144e-07,5.863740217202135e-07,1.6654173793998826e-06,2.327550280248605e-05
2.9635621883973124e-07,5.790217132472954e-07,1.6484305672199018e-06,2.334060768638681e-05
2.981526642057983e-07,5.716825143943825e-07,1.6332245082635516e-06,2.3437309932173207e-05
3.002374641317577e-07,5.643824994518367e-07,1.6200256379491924e-06,2.356499101712754e-05
3.0259403032516406e-07,5.571471099474179e-07,1.6091213021698144e-06,2.3722464261144408e-05
3.052045266844604e-07,5.500000079988963e-07,1.600826173596756e-06,2.390811494075888e-05
3.080507597332991e-07,5.429644379583662e-07,1.5954375246511047e-06,2.41200964558966e-05
3.111161257779974e-07,5.360631171848111e-07,1.5932037104891608e-06,2.435647739888725e-05
3.143866424733658e-07,5.293173081200934e-07,1.5943244001619996e-06,2.461532645028468e-05
3.178505262608243e-07,5.227486164412536e-07,1.5989695115556268e-06,2.489480943296069e-05
3.214972177909879e-07,5.163812333122379e-07,1.6072922986902531e-06,2.5193293923608028e-05
3.2531564955285697e-07,5.102417109923138e-07,1.6194280405532012e-06,2.5509360774011827e-05
3.2929359977209296e-07,5.043569462982638e-07,1.6354827396205592e-06,2.5841699666191824e-05
3.334202829226935e-07,4.987514054540312e-07,1.6555166950329354e-06,2.6188981553576625e-05
3.376885505463565e-07,4.934459708278639e-07,1.6795275328510632e-06,2.6549754642771906e-05
3.420933528423605e-07,4.884610141859956e-07,1.7074435451341296e-06,2.692234111767633e-05
3.466294152987043e-07,4.838203461251021e-07,1.7391381597848042e-06,2.730478337645501e-05
3.5129002259642374e-07,4.795509136349708e-07,1.7744610682888248e-06,2.769488960055235e-05
3.560654107317746e-07,4.7568059250477686e-07,1.8132662580311768e-06,2.8090310669888646e-05
3.609412779320089e-07,4.722373339765888e-07,1.8554212454646072e-06,2.8488588220069488e-05
3.6589862581485057e-07,4.692472603982292e-07,1.9008004547158985e-06,2.8887195582695808e-05
3.7091447089983173e-07,4.667321400403514e-07,1.9492709575927157e-06,2.9283591820199212e-05
3.7596274481075345e-07,4.647096684094253e-07,2.0006760826617547e-06,2.9675249021607862e-05
3.810149421985521e-07,4.6319444041347455e-07,2.0548369022745056e-06,3.0059607362843817e-05
3.860406503870274e-07,4.6219662185646113e-07,2.1115852171567797e-06,3.0434014750806544e-05
3.9100835568842504e-07,4.6172123149347705e-07,2.170800719898658e-06,3.0795750334915835e-05
3.958861732138917e-07,4.617700705468765e-07,2.232418935290166e-06,3.1142133750339195e-05
4.006431413591324e-07,4.6234378712436505e-07,2.2964102292365715e-06,3.147067567235429e-05
4.0525264084070503e-07,4.6344270049655933e-07,2.362747495576545e-06,3.177926934683569e-05
4.0969654448951604e-07,4.650663154228133e-07,2.431378124399071e-06,3.20663631710559e-05
4.1396660366364974e-07,4.672130499073765e-07,2.502208683721976e-06,3.2330956719628674e-05
4.1806178159903046e-07,4.698836648642483e-07,2.575098707064389e-06,3.2572381359313614e-05
4.219832763844468e-07,4.730860982896291e-07,2.6498557748737968e-06,3.2790027222570955e-05
4.2573051702107207e-07,4.7683531031010846e-07,2.726232406003584e-06,3.298317831787005e-05
4.293000444899489e-07,4.811485757556213e-07,2.803933925110354e-06,3.315097630994075e-05
4.326862860992426e-07,4.860407874611634e-07,2.882641918803788e-06,3.32924480440984e-05
4.358827751871951e-07,4.915204363913194e-07,2.9620403489575644e-06,3.3406549695969534e-05
4.388826355565879e-07,4.975869355992259e-07,3e-07,3.3492256385688955e-05
4.416776167680821e-07,5.042312065643813e-07,3e-07,3.354877741890447e-05
4.442572165109749e-07,5.114372766322132e-07,3e-07,3.3575845254412554e-05
4.466091633828306e-07,5.19182721532196e-07,3e-07,3.3573851006015885e-05
4.487205696548625e-07,5.274391579502026e-07,3e-07,3.3543724722358237e-05
4.505797280290168e-07,5.361725560557612e-07,3e-07,3.348669298645129e-05
4.5217852213580045e-07,5.453426611306879e-07,3e-07,3.340406374284737e-05
4.5351374635472424e-07,5.549025129601035e-07,3e-07,3.329714757494766e-05
4.5458699300973923e-07,5.6479836120196e-07,3e-07,3.316740878453078e-05
4.554045575281161e-07,5.749707626028385e-07,3e-07,3.30167419137848e-05
4.5597727930509816e-07,5.85358769555704e-07,3e-07,3.2847602907374517e-05
4.563197442984886e-07,5.959045253106016e-07,3e-07,3.2662919469209355e-05
4.564489492057371e-07,6.065529994080682e-07,3e-07,3.246591328968872e-05
4.563823703396031e-07,6.172479815786845e-07,3e-07,3.2259924520067725e-05
4.5613633625023773e-07,6.279292529565679e-07,3e-07,3.2048264266103665e-05
4.5572561285853527e-07,6.385332707881549e-07,3e-07,3.1834103133256784e-05
4.5516310661501093e-07,6.489967087309111e-07,3e-07,3.162040002781084e-05
4.544587386271421e-07,6.592590274438803e-07,3e-07,3.140988462428299e-05
4.5361845877231953e-07,6.692613126286621e-07,3e-07,3.1205078411406407e-05
4.5264442607627285e-07,6.789445242979003e-07,3e-07,3.1008300552393986e-05
4.5153647734949475e-07,6.882515563433531e-07,3e-07,3.082162637458903e-05
4.5029406101714575e-07,6.971324853678489e-07,3e-07,3.064682728095617e-05
4.489174514850618e-07,7.055473775201832e-07,3e-07,3.0485330325981873e-05
4.474085368503558e-07,7.134631613959151e-07,3e-07,3.0338181980434692e-05
4.4577210176446926e-07,7.208486890587132e-07,3e-07,3.0205988871991023e-05
4.440175451271236e-07,7.276725209719131e-07,3e-07,3.0088871881000872e-05
4.4216002910522223e-07,7.33902765509742e-07,3e-07,2.9986501753539325e-05
4.4022017070850546e-07,7.395081539357929e-07,3e-07,2.989822760590236e-05
4.382229659274042e-07,7.44461249856776e-07,3e-07,2.982324958430645e-05
4.36195831722527e-07,7.487426210838928e-07,3e-07,2.976077852307167e-05
4.3416515146152143e-07,7.523421424888046e-07,3e-07,2.9710136453114692e-05
4.321541075507002e-07,7.55256231224171e-07,3e-07,2.9670777995162758e-05
4.301831168813886e-07,7.574847842396531e-07,3e-07,2.964224868179203e-05
4.2826941990305636e-07,7.590300129984588e-07,3e-07,2.9624107118060773e-05
4.2642486988030907e-07,7.598963389439205e-07,3e-07,2.961581793941132e-05
4.246550907767958e-07,7.600922554737985e-07,3e-07,2.9616628808395228e-05
4.2296087904625073e-07,7.596327513423745e-07,3e-07,2.96254835363301e-05
4.2133948405072104e-07,7.585381504740879e-07,3e-07,2.9641009128690692e-05
4.1978456917881365e-07,7.56831221153152e-07,3e-07,2.96615590598802e-05
4.182859760858042e-07,7.545374387835658e-07,3e-07,2.9685277612924e-05
4.1683017999848495e-07,7.516883812700104e-07,3e-07,2.9710168584067586e-05
4.1540103517345326e-07,7.483249316152799e-07,3e-07,2.973416513325702e-05
4.1398058913175595e-07,7.444977373607879e-07,3e-07,2.9755218692684803e-05
4.1255020756048714e-07,7.402649785411425e-07,3e-07,2.9771449997568457e-05
4.110917537348985e-07,7.356881621694083e-07,3e-07,2.9781371332636377e-05
4.095888026848404e-07,7.308264580817677e-07,3e-07,2.978409263449436e-05
4.080276771496484e-07,7.257322861355699e-07,3e-07,2.9779369575236517e-05
4.0639713907691153e-07,7.204516350952993e-07,3e-07,2.9767458069022693e-05
4.0468715944487253e-07,7.150290941218882e-07,3e-07,2.974889171041851e-05
4.028883383773118e-07,7.095116082731732e-07,3e-07,2.972429619324919e-05
4.0099214326683347e-07,7.039454146122767e-07,3e-07,2.969425597419781e-05
3.989915489429629e-07,6.983699130251852e-07,3e-07,2.965920347876676e-05
3.9688145857717814e-07,6.928149759483875e-07,3e-07,2.961934433326333e-05
3.946582047701992e-07,6.873028581439895e-07,3e-07,2.9574648123446942e-05
3.923185053151595e-07,6.818541978852338e-07,2.969905090719548e-06,2.9524867766893824e-05
3.898590988396226e-07,6.764959312472198e-07,2.883428874313852e-06,2.946954766154278e-05
3.872775926574917e-07,6.712665057622528e-07,2.7965722082281517e-06,2.940807669095809e-05
3.8457366363209046e-07,6.662164744977281e-07,2.7095187902249544e-06,2.9339880519560932e-05
3.8175031738626203e-07,6.614052647613647e-07,2.6224508869666067e-06,2.9264695069639228e-05
3.788150916048638e-07,6.568954176744202e-07,2.5355609337763912e-06,2.9182662303872992e-05
3.757799339193696e-07,6.527468769195263e-07,2.4490644431054097e-06,2.9094171850512793e-05
3.7266061591586524e-07,6.490139369482122e-07,2.363207251434607e-06,2.8999782712552556e-05
3.694765554013477e-07,6.457450839530711e-07,2.278258976002852e-06,2.890040698053241e-05
3.662487339255212e-07,6.429841253355764e-07,2.194498047489132e-06,2.8797470925991053e-05
3.6299674013598986e-07,6.407714984771467e-07,2.112205647499528e-06,2.8692852238623506e-05
3.5973919275689885e-07,6.391440679337527e-07,2.0316710236323368e-06,2.8588698149062407e-05
3.5649712051777205e-07,6.38131077990641e-07,1.95319441559852e-06,2.848723797378714e-05
3.532966750243108e-07,6.377484999903122e-07,1.8770813513710273e-06,2.8390626912084742e-05
3.5016897241541105e-07,6.379969813762024e-07,1.8036303461992248e-06,2.830082537766564e-05
3.471472594958266e-07,6.388654312722678e-07,1.7331165777702438e-06,2.8219505183154066e-05
3.4426395885346807e-07,6.403396271418328e-07,1.665777248920956e-06,2.814798715345804e-05
3.41548394792038e-07,6.424129300421312e-07,1.601803229853896e-06,2.8087214520599188e-05
3.3902407191853425e-07,6.450938455366408e-07,1.541336474166913e-06,2.803774327223248e-05
3.367073436634357e-07,6.484053289410948e-07,1.4844718483929853e-06,2.7999731537541413e-05
3.346091850961998e-07,6.523744171434021e-07,1.431263427457159e-06,2.797294402929516e-05
3.327372893222022e-07,6.570191601882766e-07,1.3817353737587195e-06,2.795678184669073e-05
3.310959067496695e-07,6.623422546064553e-07,1.3358933509971469e-06,2.7950318122836547e-05
3.296850677791046e-07,6.683316994533808e-07,1.293728953115767e-06,2.795235226641413e-05
3.285009103218294e-07,6.749630474261827e-07,1.255219584867102e-06,2.7961511838114568e-05
3.275362561163961e-07,6.822004212728532e-07,1.2203397393871966e-06,2.797636495924945e-05
3.267807367707588e-07,6.899964956000983e-07,1.1890883684312142e-06,2.7995497051625305e-05
3.2622099963369694e-07,6.982929153693846e-07,1.1615099333168271e-06,2.8017569990876814e-05
3.258419001567029e-07,7.070219998314136e-07,1.1376877573829822e-06,2.804137785375277e-05
3.256286604992239e-07,7.161088317564553e-07,1.1177162458979842e-06,2.8065876407184685e-05
3.255679840811942e-07,7.25472959045918e-07,1.101670706240767e-06,2.809017983750197e-05
3.256467731718136e-07,7.350304983089248e-07,1.0895881082439465e-06,2.811352699259991e-05
3.2585034626639986e-07,7.446974218701735e-07,1.0814668663620623e-06,2.813519899007537e-05
3.2616218468063305e-07,7.543938513481284e-07,1.0772801307601451e-06,2.8154399704507202e-05
3.2656483972661627e-07,7.640486071829868e-07,1.076984471789127e-06,2.817017087249908e-05
3.270408861200491e-07,7.736019037265836e-07,1.0805163581317148e-06,2.8181414341416432e-05
3.2757325383474256e-07,7.830036466581462e-07,1.0877858135181132e-06,2.8187037942898406e-05
3.281451008150972e-07,7.922083415824533e-07,1.0986754615643166e-06,2.8186162026354045e-05
3.287399436768583e-07,8.011713057165898e-07,1.113043539521337e-06,2.8178253537353466e-05
3.293426062063754e-07,8.098488111317895e-07,1.1307280701103517e-06,2.8163077748326753e-05
3.2994059073585053e-07,8.182012449574537e-07,1.151553245271613e-06,2.814049948539099e-05
3.305242484250689e-07,8.261967979302489e-07,1.17533886920086e-06,2.8110293027010466e-05
3.3108551580107677e-07,8.338115618764712e-07,1.2019070498127217e-06,2.8072094584244545e-05
3.316165666771773e-07,8.410256533865756e-07,1.231077382211504e-06,2.8025503374085358e-05
3.321086576851055e-07,8.47819928463874e-07,1.2626534030319052e-06,2.7970210542588848e-05
3.325517189715232e-07,8.541745445479213e-07,1.2964147892705177e-06,2.790601084048463e-05
3.3293560431141855e-07,8.60068162857217e-07,1.3321229488506406e-06,2.78327296598315e-05
3.332515995151596e-07,8.654777780532465e-07,1.369533414207476e-06,2.7750227884921803e-05
3.334922266687559e-07,8.70378471727957e-07,1.4084046410555858e-06,2.765850268691059e-05
3.336500713430231e-07,8.747433840612345e-07,1.4484981488071883e-06,2.755776907525206e-05
3.337175492019818e-07,8.78544618784448e-07,1.489571992171285e-06,2.744845922559629e-05
3.336876294788569e-07,8.817544819966094e-07,1.5313737256345888e-06,2.733116222365168e-05
3.3355429693758695e-07,8.843466935581279e-07,1.5736376936544315e-06,2.7206543982432464e-05
3.33312722040946e-07,8.862965898871051e-07,1.616087608678725e-06,2.707524755540173e-05
3.329596504283792e-07,8.875805136277676e-07,1.6584444839142897e-06,2.6937779060402686e-05
3.3249359283972357e-07,8.881765853665844e-07,1.7004398518552734e-06,2.679443159624505e-05
3.3191463187395857e-07,8.880667922060726e-07,1.7418278879456325e-06,2.664528810782924e-05
3.312241492835424e-07,8.872395170679367e-07,1.7823861539106158e-06,2.6490309550712783e-05
3.30424660614956e-07,8.856920047599556e-07,1.821907044934383e-06,2.632950444220116e-05
3.2951933888275517e-07,8.834310680296413e-07,1.8601945202508046e-06,2.616317305162535e-05
3.285105721111112e-07,8.804720048916731e-07,1.8970697626870877e-06,2.599215059885721e-05
3.273986863329931e-07,8.768364972418215e-07,1.9323731393960184e-06,2.581783295591638e-05
3.261821778680261e-07,8.72549064845913e-07,1.9659573349257303e-06,2.56419103592038e-05
3.2485866267546947e-07,8.676337284246391e-07,1.9976815706579424e-06,2.5466119548188785e-05
3.2342561909728387e-07,8.621141688787847e-07,2.027411475850667e-06,2.5292231841660183e-05
3.2188129294050906e-07,8.560167149496146e-07,2.055018860732692e-06,2.512209610687305e-05
3.202257099563206e-07,8.493720761875949e-07,2.0803802399349618e-06,2.4957594903269626e-05
3.184609946927919e-07,8.422146908308743e-07,2.1033774182032147e-06,2.4800579282581447e-05
3.165906515149806e-07,8.345812617588106e-07,2.123900573152655e-06,2.4652823976148346e-05
3.1461813360464806e-07,8.265090388368247e-07,2.14185519601427e-06,2.451599050219696e-05
3.125457734892942e-07,8.180347319714244e-07,2.1571752384679243e-06,2.439159609643561e-05
3.1037507446078145e-07,8.091962970523081e-07,2.1698377631935363e-06,2.428098878682568e-05
3.081080209915782e-07,8.000360695048605e-07,2.1798674618702612e-06,2.4185321831137962e-05
3.057477677746795e-07,7.905998589866193e-07,2.187325730510712e-06,2.4105524413924195e-05
3.032979636459785e-07,7.809331868125977e-07,2.192292199734424e-06,2.4042272348347987e-05
3.0076178881043983e-07,7.710814138750179e-07,2.19485064557424e-06,2.399597312372339e-05
2.981414777888853e-07,7.610947923176834e-07,2.195087734873244e-06,2.3966779708248206e-05
2.954388527121857e-07,7.510323548616939e-07,2.1931040234108564e-06,2.395460258341756e-05
2.926572899133652e-07,7.409585469628517e-07,2.189025314995934e-06,2.3959079104085104e-05
2.8980321498788285e-07,7.309362320869392e-07,2.1830033217048603e-06,2.397955256376821e-05
2.868851728178244e-07,7.210259954869065e-07,2.175204314431125e-06,2.4015137689279018e-05
2.8391240314868693e-07,7.112925826216481e-07,2.1657939937187932e-06,2.4064831764587133e-05
2.808954500405704e-07,7.018111306457548e-07,2.154929233865501e-06,2.412760040418909e-05
2.778478818148174e-07,6.926680750328052e-07,2.1427556791106347e-06,2.4202448222577885e-05
2.747867524768604e-07,6.839547813358065e-07,2.1294048848068355e-06,2.4288488188513407e-05
2.7173152774838335e-07,6.757560344944279e-07,2.1149963900033834e-06,2.438498351375285e-05
2.6870277973275845e-07,6.681403523051084e-07,2.099651551307241e-06,2.449135915705725e-05
2.657205544920267e-07,6.611565801705153e-07,2.0835129672331464e-06,2.4607202941793866e-05
2.6280251761731356e-07,6.548347559789161e-07,2.0667580631738047e-06,2.4732243988403892e-05
2.599634834228237e-07,6.491881232217279e-07,2.0495994809227984e-06,2.48662804124724e-05
2.57216340133444e-07,6.442157390467482e-07,2.032270455041364e-06,2.500905416988102e-05
2.5457259945491507e-07,6.399057075388893e-07,2.014999882855771e-06,2.516009958378804e-05
2.5204170566778825e-07,6.362378128269118e-07,1.9979899985942344e-06,2.5318635665320976e-05
2.496305097277325e-07,6.331842246963035e-07,1.98141130984987e-06,2.5483579147905075e-05
2.4734459714086533e-07,6.307096449853281e-07,1.965414106879501e-06,2.565364090525924e-05
2.4519109395581e-07,6.287734319251298e-07,1.950140346246987e-06,2.582738263953005e-05
2.431813280328608e-07,6.273323351441202e-07,1.935724329312339e-06,2.600320930861213e-05
2.413313946600699e-07,6.26342018752004e-07,1.922282691952321e-06,2.617937119711359e-05
2.39660278727746e-07,6.257594435922081e-07,1.9099016925269776e-06,2.6354027864447612e-05
2.3818737612092129e-07,6.255464181871964e-07,1.8986321244214027e-06,2.6525397101502506e-05
2.369299427730565e-07,6.256713730815981e-07,1.8884945388770781e-06,2.6691938589174104e-05
2.359011541922885e-07,6.261076339444283e-07,1.8794879983343502e-06,2.6852440944113792e-05
2.351109741054063e-07,6.268293574077498e-07,1.8715973805814301e-06,2.700596594970698e-05
2.345680014674305e-07,6.278086225183858e-07,1.8647985696997863e-06,2.715171678419848e-05
2.3427897476744614e-07,6.290150824719151e-07,1.8590593018309071e-06,2.728889483498932e-05
2.3424759914820212e-07,6.304161872495302e-07,1.854336025636092e-06,2.741661313596532e-05
2.344749363244388e-07,6.319770391285829e-07,1.8505725173303162e-06,2.753391030565723e-05
2.349605666268917e-07,6.336602909335692e-07,1.8477046947007008e-06,2.763979240804596e-05
2.3570328487407193e-07,6.354273486294247e-07,1.8456721273314518e-06,2.7733226521805078e-05
2.3670074508655986e-07,6.3724255566072e-07,1.84443027384081e-06,2.7813149184459636e-05
2.3794821097507238e-07,6.390772977842654e-07,1.843951621299757e-06,2.787854966144677e-05
2.3943700992674397e-07,6.409087486684689e-07,1.844212245826588e-06,2.7928542187844786e-05
2.411539036169232e-07,6.427159806552849e-07,1.845176247642974e-06,2.7962339386963958e-05
2.430826015201773e-07,6.444798762310241e-07,1.8467915919014941e-06,2.7979177893096075e-05
2.4520673668379924e-07,6.461850329441907e-07,1.848995466389484e-06,2.797830677659056e-05
2.475123269496192e-07,6.478193157885947e-07,1.8517180408843174e-06,2.7959115040099267e-05
2.499879014486032e-07,6.493722716557844e-07,1.8548806698594967e-06,2.7921388518251814e-05
2.526232627554643e-07,6.508331593446421e-07,1.858392650159765e-06,2.7865527298854793e-05
2.5541038512172605e-07,6.521883069954279e-07,1.8621500388312978e-06,2.779254175446023e-05
2.583451694053077e-07,6.534202198877033e-07,1.8660365448901783e-06,2.7703870746173162e-05
2.614260539272934e-07,6.54508997865114e-07,1.8699256600739201e-06,2.760117762618063e-05
2.64651003104028e-07,6.55434315067746e-07,1.873685249256913e-06,2.748618849877774e-05
2.680158965482789e-07,6.56178226664016e-07,1.8771850339206848e-06,2.7360617303500782e-05
2.715143749255486e-07,6.567283761916179e-07,1.8803032303978733e-06,2.7226238405960534e-05
2.7513815375951966e-07,6.57078327860142e-07,1.8829309665690883e-06,2.7085017738764348e-05
2.788768421601256e-07,6.572245034985159e-07,1.8849770355880897e-06,2.693911956822025e-05
2.8271731857873986e-07,6.57164287833441e-07,1.88637092579286e-06,2.6790777004923072e-05
2.8664345404241926e-07,6.568988876744091e-07,1.8870599281774799e-06,2.664215439000776e-05
2.906365975047446e-07,6.564383832475365e-07,1.8870019542997338e-06,2.6495263321102037e-05
2.9467660392284277e-07,6.55802910374625e-07,1.8861603197068282e-06,2.6351906774047985e-05
2.987430734947751e-07,6.550183504594434e-07,1.8845051756684345e-06,2.6213627381231813e-05
3.0281633218679034e-07,6.541108410891266e-07,1.8820192317148144e-06,2.6081672116084515e-05
3.068771859707021e-07,6.531029178854261e-07,1.8786992562162282e-06,2.5956991032885252e-05
3.1090603303242324e-07,6.520116426636657e-07,1.874548621780928e-06,2.5840267820370238e-05
3.1488299331190017e-07,6.508498481954519e-07,1.869567421003788e-06,2.5731955868073866e-05
3.1878879187029016e-07,6.496291814342335e-07,1.8637482856108109e-06,2.5632288169002052e-05
3.22605456032771e-07,6.483623606688721e-07,1.8570764931967288e-06,2.554125960396814e-05
3.263169169423824e-07,6.470643226914767e-07,1.8495308401411842e-06,2.545860596869281e-05
3.2990959364593613e-07,6.457531916959554e-07,1.8410880688769882e-06,2.5383800108696176e-05
3.333734391641747e-07,6.444533108954809e-07,1.831733096356221e-06,2.5316079306464275e-05
3.36703426776843e-07,6.431990720769338e-07,1.8214675035372268e-06,2.525451167651744e-05
3.398989309400946e-07,6.420332700015951e-07,1.8103070926967633e-06,2.519807630931728e-05
3.4296025635873664e-07,6.410000062051936e-07,1.7982741859995068e-06,2.5145715812826748e-05
3.458853860311979e-07,6.401403328837823e-07,1.7853952195913457e-06,2.5096367996883856e-05
3.486689652186545e-07,6.394940225054678e-07,1.7717004736354473e-06,2.504900722697589e-05
3.513035156079331e-07,6.391012522958872e-07,1.7572198384270889e-06,2.500266831061029e-05
3.5378215681868023e-07,6.389985571127437e-07,1.7419780333787288e-06,2.4956405500239245e-05
3.561010285344981e-07,6.392123829012837e-07,1.7259939968099097e-06,2.4909212823877145e-05
3.5825930649653336e-07,6.397564593337848e-07,1.709283611772638e-06,2.485998776034359e-05
3.602570565727147e-07,6.406328651457592e-07,1.6918643402016625e-06,2.4807587934065712e-05
3.620942470500968e-07,6.418333111344258e-07,1.6737618325437352e-06,2.475093211654485e-05
3.6377207551244296e-07,6.433411467264908e-07,1.6550142518796301e-06,2.4689041949359117e-05
3.652939959927862e-07,6.451371761022414e-07,1.635669194109275e-06,2.462100651557032e-05
3.6666632288960656e-07,6.472084979789499e-07,1.6157775282088058e-06,2.4545939051127608e-05
3.678996650283558e-07,6.495549042899503e-07,1.5953932073832424e-06,2.44629563800988e-05
3.690084834472338e-07,6.521896953420197e-07,1.5745777776140757e-06,2.4371166949365452e-05
3.700074802965987e-07,6.551365535337036e-07,1.5534002876725146e-06,2.426968777632469e-05
3.709083242256728e-07,6.584236320598352e-07,1.5319318261994948e-06,2.4157721509648145e-05
3.717187417360269e-07,6.620757844375815e-07,1.5102411840481403e-06,2.403465848466719e-05
3.7244329517762573e-07,6.661093174685927e-07,1.488392872674726e-06,2.390015074824725e-05
3.7308506205896185e-07,6.705324349924786e-07,1.4664448033242519e-06,2.375417146885611e-05
3.736469576559276e-07,6.753479776412609e-07,1.444445745353083e-06,2.359709489891428e-05
3.741317376968666e-07,6.805542312113221e-07,1.4224349703929555e-06,2.3429757841448377e-05
3.745412548566011e-07,6.861438534637706e-07,1.4004453514161086e-06,2.325340770433719e-05
3.7487659893311354e-07,6.921020447177896e-07,1.378509434624383e-06,2.306953353294428e-05
3.751394727031912e-07,6.984059343826093e-07,1.3566667373593516e-06,2.287968083684737e-05
3.753327494817415e-07,7.050276764249487e-07,1.3349681605603913e-06,2.268530350383371e-05
3.7545906031803523e-07,7.119394854655252e-07,1.3134727627627651e-06,2.2487649823575266e-05
3.7551897294462977e-07,7.191177046217049e-07,1.2922397027617296e-06,2.2287699016960904e-05
3.755102936604936e-07,7.265464588547494e-07,1.2713280156574965e-06,2.208615519162855e-05
3.754281691104409e-07,7.34219610975091e-07,1.2508093599443754e-06,2.188347481446471e-05
3.752656736248053e-07,7.421381456458645e-07,1.2307805099576843e-06,2.1679952030277624e-05
3.750158329791309e-07,7.503040867347397e-07,1.2113625547640956e-06,2.1475946433630628e-05
3.7467443063081385e-07,7.587136901061133e-07,1.192687499999947e-06,2.1272182731899103e-05
3.7424064178734655e-07,7.67353186272027e-07,1.1748816438105984e-06,2.1069871667230967e-05
3.737147721228694e-07,7.762002681562301e-07,1.1580581035729756e-06,2.0870584591052678e-05
3.730959570675927e-07,7.852284391825707e-07,1.1423216571306186e-06,2.0676033693779693e-05
3.723819246702432e-07,7.944080313757283e-07,1.127774849036637e-06,2.0487888552950783e-05
3.7156951777409174e-07,8.037042933198354e-07,1.1145154549304786e-06,2.030777268092701e-05
3.7065438047981034e-07,8.130773022129295e-07,1.102626763683087e-06,2.013746280524953e-05
3.6963055700929843e-07,8.224833718364757e-07,1.0921699651805151e-06,1.997904192093571e-05
3.6849112600493454e-07,8.318743876006145e-07,1.083185786157197e-06,1.983485252416409e-05
3.672301511393672e-07,8.411958877361666e-07,1.0756999800626807e-06,1.9707360345362022e-05
3.658446833184228e-07,8.50387387549642e-07,1.0697238078508795e-06,1.95990425188946e-05
3.643344147406578e-07,8.593857689947943e-07,1.0652573978904181e-06,1.9512319278036893e-05
3.627000354812253e-07,8.681303440319241e-07,1.062311727474295e-06,1.944950050440504e-05
3.609439456304624e-07,8.765668150581115e-07,1.0609436216550678e-06,1.9412715242822478e-05
3.590725354974492e-07,8.846466042680978e-07,1.0612738265057585e-06,1.940382972742957e-05
3.570968260513653e-07,8.923224841315081e-07,1.0634661589807508e-06,1.94243810875504e-05
3.5503186058859075e-07,8.995458662212826e-07,1.067685997400845e-06,1.9475535323307515e-05
3.5289535214305075e-07,9.062678602824149e-07,1.074080480688224e-06,1.955804133451449e-05
3.507047214958406e-07,9.12441576722385e-07,1.0827923531607102e-06,1.9672155560263192e-05
3.484743113344331e-07,9.18023405993149e-07,1.0939782830552756e-06,1.981757229149652e-05
3.462147436390706e-07,9.229729280157507e-07,1.1078064262312095e-06,1.999341082133736e-05
3.4393368287744397e-07,9.272515767126944e-07,1.1244346223420963e-06,2.0198258729509007e-05
3.416369072742494e-07,9.308209145936781e-07,1.1439834133678612e-06,2.043025907058572e-05
3.393293490489836e-07,9.336421641240543e-07,1.1665196595723772e-06,2.068723029455048e-05
3.3701588312262695e-07,9.356772960621208e-07,1.1920590731254192e-06,2.096677839482228e-05
3.3470120222643215e-07,9.36890658493572e-07,1.2205776736653086e-06,2.1266378757172208e-05
3.32388737370999e-07,9.372505571459137e-07,1.2520190949398015e-06,2.1583447106741868e-05
3.300802184125832e-07,9.367306248187404e-07,1.2863064423517177e-06,2.19154200263061e-05
3.277762893861692e-07,9.35310753901593e-07,1.3233690677131643e-06,2.2259832169215425e-05
3.254768723607728e-07,9.32977695476812e-07,1.3631694729220626e-06,2.261434334803471e-05
3.231809645477629e-07,9.297253580699014e-07,1.405709093326489e-06,2.297669364697057e-05
3.208864437955266e-07,9.255541808791355e-07,1.4510070592095532e-06,2.334462735356101e-05
3.185903523158165e-07,9.204697919702236e-07,1.4990636541535038e-06,2.3715853726928526e-05
3.162895064903153e-07,9.14482322311124e-07,1.5498334566095903e-06,2.408809394034438e-05
3.139811341435023e-07,9.076061753844244e-07,1.603225798896474e-06,2.445918275428192e-05
3.1166382387111745e-07,8.998590079157874e-07,1.659123435327033e-06,2.482713442672184e-05
3.093381819664216e-07,8.912605905566856e-07,1.717396685832318e-06,2.5190138909121216e-05
3.0700593090345037e-07,8.818328242930474e-07,1.7779036430714497e-06,2.5546509092954637e-05
3.0466832708376585e-07,8.716012148848208e-07,1.8404836741154591e-06,2.5894604812603188e-05
3.023261360589593e-07,8.60597267922776e-07,1.904952500284801e-06,2.6232763969518288e-05
2.999808642970789e-07,8.48859739848905e-07,1.9711012623171717e-06,2.6559268286373346e-05
2.9763505457199967e-07,8.364331500975336e-07,2.0386993759052982e-06,2.6872364809121435e-05
2.9529138822435817e-07,8.233660952282216e-07,2.1075008863534992e-06,2.717033849780628e-05
2.929518591351924e-07,8.097128966842159e-07,2.1772527679422587e-06,2.745161507579817e-05
2.906177995868552e-07,7.955371495464589e-07,2.247699456418451e-06,2.7714899695277252e-05
2.8829138889344485e-07,7.809131352074726e-07,2.318579433021693e-06,2.795935267754533e-05
2.859784242613596e-07,7.659226968078044e-07,2.3896206296508992e-06,2.818471943665933e-05
2.836900111333714e-07,7.506482294785277e-07,2.4605426220543658e-06,2.8391288026719086e-05
2.814417419881061e-07,7.351664947940741e-07,2.5310604574145297e-06,2.8579663990823054e-05
2.7925272515442237e-07,7.195474229772901e-07,2.6008854345932634e-06,2.875048188342309e-05
2.7714643933773307e-07,7.038568118368422e-07,2.66973154921023e-06,2.8904186917625044e-05
2.75151909121482e-07,6.881593042697753e-07,2.7373294435294454e-06,2.904096478806336e-05
2.733029885770812e-07,6.725187651163125e-07,2.803434217457549e-06,2.916078373754093e-05
2.716350383393051e-07,6.569964046056022e-07,2.867819697094075e-06,2.9263448589182243e-05
2.7018078438652484e-07,6.416513187788374e-07,2.930265980483676e-06,2.934869020838924e-05
2.6896803633701803e-07,6.265446305897082e-07,2.9905536171726397e-06,2.941642241085558e-05
2.6802004807996224e-07,6.117416064480502e-07,3e-07,2.9467078468030878e-05
2.6735681502233766e-07,5.973089449776181e-07,3e-07,2.950171391984182e-05
2.669946598678718e-07,5.833107504622098e-07,3e-07,2.9521803162094707e-05
2.6694498658416947e-07,5.698083930880089e-07,3e-07,2.952894747162481e-05
2.672149213729449e-07,5.568660349899512e-07,3e-07,2.952464989495703e-05
2.678092608828696e-07,5.445562549173603e-07,3e-07,2.9510248114091667e-05
2.687326544244688e-07,5.329589383230929e-07,3e-07,2.948709384469633e-05
2.6999225900460605e-07,5.221545097984992e-07,3e-07,2.945682925768097e-05
2.716005534778893e-07,5.122170111676325e-07,3e-07,2.9421460359914803e-05
2.735770184181293e-07,5.032089033853768e-07,3e-07,2.938320265378809e-05
2.759465321370573e-07,4.951779671247222e-07,3e-07,2.934429271486433e-05
2.787347110774819e-07,4.881592336873213e-07,3e-07,2.9306856462626423e-05
2.819633342058456e-07,4.821815294562915e-07,3e-07,2.9272815093034907e-05
2.8564719569611397e-07,4.77271468359873e-07,3e-07,2.9243804964243456e-05
2.8979258791206175e-07,4.7345067412169143e-07,3e-07,2.9221124595695147e-05
2.943979868177308e-07,4.7073036199207963e-07,3e-07,2.9205738361431104e-05
2.994557340201632e-07,4.691078886378135e-07,3e-07,2.9198320712110522e-05
3.049534923203816e-07,4.6856565452937e-07,3e-07,2.9199277723855743e-05
3.108749843386798e-07,4.690718618729272e-07,3e-07,2.9208711224573067e-05
3.171996301057705e-07,4.7058383960826217e-07,3e-07,2.922635898653473e-05
3.2390256088008307e-07,4.7305333977520075e-07,3e-07,2.9251559733861286e-05
3.3095586504153e-07,4.7642981250508786e-07,3e-07,2.9283267009892848e-05
3.383293901511604e-07,4.80659192447399e-07,3e-07,2.9320127087701715e-05
3.4599053431435534e-07,4.856820180200518e-07,3e-07,2.9360621379303118e-05
3.539052016904419e-07,4.914355736463688e-07,3e-07,2.9403222100845727e-05
3.620408437727756e-07,4.97858040259972e-07,3e-07,2.9446493072615807e-05
3.703679752387832e-07,5.048896594794355e-07,3e-07,2.9489135461643206e-05
3.788577178582229e-07,5.124711893555795e-07,3e-07,2.9530009986870814e-05
3.874785880954873e-07,5.20543257975571e-07,3e-07,2.9568124413110387e-05
3.9619506250902063e-07,5.290481079846382e-07,3e-07,2.9602577016979437e-05
4.0496733990742956e-07,5.379323800853336e-07,3e-07,2.9632480133684984e-05
4.137526927261073e-07,5.471483722546639e-07,3e-07,2.9656899058558398e-05
4.225083780933407e-07,5.56652922456241e-07,3e-07,2.9674873004339654e-05
4.311934711792817e-07,5.664050033016946e-07,3e-07,2.9685553570377656e-05
4.397683683503535e-07,5.763630913566863e-07,3e-07,2.9688355826502263e-05
4.4819429800885723e-07,5.864841406664679e-07,3e-07,2.968299851006061e-05
4.5643376461756724e-07,5.967275594472719e-07,3e-07,2.9669449699631127e-05
4.6445025580580423e-07,6.070634606500677e-07,3e-07,2.9647853131406732e-05
4.722077458724796e-07,6.174768583024353e-07,3e-07,2.9618472943046254e-05
4.796713142791272e-07,6.279624458277381e-07,3e-07,2.9581646261152862e-05
4.868079782854545e-07,6.385152082890714e-07,3e-07,2.9537698657598323e-05
4.93587410516649e-07,6.491237469336351e-07,3e-07,2.9486828866767443e-05
4.999831678070429e-07,6.597676662325997e-07,3e-07,2.942904838243409e-05
5.059737180736164e-07,6.704184943388883e-07,2.9813302975941286e-06,2.9364239116214173e-05
5.115422889433125e-07,6.81043178099331e-07,2.9389144086321167e-06,2.929232001491089e-05
5.166759318683692e-07,6.916074514367279e-07,2.8960429108457716e-06,2.92134801045748e-05
5.213654141221535e-07,7.020777949411346e-07,2.8528058933146627e-06,2.9128380630474635e-05
5.256059106400304e-07,7.124233264369154e-07,2.809290178279797e-06,2.903818934094721e-05
5.293961235356341e-07,7.226171960731279e-07,2.765585992691338e-06,2.8944417150912506e-05
5.327363587414311e-07,7.326347010812969e-07,2.7217879781660648e-06,2.884864777427137e-05
5.356274971088679e-07,7.424484147845441e-07,2.6779925543736062e-06,2.875226018782058e-05
5.380700988039999e-07,7.520246674402571e-07,2.63429489029224e-06,2.8656236366696057e-05
5.400641113214187e-07,7.613235086628616e-07,2.5907855376332408e-06,2.8561102148195894e-05
5.416101962630503e-07,7.703001241224143e-07,2.547545831831614e-06,2.8466958502069312e-05
5.427104570217157e-07,7.789063888559352e-07,2.504643167788572e-06,2.8373574104159778e-05
5.433675898890188e-07,7.870931157203257e-07,2.4621281623897745e-06,2.8280603435544e-05
5.435850333943168e-07,7.948125798260913e-07,2.4200350166949656e-06,2.8187907817007036e-05
5.433681879524497e-07,8.020204517127136e-07,2.3783845756007518e-06,2.8095740951161468e-05
5.427239215803184e-07,8.086771770052185e-07,2.3371891403457227e-06,2.800464760796253e-05
5.416589672990825e-07,8.147486587730285e-07,2.296457150458247e-06,2.7915226380588208e-05
5.401799553959808e-07,8.202067606825576e-07,2.2561941231732158e-06,2.7827952718141005e-05
5.382947862187463e-07,8.250307384470365e-07,2.216401629263531e-06,2.774317460371676e-05
5.360139018208897e-07,8.29208317899432e-07,2.177081493143087e-06,2.7661364522584167e-05
5.333511253276805e-07,8.327346923463801e-07,2.138245585807764e-06,2.7583486767685414e-05
5.303231721499786e-07,8.356098519057387e-07,2.09992289892696e-06,2.751115254333307e-05
5.269482508837428e-07,8.378349637153207e-07,2.062158295574856e-06,2.7446480570378008e-05
5.232455147127534e-07,8.394091134782709e-07,2.0250053282892287e-06,2.7391845921537092e-05
5.192350562530125e-07,8.403281093443863e-07,1.9885173418345864e-06,2.734964464768047e-05
5.149376897001316e-07,8.405850915456874e-07,1.9527396216910006e-06,2.7322096473060118e-05
5.103748525032683e-07,8.40171855130592e-07,1.917705861384924e-06,2.731109078814476e-05
5.05568970818816e-07,8.390808740762928e-07,1.8834388231451587e-06,2.731807837251583e-05
5.0054406589529e-07,8.373080036219898e-07,1.84995258459896e-06,2.734400224920227e-05
4.953255463990936e-07,8.348549634049993e-07,1.8172579149412621e-06,2.7389260915292435e-05
4.8993884319051e-07,8.317308290787548e-07,1.7853682271447108e-06,2.7453703776426506e-05
4.84408066278814e-07,8.279516094213519e-07,1.754297956440611e-06,2.753665468710561e-05
4.787561992810651e-07,8.235376791872405e-07,1.7240573393044201e-06,2.763696505334781e-05
4.7300666968166846e-07,8.185123717108604e-07,1.6946557194528264e-06,2.7753103908946385e-05
4.67183634931042e-07,8.12904306919837e-07,1.6661130513989176e-06,2.7883276274099708e-05
4.6130996350158254e-07,8.06749530543413e-07,1.6384694750521175e-06,2.802555425351164e-05
4.554055509478672e-07,8.000889607271377e-07,1.6117865968372146e-06,2.817800546268073e-05
4.494873328860635e-07,7.929628481580827e-07,1.5861396267503997e-06,2.833879108612417e-05
4.435699014122983e-07,7.854065966202542e-07,1.5616031354194383e-06,2.850621337584541e-05
4.376669076803304e-07,7.774497434610613e-07,1.5382368238218528e-06,2.8678730322327345e-05
4.3179300438812036e-07,7.691170472283159e-07,1.516078496899729e-06,2.8854964429335602e-05
4.25963742910325e-07,7.60430234718915e-07,1.4951456692946972e-06,2.903369136902909e-05
4.2019342589812813e-07,7.514110929055618e-07,1.4754404162746891e-06,2.9213782877773378e-05
4.14493859493509e-07,7.420873424465779e-07,1.4569540866228545e-06,2.93941249343916e-05
4.088744080186e-07,7.324995812565998e-07,1.439672635338039e-06,2.9573541853292158e-05
4.0334198015681464e-07,7.227057250805454e-07,1.423580255571311e-06,2.9750747031976837e-05
3.979014165326441e-07,7.127814013389139e-07,1.4086581785100075e-06,2.9924385919291986e-05
3.925570502040797e-07,7.028153449822614e-07,1.3948819993794771e-06,3.0093182399653447e-05
3.8731398289732975e-07,6.929002136046357e-07,1.3822251283962437e-06,3.0256068506787025e-05
3.8217812888576044e-07,6.831266629831921e-07,1.3706723701094314e-06,3.0412222737283373e-05
3.771571401205456e-07,6.735871838250488e-07,1.3602376648512475e-06,3.056105481425657e-05
3.7226229924196073e-07,6.64382214306286e-07,1.350973090552974e-06,3.070216929666635e-05
3.675076949431918e-07,6.556204024885868e-07,1.3429607140775769e-06,3.083528436512408e-05
3.62907059704454e-07,6.47415267156769e-07,1.3362901485024704e-06,3.096008498832278e-05
3.5847270632356047e-07,6.398800199426336e-07,1.3310363681782317e-06,3.1076088551217965e-05
3.542163236402333e-07,6.331197488798051e-07,1.327254661182199e-06,3.118263338815891e-05
3.501485830405836e-07,6.272236049797057e-07,1.3249927989715222e-06,3.1278989562836656e-05
3.462780794212184e-07,6.222603928304982e-07,1.3243033907365394e-06,3.136452209825848e-05
3.4261162331914765e-07,6.182776049477365e-07,1.325245254050564e-06,3.143887409745399e-05
3.391562467434242e-07,6.153016556942006e-07,1.3278778033287602e-06,3.1502137021295146e-05
3.35921062528781e-07,6.133384360482739e-07,1.332256939487842e-06,3.1554901143366385e-05
3.329174296840876e-07,6.123747141174868e-07,1.3384354285044343e-06,3.159812344294924e-05
3.301586281338709e-07,6.123803243543728e-07,1.3464625100037052e-06,3.163288993845776e-05
3.276593302113518e-07,6.133113510082981e-07,1.3563765600794821e-06,3.166016849959159e-05
3.2543347797253997e-07,6.15114299186639e-07,1.368193795282912e-06,3.1680619177153256e-05
3.234911633700155e-07,6.177289557094846e-07,1.3819006418305515e-06,3.1694513791797165e-05
3.2183654584974196e-07,6.210884236770635e-07,1.3974508354493972e-06,3.170175390203773e-05
3.204680408718078e-07,6.251196099540845e-07,1.4147643343198625e-06,3.1701950359379795e-05
3.1938055052556645e-07,6.297482369049454e-07,1.4337290058547424e-06,3.16945829882901e-05
3.185676756863495e-07,6.349068148701957e-07,1.454209932719377e-06,3.167923997996495e-05
3.1802173618312067e-07,6.405395972450678e-07,1.4760696304129943e-06,3.165577233803029e-05
3.177326692399273e-07,6.466011197219487e-07,1.499194773026071e-06,3.1624211658257504e-05
3.176883704362685e-07,6.530502264165108e-07,1.523518399822224e-06,3.158456501141238e-05
3.178762313870388e-07,6.598434999331977e-07,1.5490265972741718e-06,3.1536680229529264e-05
3.182839300328808e-07,6.66931320471373e-07,1.5757458193716278e-06,3.1480281877387754e-05
3.1889919880583827e-07,6.742577646004768e-07,1.6037176275939315e-06,3.1415239591570525e-05
3.1970956132321246e-07,6.81763300882194e-07,1.6329712846807776e-06,3.134194634255303e-05
3.207017270258356e-07,6.893892123604718e-07,1.6635035095116136e-06,3.126150498405388e-05
3.218602644536183e-07,6.970823886485968e-07,1.695273759549801e-06,3.117562643329171e-05
3.2316684511774784e-07,7.047976228119574e-07,1.7282129663390263e-06,3.108640504252276e-05
3.246009110865393e-07,7.124970224293373e-07,1.7622337162464042e-06,3.099609692037631e-05
3.261417842940642e-07,7.201482567078116e-07,1.797237333732195e-06,3.090691782093329e-05
3.277715157367516e-07,7.277219078518155e-07,1.8331206287052953e-06,3.082086999176628e-05
3.2947596516782506e-07,7.351904724872893e-07,1.8697805184760646e-06,3.073962280165388e-05
3.312434268885518e-07,7.425301687914652e-07,1.907113075274083e-06,3.066445703955594e-05
3.3306331877019976e-07,7.497196591892561e-07,1.9450085106579046e-06,3.059625898405707e-05
3.34925320895821e-07,7.567344139964058e-07,1.9833471670818257e-06,3.053554418315528e-05
3.368180496828257e-07,7.635438707827631e-07,2.0220011972400143e-06,3.0482476964550403e-05
3.387284316104442e-07,7.701136976910904e-07,2.0608422183114103e-06,3.043686005630448e-05
3.406419383664997e-07,7.764080444252193e-07,2.0997485105472807e-06,3.0398127160929694e-05
3.425424822917352e-07,7.823894731262805e-07,2.1386047909023158e-06,3.036538778896717e-05
3.444123699654426e-07,7.88020206927898e-07,2.177294741597905e-06,3.0337526455058558e-05
3.462331804141767e-07,7.932656046805775e-07,2.2156917734133304e-06,3.031332534588314e-05
3.479866732242848e-07,7.980956077466451e-07,2.2536560517881667e-06,3.029156750399997e-05
3.4965489776076877e-07,8.024827391890273e-07,2.2910438418578566e-06,3.027108942337083e-05
3.512203709166407e-07,8.064005165257357e-07,2.327724168819621e-06,3.025080706948585e-05
3.526666199400157e-07,8.098258961194842e-07,2.3635908850305766e-06,3.0229765130256043e-05
3.539785369933206e-07,8.127430554046178e-07,2.398564694315457e-06,3.020720456575254e-05
3.551422518244477e-07,8.151433362411524e-07,2.432587619642105e-06,3.0182598433452803e-05
3.561444782450561e-07,8.170239526541902e-07,2.4656130111189315e-06,3.0155639909334694e-05
3.5697290570714e-07,8.183901654729156e-07,2.4975922613459285e-06,3.0126194672490167e-05
3.576186575988937e-07,8.192574373588128e-07,2.528461990703199e-06,3.009419983509466e-05
3.5807816380091846e-07,8.196493844018785e-07,2.5581393645652143e-06,3.0059506688107746e-05
3.5835236492061573e-07,8.195928359508412e-07,2.586528189498343e-06,3.002174480570982e-05
3.5844520733362104e-07,8.191126710804832e-07,2.613529377530343e-06,2.9980282485998207e-05
3.5836411945343595e-07,8.182295917443554e-07,2.6390491805482257e-06,2.993427104027622e-05
3.581229383262279e-07,8.169630043559209e-07,2.66300332839195e-06,2.9882728196596355e-05
3.577447070383021e-07,8.153356394022143e-07,2.6853166838338417e-06,2.9824639581993084e-05
3.5726068379022044e-07,8.133739089511935e-07,2.7059183801388456e-06,2.9759055975414368e-05
3.567065190033136e-07,8.111034203780509e-07,2.724734755301661e-06,2.9685130385307776e-05
3.5611966736153044e-07,8.08544504881755e-07,2.7416839400281424e-06,2.960206422151368e-05
3.55537471345929e-07,8.057114230060945e-07,2.7566743001819843e-06,2.950903434473468e-05
3.5499361662790226e-07,8.026146436526534e-07,2.769607192030983e-06,2.9405192704055577e-05
3.5451517044722316e-07,7.992628519485066e-07,2.7803826674064763e-06,2.9289725636965947e-05
3.541229189867547e-07,7.956622054924848e-07,2.788904817327159e-06,2.9161920872391817e-05
3.53834151922224e-07,7.918142677170838e-07,2.795084760979764e-06,2.9021251055332707e-05
3.5366499603052227e-07,7.877159532576918e-07,2.798841013362436e-06,2.8867461991751783e-05
3.5363021327603676e-07,7.833624556218441e-07,2.800097881356513e-06,2.8700590635605267e-05
3.5374106189117546e-07,7.787507501387528e-07,2.7987846883284092e-06,2.8520877928922053e-05
3.5400319431375187e-07,7.738802335121224e-07,2.7948376219915693e-06,2.8328623179899354e-05
3.5441579205302845e-07,7.687504857506681e-07,2.7882025857963336e-06,2.812406966272022e-05
3.54971820201051e-07,7.633594383913667e-07,2.778838078175176e-06,2.7907383161907922e-05
3.5565907259156105e-07,7.577035437036995e-07,2.7667198889357527e-06,2.7678696804284003e-05
3.5646221939626754e-07,7.517795211876897e-07,2.751848936866884e-06,2.7438156241484825e-05
3.573651029938089e-07,7.455867936839065e-07,2.73425820936813e-06,2.718598533412126e-05
3.583517532610774e-07,7.391287235037832e-07,2.714010667061061e-06,2.6922662872999882e-05
3.5940589966245887e-07,7.324110897747094e-07,2.69118750603038e-06,2.6649128594391488e-05
3.6050980648194563e-07,7.254391234808112e-07,2.665876620812772e-06,2.636678487556e-05
3.616434920269581e-07,7.182171022891734e-07,2.6381687572649947e-06,2.607727362544336e-05
3.62785064306488e-07,7.107537953286976e-07,2.6081603443249943e-06,2.5782218159312648e-05
3.639115035558003e-07,7.030723789972255e-07,2.575957781123983e-06,2.5483080076429425e-05
3.649991083108417e-07,6.952165532512167e-07,2.5416793258537715e-06,2.5181239712943765e-05
3.6602416850222333e-07,6.872452782227069e-07,2.505455234801836e-06,2.487830150921311e-05
3.669640701790247e-07,6.792211138421168e-07,2.46742648602396e-06,2.4576393636384478e-05
3.6779784670592157e-07,6.712029505499292e-07,2.4277410600050233e-06,2.427824052891921e-05
3.6850660699566624e-07,6.632454005475263e-07,2.386551108058751e-06,2.3987042543605844e-05
3.6907516657866073e-07,6.554005863943523e-07,2.3440133913168283e-06,2.370629116740595e-05
3.6949307140507813e-07,6.477183905595952e-07,2.300289215931366e-06,2.343956993292933e-05
3.697538022182872e-07,6.402441241631686e-07,2.255542412152355e-06,2.319035555973833e-05
3.698544795608479e-07,6.330165235252187e-07,2.2099412525040904e-06,2.296183874351331e-05
3.6979558044832077e-07,6.260680526363092e-07,2.1636674773033668e-06,2.275678016023638e-05
3.69579117323833e-07,6.194255489405219e-07,2.116921608112027e-06,2.2577415225033208e-05
3.692074030092755e-07,6.131105867028096e-07,2.0699142461218928e-06,2.242540742022756e-05
3.686831120352949e-07,6.071407370257545e-07,2.0228560835809445e-06,2.230182268670936e-05
3.6800903507232493e-07,6.015301954439504e-07,1.9759617131838834e-06,2.220712632813193e-05
3.671877557674067e-07,5.962888249308128e-07,1.929456617860028e-06,2.2141251102502307e-05
3.6622232347256976e-07,5.914239893668298e-07,1.8835729105150795e-06,2.2103732010171792e-05
3.651181124629046e-07,5.869482643840635e-07,1.838537955123433e-06,2.209384699951296e-05
3.638849473134512e-07,5.828863084548818e-07,1.7945657245073663e-06,2.211074589132101e-05
3.625378671273885e-07,5.792722207617057e-07,1.7518544964072827e-06,2.2153571535806752e-05
3.610965687140594e-07,5.761397506808176e-07,1.7105893716157282e-06,2.2221542535190828e-05
3.5958491783443523e-07,5.735147487304828e-07,1.6709467278221994e-06,2.2313980165343107e-05
3.580307015343257e-07,5.714143870311908e-07,1.633096955592372e-06,2.243030082299936e-05
3.564645653730969e-07,5.698512597607014e-07,1.597201435607557e-06,2.256998461689393e-05
3.549170984168443e-07,5.688397139946152e-07,1.56340457120745e-06,2.273252550987685e-05
3.534151989050572e-07,5.684033757112527e-07,1.5318259851582158e-06,2.2917381970771355e-05
3.519810619298067e-07,5.685814976796628e-07,1.5025557383078276e-06,2.3123907765022323e-05
3.506342874755161e-07,5.694274249873692e-07,1.4756520511403817e-06,2.335123853855245e-05
3.4939332569192943e-07,5.709958373254244e-07,1.4511409816160319e-06,2.359821033680353e-05
3.482752991028181e-07,5.733281552480454e-07,1.4290219989870125e-06,2.3863396501458746e-05
3.47298098838454e-07,5.764478833133427e-07,1.409282992069842e-06,2.414521321853724e-05
3.4648429878399855e-07,5.803663025303223e-07,1.3919172293653923e-06,2.44420056011995e-05
3.4586066735450874e-07,5.850900145577382e-07,1.3769318749501051e-06,2.475210987043452e-05
3.4545255220804924e-07,5.906223952561706e-07,1.364347442507072e-06,2.507391519794224e-05
3.452789997778193e-07,5.969607389797889e-07,1.3541916481525249e-06,2.540591404483083e-05
3.4535111198041127e-07,6.040973380448386e-07,1.346490085412491e-06,2.574668186090631e-05
3.4567202745026307e-07,6.120248576049287e-07,1.3412574419285047e-06,2.609475698435011e-05
3.462380599330258e-07,6.207383490873668e-07,1.3384906713384762e-06,2.6448501106341902e-05
3.4704121817823605e-07,6.302301771116787e-07,1.3381617356286977e-06,2.6806022248459355e-05
3.480714933511756e-07,6.40481879223448e-07,1.3402103907376923e-06,2.716517741187373e-05
3.4931688858184233e-07,6.514590480775497e-07,1.3445412476019664e-06,2.7523671158818043e-05
3.507621028925001e-07,6.631112685036211e-07,1.3510261532494323e-06,2.7879240815844867e-05
3.52388149243159e-07,6.753747561926732e-07,1.3595087360651421e-06,2.822983267327689e-05
3.541731061791035e-07,6.881754326063057e-07,1.369809585505163e-06,2.857365390340588e-05
3.560931631018239e-07,7.014328514350908e-07,1.381733656504603e-06,2.8909089808389045e-05
3.581232595237346e-07,7.150638838599365e-07,1.395078691167725e-06,2.9234559270905877e-05
3.602376313358922e-07,7.28982942346228e-07,1.4096396459209558e-06,2.9548385696742145e-05
3.6241204119729326e-07,7.431005716939238e-07,1.4252107581369464e-06,2.9848748908644568e-05
3.646265052305761e-07,7.57324858245103e-07,1.441592916473432e-06,3.0133714729022912e-05
3.66864682002459e-07,7.715651879538859e-07,1.4586045753148331e-06,3.0401289909203712e-05
3.691104676543445e-07,7.857361890781722e-07,1.4760851086342463e-06,3.0649547402836165e-05
3.713455293305357e-07,7.997619615019197e-07,1.4938872296832978e-06,3.0876909590339884e-05
3.735491662018386e-07,8.13579441264958e-07,1.5118695962654537e-06,3.108245018598436e-05
3.756996493743472e-07,8.271369261311837e-07,1.5298990982576025e-06,3.126594168928162e-05
3.7777582242119923e-07,8.403872843288365e-07,1.5478588029338622e-06,3.142764113457809e-05
3.7975842260092477e-07,8.532822032289481e-07,1.5656531062488011e-06,3.1568030659335795e-05
3.816305991642992e-07,8.657720585978531e-07,1.5832036587509776e-06,3.16876439997756e-05
3.83377410925092e-07,8.778080042574772e-07,1.600438275353595e-06,3.1787037561555434e-05
3.8498598820103577e-07,8.893415016722096e-07,1.6172866840665081e-06,3.186695583371778e-05
3.864471469904789e-07,9.003218132390508e-07,1.6336891008543843e-06,3.192855545189047e-05
3.877569896424761e-07,9.106953009019631e-07,1.6496054021958289e-06,3.197344276228593e-05
3.88917205605021e-07,9.204080726735444e-07,1.665011697663089e-06,3.200352126315126e-05
3.899334680882585e-07,9.294089269655569e-07,1.679887790990225e-06,3.202080848519519e-05
3.9081267042270744e-07,9.376493818967829e-07,1.694213079796599e-06,3.2027276532557585e-05
3.9156058301398096e-07,9.450821270906237e-07,1.7079804196339978e-06,3.202471707035804e-05
3.921808718483714e-07,9.516615296500842e-07,1.7212139841939359e-06,3.20146555055433e-05
3.926761955134872e-07,9.573467149584777e-07,1.7339679282088596e-06,3.199832433768252e-05
3.9305088153235937e-07,9.621031052626008e-07,1.7463055951246517e-06,3.1976686861431074e-05
3.933131902689093e-07,9.65900681609168e-07,1.7582889903114128e-06,3.1950493778019426e-05
3.9347608261700895e-07,9.687138863133036e-07,1.7699945275201409e-06,3.192031700028081e-05
3.935566466919201e-07,9.70525266334334e-07,1.7815310467112446e-06,3.188650728833305e-05
3.9357441171703616e-07,9.71327582019032e-07,1.7930369494782116e-06,3.1849125555348466e-05
3.9354916130714606e-07,9.711211717626845e-07,1.8046611245341446e-06,3.18079420630747e-05
3.934991468006562e-07,9.699101600414693e-07,1.8165396672626637e-06,3.1762515171421715e-05
3.9343973100465634e-07,9.677020709531587e-07,1.8287773071932759e-06,3.1712305419379976e-05
3.933823753148351e-07,9.6451226628866e-07,1.8414401234570298e-06,3.165679598433912e-05
3.9333505628522856e-07,9.603704354704285e-07,1.8545570989024732e-06,3.1595595115070164e-05
3.933040131907876e-07,9.553223650577229e-07,1.8681231332655617e-06,3.15284901722165e-05
3.9329441825665716e-07,9.494236695316221e-07,1.882101545891743e-06,3.145544722044841e-05
3.93309445457445e-07,9.427309947193323e-07,1.896426795505817e-06,3.137657047626316e-05
3.9335001451155317e-07,9.352986798345964e-07,1.9110076402991002e-06,3.129203361726427e-05
3.934156625296725e-07,9.2718420834691e-07,1.9257319454698663e-06,3.120200626877348e-05
3.9350493978781353e-07,9.184588914171856e-07,1.94047341871325e-06,3.1106600304146626e-05
3.936150082524154e-07,9.092148213192936e-07,1.955102378504811e-06,3.1005827924309445e-05
3.9374164454053223e-07,8.995628642271746e-07,1.969502488715905e-06,3.089956943722186e-05
3.9388115362764896e-07,8.896256902858337e-07,1.9835860867814447e-06,3.078759789833949e-05
3.94033241112277e-07,8.795295109379357e-07,1.997298163017017e-06,3.066966818126374e-05
3.9420152729451384e-07,8.693945104294365e-07,2.0106079355165253e-06,3.054559715681527e-05
3.9439186904371064e-07,8.593297130502501e-07,2.023493297875342e-06,3.0415301783002413e-05
3.94611997507764e-07,8.494387644791907e-07,2.035924693024921e-06,3.0278828626441602e-05
3.9487256135297463e-07,8.398318921061517e-07,2.0478556135472067e-06,3.0136380689798347e-05
3.951861881370257e-07,8.306333489423889e-07,2.059225905248198e-06,2.998828870440078e-05
3.955650721178007e-07,8.219782682771913e-07,2.0699763100068727e-06,2.9834898712053083e-05
3.9602061997557686e-07,8.14001087507793e-07,2.080061620785217e-06,2.967644553868935e-05
3.965632014135442e-07,8.068227128556214e-07,2.089451587747545e-06,2.9512988995852998e-05
3.971992129668357e-07,8.005415719012294e-07,2.098123524294358e-06,2.9344423742774013e-05
3.979291184136187e-07,7.952298315565145e-07,2.1060564791529147e-06,2.9170562675771638e-05
3.9874889257170187e-07,7.909344058634639e-07,2.113228315526276e-06,2.8991291353627284e-05
3.9965166766194674e-07,7.876819167493112e-07,2.11961144901863e-06,2.8806726694895673e-05
4.00627796277091e-07,7.854868437382568e-07,2.1251684990850965e-06,2.8617261686027693e-05
4.016653439986564e-07,7.843602870158103e-07,2.129854046131104e-06,2.8423455804478588e-05
4.02751590077273e-07,7.843140904264037e-07,2.1336248913817857e-06,2.822584826639701e-05
4.0387380832299343e-07,7.853573847456248e-07,2.136454784974591e-06,2.8024801653466985e-05
4.050193979728386e-07,7.874904107485055e-07,2.1383450852492885e-06,2.782044165042143e-05
4.0617693946203716e-07,7.90705543386759e-07,2.13932472726326e-06,2.7612673292242437e-05
4.0733878996530325e-07,7.949994676268134e-07,2.1394427570289217e-06,2.7401220824590554e-05
4.0850482825966957e-07,8.003891181881799e-07,2.138761369124812e-06,2.7185727095064385e-05
4.096848650501661e-07,8.06920760812527e-07,2.137354054271697e-06,2.696599869014451e-05
4.108963346876521e-07,8.146677143980748e-07,2.1353129636407747e-06,2.6742287285792183e-05
4.121584162729321e-07,8.237185786647864e-07,2.1327644635091406e-06,2.651533187760538e-05
4.1348714965114224e-07,8.341598202669244e-07,2.129878412745653e-06,2.628613254885552e-05
4.14893225186392e-07,8.460579776136931e-07,2.1268561081142384e-06,2.605568794174328e-05
4.163814139063416e-07,8.59447551873502e-07,2.123901793814504e-06,2.5824843880541494e-05
4.1795077205805114e-07,8.743274505188727e-07,2.1212035074090058e-06,2.559432316298037e-05
4.195951223151835e-07,8.906652464450632e-07,2.118942362225324e-06,2.5364983734589966e-05
4.2130394037815843e-07,9.084050206217798e-07,2.1173189908107042e-06,2.513812509881185e-05
4.230634811096091e-07,9.27473278091887e-07,2.116574699133201e-06,2.491556848139079e-05
4.248574669657764e-07,9.477829008618956e-07,2.1169989825720205e-06,2.469951804162449e-05
4.2666824167372214e-07,9.692381376328138e-07,2.118924512132961e-06,2.4492385119750284e-05
4.2847865836774823e-07,9.917402331964616e-07,2.122711187713616e-06,2.4296642025202522e-05
4.302727722353322e-07,1.015190925048954e-06,2.128720684421988e-06,2.41146857746518e-05
4.320361190242532e-07,1.039491865504005e-06,2.1372846304513028e-06,2.394870824797979e-05
4.337580082213418e-07,1.064541179704257e-06,2.1486733337075143e-06,2.380059043398987e-05
4.3543322537661496e-07,1.0902296810848851e-06,2.163073441783548e-06,2.367183413236351e-05
4.3705951240135793e-07,1.1164373666921615e-06,2.1805809088031652e-06,2.356352320215355e-05
4.386334926529665e-07,1.1430315212360372e-06,2.2012097994123355e-06,2.347629221780253e-05
4.401487982879913e-07,1.169868200303893e-06,2.2249099066128294e-06,2.341030118076417e-05
4.4159606916501644e-07,1.1967950396194026e-06,2.251584966062117e-06,2.3365259560480162e-05
4.4296392172957296e-07,1.2236530198682164e-06,2.281106589614086e-06,2.3340522011581063e-05
4.4424014058692024e-07,1.2502777978507452e-06,2.3133223744694485e-06,2.3335213707779184e-05
4.454119052381654e-07,1.2765014514262141e-06,2.348060212136097e-06,2.3348350474116875e-05
4.4646521846938295e-07,1.3021547931359795e-06,2.3851317015728504e-06,2.3378947726821665e-05
4.4738446706310044e-07,1.327070322534232e-06,2.4243365212137213e-06,2.3426089913243452e-05
4.4815253440217334e-07,1.3510872344086118e-06,2.465468419528161e-06,2.34889455636586e-05
4.4875161792944595e-07,1.374058556416469e-06,2.508320835640077e-06,2.3566772663738134e-05
4.4916463109594707e-07,1.3958548236757078e-06,2.552688700578476e-06,2.3658937749585848e-05
4.4937598504128715e-07,1.4163603208452298e-06,2.598364817991074e-06,2.376490121714307e-05
4.4937104367155973e-07,1.435466870118288e-06,2.64513139504389e-06,2.3884136614591822e-05
4.491360464045125e-07,1.4530714766091111e-06,2.692749851279131e-06,2.401601976134525e-05
4.486594081783697e-07,1.4690776121928655e-06,2.740955358066548e-06,2.415973237596693e-05
4.4793230737549523e-07,1.4833987431150362e-06,2.789460658823476e-06,2.431419693048135e-05
4.46947919333445e-07,1.4959647961626737e-06,2.837968579678622e-06,2.447806560118307e-05
4.457012024302659e-07,1.5067272569920739e-06,2.8861900162182683e-06,2.464975949149269e-05
4.441889925194782e-07,1.5156570489655926e-06,2.9338597513893427e-06,2.4827507222549814e-05
4.424090496999483e-07,1.522738435533107e-06,2.9807405423294945e-06,2.5009370581807005e-05
4.4035932962164326e-07,1.5279652448401643e-06,3e-07,2.5193287745567483e-05
4.3803811460567807e-07,1.5313392081105319e-06,3e-07,2.5377148008015845e-05
4.354440374435918e-07,1.5328681809798108e-06,3e-07,2.555886243747672e-05
4.325765650910777e-07,1.5325651593184197e-06,3e-07,2.573636902955856e-05
4.294369143283247e-07,1.5304490863499144e-06,3e-07,2.590758954999508e-05
4.260281196706674e-07,1.5265462235853188e-06,3e-07,2.607042492551724e-05
4.223548032860489e-07,1.520890424411235e-06,3e-07,2.6222825521687186e-05
4.1842327060856936e-07,1.5135217067428913e-06,3e-07,2.6362911141300235e-05
4.142414929080803e-07,1.5044842332079163e-06,3e-07,2.6489119963459803e-05
4.098192964544918e-07,1.493825957036874e-06,3e-07,2.660034340346593e-05
4.05168474008155e-07,1.481600483180636e-06,3e-07,2.6695942960152318e-05
4.0030211783125257e-07,1.467867758169149e-06,3e-07,2.6775606603382376e-05
3.9523428493134926e-07,1.4526911460854651e-06,3e-07,2.6839165428486605e-05
3.899808028716781e-07,1.4361340484773488e-06,3e-07,2.688653083192684e-05
3.845593863485217e-07,1.4182588711386631e-06,3e-07,2.6917763105974068e-05
3.789881569330094e-07,1.3991273150657276e-06,3e-07,2.693315325644476e-05
3.7328451504928105e-07,1.3788005255637438e-06,3e-07,2.6933240447490265e-05
3.674648870682793e-07,1.3573390072684212e-06,3e-07,2.691876313279061e-05
3.6154417315902243e-07,1.3348036821308752e-06,3e-07,2.689059913714096e-05
3.5553516627292e-07,1.3112580673196278e-06,3e-07,2.6849770294404786e-05
3.4944867270382964e-07,1.2867693617742337e-06,3e-07,2.679746430574648e-05
3.432943020573813e-07,1.2614074837393546e-06,3e-07,2.6734972447825226e-05
3.37081402283351e-07,1.2352433713297196e-06,3e-07,2.6663566650237656e-05
3.3081994831790853e-07,1.208348239232795e-06,3e-07,2.6584384665239045e-05
3.245219153131359e-07,1.1807939080157814e-06,3e-07,2.649840092353912e-05
3.182020386138865e-07,1.1526531176629808e-06,3e-07,2.640659527600405e-05
3.118764639773382e-07,1.1239990109319814e-06,3e-07,2.631023737579424e-05
3.055611825346881e-07,1.0949040938393849e-06,3e-07,2.621101358658421e-05
2.9927198978872624e-07,1.0654400810969751e-06,3e-07,2.6110937274514663e-05
2.930244287766244e-07,1.0356801037648922e-06,3e-07,2.601221043947155e-05
2.868330068080772e-07,1.0057027947211297e-06,3e-07,2.591711040939696e-05
2.8071102531875077e-07,9.7559383101737e-07,3e-07,2.5827870371518437e-05
2.746713401283175e-07,9.454419590517515e-07,3e-07,2.5746556781976973e-05
2.687268268058134e-07,9.153344508670157e-07,3e-07,2.567497984023322e-05
2.6288956069053417e-07,8.853573064149746e-07,2.9803544857943376e-06,2.561465391317505e-05
2.571697113694894e-07,8.555969109895378e-07,2.924938430115434e-06,2.556680245518077e-05
2.51575846909271e-07,8.261385583960179e-07,2.867307840855182e-06,2.5532384182597548e-05
2.461161775501272e-07,7.970642208853427e-07,2.8076716077172987e-06,2.5512100436261357e-05
2.407996935556123e-07,7.684518686796416e-07,2.746257623206607e-06,2.550636442020544e-05
2.3563666601077623e-07,7.40374156706637e-07,2.6832986182206488e-06,2.551524123251677e-05
2.3063742106721807e-07,7.128968625312567e-07,2.6190241404002516e-06,2.5538392469303518e-05
2.2581071058574072e-07,6.860796119027855e-07,2.553664506106283e-06,2.5575097457013778e-05
2.211651241149354e-07,6.599775066281651e-07,2.487461851883643e-06,2.562438517256878e-05
2.1671269095667692e-07,6.346410251832132e-07,2.4206744998866274e-06,2.568521011548999e-05
2.124696566269573e-07,6.101159747930878e-07,2.353568542805951e-06,2.5756601748659923e-05
2.0845336894625e-07,5.864463426805545e-07,2.2864030242953343e-06,2.5837785164810888e-05
2.04679567643574e-07,5.636768550852346e-07,2.2194177174377645e-06,2.59282652188718e-05
2.011619190478854e-07,5.418510628711013e-07,2.1528283141646047e-06,2.602782544279953e-05
1.979115877928077e-07,5.210083724840313e-07,2.086827514327325e-06,2.6136434882181595e-05
1.9493609737414888e-07,5.011851901900894e-07,2.021588192342078e-06,2.6254124194033482e-05
1.9223899291858571e-07,4.824176357509375e-07,1.9572676693987325e-06,2.638085929695104e-05
1.8982142540878183e-07,4.647397753882306e-07,1.8940109008495242e-06,2.6516398821290498e-05
1.876844781117387e-07,4.481786436842036e-07,1.8319494562833285e-06,2.6660182749742045e-05
1.8582985012094482e-07,4.3275236055008135e-07,1.7711987692759212e-06,2.681130249806211e-05
1.8425967227671927e-07,4.184730429577046e-07,1.7118572133670278e-06,2.6968513765085793e-05
1.8297760786496693e-07,4.053516003264438e-07,1.6540069981204057e-06,2.713025579531351e-05
1.8199018203949649e-07,3.9339936869093706e-07,1.5977171478324155e-06,2.729469420656547e-05
1.8130660995199754e-07,3.8262413899172475e-07,1.543048182690121e-06,2.745980068713076e-05
1.8093751700816696e-07,3.7302578176382964e-07,1.490056575074304e-06,2.7623443311448395e-05
1.808943592899992e-07,3.645954141256939e-07,1.4387986540512958e-06,2.778343631024265e-05
1.811899179543555e-07,3.5731545621795593e-07,1.389333813602805e-06,2.793754299810089e-05
1.818378036677317e-07,3.511591138566251e-07,1.3417251177931603e-06,2.8083486620979134e-05
1.8285069646672485e-07,3.460905878458415e-07,1.2960354112628807e-06,2.8219011256583863e-05
1.8423876437661732e-07,3.420664408034794e-07,1.2523206221110792e-06,2.8342001378826124e-05
1.8600825837830343e-07,3.390380430608454e-07,1.2106255355624691e-06,2.845066782199516e-05
1.8816062342485761e-07,3.369550387920069e-07,1.1709835040095566e-06,2.8543756512623603e-05
1.90692616106979e-07,3.357686752562768e-07,1.1334158810818532e-06,2.8620656244636663e-05
1.93596966508142e-07,3.354339767393529e-07,1.0979297297547217e-06,2.8681328876686865e-05
1.9686431049183e-07,3.359099800539332e-07,1.064517671146737e-06,2.872609835153317e-05
2.004860197399799e-07,3.371566798555906e-07,1.0331617755012172e-06,2.8755388618924108e-05
2.0445537745898032e-07,3.3913104172617676e-07,1.0038370063126477e-06,2.8769518245929632e-05
2.0876628814224552e-07,3.417862855632813e-07,9.765103275492598e-07,2.876862287232398e-05
2.1341041047571052e-07,3.4507320075337537e-07,9.511395436670592e-07,2.8752689755317738e-05
2.1837450057834987e-07,3.489408596718789e-07,9.276771431428325e-07,2.8721640696730243e-05
2.236399639441473e-07,3.533381574376693e-07,9.060771641991331e-07,2.8675448788713805e-05
2.2918425735950408e-07,3.5821746972278805e-07,8.86298404234825e-07,2.8614313465551483e-05
2.3498243358545235e-07,3.635390159309757e-07,8.683003943329456e-07,2.8538791688449603e-05
2.4100791454519764e-07,3.6927403089414405e-07,8.52036956756597e-07,2.844973519793769e-05
2.472324907516443e-07,3.754053717973246e-07,8.374542154363832e-07,2.8348098358011938e-05
2.536262078027593e-07,3.819244118755986e-07,8.244944005459449e-07,2.823477941047561e-05
2.601574681719473e-07,3.888243628707701e-07,8.131037694631319e-07,2.8110581928505292e-05
2.6679346834850424e-07,3.960933582268009e-07,8.032392778841874e-07,2.7976392425772875e-05
2.7350140091948106e-07,4.037115292678444e-07,7.948669995078242e-07,2.783352350934132e-05
2.802500036282744e-07,4.1165278799976173e-07,7.879542234118699e-07,2.768391955434232e-05
2.870106971266211e-07,4.1988831980938675e-07,7.824666126226345e-07,2.7530077033703004e-05
2.937581058174246e-07,4.2838808292679673e-07,7.783783455451909e-07,2.7374841375733552e-05
3.004696732636256e-07,4.3711979621613844e-07,7.756893522687038e-07,2.722122649522325e-05
3.071247014636763e-07,4.4604824455348075e-07,7.744365965820062e-07,2.7072263461666808e-05
3.137040677279719e-07,4.5513617148426284e-07,7.746924813275096e-07,2.6930854586180648e-05
3.201911654611244e-07,4.643448728357151e-07,7.765526861961549e-07,2.6799638393532e-05
3.2657303991764697e-07,4.736333444885374e-07,7.801207292596484e-07,2.668089591448461e-05
3.328400641716665e-07,4.829577315309511e-07,7.854931068157601e-07,2.6576522358345168e-05
3.3898361518440666e-07,4.922727958388196e-07,7.927444247365948e-07,2.64880397960138e-05
3.449938104365642e-07,5.015349845778065e-07,8.019169678954451e-07,2.6416582704363865e-05
3.508594910707993e-07,5.107055102837953e-07,8.130194756128094e-07,2.636283370152634e-05
3.565686835115708e-07,5.197510275532707e-07,8.260318619671244e-07,2.632696700710238e-05
3.6210770635867546e-07,5.286413816526629e-07,8.409117249918687e-07,2.630866071843177e-05
3.6746088970472996e-07,5.373470278191535e-07,8.575991701463109e-07,2.630720961910531e-05
3.726117751136856e-07,5.458375449842318e-07,8.760170435743601e-07,2.632172736412839e-05
3.7754427427107614e-07,5.540818792645264e-07,8.96070828731489e-07,2.635134091421548e-05
3.822437106597333e-07,5.620505784273236e-07,9.176539676963002e-07,2.6395278880968757e-05
3.8669805465757923e-07,5.697163761033656e-07,9.406571293454176e-07,2.6452880479355465e-05
3.908983211535855e-07,5.770513159059357e-07,9.649769370917995e-07,2.6523601313119875e-05
3.948384828208523e-07,5.840249736107372e-07,9.905225622700402e-07,2.6607009654274028e-05
3.9851607615291047e-07,5.906067939547368e-07,1.0172197102725876e-06,2.6702731870591118e-05
4.0193227274057344e-07,5.967696583454743e-07,1.0450092619056042e-06,2.681036459738297e-05
4.050903231509378e-07,6.024913303952421e-07,1.0738391119232791e-06,2.6929388635801057e-05
4.0799346747710536e-07,6.077555770415811e-07,1.1036531116292686e-06,2.7059087895410425e-05
4.10643571246029e-07,6.125569179953525e-07,1.1343814821932144e-06,2.7198507656941572e-05
4.130414274735049e-07,6.169080201735444e-07,1.1659355571681075e-06,2.7346492829264223e-05
4.151887740820371e-07,6.208456190938083e-07,1.198211132612865e-06,2.7501748289496284e-05
4.170896876032838e-07,6.244313507529182e-07,1.2310996577185602e-06,2.7662855463156127e-05
4.187495324810226e-07,6.277435464611468e-07,1.2644994453005158e-06,2.7828291367610742e-05
4.201733661509144e-07,6.30862307913033e-07,1.2983216026277452e-06,2.7996515150639195e-05
4.213651853239229e-07,6.338586497577822e-07,1.332488650173461e-06,2.8166091060070093e-05
4.22326964865791e-07,6.3679304979196e-07,1.366925083872393e-06,2.8335749329477864e-05
4.2305793644638256e-07,6.397199128741398e-07,1.401544870226159e-06,2.850433311186438e-05
4.2355523180568755e-07,6.426939463043945e-07,1.436243570023431e-06,2.8670678668589244e-05
4.238150668163435e-07,6.457723742438795e-07,1.4708983658579492e-06,2.883350931388427e-05
4.238332715700985e-07,6.490084942257535e-07,1.5053731920831316e-06,2.899141476361672e-05
4.2360536884761465e-07,6.524424207313828e-07,1.5395226520339362e-06,2.914296792492172e-05
4.2312725087557243e-07,6.560970399844077e-07,1.5731924484781075e-06,2.9286930887899266e-05
4.223966013823386e-07,6.599800882081005e-07,1.60622101863696e-06,2.9422393866661e-05
4.2141365512150395e-07,6.640906157196518e-07,1.6384457819197677e-06,2.954874268952629e-05
4.201806402081017e-07,6.684284564254546e-07,1.6697105477433215e-06,2.966549667953651e-05
4.187013721292704e-07,6.730026674277168e-07,1.699868244091977e-06,2.977212035213689e-05
4.169823860288884e-07,6.778338453513253e-07,1.7287778336398227e-06,2.986789735850841e-05
4.150342411863219e-07,6.829500139802184e-07,1.7563000112854812e-06,2.9951906816354688e-05
4.128709975522799e-07,6.883798578154525e-07,1.782295780247168e-06,3.0023064672538843e-05
4.105090881049784e-07,6.941464071862436e-07,1.806627449725716e-06,3.008019037116062e-05
4.079665177872704e-07,7.002632377530834e-07,1.8291618657072696e-06,3.0122157755065803e-05
4.0526153478445846e-07,7.067336007840852e-07,1.8497791649012488e-06,3.014818041646421e-05
4.024119803689929e-07,7.135512765468025e-07,1.8683852191311203e-06,3.0158069892844484e-05
3.9943639599042857e-07,7.207024293919663e-07,1.8849172977590081e-06,3.0152248010731024e-05
3.963556622652051e-07,7.281675861295668e-07,1.8993372443080483e-06,3.0131549329491383e-05
3.9319324191020397e-07,7.359230042943751e-07,1.9116200283311283e-06,3.009697094109166e-05
3.899731920131886e-07,7.439412348708994e-07,1.9217491065257057e-06,3.004947188953781e-05
3.867181391785309e-07,7.521909539604844e-07,1.929718959328056e-06,2.998998551519587e-05
3.8344960003622907e-07,7.606380822962599e-07,1.9355360643451315e-06,2.9919681810839147e-05
3.8018917380729644e-07,7.692499428222045e-07,1.9392151726313995e-06,2.984018409490661e-05
3.76958154790637e-07,7.779996935966293e-07,1.9407749194837124e-06,2.97535103089947e-05
3.7377614852522613e-07,7.86866437661247e-07,1.9402357525557546e-06,2.9661846800300768e-05
3.7066095571913704e-07,7.95830567608781e-07,1.937621763955057e-06,2.956733188884159e-05
3.676301403058005e-07,8.04867807782851e-07,1.9329652753734982e-06,2.9471918381564928e-05
3.6470215802823576e-07,8.139456471189906e-07,1.9263081011588163e-06,2.937731412152029e-05
3.6189546004629673e-07,8.230238880945678e-07,1.917697535128615e-06,2.9284963124374432e-05
3.5922612651040543e-07,8.3205774945338e-07,1.9071827518682263e-06,2.919602798952999e-05
3.5670561629688934e-07,8.410015168681582e-07,1.8948140259884102e-06,2.911136810963985e-05
3.5434007496841577e-07,8.498114165489297e-07,1.880642272489537e-06,2.9031545114144013e-05
3.521313987629015e-07,8.584449078324057e-07,1.864719505411016e-06,2.8956864204501037e-05
3.5007963229315965e-07,8.668571299770966e-07,1.847102335574171e-06,2.8887404658195668e-05
3.481852107377878e-07,8.749993845975418e-07,1.8278570450058327e-06,2.882300195970475e-05
3.4644850631355377e-07,8.828201025146065e-07,1.8070627825530862e-06,2.8763206906897827e-05
3.448676992338928e-07,8.902657224946369e-07,1.7848106062428566e-06,2.8707290919037654e-05
3.434383699147416e-07,8.972817340666668e-07,1.7611980612367294e-06,2.8654344480423523e-05
3.421541858970356e-07,9.038140428859835e-07,1.7363220213662017e-06,2.8603430850704706e-05
3.410069988054355e-07,9.098099664146916e-07,1.7102746008304397e-06,2.8553701124550788e-05
3.399877627169398e-07,9.152199722749829e-07,1.6831431851720996e-06,2.8504425016532463e-05
3.3908790408700343e-07,9.199998930187201e-07,1.655011506570853e-06,2.845496257408629e-05
3.3829916678100397e-07,9.241116390367708e-07,1.625960443726239e-06,2.840470093595077e-05
