5.346225155815337e-07,5.835779962312416e-07,3.685223024131749e-07,2.7364147549304732e-05
5.309162364654857e-07,5.877364873099613e-07,3.722356708146114e-07,2.768506742713459e-05
5.27170689771952e-07,5.915721536530008e-07,3.75783544387792e-07,2.8003146913919746e-05
5.234150328927565e-07,5.950670804048055e-07,3.79171710265572e-07,2.8317042607297966e-05
5.19677472179244e-07,5.98203243196816e-07,3.824058736745504e-07,2.862562684220844e-05
5.159846682965388e-07,6.009650955581077e-07,3.8549010052062545e-07,2.892786178104119e-05
5.123635025630218e-07,6.033409416337911e-07,3.884276250167347e-07,2.9222693694153717e-05
5.088429234072641e-07,6.053216603838865e-07,3.912211716628177e-07,2.9508987421878643e-05
5.054515286933207e-07,6.068982433668191e-07,3.9387213426544666e-07,2.9785497018746912e-05
5.022156333727157e-07,6.080606274308639e-07,3.9638124567988256e-07,3.0050860775377044e-05
4.991642502301935e-07,6.087987622446618e-07,3.9875088833379815e-07,3.0303658684984595e-05
4.96334358817941e-07,6.09104571288971e-07,4.009856091736551e-07,3.054257070614556e-05
4.937677583607604e-07,6.089739592098239e-07,4.0308933768460397e-07,3.076654553938989e-05
4.915047870466885e-07,6.084092699150389e-07,4.050623761895223e-07,3.097487160192239e-05
4.895816145104918e-07,6.074211244720132e-07,4.069012402589752e-07,3.116716027547181e-05
4.880281068391399e-07,6.060290473499615e-07,4.0860085281071843e-07,3.134327843495841e-05
4.868648110735072e-07,6.042614658146848e-07,4.1015718052357997e-07,3.1503253049430876e-05
4.861026708287878e-07,6.021540266234337e-07,4.1156878436334024e-07,3.164717213735666e-05
4.857481404615291e-07,5.997455096035637e-07,4.128367723098135e-07,3.1775072273259256e-05
4.858137167497786e-07,5.970730205795147e-07,4.13963725686538e-07,3.1886835933863626e-05
4.863283342084257e-07,5.941686337540107e-07,4.1495190791872256e-07,3.19822043805895e-05
4.873388106626419e-07,5.910581655808375e-07,4.158016587748528e-07,3.206095745352746e-05
4.88900569575805e-07,5.87761648345804e-07,4.165113746612853e-07,3.212317711645271e-05
4.910649499592767e-07,5.84294398817528e-07,4.170782916372031e-07,3.2169497045353555e-05
4.938709080721636e-07,5.806672657300771e-07,4.1749897349171894e-07,3.220127591124795e-05
4.97342119120031e-07,5.768866741449373e-07,4.177700644885221e-07,3.222060873846425e-05
5.01486108361806e-07,5.729564022153072e-07,4.178886868991946e-07,3.2230122234395106e-05
5.062947623239164e-07,5.688803450375784e-07,4.1785141805056756e-07,3.223260449297357e-05
5.117463604855907e-07,5.646635932796486e-07,4.1765311612948287e-07,3.223061426783218e-05
5.178080657901662e-07,5.603113358793418e-07,4.1728717886034934e-07,3.2226251324236046e-05
5.244410017429327e-07,5.558274991528698e-07,4.1674672766092394e-07,3.222113574162266e-05
5.316082785243392e-07,5.512152759217504e-07,4.160250393875864e-07,3.221645796056317e-05
5.392803996868703e-07,5.464799586805722e-07,4.151149998653425e-07,3.221302757402247e-05
5.474350076355542e-07,5.416314727269566e-07,4.1400902973627615e-07,3.2211409143529434e-05
5.560535261673607e-07,5.366836869937355e-07,4.1270038336337173e-07,3.2212111503425426e-05
5.651189391844965e-07,5.316508927872617e-07,4.11185369257084e-07,3.221562349042333e-05
5.746177431409638e-07,5.265444617325511e-07,4.0946452363205525e-07,3.2222287722801114e-05
5.845438662709779e-07,5.213722924741689e-07,4.075414543560002e-07,3.223223786876219e-05
5.948996277941507e-07,5.161410431173696e-07,4.0542095438409244e-07,3.224548621368889e-05
6.056920676249577e-07,5.108585624774986e-07,4.031077887996932e-07,3.226211640967542e-05
6.169256409948656e-07,5.055341544034548e-07,4.0060656774418687e-07,3.2282595798321554e-05
6.285946824872652e-07,5.001771663312113e-07,3.979235805255353e-07,3.2308105054515146e-05
6.406809718820315e-07,4.947957777496435e-07,3.950687706351117e-07,3.234061914156393e-05
6.531583930596675e-07,4.893965457493232e-07,3.9205506761142843e-07,3.2382660255229636e-05
6.659995626178342e-07,4.839846134623993e-07,3.888967852226411e-07,3.243692060487182e-05
6.791768144976571e-07,4.785646824856634e-07,3.856089197154624e-07,3.2505947573815e-05
6.926576946028033e-07,4.73142267073756e-07,3.8220641880830994e-07,3.2591933768360526e-05
7.064016887274323e-07,4.6772425812131825e-07,3.787044391732993e-07,3.269657681464016e-05
7.203607752815877e-07,4.6231798136539795e-07,3.7512020417983625e-07,3.282098263990025e-05
7.344824985948426e-07,4.569295458215453e-07,3.7147315137692815e-07,3.2965600396317326e-05
7.487141463027684e-07,4.5156406954177333e-07,3.677823475480135e-07,3.313018945419889e-05
7.630045573533261e-07,4.462284922086084e-07,3.640652259067821e-07,3.3313862573549416e-05
7.773015823116817e-07,4.4093441456706753e-07,3.6033888897064645e-07,3.3515226525008725e-05
7.915481987369324e-07,4.356985613380896e-07,3.5662098213779997e-07,3.3732542381890385e-05
8.056809353882993e-07,4.305408928785801e-07,3.529303031847333e-07,3.3963818749003755e-05
8.196321481966457e-07,4.254821789256526e-07,3.49288263124122e-07,3.4206840634426114e-05
8.33335100592295e-07,4.2054228824966785e-07,3.457185363021543e-07,3.445918504638689e-05
8.467277380470664e-07,4.1573882427856257e-07,3.422440346601445e-07,3.4718249716147515e-05
8.597524284419792e-07,4.110858460610228e-07,3.388845566583969e-07,3.4981293371747464e-05
8.72355321592012e-07,4.065932641098112e-07,3.3565812226812446e-07,3.5245496540051553e-05
8.844892466276123e-07,4.0226733328075296e-07,3.325855009531444e-07,3.550805624330518e-05
8.961165926252292e-07,3.981115265772537e-07,3.296937786648433e-07,3.576627712833551e-05
9.072081178279768e-07,3.9412729631606286e-07,3.270153649821069e-07,3.6017587898436554e-05
9.177401571551813e-07,3.903154140526798e-07,3.2458377727050506e-07,3.6259484270841635e-05
9.276930429882374e-07,3.8667720219645037e-07,3.224306576300185e-07,3.64894886475228e-05
9.370497953858936e-07,3.8321388422267936e-07,3.205852731842465e-07,3.670516970402994e-05
9.457944990614542e-07,3.799252187603763e-07,3.190734802516313e-07,3.6904179966595674e-05
9.539111631692287e-07,3.7681137284008023e-07,3.1791526743635105e-07,3.7084323048954936e-05
9.613830619624392e-07,3.738787514441806e-07,3.1712341290575235e-07,3.724367316060643e-05
9.681922387944116e-07,3.711444982696706e-07,3.167046608765481e-07,3.738065246781494e-05
9.743195584899882e-07,3.686348046933448e-07,3.166632768543521e-07,3.749401083520237e-05
9.797457273278645e-07,3.663788261429636e-07,3.1700581076850405e-07,3.758279193342547e-05
9.844537120350168e-07,3.6440344496072675e-07,3.1774335957335464e-07,3.764633734055664e-05
9.884323532296424e-07,3.6273141460643357e-07,3.188885716331221e-07,3.7684257826174304e-05
9.916778092407749e-07,3.613818712434704e-07,3.20450059624024e-07,3.76963266410031e-05
9.941903640539672e-07,3.603711722765305e-07,3.224284887457531e-07,3.7682392376951286e-05
9.95971685827045e-07,3.5971347868370827e-07,3.248154761431441e-07,3.764239020301762e-05
9.970288695140725e-07,3.5942079563381204e-07,3.275948062049337e-07,3.7576406480515704e-05
9.973819494975343e-07,3.5950115644189245e-07,3.307454087420158e-07,3.7484771361386984e-05
9.97065274524008e-07,3.599563641224695e-07,3.342440933737866e-07,3.736819095723139e-05
9.96120330052498e-07,3.607821369196033e-07,3.3806583581198674e-07,3.722783761204565e-05
9.945886164565315e-07,3.6196950589385096e-07,3.421832948747544e-07,3.7065247595410684e-05
9.925112455803741e-07,3.635051540900234e-07,3.4656874802677e-07,3.688202479717932e-05
9.899317237387834e-07,3.653714686520959e-07,3.5119744343841897e-07,3.667957125008479e-05
9.868964651282762e-07,3.6754833837305775e-07,3.560498262913541e-07,3.645903953304491e-05
9.834512785233915e-07,3.7001609496341045e-07,3.611123795240835e-07,3.622149042269469e-05
9.79635844961138e-07,3.7275642134905613e-07,3.6637605539095617e-07,3.596810391441172e-05
9.754812119131686e-07,3.757514849263357e-07,3.7183157991789977e-07,3.570032167437055e-05
9.710114996521955e-07,3.789847395449937e-07,3.7746517841655845e-07,3.541993229650797e-05
9.662458565359824e-07,3.8244239514533035e-07,3.8325741050580025e-07,3.5129186004972664e-05
9.611987813077518e-07,3.8611196577468595e-07,3.8918370530998895e-07,3.483092219521895e-05
9.55880902780377e-07,3.8997885342218226e-07,3.952155382770296e-07,3.452851948531023e-05
9.503027107598827e-07,3.9402433858226537e-07,4.0132186099768964e-07,3.4225550974994014e-05
9.444793540327664e-07,3.982252477172716e-07,4.07469981032614e-07,3.392532499308794e-05
9.384305793892653e-07,4.0255400123498713e-07,4.136256929438934e-07,3.363057238421889e-05
9.321757334078272e-07,4.069792170674451e-07,4.19753090054161e-07,3.334339970100527e-05
9.257306487770464e-07,4.114670421350609e-07,4.258148862545699e-07,3.3065525125365585e-05
9.191083584015621e-07,4.1598311593780774e-07,4.31773307603164e-07,3.279863140220233e-05
9.12319598131752e-07,4.2049483301402346e-07,4.375918802587901e-07,3.2544533829064116e-05
9.053724569132996e-07,4.249721709227171e-07,4.4323917792169935e-07,3.23051177711887e-05
8.982741847763651e-07,4.29386487937553e-07,4.4869275991095173e-07,3.208228113360334e-05
8.910341314302328e-07,4.337087702123711e-07,4.539398396461277e-07,3.187800637875644e-05
8.836645612157288e-07,4.379086512237774e-07,4.5897441457621424e-07,3.169448254767329e-05
8.761803083578852e-07,4.4195560106634857e-07,4.637934004584795e-07,3.153416206070016e-05
8.685978365724606e-07,4.4582268603810654e-07,4.6839382331725473e-07,3.139969917419159e-05
8.609324021928697e-07,4.4948976176651136e-07,4.7277210955111245e-07,3.129380008918067e-05
8.531961658520407e-07,4.529428230719042e-07,4.76924655460446e-07,3.1219094449400795e-05
8.453992497868186e-07,4.561716819642993e-07,4.808473598259908e-07,3.117814700203931e-05
8.37549898241733e-07,4.5917010404467533e-07,4.845345199522195e-07,3.1173570824804845e-05
8.296521303903107e-07,4.619371016931375e-07,4.879786882330175e-07,3.120806937349676e-05
8.217049208825366e-07,4.644755197322996e-07,4.911704672086393e-07,3.128433691397799e-05
8.137057288925018e-07,4.667884841574857e-07,4.940977671627344e-07,3.140488066065286e-05
8.056566448139937e-07,4.6887705915486613e-07,4.967463704906796e-07,3.1571827651082475e-05
7.97569192573017e-07,4.7074053292203704e-07,4.991021017601582e-07,3.178673856344383e-05
7.894639354829654e-07,4.7237810982167645e-07,5.01152059327984e-07,3.205042534234726e-05
7.813641283404355e-07,4.7378992378099307e-07,5.0288394619004e-07,3.236278732610862e-05
7.732883216433213e-07,4.7497678696586725e-07,5.042857595763044e-07,3.2722735809927056e-05
7.652484263698996e-07,4.759395891097168e-07,5.053466204970057e-07,3.3128285152358694e-05
7.572544595390089e-07,4.7667965308257255e-07,5.060570710844336e-07,3.3576807755742e-05
7.49320332523818e-07,4.772005789562185e-07,5.064092077349565e-07,3.40653348930583e-05
7.414642997428364e-07,4.775101310031993e-07,5.063982490978583e-07,3.4590745496522904e-05
7.337048433895283e-07,4.77620347829558e-07,5.060238586146779e-07,3.5149782714845423e-05
7.260568690883194e-07,4.775454348739835e-07,5.052891172939615e-07,3.5738978940209605e-05
7.185297749713003e-07,4.772991389811672e-07,5.041986540052725e-07,3.635465305154236e-05
7.111272052066923e-07,4.768949403431625e-07,5.027579134658513e-07,3.699315698045979e-05
7.038495096337901e-07,4.7634881758984605e-07,5.009732290421311e-07,3.7651382744729264e-05
6.966980048504382e-07,4.7567973666829177e-07,4.988514506754939e-07,3.832726917119618e-05
6.896769642259894e-07,4.749070509812416e-07,4.963995438283482e-07,3.9020033437792075e-05
6.827928341937278e-07,4.740492085294483e-07,4.936262410136799e-07,3.973008526489293e-05
6.760557948709285e-07,4.731242673068858e-07,4.905456498655384e-07,4.045874917258212e-05
6.694851246970736e-07,4.7214949278922434e-07,4.8717908581792e-07,4.120794507015382e-05
6.63112282468395e-07,4.711403006156122e-07,4.835530285238145e-07,4.19799046708568e-05
6.569767538009316e-07,4.7010934534415036e-07,4.796962756712137e-07,4.277692038154195e-05
6.511179403349268e-07,4.6906594581908225e-07,4.7563894118407896e-07,4.360111759043889e-05
6.455704730575978e-07,4.68016790893025e-07,4.7141171753410646e-07,4.445423807093565e-05
6.40364596697294e-07,4.6696679221678285e-07,4.670438971452121e-07,4.5337429157118605e-05
6.355258491795324e-07,4.659185534920521e-07,4.625612618091843e-07,4.625110477079712e-05
6.3107225307643e-07,4.6487161455083467e-07,4.5798542976221295e-07,4.719489762842602e-05
6.270151011876447e-07,4.638225993515024e-07,4.533348646499893e-07,4.816758350782625e-05
6.23365033307955e-07,4.6276646740226527e-07,4.486263611471597e-07,4.91669763149798e-05
6.201364539791194e-07,4.61698979671194e-07,4.4387578145783594e-07,5e-06
6.173448710055745e-07,4.6061904705513707e-07,4.390980542531921e-07,5e-06
6.150001634017714e-07,4.5952870931051615e-07,4.343070769322768e-07,5e-06
6.13102243014281e-07,4.584307693780833e-07,4.2951559923055323e-07,5e-06
6.116418432083133e-07,4.5732686544172926e-07,4.2473497865095977e-07,5e-06
6.106046759510557e-07,4.5621765822728977e-07,4.199751579129388e-07,5e-06
6.09974318344094e-07,4.551036338929089e-07,4.1524493408562657e-07,5e-06
6.097320923841407e-07,4.539846822395706e-07,4.1055186515776314e-07,5e-06
6.098575647839635e-07,4.5285911294990214e-07,4.0590193131915727e-07,5e-06
6.103298076160977e-07,4.5172365071901856e-07,4.013005543931585e-07,5e-06
6.111264229834122e-07,4.50573936338412e-07,3.967553916898893e-07,5e-06
6.122219535252556e-07,4.494046794192688e-07,3.9227792885187614e-07,5e-06
6.13587821910374e-07,4.4821026306826076e-07,3.8788190474883316e-07,5e-06
6.151927728264797e-07,4.46985132543225e-07,3.83581265767507e-07,5e-06
6.170035345721479e-07,4.4572236348247425e-07,3.79389110515234e-07,5e-06
6.189874243958293e-07,4.444122662759201e-07,3.7531605822439273e-07,5e-06
6.211160180819105e-07,4.4304342792028353e-07,3.713687376211072e-07,5e-06
6.233651253044472e-07,4.4160571062569005e-07,3.6754977472360337e-07,5e-06
6.257106346810946e-07,4.400934535901593e-07,3.638585935932666e-07,5e-06
6.28125265604949e-07,4.3850653378611576e-07,3.602925845746129e-07,5e-06
6.305783835956632e-07,4.368488391349823e-07,3.568490969381899e-07,5e-06
6.330373544634366e-07,4.3512745944057323e-07,3.5352727353074843e-07,5e-06
6.354686669572445e-07,4.333530885082389e-07,3.503275948864782e-07,5e-06
6.378380889952181e-07,4.315381123690392e-07,3.472498458801568e-07,5e-06
6.401116711939712e-07,4.29693504886129e-07,3.442927033813793e-07,5e-06
6.422587554413018e-07,4.278279333400921e-07,3.414551624220201e-07,5e-06
6.442545930104757e-07,4.2594815255263256e-07,3.3873718648379233e-07,5e-06
6.460821483627971e-07,4.240593558567577e-07,3.361393551530834e-07,5e-06
6.47733982553866e-07,4.2216540517493246e-07,3.3366252464457347e-07,5e-06
6.492108011507711e-07,4.2026861110035613e-07,3.3130744809887207e-07,5e-06
6.505153412031751e-07,4.1837061696148e-07,3.290751609107719e-07,5e-06
6.516465816109391e-07,4.16474872797749e-07,3.269684753220439e-07,5e-06
6.525984398248857e-07,4.1458694636531223e-07,3.2499268823119585e-07,5e-06
6.533629897497483e-07,4.1271162850215117e-07,3.23153829134619e-07,5e-06
6.539357015242822e-07,4.1085096985114934e-07,3.214559644165707e-07,5e-06
6.543196396796097e-07,4.090054171110368e-07,3.199000304917208e-07,5e-06
6.545261177603407e-07,4.0717591754251453e-07,3.184844175152593e-07,5e-06
6.545704366111081e-07,4.0536532260157826e-07,3.172068698641588e-07,5e-06
6.544663276206214e-07,4.035805726415304e-07,3.160665372857746e-07,5e-06
6.542258435339696e-07,4.0183474070019156e-07,3.150641693163632e-07,5e-06
6.538655280279489e-07,4.00145054148039e-07,3.142006446091827e-07,5e-06
6.534123429993346e-07,3.9852809200285934e-07,3.1347555928358405e-07,5e-06
6.529028450062801e-07,3.96996333047789e-07,3.1288622057084964e-07,5e-06
6.52376653714818e-07,3.955571920203944e-07,3.12426734082034e-07,5e-06
6.518722165700571e-07,3.942135902981286e-07,3.120880566286861e-07,5e-06
6.514286992636829e-07,3.929643735034537e-07,3.118596892267464e-07,5e-06
6.51087979894801e-07,3.918042846209366e-07,3.117319476487637e-07,5e-06
6.50891825708279e-07,3.9072485817079275e-07,3.116974362488861e-07,5e-06
6.508776798806979e-07,3.897156026073438e-07,3.117515319978733e-07,5e-06
6.510767340061656e-07,3.8876416523533933e-07,3.118920740833739e-07,5e-06
6.515143456315097e-07,3.8785673022869575e-07,3.1211763918841425e-07,5e-06
6.522125341909478e-07,3.8697995705271953e-07,3.1242480397257127e-07,5e-06
6.531923817702318e-07,3.861231954552068e-07,3.128066130194386e-07,5e-06
6.544728657996662e-07,3.8527860666709477e-07,3.1325326143968766e-07,5e-06
6.560664970857449e-07,3.844394332396243e-07,3.1375453742439205e-07,5e-06
6.57976071681267e-07,3.835992137542745e-07,3.1430352475312137e-07,5e-06
6.601962032902695e-07,3.8275215054902857e-07,3.1489920373897305e-07,5e-06
6.627180835124352e-07,3.818926557660325e-07,3.155449587715091e-07,5e-06
6.655322490467186e-07,3.8101486599139353e-07,3.162448937281325e-07,5e-06
6.68628081549968e-07,3.80114195466761e-07,3.1700167536553896e-07,5e-06
6.719929173281233e-07,3.7918969521638314e-07,3.1781540809383896e-07,5e-06
6.756114154867764e-07,3.782439360252271e-07,3.186827177738245e-07,5e-06
6.794639808834504e-07,3.7728049801547863e-07,3.195967155273502e-07,5e-06
6.835257032626503e-07,3.763027460912328e-07,3.2054800377662106e-07,5e-06
6.877691691642222e-07,3.753156266582768e-07,3.215273144402851e-07,5e-06
6.921697435607154e-07,3.743276578333134e-07,3.225282502868564e-07,5e-06
6.96706480541544e-07,3.7334966144172025e-07,3.235468605645153e-07,4.98589967357792e-05
7.013573235149515e-07,3.7239153869983713e-07,3.245794762023027e-07,4.8549644706438794e-05
7.060956934404666e-07,3.7146083523212364e-07,3.256229725247606e-07,4.724432966480057e-05
7.108919509916831e-07,3.705631069969273e-07,3.266771379508252e-07,4.594619809829041e-05
7.157149871495979e-07,3.6970186475478896e-07,3.277452280507931e-07,4.465817188005059e-05
7.205307916099083e-07,3.6887775012761896e-07,3.288315466225413e-07,4.338290731898965e-05
7.253010173215542e-07,3.680880853081954e-07,3.2993924079391344e-07,4.2122779560387184e-05
7.299834955545157e-07,3.6732807927950024e-07,3.3107038508330715e-07,4.087990267039652e-05
7.345332570286351e-07,3.665929232709063e-07,3.322272772755669e-07,3.965616373143924e-05
7.389034017637947e-07,3.658784158551417e-07,3.3341389669923164e-07,3.845323139452905e-05
7.43045719092129e-07,3.651810100180704e-07,3.346363212209484e-07,3.727253297545279e-05
7.469112062957051e-07,3.64499216800216e-07,3.359008159611523e-07,3.6115241467408937e-05
7.504513226509195e-07,3.638340611312532e-07,3.372111507609921e-07,3.498231404680614e-05
7.536191411832137e-07,3.631871197636656e-07,3.385678075919983e-07,3.387457112050706e-05
7.563697445534277e-07,3.6255919432090047e-07,3.3996883018857175e-07,3.279274426882153e-05
7.586616167702684e-07,3.619505105868481e-07,3.414106469602413e-07,3.173746206193278e-05
7.604587668961209e-07,3.613601248961793e-07,3.428882916674236e-07,3.070923286117591e-05
7.617311991578212e-07,3.6078496045259795e-07,3.443950828518309e-07,2.970844706390804e-05
7.624545900984997e-07,3.602198934380204e-07,3.459223461357165e-07,2.873536453613653e-05
7.626110724413686e-07,3.5965815727094897e-07,3.4746018408066787e-07,2.779011418866812e-05
7.621899525447511e-07,3.590917918026149e-07,3.489995376161417e-07,2.687275690130069e-05
7.611876053975266e-07,3.585123523214168e-07,3.505348189568912e-07,2.5983385514543806e-05
7.596068939134863e-07,3.579116318289413e-07,3.5206597151637114e-07,2.512219959312226e-05
7.574549952038157e-07,3.5728264952405146e-07,3.5359919875963576e-07,2.428954153019293e-05
7.547401748407506e-07,3.5662117288938977e-07,3.5514687175894605e-07,2.3485917286930386e-05
7.514704572716094e-07,3.5592764106848564e-07,3.567262650921187e-07,2.2711995057242505e-05
7.476557569737566e-07,3.5520830910216453e-07,3.5835614488151357e-07,2.1968553969626018e-05
7.433123120376559e-07,3.544739998440415e-07,3.600536201351435e-07,2.125639693939911e-05
7.384656271190559e-07,3.5373746476921656e-07,3.618337286337741e-07,2.057626044276698e-05
7.331491166838913e-07,3.530115731339372e-07,3.63709930604922e-07,1.9928725279125572e-05
7.274008293581531e-07,3.523083933643261e-07,3.656938247063525e-07,1.931414396034798e-05
7.212632730166385e-07,3.516397259601155e-07,3.677950123127488e-07,1.873261092845784e-05
7.147884670336463e-07,3.510197334280496e-07,3.7002140186066496e-07,1.8183969490844188e-05
7.080422105843156e-07,3.504656186328853e-07,3.723791387929536e-07,1.7667834785872886e-05
7.010992279127399e-07,3.4999475538593094e-07,3.748717796358131e-07,1.7183626126200805e-05
6.940326699494237e-07,3.4962373691421127e-07,3.774991565406189e-07,1.6730643122854068e-05
6.869078063349303e-07,3.493702558243765e-07,3.8025682008106274e-07,1.6308212424985205e-05
6.797821474038471e-07,3.492538424620721e-07,3.8313654978749257e-07,1.5915835098436213e-05
6.727089543414682e-07,3.492947962007729e-07,3.8612860084363225e-07,1.5553237845182692e-05
6.657407304033331e-07,3.495114159474933e-07,3.892254524269033e-07,1.5220319847935733e-05
6.589301358170512e-07,3.4991652129461217e-07,3.924244515667913e-07,1.4917033039304487e-05
6.523300699439847e-07,3.505161998863702e-07,3.9572805010055205e-07,1.4643238149662603e-05
6.459946633714007e-07,3.5131138243053305e-07,3.99143082460566e-07,1.4398632397257175e-05
6.39978073163367e-07,3.5229977808347995e-07,4.0267888404817185e-07,1.4182794583181811e-05
6.343304550133282e-07,3.5347623085520956e-07,4.0634301755517627e-07,1.3995228792041738e-05
6.290953237751489e-07,3.5483357409035285e-07,4.1013717011781894e-07,1.3835314184070267e-05
6.243111770547821e-07,3.563655246309863e-07,4.1405638860500886e-07,1.3702237703873524e-05
6.200164434392663e-07,3.5806763014283867e-07,4.180907911545824e-07,1.3594980818506807e-05
6.162546338119654e-07,3.5993446156351805e-07,4.222274529567464e-07,1.3512323363497929e-05
6.130766775756284e-07,3.6195750824829506e-07,4.2645120197703363e-07,1.3452839179944702e-05
6.10538226546982e-07,3.6412650880603936e-07,4.3074480808309745e-07,1.3414920713158818e-05
6.086928651708238e-07,3.664326476980619e-07,4.35089665531556e-07,1.3396887429980114e-05
6.07585510844787e-07,3.688711547719618e-07,4.394662513857461e-07,1.339722092852011e-05
6.07248264669119e-07,3.714409725017349e-07,4.438535628805321e-07,1.3414850207418884e-05
6.076984940021901e-07,3.741415731437222e-07,4.482282715078779e-07,1.344927548784157e-05
6.0894066231938e-07,3.769700121529627e-07,4.525649086192702e-07,1.3500447010986392e-05
6.109716166187401e-07,3.799204722403958e-07,4.568381599422374e-07,1.356854420094871e-05
6.137838597103095e-07,3.829854242882372e-07,4.610257315314061e-07,1.3653778946820458e-05
6.173641472703251e-07,3.861558169755381e-07,4.65109582226664e-07,1.3756272440290964e-05
6.216900164748522e-07,3.894196618583048e-07,4.6907629094128104e-07,1.387611015706276e-05
6.267273717178693e-07,3.9276079350015114e-07,4.729161722795543e-07,1.4013533720982496e-05
6.324331031727318e-07,3.961588995180497e-07,4.766199198240715e-07,1.4169014947443512e-05
6.387636763123547e-07,3.995907772339534e-07,4.801752960740948e-07,1.4343128773000155e-05
6.456845190472934e-07,4.0303209259837287e-07,4.83566395603838e-07,1.4536377822151208e-05
6.531744379318433e-07,4.0645852994502244e-07,4.867752535333003e-07,1.4749074218446802e-05
6.612219677545311e-07,4.0984627104169457e-07,4.89784458542779e-07,1.4981278992075339e-05
6.698160266303037e-07,4.13172230346899e-07,4.925792816969896e-07,1.5232776954294956e-05
6.789384691343222e-07,4.1641415420933095e-07,4.951482998396637e-07,1.5503077240666226e-05
6.885616219361207e-07,4.1955033884535066e-07,4.974818992710677e-07,1.5791441781119894e-05
6.98647215856692e-07,4.2255889637373096e-07,4.995698579172025e-07,1.609693596255341e-05
7.091456085549409e-07,4.2541862101654343e-07,5.014005931986486e-07,1.6418465925014334e-05
7.199977346347284e-07,4.281122457422964e-07,5.029627251429375e-07,1.675475738555532e-05
7.311389112124775e-07,4.3062799641572496e-07,5.042478668900246e-07,1.7104290502077913e-05
7.42500604676273e-07,4.32957453721686e-07,5.052528252269332e-07,1.7465273368130005e-05
7.540100740707812e-07,4.3509350311904144e-07,5.059793889119758e-07,1.7835705585783442e-05
7.655913846120652e-07,4.370299012816298e-07,5.064324042203005e-07,1.82134969399862e-05
7.771672963941037e-07,4.3876066348590147e-07,5.06617896291769e-07,1.8596584950124786e-05
7.886592458653379e-07,4.402804106629535e-07,5.065413886114528e-07,1.898302460722992e-05
7.999872151885355e-07,4.4158679298648203e-07,5.062067605118279e-07,1.937104494559416e-05
8.110718907932083e-07,4.426819433659075e-07,5.056162897097275e-07,1.9759074848525424e-05
8.218374449155598e-07,4.4357078198664104e-07,5.047712516133534e-07,2.014573003021968e-05
8.322124079860095e-07,4.4425899016668997e-07,5.036729406713016e-07,2.052974994141885e-05
8.421293235857052e-07,4.44753415618075e-07,5.02324107123495e-07,2.09099061804816e-05
8.515253045204212e-07,4.4506276640733366e-07,5.007292108157377e-07,2.1284926082000563e-05
8.603421934239163e-07,4.45196339941636e-07,4.988929323520805e-07,2.1653447209979898e-05
8.685250981662554e-07,4.451628554516301e-07,4.968185953704061e-07,2.2014010299442664e-05
8.760212010580324e-07,4.449716465336709e-07,4.945079440640687e-07,2.236511423240329e-05
8.827800170592133e-07,4.446350628302985e-07,4.919621999503079e-07,2.270529467166981e-05
8.887550225521154e-07,4.441706269074971e-07,4.891841192034353e-07,2.303315128553319e-05
8.939057690665434e-07,4.4360216760838327e-07,4.861806841290065e-07,2.3347343374544048e-05
8.981993400193468e-07,4.4295854941714495e-07,4.829648769232593e-07,2.364661682369256e-05
9.016113688615368e-07,4.42271181015506e-07,4.795553689033186e-07,2.392985419018819e-05
9.041273928668002e-07,4.415723046986558e-07,4.7597367235608976e-07,2.419609064240979e-05
9.057435034644442e-07,4.40892869411522e-07,4.72239814879834e-07,2.4444468479991005e-05
9.064637667869013e-07,4.40259482544073e-07,4.6837030129713755e-07,2.467418203525252e-05
9.062955773221468e-07,4.3969313060718214e-07,4.643799754031168e-07,2.488445940910185e-05
9.052467833980163e-07,4.392106600430152e-07,4.6028434586137287e-07,2.5074543564717763e-05
9.033251992405701e-07,4.38825818944655e-07,4.560991052535917e-07,2.5243675703403493e-05
9.005395572657356e-07,4.3854830363697386e-07,4.518382600934082e-07,2.539116481524569e-05
8.969028331634977e-07,4.383826333406489e-07,4.4751348073095596e-07,2.5516538439645624e-05
8.924405978107036e-07,4.3832762571127844e-07,4.431343324939334e-07,2.561964908090339e-05
8.872026331190762e-07,4.383764954619936e-07,4.387086057715689e-07,2.570064967991704e-05
8.812668768045645e-07,4.385178758580221e-07,4.3424347656279925e-07,2.5759863596301355e-05
8.747285418898606e-07,4.387375202615442e-07,4.297477368948821e-07,2.57976295165975e-05
8.676831140463461e-07,4.390200577409561e-07,4.2523322588452183e-07,2.581420629421625e-05
8.60216300723246e-07,4.393504044699145e-07,4.2071345561029904e-07,2.58097717045958e-05
8.524032628224025e-07,4.3971455400457685e-07,4.1620102827145633e-07,2.578445944299917e-05
8.443111980169726e-07,4.400992820744064e-07,4.117069782801246e-07,2.573840484737241e-05
8.360013684488232e-07,4.404914254070932e-07,4.0724151214255963e-07,2.5671892450057847e-05
8.275300940810004e-07,4.4087766207986023e-07,4.028138724517723e-07,2.558561498980856e-05
8.189479316701835e-07,4.41245029715874e-07,3.9843154632860045e-07,2.5480823958677248e-05
8.102988347206437e-07,4.415827643420391e-07,3.940997637473837e-07,2.535922745815776e-05
8.016238879967952e-07,4.418839721693504e-07,3.898213375823368e-07,2.5222760657922185e-05
7.929671865337891e-07,4.421443059446352e-07,3.855973667955446e-07,2.507336672475307e-05
7.84375583619286e-07,4.423588651503656e-07,3.814284666431008e-07,2.4912854369210915e-05
7.758920123968339e-07,4.425207905588664e-07,3.7731499775653383e-07,2.4742970017594478e-05
7.675501633167277e-07,4.4262206248814566e-07,3.7325681940933e-07,2.45656882230228e-05
7.593751047196405e-07,4.4265436054091894e-07,3.6925448127821814e-07,2.4383430897566397e-05
7.513874444587595e-07,4.4260884266414186e-07,3.653115707118e-07,2.4199017850463925e-05
7.436061597839656e-07,4.424764904806717e-07,3.61436317927304e-07,2.4015461692444305e-05
7.360478909018163e-07,4.4224950079184247e-07,3.576425072958429e-07,2.3835774470850947e-05
7.287241779332195e-07,4.419213621020341e-07,3.5395050684627226e-07,2.366283613220589e-05
7.216396576246762e-07,4.4148561909155225e-07,3.503861679318041e-07,2.349930267585989e-05
7.147933505853883e-07,4.4093551890266027e-07,3.469766417648552e-07,2.3347537019679334e-05
7.081823725523886e-07,4.4026434484030436e-07,3.437469058947142e-07,2.3209568473780525e-05
7.018044044515349e-07,4.394649919032214e-07,3.407190897556317e-07,2.3087076463994524e-05
6.956563155517847e-07,4.3852892318221686e-07,3.3791244346003514e-07,2.298136581914417e-05
6.897319262755409e-07,4.3744593440058185e-07,3.3534237796372807e-07,2.2893303424345168e-05
6.840246388421021e-07,4.3620612955345276e-07,3.330193694987041e-07,2.2823253193916488e-05
6.785349503521621e-07,4.348036589971391e-07,3.309484526493509e-07,2.277107592337301e-05
6.732749521640023e-07,4.33239002285025e-07,3.291290067291532e-07,2.2736195177878878e-05
6.682638975649131e-07,4.3151822662491763e-07,3.275550054109477e-07,2.271770317873655e-05
6.63519696703795e-07,4.2965194668796456e-07,3.2621649288448895e-07,2.271450583825644e-05
6.590554216363392e-07,4.2765533902372326e-07,3.2510178743602693e-07,2.2725481661729927e-05
6.548822194138337e-07,4.255475351521074e-07,3.241987026351161e-07,2.2749595488253453e-05
6.510122875365885e-07,4.233497291731274e-07,3.234943652295601e-07,2.278594322215509e-05
6.47456976181639e-07,4.21082484319059e-07,3.2297516865166913e-07,2.283375911617893e-05
6.442219788087714e-07,4.18763958499661e-07,3.226285805451078e-07,2.289241676243285e-05
6.413044384631522e-07,4.1641126699127847e-07,3.224467322921556e-07,2.296141057022288e-05
6.386932046211427e-07,4.1404276271066094e-07,3.224289330947014e-07,2.3040287355945445e-05
6.363717320480729e-07,4.1167683219350133e-07,3.225815921762413e-07,2.312853383860067e-05
6.343239800735444e-07,4.093284090031452e-07,3.2291837423561896e-07,2.322546654749119e-05
6.325398892882143e-07,4.070074335222672e-07,3.234600099381827e-07,2.333019028998826e-05
6.310150656787965e-07,4.0472008447875274e-07,3.2422979446253646e-07,2.344164835424807e-05
6.297454423442489e-07,4.0247123785422025e-07,3.252481700643305e-07,2.355869027756623e-05
6.287218976099924e-07,4.002660547498453e-07,3.265315223905644e-07,2.368008471419548e-05
6.279278499070211e-07,3.9810920166330364e-07,3.2809226906104285e-07,2.3804497455852398e-05
6.273408033485712e-07,3.9600302567447573e-07,3.2993734906642297e-07,2.3930481448503118e-05
6.269374573827683e-07,3.9394708782524363e-07,3.320674949368367e-07,2.4056487497560228e-05
6.266994678425912e-07,3.919396804306218e-07,3.344783289601109e-07,2.4180883478094385e-05
6.26616184652301e-07,3.8997994908069077e-07,3.371620832817929e-07,2.430198620808571e-05
6.26683094061753e-07,3.880682726326074e-07,3.4010882856492765e-07,2.4418122487155248e-05
6.268971352945363e-07,3.8620473023258647e-07,3.433062921384261e-07,2.452774066797351e-05
6.272520590188406e-07,3.843887167080749e-07,3.46739527199719e-07,2.462956900314859e-05
6.277367240005105e-07,3.8262063675227706e-07,3.503911119416669e-07,2.472272896299227e-05
6.283354041681647e-07,3.8090230524945313e-07,3.5424050347505467e-07,2.480671618095833e-05
6.290284653779081e-07,3.7923506287361563e-07,3.582634663679431e-07,2.4881277618075685e-05
6.297938616526487e-07,3.776187630608704e-07,3.624330650326282e-07,2.4946251993032528e-05
6.306084302418492e-07,3.7605338204093045e-07,3.667214623295125e-07,2.500144664848298e-05
6.31447354593488e-07,3.745423208510813e-07,3.71101130597086e-07,2.504662867043799e-05
6.322835266526946e-07,3.7309453255811455e-07,3.7554510130742136e-07,2.5081606141657235e-05
6.330891559460214e-07,3.717226897268022e-07,3.800268705384786e-07,2.510629754659487e-05
6.338382854161421e-07,3.704391537130585e-07,3.845202113454797e-07,2.512074104058536e-05
6.345075484342182e-07,3.6925341901832817e-07,3.8899926195072224e-07,2.512504501612948e-05
6.350765975165098e-07,3.68171278075521e-07,3.934389476052152e-07,2.5119324797709173e-05
6.355315972984636e-07,3.67194529966826e-07,3.97814582205097e-07,2.510373364869027e-05
6.358686207035627e-07,3.663209369562069e-07,4.0210081251888096e-07,2.507856621602519e-05
6.360910979593546e-07,3.6554441658911793e-07,4.0627142033801883e-07,2.5044241073928672e-05
6.362045168045663e-07,3.648556548947611e-07,4.103001856447649e-07,2.5001167484194313e-05
6.362151117057113e-07,3.642428212702343e-07,4.141626866200429e-07,2.4949756537182667e-05
6.361318185138653e-07,3.6369181457914423e-07,4.1783865130130637e-07,2.489065885741422e-05
6.359669008780038e-07,3.631879156689589e-07,4.213127350133165e-07,2.4824988791903988e-05
6.357335165550918e-07,3.6272099853442827e-07,4.2457397722435094e-07,2.4754320511025656e-05
6.354417878167396e-07,3.622897129726384e-07,4.276170951596404e-07,2.468049322900518e-05
6.35096760755738e-07,3.6189941582722564e-07,4.3044437719579545e-07,2.4605367520467444e-05
6.347007410052854e-07,3.615575742792504e-07,4.330642081922766e-07,2.453063800667251e-05
6.342576328291065e-07,3.612707795787687e-07,4.354872958375842e-07,2.445774470628529e-05
6.337741850328939e-07,3.6104255718145634e-07,4.377237009521551e-07,2.438785077634306e-05
6.332569349310592e-07,3.6087209314384705e-07,4.397811181355575e-07,2.432183305980865e-05
6.327079960096511e-07,3.6075479894543815e-07,4.4166475521882047e-07,2.4260265464868225e-05
6.321230280780803e-07,3.6068414919400113e-07,4.433789835956721e-07,2.4203400813944865e-05
6.314920432284986e-07,3.6065280333822925e-07,4.449295282922718e-07,2.4151161019012407e-05
6.308009629669863e-07,3.606520722208423e-07,4.463252665228859e-07,2.410315099899608e-05
6.300326254110352e-07,3.6067206054278435e-07,4.475790086756888e-07,2.405871648948713e-05
6.291690456757179e-07,3.6070397494406783e-07,4.487064993349001e-07,2.401703494436997e-05
6.281965113312665e-07,3.607427158933765e-07,4.497237085591246e-07,2.3977207339582448e-05
6.271107478646826e-07,3.607874637045253e-07,4.506444115609787e-07,2.3938353898668803e-05
6.259183915479043e-07,3.608397766156085e-07,4.514802224778037e-07,2.389972402804689e-05
6.246363047409232e-07,3.609009484616173e-07,4.5224193971648714e-07,2.3860789931889206e-05
6.232906775757743e-07,3.6097053022362707e-07,4.5293962927098104e-07,2.38212927813802e-05
6.219127925478535e-07,3.6104575760938566e-07,4.535817484158489e-07,2.378124484596345e-05
6.205314788776489e-07,3.6112096626252325e-07,4.541749168899604e-07,2.3740903903135697e-05
6.191684972734747e-07,3.6118767045053146e-07,4.547237351191419e-07,2.3700728884877358e-05
6.178395791380048e-07,3.6123638365798565e-07,4.5522979249164934e-07,2.366131615536671e-05
6.165568763334606e-07,3.612587131807206e-07,4.5569104645640296e-07,2.362331538943876e-05
6.15329048062804e-07,3.612473170573597e-07,4.561021169018093e-07,2.3587331877445843e-05
6.141603762351257e-07,3.611952583868087e-07,4.564547492697686e-07,2.3553821419186145e-05
6.130516295947172e-07,3.6109836346015675e-07,4.5673831591634293e-07,2.3523008256769405e-05
6.12001851826499e-07,3.609593470378854e-07,4.5694041835768364e-07,2.349490461608309e-05
6.11008414568927e-07,3.6078860200567973e-07,4.570481368790949e-07,2.3469437889263903e-05
6.100669211879612e-07,3.606013645858322e-07,4.570501243290102e-07,2.344655021664888e-05
6.091740720043128e-07,3.604163374441175e-07,4.569375004668282e-07,2.342618965851427e-05
6.083298404894874e-07,3.6025685627842815e-07,4.567028981942954e-07,2.34082522130849e-05
6.075348342637047e-07,3.6015036364344365e-07,4.563406493592537e-07,2.339253775973053e-05
6.067877656587304e-07,3.601246918956532e-07,4.5584888862950566e-07,2.3378777998076666e-05
6.060875995517796e-07,3.6020381417576243e-07,4.5522983353231755e-07,2.3366757963866045e-05
6.054366166924807e-07,3.604051509437585e-07,4.5448724634357965e-07,2.3356413216110466e-05
6.048416172024112e-07,3.607386811506258e-07,4.536252465915349e-07,2.3347799682508223e-05
6.043144963484453e-07,3.612076138558183e-07,4.526494081659396e-07,2.3340982665415686e-05
6.038718742882158e-07,3.6181050316446204e-07,4.5156630234427463e-07,2.333592304216771e-05
6.035329462074347e-07,3.6254378145563397e-07,4.5038159697641925e-07,2.3332431995977506e-05
6.033153742367339e-07,3.634028648551793e-07,4.491000832123577e-07,2.333025742000459e-05
6.032311902117955e-07,3.643817717239926e-07,4.477264891157565e-07,2.3329234404292786e-05
6.032865421783483e-07,3.654732183740096e-07,4.462645788062606e-07,2.332934690007428e-05
6.034843730257012e-07,3.66670988986717e-07,4.447163184655813e-07,2.3330650483824467e-05
6.038263519436785e-07,3.679737322836558e-07,4.430824769107739e-07,2.33331208405316e-05
6.043127875189312e-07,3.6938597762793604e-07,4.4136312404577205e-07,2.3336527894601995e-05
6.049407301499296e-07,3.709145162896362e-07,4.3955781027115467e-07,2.3340398286504346e-05
6.057035311290785e-07,3.725641813408373e-07,4.376656307110789e-07,2.3344055147815133e-05
6.065942361677962e-07,3.7433595568038175e-07,4.356847118942164e-07,2.3346727370157103e-05
6.076079119533625e-07,3.76226434042351e-07,4.3361207643213566e-07,2.3347757692400336e-05
6.087391352107609e-07,3.7822898055836647e-07,4.314439758341138e-07,2.3346881669713362e-05
6.099789847366195e-07,3.8033638281739456e-07,4.2917579964694046e-07,2.334440538440165e-05
6.11314724029514e-07,3.825415984156971e-07,4.2680218522669637e-07,2.334111309456141e-05
6.127308324313154e-07,3.8483609385417684e-07,4.243178978308947e-07,2.3337991034611207e-05
6.142120805148804e-07,3.8720962857399406e-07,4.217193571156365e-07,2.333598750718668e-05
6.157482163797439e-07,3.89652833242811e-07,4.1900637485654774e-07,2.3335894420852787e-05
6.173352133697709e-07,3.921592183282584e-07,4.161830506821963e-07,2.333836693224376e-05
6.189717035922887e-07,3.9472362073429787e-07,4.132570450659567e-07,2.334410524325529e-05
6.206557628319976e-07,3.973386795459298e-07,4.102372530515845e-07,2.3354068465086638e-05
6.223842612644926e-07,3.9999283648897204e-07,4.07131185138583e-07,2.33695185308708e-05
6.241522648949282e-07,4.02670727295336e-07,4.0394379873536093e-07,2.339190670146391e-05
6.259533778340658e-07,4.053553451371478e-07,4.0067784697126926e-07,2.3422745161065617e-05
6.277820389979411e-07,4.0803124218507145e-07,3.9733441785264296e-07,2.346351298375107e-05
6.296331110264525e-07,4.1068709658629273e-07,3.9391302472326774e-07,2.3515575623448776e-05
6.314979449037294e-07,4.133173247745311e-07,3.9041209659588476e-07,2.358010078699113e-05
6.333627569403226e-07,4.159229175406584e-07,3.868300895429666e-07,2.3657974285544946e-05
6.352100077744595e-07,4.18509444606739e-07,3.8316592626488404e-07,2.374973339982533e-05
6.370191486843692e-07,4.210826180150579e-07,3.7941871693779406e-07,2.385552706712644e-05
6.387670702066861e-07,4.236454105963572e-07,3.755881807105747e-07,2.397510031387285e-05
6.404291998489307e-07,4.2619816413528975e-07,3.716758447075015e-07,2.410779716668959e-05
6.419800462063508e-07,4.287401877955588e-07,3.6768579794763704e-07,2.4252576281657008e-05
6.433929766408386e-07,4.312712583641536e-07,3.6362431953306813e-07,2.440803384902361e-05
6.446403451423262e-07,4.337919924336525e-07,3.594988023107406e-07,2.4572440262822795e-05
6.456943574553141e-07,4.363039457585927e-07,3.5531724750266387e-07,2.4743813891940344e-05
6.465281296089948e-07,4.388095834480502e-07,3.5108880765105336e-07,2.492003619612417e-05
6.471166445952532e-07,4.4131001154468577e-07,3.4682394931250355e-07,2.5098965436709275e-05
6.474372570890172e-07,4.438015850787632e-07,3.4253322739509824e-07,2.527851670220008e-05
6.474702169822997e-07,4.462753189831735e-07,3.382256696183787e-07,2.545673103346237e-05
6.471997572590922e-07,4.487195032161707e-07,3.33908460657334e-07,2.5631838054948848e-05
6.466143660207846e-07,4.511220464670724e-07,3.295889596980649e-07,2.5802268168044846e-05
6.457056796642329e-07,4.5347056082483207e-07,3.252774011202509e-07,2.5966600930497625e-05
6.444669826810161e-07,4.557515719162201e-07,3.209871740081693e-07,2.612348093204192e-05
6.428920242898393e-07,4.579505212932494e-07,3.167332063221169e-07,2.627155194257774e-05
6.409744292409245e-07,4.6005302937815285e-07,3.1253077929663965e-07,2.6409481069246265e-05
6.387076547766312e-07,4.620469603842222e-07,3.083948781069428e-07,2.6536061913679334e-05
6.360861545798018e-07,4.63925192563845e-07,3.0433967155679256e-07,2.6650264502738004e-05
6.33108533621084e-07,4.656876320099411e-07,3.0037786658907577e-07,2.675117143084009e-05
6.297805766421877e-07,4.673389314421754e-07,2.965200878087963e-07,2.683787684730665e-05
6.261141793827064e-07,4.6888371520361426e-07,2.927752008020573e-07,2.690942753465772e-05
6.221229566585149e-07,4.7032477399541294e-07,2.891513770378867e-07,2.696482911018136e-05
6.178196925760532e-07,4.7166327557673065e-07,2.8565737331653106e-07,2.700311830309583e-05
6.132168034223193e-07,4.7289761244461143e-07,2.8230425068312423e-07,2.7023507281820105e-05
6.083274714227753e-07,4.740222436191029e-07,2.791065428464855e-07,2.7025535510274616e-05
6.031676584112552e-07,4.7502907542561036e-07,2.7608182621847005e-07,2.700910645148284e-05
5.977598148658806e-07,4.759117124591156e-07,2.732490553927951e-07,2.6974418060520707e-05
5.921359075068136e-07,4.7666971532110396e-07,2.706261427173326e-07,2.692188533475629e-05
5.863360765847753e-07,4.773085908727385e-07,2.682279473447127e-07,2.6852063742612398e-05
5.804027941851529e-07,4.778358337805454e-07,2.66065713041985e-07,2.6765547488669863e-05
5.743753293147368e-07,4.782571207074468e-07,2.641474670320537e-07,2.666287198501771e-05
5.682882528666751e-07,4.785746595992963e-07,2.62478646002678e-07,2.65444797038624e-05
5.621719318649648e-07,4.78787368728607e-07,2.610632300451106e-07,2.6410768121524946e-05
5.560519408305273e-07,4.788919304837703e-07,2.5990504877883873e-07,2.626215082901564e-05
5.499483156199791e-07,4.788842208943936e-07,2.5900696440074594e-07,2.6099059717473583e-05
5.438766303258738e-07,4.787617788780869e-07,2.583688194251222e-07,2.592191135201844e-05
5.378506681414528e-07,4.785262011058372e-07,2.579885929444993e-07,2.573108744508836e-05
5.318846455819457e-07,4.781828142558865e-07,2.578658954606118e-07,2.5526967473172782e-05
5.259926660606377e-07,4.777387716400454e-07,2.5800237179997786e-07,2.531006779265803e-05
5.201860427009955e-07,4.77202128971791e-07,2.5839874298063225e-07,2.508120036727913e-05
5.144717967139162e-07,4.7658053462282505e-07,2.5905277465183265e-07,2.484145722088773e-05
5.088537882982754e-07,4.7587858504441777e-07,2.599593082677176e-07,2.4592040247434462e-05
5.03334909303056e-07,4.750960704831073e-07,2.611109842087665e-07,2.4334104398929918e-05
4.979181900514335e-07,4.7422856477487724e-07,2.625002218607491e-07,2.406867495804893e-05
4.926069756065314e-07,4.7327041870684204e-07,2.641218907022632e-07,2.3796614779613628e-05
4.874053900162802e-07,4.722185400411809e-07,2.659728222500441e-07,2.3518616329612466e-05
4.823181865386946e-07,4.710733885399229e-07,2.680481775057893e-07,2.3235210348708748e-05
4.773497364457356e-07,4.698366337252387e-07,2.703393782437839e-07,2.2946788268076057e-05
4.7250491931963003e-07,4.6850883255398724e-07,2.728349183143635e-07,2.2653629770091915e-05
4.6779264130703725e-07,4.670888448568889e-07,2.7552212477655356e-07,2.23559367524118e-05
4.632281378719802e-07,4.6557451023334885e-07,2.783890039844729e-07,2.2053877264462232e-05
4.5883104746570245e-07,4.6396422103211747e-07,2.814258665062048e-07,2.1747627689483784e-05
4.546208530799032e-07,4.6225806558270883e-07,2.84625779063888e-07,2.1437407452311804e-05
4.5061336601480324e-07,4.604568686943735e-07,2.879830520408444e-07,2.112352251537873e-05
4.4682008300311614e-07,4.5856013364389677e-07,2.914906168404943e-07,2.080642037941494e-05
4.4324921861834795e-07,4.5656534855791644e-07,2.951382940515112e-07,2.0486719701356935e-05
4.399063228284899e-07,4.5446853624447097e-07,2.989128493551577e-07,2.016516882608832e-05
4.3679566804297676e-07,4.522643716637065e-07,3.027990606919364e-07,1.9842535266421146e-05
4.339243654743172e-07,4.499467055882633e-07,3.0678149890310174e-07,1.951949558793643e-05
4.313047223811904e-07,4.47512084314042e-07,3.10846950116037e-07,1.919659253395678e-05
4.2895180676596657e-07,4.449647540981106e-07,3.14985047274196e-07,1.8874254482960362e-05
4.2688196653884023e-07,4.4231781359914295e-07,3.191855921413144e-07,1.855283293868696e-05
4.251138613354782e-07,4.395899349042824e-07,3.2343560530088546e-07,1.823262442628738e-05
4.236666558647503e-07,4.368014399307127e-07,3.277191275682093e-07,1.7913869208900297e-05
4.22555688307199e-07,4.339713370234191e-07,3.3201923134815685e-07,1.759675202562378e-05
4.2179019635573133e-07,4.3111611503853656e-07,3.363206845308417e-07,1.7281425553606618e-05
4.2137328322400953e-07,4.28252002403616e-07,3.406119896766744e-07,1.6968033196015592e-05
4.2130361912844026e-07,4.254003838298371e-07,3.448847733568443e-07,1.6656701872747226e-05
4.2158066484772637e-07,4.225915291983165e-07,3.491306611202777e-07,1.6347516158829888e-05
4.222089138677361e-07,4.198615619396642e-07,3.5333931134294866e-07,1.604050379488767e-05
4.2319465572609593e-07,4.172454736130657e-07,3.574984785975061e-07,1.5735652604851894e-05
4.245398595433072e-07,4.147728383094752e-07,3.6159377344760156e-07,1.5432981976294526e-05
4.2624028769084957e-07,4.124674296514721e-07,3.656083121698486e-07,1.5132638254134494e-05
4.2828800086937437e-07,4.103486106587895e-07,3.695238786579151e-07,1.4834899748465402e-05
4.306782368058365e-07,4.084323477478456e-07,3.733236244826224e-07,1.4540077146977215e-05
4.33417845793431e-07,4.067302497940032e-07,3.7699488920453976e-07,1.4248429896474869e-05
4.365265253792822e-07,4.0524842688163463e-07,3.8053089426808455e-07,1.3960161715833084e-05
4.400296516478647e-07,4.0398813220115953e-07,3.839314029761412e-07,1.3675498922982374e-05
4.4395147190439036e-07,4.029465062302396e-07,3.8720157538288226e-07,1.3394813653388335e-05
4.483133118800953e-07,4.0211614033732243e-07,3.903478533067279e-07,1.3118672101778458e-05
4.5313330437289493e-07,4.014847532071282e-07,3.9337343193084457e-07,1.2847775259777672e-05
4.5842459190922854e-07,4.01036103498392e-07,3.962771837149522e-07,1.258290474713106e-05
4.6419431561578254e-07,4.00751628635284e-07,3.990560851024861e-07,1.2324926618943252e-05
4.7044485929634535e-07,4.0061124173233435e-07,4.017076184811832e-07,1.2074801261676054e-05
4.771748841550507e-07,4.005929140112269e-07,4.0422961150159727e-07,1.1833557540607303e-05
4.84379750070409e-07,4.0067281145652025e-07,4.0661948329949433e-07,1.1602238362022745e-05
4.92051804951485e-07,4.008264340866108e-07,4.0887579187498077e-07,1.1381847071212198e-05
5.001789864817468e-07,4.010291212140433e-07,4.110013323528829e-07,1.1173292201337578e-05
5.087418813722922e-07,4.0125586269728907e-07,4.130048502811689e-07,1.097731330548198e-05
5.177112621745301e-07,4.014818702217345e-07,4.1489925676929215e-07,1.0794422341252166e-05
5.270479912971772e-07,4.016837921199264e-07,4.166972305141173e-07,1.0624899332314408e-05
5.367051275108474e-07,4.018405551451515e-07,4.1840825522545965e-07,1.0468817365344104e-05
5.46630059814067e-07,4.019338948103675e-07,4.200394669204421e-07,1.0326065619912775e-05
5.567656809656316e-07,4.0194861192402185e-07,4.2159742034562907e-07,1.0196420024602015e-05
5.670515061087135e-07,4.018720787064703e-07,4.230876421813958e-07,1.0079744223658458e-05
5.774276236230669e-07,4.0169355760385924e-07,4.245138792169879e-07,9.9762077383405e-06
5.87842566390626e-07,4.014043818334135e-07,4.258795416568034e-07,9.886271264455898e-06
5.982582779019677e-07,4.0099816151543655e-07,4.271894246534054e-07,9.810504603069664e-06
6.08646074604242e-07,4.0046962607857353e-07,4.2844895876440455e-07,9.749477983449588e-06
6.189797968234733e-07,3.9981362449104686e-07,4.296615582104796e-07,9.703700879927683e-06
6.292332481606565e-07,3.9902664951949406e-07,4.3082701957656796e-07,9.673540135953551e-06
6.393788108485694e-07,3.9810947004498173e-07,4.319434598247712e-07,9.659167674182954e-06
6.493847004976911e-07,3.9706829008265526e-07,4.330116450027914e-07,9.660538094291832e-06
6.592136115174032e-07,3.9591452282090595e-07,4.3403713116206044e-07,9.677383123927395e-06
6.688233350434103e-07,3.946630637459847e-07,4.350284277752211e-07,9.709236402624582e-06
6.781680798863795e-07,3.933289460083383e-07,4.359942058138408e-07,9.755481576194394e-06
6.872012463200672e-07,3.9192461147487095e-07,4.3694153631516847e-07,9.815402283257284e-06
6.958810377087759e-07,3.90459033453441e-07,4.3787468922234716e-07,9.888221503687995e-06
7.041770974312031e-07,3.8893779194980607e-07,4.3879459349188576e-07,9.97312546130402e-06
7.120733905000532e-07,3.8736344324430436e-07,4.3969915382135535e-07,1.0069262392711833e-05
7.195654641767644e-07,3.857363822400541e-07,4.4058373223903093e-07,1.0175726675480824e-05
7.266563573569598e-07,3.840567626640773e-07,4.41441636668349e-07,1.0291561470308832e-05
7.333552916157363e-07,3.8232671089854567e-07,4.422655146106493e-07,1.0415775452701022e-05
7.396766350933954e-07,3.8055100322458283e-07,4.430491379529168e-07,1.0547343498077197e-05
7.456355722544534e-07,3.787357410963693e-07,4.437876190058783e-07,1.0685198665854687e-05
7.512429216670281e-07,3.7688618651809005e-07,4.4447619423407727e-07,1.0828231959668884e-05
7.565029940654486e-07,3.7500538512939726e-07,4.45109044962952e-07,1.0975298453980098e-05
7.614143111137238e-07,3.730939717609924e-07,4.456786421006132e-07,1.1125233599317506e-05
7.659716722993511e-07,3.711502284815523e-07,4.4617580512730367e-07,1.1276876905064367e-05
7.701687051545898e-07,3.691700581537538e-07,4.46590724873164e-07,1.1429097047260554e-05
7.740002651217098e-07,3.6714728559658976e-07,4.4691475349204843e-07,1.1580835506502084e-05
7.774650591963255e-07,3.650747770325297e-07,4.4714152696806686e-07,1.173117491180509e-05
7.805672115812942e-07,3.629463234143739e-07,4.472662675888337e-07,1.1879380503834135e-05
7.833143466201583e-07,3.60759194299734e-07,4.472850382189764e-07,1.2024864193003036e-05
7.857134913896778e-07,3.5851772534975405e-07,4.4719620029318316e-07,1.2167103617665379e-05
7.877685338168791e-07,3.562353323336111e-07,4.47002414760447e-07,1.2305572147178344e-05
7.894809005823506e-07,3.539317751648335e-07,4.4670956950652076e-07,1.2439703839520724e-05
7.908522904255236e-07,3.5162873075632787e-07,4.463228919942501e-07,1.2568935111680838e-05
7.918902194331363e-07,3.493482069318102e-07,4.4584387885036275e-07,1.2692818728307345e-05
7.926162783087736e-07,3.471133617098865e-07,4.4526980144458476e-07,1.281107749204358e-05
7.930689296094512e-07,3.449487788078178e-07,4.445949875597794e-07,1.2923512657952195e-05
7.932957206751575e-07,3.4287874603673896e-07,4.438124548204817e-07,1.3029878494566495e-05
7.933415622121959e-07,3.4092575161693175e-07,4.429149832115197e-07,1.3129863789992759e-05
7.932417011685835e-07,3.391112361868889e-07,4.4189602069568994e-07,1.3223187713344975e-05
7.930217471112672e-07,3.374557916506438e-07,4.4075062483365905e-07,1.330973618686942e-05
7.926998048837655e-07,3.3597692391326926e-07,4.394761760417114e-07,1.3389651911197501e-05
7.922859963869912e-07,3.3468717047283946e-07,4.380729852457076e-07,1.34633156939825e-05
7.917814358947748e-07,3.335936495799448e-07,4.365441255942546e-07,1.3531235612693624e-05
7.911794282273455e-07,3.3269786849308393e-07,4.3489396523705046e-07,1.359391084324071e-05
7.904685673576519e-07,3.3199635827552736e-07,4.3312639151458596e-07,1.3651723893538091e-05
7.89637532174231e-07,3.314818599393734e-07,4.3124406499368973e-07,1.3704913402884036e-05
7.886822089748655e-07,3.311439010799569e-07,4.292491983925216e-07,1.3753658576841321e-05
7.876118375434428e-07,3.309701153837157e-07,4.271451301409889e-07,1.379820729047878e-05
7.864471080934e-07,3.309490099888498e-07,4.249372977682037e-07,1.3838919296593009e-05
7.852111435739383e-07,3.310714323726825e-07,4.2263314679033997e-07,1.387618306692463e-05
7.839216907940574e-07,3.313291607045368e-07,4.2024147484162677e-07,1.391029432774192e-05
7.825880568032237e-07,3.3171315182934853e-07,4.177709739869951e-07,1.3941414315696618e-05
7.812126301900082e-07,3.322131544004857e-07,4.1522821155158856e-07,1.3969637035953625e-05
7.797969651400166e-07,3.328171708063256e-07,4.126167868538251e-07,1.3995086250565835e-05
7.783507510325967e-07,3.335109748251977e-07,4.0993811723707783e-07,1.4017990995150195e-05
7.769005215195293e-07,3.342791529973936e-07,4.071926123832133e-07,1.4038806077204795e-05
7.754917555200721e-07,3.3510614878222946e-07,4.0438055959402536e-07,1.4058391936250629e-05
7.741794668195616e-07,3.359762321005644e-07,4.015024627189126e-07,1.4078085372709922e-05
7.730158076041329e-07,3.368740736175935e-07,3.985586142138464e-07,1.4099538803874552e-05
7.72045295665913e-07,3.377864901230926e-07,3.955484674095289e-07,1.4124449228619489e-05
7.713038646105018e-07,3.3870438831455057e-07,3.924704848027373e-07,1.4154345558803027e-05
7.70818339278431e-07,3.39624496371707e-07,3.893227328877293e-07,1.4190500846349216e-05
7.706118971230895e-07,3.405505159680856e-07,3.8610448110791935e-07,1.4234041259721584e-05
7.70714039974267e-07,3.414921721377879e-07,3.8281875456225424e-07,1.4286224404594367e-05
7.71164314171173e-07,3.424611795562209e-07,3.794744045862724e-07,1.434864930510648e-05
7.720049937741066e-07,3.434666218539846e-07,3.7608523204218006e-07,1.4423250501309534e-05
7.732701026580316e-07,3.445131254424834e-07,3.7266632496350863e-07,1.4512157196027502e-05
7.749799545521377e-07,3.456016032295431e-07,3.692310635007921e-07,1.4617519374188602e-05
7.771414290356063e-07,3.467300881636864e-07,3.657909847347722e-07,1.4741356923475933e-05
7.797491101998019e-07,3.478941783016909e-07,3.623574366186397e-07,1.4885462123468204e-05
7.827853964445122e-07,3.4908940588591946e-07,3.5894262311915175e-07,1.5051335665398306e-05
7.862208079415758e-07,3.503151931048027e-07,3.5555972264471027e-07,1.5240129108112271e-05
7.90015709135472e-07,3.5157610712979826e-07,3.5222371617880595e-07,1.5452601905776005e-05
7.941232257110992e-07,3.528795789869913e-07,3.489518315501488e-07,1.5689091609071743e-05
7.984932143167846e-07,3.542332177488623e-07,3.45761596390265e-07,1.5949468170937577e-05
8.030767112789611e-07,3.5564304934924595e-07,3.4266807401377237e-07,1.6233083509779572e-05
8.078284403309568e-07,3.571128615962516e-07,3.3968300726353644e-07,1.6538778080316014e-05
8.127063657149152e-07,3.5864540472452065e-07,3.368167322771641e-07,1.6864981905360212e-05
8.176702115528421e-07,3.602440592714534e-07,3.3408103851778567e-07,1.720988899915455e-05
8.226805594326356e-07,3.619132223459403e-07,3.314900653076868e-07,1.7571644271522398e-05
8.276974424144356e-07,3.63658825201973e-07,3.2905876614966705e-07,1.7948475744453464e-05
8.326777346447416e-07,3.6548939770851385e-07,3.268008448057199e-07,1.8338749962342773e-05
8.375736741066825e-07,3.674150567239526e-07,3.2472768360736215e-07,1.874098677093109e-05
8.423337140755822e-07,3.6944445973385503e-07,3.228481198130381e-07,1.9153862336516346e-05
8.469037166144898e-07,3.715843058155843e-07,3.2116837851148016e-07,1.9576184042619168e-05
8.512274062906182e-07,3.7384198870648935e-07,3.1969178882070716e-07,2.000683052597805e-05
8.552479054742534e-07,3.762255877218608e-07,3.184180502383308e-07,2.044468197414861e-05
8.589122840144405e-07,3.7874097113051633e-07,3.173427540536831e-07,2.088854898126009e-05
8.621769805849207e-07,3.813914641445468e-07,3.1645796519365047e-07,2.1337090491888918e-05
8.650088659053549e-07,3.841791679647855e-07,3.15753299172404e-07,2.1788741491607327e-05
8.673809922547016e-07,3.871039885630208e-07,3.152166257191462e-07,2.224169099135161e-05
8.692688406351034e-07,3.9016172362116976e-07,3.1483418213524797e-07,2.2693906061312367e-05
8.706523561618706e-07,3.9334362570163203e-07,3.1459040604048056e-07,2.314317106899559e-05
8.715206200203951e-07,3.9663706015346925e-07,3.1446804347784964e-07,2.358715307401723e-05
8.718716321151053e-07,4.000267171146039e-07,3.144487636556219e-07,2.402351205521149e-05
8.717069402588846e-07,4.0349568951819047e-07,3.145140906695728e-07,2.4450013870975865e-05
8.710272298789093e-07,4.070251548110272e-07,3.146461965276617e-07,2.486456167984492e-05
8.698316238192257e-07,4.1059381896540586e-07,3.1482816294144824e-07,2.526512600599663e-05
8.681190940349777e-07,4.141794003957614e-07,3.150444216948252e-07,2.564966877701218e-05
8.658904074918377e-07,4.177610868548672e-07,3.152816887900383e-07,2.6016150399441127e-05
8.631490054238802e-07,4.2131995859234366e-07,3.155286235929958e-07,2.6362597770512657e-05
8.598995276073709e-07,4.248370766096254e-07,3.157739260376981e-07,2.6687176267685503e-05
8.561461204191651e-07,4.2829185854422846e-07,3.160053574309021e-07,2.698825723302174e-05
8.518933031223559e-07,4.316621062177576e-07,3.162104232485021e-07,2.7264462215392275e-05
8.471481705134616e-07,4.3492474382662785e-07,3.1637726379214823e-07,2.7514636201929938e-05
8.419216151043552e-07,4.3805718087426186e-07,3.164952019861714e-07,2.7737783876182808e-05
8.362284188727159e-07,4.4103907292396795e-07,3.165547775884225e-07,2.7933068737706623e-05
8.300860513277275e-07,4.4385283066030436e-07,3.165471842397127e-07,2.809987474084743e-05
8.235122236609115e-07,4.4648333965096176e-07,3.1646391578165394e-07,2.823783788003255e-05
8.165233444163316e-07,4.489178580590475e-07,3.162968810234469e-07,2.834681355608652e-05
8.091349447480826e-07,4.5114550301545365e-07,3.1603907722945535e-07,2.8426822801848866e-05
8.013631758278932e-07,4.531580435844961e-07,3.156862590130169e-07,2.8478074539153245e-05
7.93227604215177e-07,4.5495307766462745e-07,3.1523852822925504e-07,2.850113609304096e-05
7.847535844718415e-07,4.565359109616641e-07,3.147008643131353e-07,2.8497102164968134e-05
7.759700262138329e-07,4.579173615438712e-07,3.140827089468863e-07,2.846754473190005e-05
7.669041650510179e-07,4.5910923840134107e-07,3.133957321091041e-07,2.841429939944296e-05
7.575792672351406e-07,4.601209456922414e-07,3.1265038644418e-07,2.8339261996428053e-05
7.480160895859962e-07,4.6095955296105325e-07,3.118541410804836e-07,2.824426803212249e-05
7.38234275307589e-07,4.6163191260755226e-07,3.1101217503538425e-07,2.8131139216920424e-05
7.28252111673532e-07,4.621449019022333e-07,3.10128717506615e-07,2.8001910481383428e-05
7.180868424305765e-07,4.625038798838707e-07,3.092074561977916e-07,2.7859008514700452e-05
7.077578521560625e-07,4.627135326137561e-07,3.08251211059374e-07,2.770518374767772e-05
6.972914165431278e-07,4.627811052874875e-07,3.072616812768915e-07,2.7543288504600317e-05
6.867213576481132e-07,4.6271668483255206e-07,3.062394636611893e-07,2.737607430338441e-05
6.760835030549448e-07,4.625298182243125e-07,3.051845452419775e-07,2.720606821876365e-05
6.654099588999671e-07,4.6222769737431496e-07,3.040970344005398e-07,2.703551525974374e-05
6.547277215685497e-07,4.6181556446093176e-07,3.029776257838418e-07,2.6866353809490288e-05
6.440599214156812e-07,4.6129661765325096e-07,3.0182736341774094e-07,2.67002109291267e-05
6.334282089182304e-07,4.6067247922302314e-07,3.0064663449925986e-07,2.653841100576428e-05
6.228568085224749e-07,4.599452071221836e-07,2.994345108263431e-07,2.6381968720022205e-05
6.123753691265036e-07,4.5911900021619454e-07,2.981886685294921e-07,2.6231555260180395e-05
6.020170203516501e-07,4.5820069471991966e-07,2.969052433633232e-07,2.6087472147322198e-05
5.918139719204477e-07,4.571998402665758e-07,2.955793967630323e-07,2.594967216129757e-05
5.817939757592577e-07,4.561281212382531e-07,2.9420681627981853e-07,2.581781988982964e-05
5.719797818677011e-07,4.5499735788700923e-07,2.9278440408160076e-07,2.5691359669330348e-05
5.623954112827579e-07,4.5381752969508297e-07,2.9130929417726924e-07,2.5569590634996758e-05
5.530768025541334e-07,4.525967670479125e-07,2.897775913115516e-07,2.545174457775561e-05
5.440752775268262e-07,4.513428985741914e-07,2.88184500239428e-07,2.5337037589286066e-05
5.354490067745451e-07,4.500647249185461e-07,2.8652591262015205e-07,2.522471553719909e-05
5.272519501275445e-07,4.487714681742374e-07,2.84799724610603e-07,2.5114131881458943e-05
5.195293267736402e-07,4.4747070079279575e-07,2.8300616910969894e-07,2.5004824906091625e-05
5.123196978344507e-07,4.461669701132352e-07,2.8114827383190587e-07,2.4896543658332488e-05
5.056610900754964e-07,4.448623010530314e-07,2.7923178200942377e-07,2.4789226408031235e-05
4.995969711198519e-07,4.4355688964204216e-07,2.772633946369302e-07,2.468295264891198e-05
4.941754286056651e-07,4.422488878701867e-07,2.7524885633908186e-07,2.457786927114379e-05
4.894426716877616e-07,4.4093578439659145e-07,2.731922378631196e-07,2.4474115820379776e-05
4.854424393700864e-07,4.3961844915307405e-07,2.710961044250101e-07,2.437180462513173e-05
4.822222912259408e-07,4.3830378795767633e-07,2.689624676184402e-07,2.427104691130209e-05
4.7983343589043e-07,4.37002309939676e-07,2.667938291218773e-07,2.4171968503902137e-05
4.783243684572578e-07,4.357232684532944e-07,2.6459290894674675e-07,2.4074714874609948e-05
4.777395116727403e-07,4.3447273305409964e-07,2.623614499183061e-07,2.3979464000667717e-05
4.781203751279115e-07,4.3325460800552083e-07,2.60099893098302e-07,2.388641232457865e-05
4.795031015684571e-07,4.320717098412011e-07,2.5780835420103725e-07,2.379569787946799e-05
4.81914885872892e-07,4.309264927107333e-07,2.554872795544676e-07,2.370731157099253e-05
4.853716908578336e-07,4.298217736617092e-07,2.531374240140262e-07,2.3621065709873662e-05
4.898784821545784e-07,4.2876191343383777e-07,2.507608744901911e-07,2.3536604784503025e-05
4.954310801628321e-07,4.277538325053461e-07,2.4836211604744357e-07,2.345343314149472e-05
5.020154814692014e-07,4.268054598524386e-07,2.4594773456642585e-07,2.3370975540739012e-05
5.096066357165261e-07,4.2592240475120634e-07,2.4352656323921125e-07,2.3288664975410478e-05
5.181711285012052e-07,4.251064242268847e-07,2.411096733605466e-07,2.320599172140708e-05
5.2766990461797e-07,4.243558629129861e-07,2.387083590675252e-07,2.3122455728217763e-05
5.380568027173018e-07,4.2366625474015925e-07,2.3633204017500025e-07,2.303748694540025e-05
5.492772381324861e-07,4.2303130857657843e-07,2.339877005929817e-07,2.2950446795839986e-05
5.612714004362073e-07,4.2244398922584856e-07,2.3168011130975233e-07,2.2860690592283108e-05
5.739775775099157e-07,4.218961137896833e-07,2.2941235308009943e-07,2.2767584182911786e-05
5.873313381668773e-07,4.213772166994929e-07,2.2718662499521688e-07,2.2670461666343234e-05
6.012650493313596e-07,4.208746623810763e-07,2.250052011861065e-07,2.256860946928084e-05
6.157095481913998e-07,4.203745790856997e-07,2.2287105263992933e-07,2.246137829980076e-05
6.30593740134101e-07,4.1986233622018474e-07,2.2078768537836967e-07,2.234846506148876e-05
6.458440059507081e-07,4.1932281308451283e-07,2.1875910390273628e-07,2.223019499592221e-05
6.613861121437332e-07,4.1874077688931647e-07,2.1679115578037405e-07,2.2107537725068107e-05
6.771459707619893e-07,4.1810148612896046e-07,2.1489302668072616e-07,2.1981871293410503e-05
6.930488536572865e-07,4.173919656642785e-07,2.130769923810529e-07,2.1854714178871587e-05
7.090200151204484e-07,4.166017057165007e-07,2.1135707537317594e-07,2.172753340012633e-05
7.249851308303645e-07,4.157214672024206e-07,2.0974757395958398e-07,2.160168870435729e-05
7.408682659013843e-07,4.147419784313145e-07,2.0826137309369735e-07,2.147856124998089e-05
7.56589441437208e-07,4.1365395186048885e-07,2.069086303359353e-07,2.1359720615798292e-05
7.720642074963144e-07,4.1244908116634347e-07,2.0569666872881968e-07,2.1246938243341868e-05
7.872051748935053e-07,4.111232128357687e-07,2.0463051861704788e-07,2.114208680715044e-05
8.019257860490633e-07,4.0968128702672856e-07,2.037129901651791e-07,2.1047054523760625e-05
8.161461170360648e-07,4.081392339115992e-07,2.0294465753436839e-07,2.096369010795178e-05
8.297960653087578e-07,4.065202798504336e-07,2.023246192398056e-07,2.0893742541028158e-05
8.428127014704981e-07,4.048492071274493e-07,2.0185148824761785e-07,2.083879041140651e-05
8.55136714394512e-07,4.031485813657324e-07,2.0152342045492674e-07,2.0800174687074766e-05
8.667127605196751e-07,4.0143728167145097e-07,2.0133723856031686e-07,2.0778949872146318e-05
8.774917527142849e-07,3.9973014841924907e-07,2.0128865039012527e-07,2.0775867201157252e-05
8.87431078261073e-07,3.980381704298625e-07,2.0137457272229138e-07,2.07913664855963e-05
8.964919805871908e-07,3.96369131078721e-07,2.0159538837277513e-07,2.0825534356487106e-05
9.046372808870589e-07,3.9472915495806043e-07,2.0195519157249987e-07,2.0878051494874414e-05
9.118317813859093e-07,3.931249867371454e-07,2.0246063969427587e-07,2.0948201143671787e-05
9.180441005593832e-07,3.9156505640460256e-07,2.031197747126151e-07,2.103496993370951e-05
9.232477859187095e-07,3.900581528380353e-07,2.039411605904347e-07,2.113720353805294e-05
9.274212254284756e-07,3.886120358223771e-07,2.0493246974875056e-07,2.1253757458568485e-05
9.305470467766628e-07,3.872344285219773e-07,2.0609825455369558e-07,2.1383597944034992e-05
9.326114052686556e-07,3.859348057287249e-07,2.0743853314342762e-07,2.1525840897298623e-05
9.33603986874209e-07,3.847246774375393e-07,2.0895023771073554e-07,2.1679762667223246e-05
9.335192540422173e-07,3.836169155129308e-07,2.1063085389847416e-07,2.184480612982545e-05
9.323575723163721e-07,3.826264350733589e-07,2.1248055327661108e-07,2.202053787887583e-05
9.30125047667782e-07,3.81772095664109e-07,2.145012427839036e-07,2.220652471488336e-05
9.268329315986758e-07,3.810753868139269e-07,2.1669488815579444e-07,2.2402188345916164e-05
9.22497925605195e-07,3.805557000586286e-07,2.1906259815720416e-07,2.2606713841342536e-05
9.171442494955887e-07,3.8022728288989207e-07,2.216041410367906e-07,2.2819047342682545e-05
9.108063327858322e-07,3.800983476375829e-07,2.243186829256227e-07,2.303798958525804e-05
9.035281808230585e-07,3.801704834337415e-07,2.2720654870678658e-07,2.3262310801423143e-05
8.953587886666929e-07,3.804390776162451e-07,2.302695141471042e-07,2.349078813758966e-05
8.863480967769557e-07,3.808945764267583e-07,2.3350991889742603e-07,2.3722197939885173e-05
8.765456668086657e-07,3.815234425622078e-07,2.3693148805105477e-07,2.395535112840408e-05
8.660006076061762e-07,3.8230906789982797e-07,2.405406438828432e-07,2.418916170110138e-05
8.547623539546626e-07,3.832333015601985e-07,2.443448280798189e-07,2.442266569074328e-05
8.428819797124486e-07,3.842777749542092e-07,2.483492336103392e-07,2.46549459257638e-05
8.304115132353772e-07,3.854236501777187e-07,2.525555883174655e-07,2.4885015491894242e-05
8.174015506290706e-07,3.8665032901130594e-07,2.569635478719602e-07,2.5111739050059802e-05
8.039011691344612e-07,3.879353105104239e-07,2.615732033468522e-07,2.5333824153310047e-05
7.899598034945004e-07,3.8925650762046684e-07,2.6638637057832763e-07,2.5549894695458686e-05
7.756273220684025e-07,3.9059543588687296e-07,2.714047273984304e-07,2.5758647764406414e-05
7.609533194822415e-07,3.9193791833226383e-07,2.7662610273957147e-07,2.595902538707871e-05
7.459902137973573e-07,3.932720641009315e-07,2.8204221890582445e-07,2.6150268466313398e-05
7.307993055669332e-07,3.945865899348821e-07,2.876386328329732e-07,2.633180345508058e-05
7.154525230764512e-07,3.958700900557571e-07,2.933955919765985e-07,2.650305757486251e-05
7.00027420653797e-07,3.971101275591153e-07,2.992896479480531e-07,2.6663328743499066e-05
6.846009545189508e-07,3.982934601392255e-07,3.052957903512165e-07,2.6811758060370388e-05
6.692469335386523e-07,3.9940819313716773e-07,3.113889623655677e-07,2.6947362680037506e-05
6.540390298799973e-07,4.004456283988962e-07,3.175440432572207e-07,2.7069079968871485e-05
6.390576518262748e-07,4.014005572127119e-07,3.23734435239214e-07,2.717586815035968e-05
6.243931473115175e-07,4.0227131222189045e-07,3.299315228970297e-07,2.726695704378627e-05
6.101399440577874e-07,4.030595186323113e-07,3.3610687000665105e-07,2.7342146119548786e-05
5.963871773216659e-07,4.0376830638936756e-07,3.4223484353752717e-07,2.7401876243186405e-05
5.832142393427415e-07,4.044001059576708e-07,3.4829215832214897e-07,2.744702956672318e-05
5.706902935994522e-07,4.049561790562117e-07,3.5425535280378866e-07,2.7478655030223706e-05
5.588726922814767e-07,4.0543830501266156e-07,3.600997916929012e-07,2.7497758074469e-05
5.478051337083974e-07,4.0585068387837596e-07,3.658011715747992e-07,2.75052391969338e-05
5.375180498180437e-07,4.062003956234039e-07,3.7133783310271843e-07,2.7502054438126894e-05
5.280307195090317e-07,4.064972721736135e-07,3.7669180330881217e-07,2.7489460671927367e-05
5.193548694485165e-07,4.067528136199139e-07,3.818483129009604e-07,2.7469080771943266e-05
5.114997664729772e-07,4.069770934023719e-07,3.867948865280306e-07,2.744278042227276e-05
5.044761463240177e-07,4.071761194855357e-07,3.915204763620514e-07,2.741253335219715e-05
4.98295725045291e-07,4.0735197554316493e-07,3.9601464673210273e-07,2.7380324152733137e-05
4.929669557658332e-07,4.075051519382477e-07,4.0026698000085246e-07,2.734805953218805e-05
4.88491046519154e-07,4.0763702684173605e-07,4.042673727306726e-07,2.7317492662626582e-05
4.848619489435055e-07,4.077500802910817e-07,4.0800700810798713e-07,2.729017356603879e-05
4.820694343845078e-07,4.078463214463272e-07,4.114784842394775e-07,2.7267434582517066e-05
4.800996021068015e-07,4.079269489502699e-07,4.1467472965187814e-07,2.725039571875805e-05
4.789317199647388e-07,4.079939280366158e-07,4.175886668033336e-07,2.723994306616317e-05
4.785364623780943e-07,4.0805171101049814e-07,4.202152853512196e-07,2.723666009255885e-05
4.788771231570184e-07,4.081076707964445e-07,4.2255369929731175e-07,2.724075030333931e-05
4.799116809793495e-07,4.0817086554354406e-07,4.2460670572295273e-07,2.725201921437139e-05
4.815947726017105e-07,4.0824998938022645e-07,4.2638014144296093e-07,2.72699560780438e-05
4.838792365583062e-07,4.083516614999042e-07,4.278832594042287e-07,2.7293883937377552e-05
4.867167857006347e-07,4.0847946538178547e-07,4.291275899529945e-07,2.7323109126517748e-05
4.900573555623887e-07,4.0863409268732536e-07,4.3012415614776345e-07,2.735701463618463e-05
4.938477568304093e-07,4.0881417891322067e-07,4.308823789287469e-07,2.739507979524014e-05
4.980317229642102e-07,4.090165147099461e-07,4.3141152342413903e-07,2.743686657296685e-05
5.025520942515743e-07,4.0923568740847783e-07,4.317215297311949e-07,2.7482011895973222e-05
5.073530424605109e-07,4.094639920374322e-07,4.318219591926522e-07,2.75302045512893e-05
5.123804174694323e-07,4.096915177877521e-07,4.317212040039425e-07,2.758113090152878e-05
5.175819041265352e-07,4.099061112437255e-07,4.314265520574195e-07,2.7634421170243328e-05
5.229096232395247e-07,4.1009334414024954e-07,4.309439664708918e-07,2.768960500158844e-05
5.283243322065279e-07,4.102372671629562e-07,4.3027785684690845e-07,2.774606970436191e-05
5.337975499847831e-07,4.103222893689733e-07,4.2943177612856603e-07,2.780306780478833e-05
5.39310640152375e-07,4.1033551492117135e-07,4.284100060488564e-07,2.7859790677268706e-05
5.448539722254048e-07,4.102692828125674e-07,4.272189137948186e-07,2.791544314601621e-05
5.504255567210442e-07,4.101224388695533e-07,4.2586726971081844e-07,2.796928404510235e-05
5.560263488691596e-07,4.0989806446934366e-07,4.243664863376023e-07,2.8020653315355847e-05
5.616556517109851e-07,4.0959966879559865e-07,4.2273077898874457e-07,2.8068996096899018e-05
5.67310199271552e-07,4.092297933425065e-07,4.209759839421425e-07,2.8113844772198046e-05
5.729848869014502e-07,4.0879054707526906e-07,4.191181562613981e-07,2.815472332742024e-05
5.786740557410308e-07,4.082835438592929e-07,4.171734081869858e-07,2.819103993537901e-05
5.843741398181679e-07,4.0770939118977313e-07,4.1515877660176246e-07,2.822204444002487e-05
5.900852690386461e-07,4.0706768950998725e-07,4.1309256948366106e-07,2.824684122025857e-05
5.958096942563811e-07,4.0635709434041453e-07,4.109923499427776e-07,2.826446244904206e-05
6.015489215849047e-07,4.055753089303408e-07,4.088726302153205e-07,2.827402796418333e-05
6.073014755723359e-07,4.047191007780893e-07,4.067450254189079e-07,2.8274917001680414e-05
6.130620529908264e-07,4.0378393161110775e-07,4.04618853704227e-07,2.8266819832395287e-05
6.188216369861001e-07,4.0276403116923655e-07,4.025005594046282e-07,2.8249637368275054e-05
6.245667735948853e-07,4.016538810856729e-07,4.003936760344689e-07,2.8223310583449683e-05
6.302791349658865e-07,4.0044984487012813e-07,3.9829967101554473e-07,2.8187690327552473e-05
6.359378601184483e-07,3.991500355949679e-07,3.962184093411078e-07,2.814250394902378e-05
6.415222052343461e-07,3.9775266280036e-07,3.941483176717139e-07,2.8087380262298304e-05
6.470107935002782e-07,3.9625484116697847e-07,3.9208682266662406e-07,2.8021871842963924e-05
6.523796092822346e-07,3.9465284673824687e-07,3.900307862888393e-07,2.7945487818543604e-05
6.576022313360346e-07,3.929436707870555e-07,3.87977020751504e-07,2.7857829341241126e-05
6.626513191695826e-07,3.911270950632467e-07,3.8592400458522615e-07,2.7758818839992462e-05
6.67499981383072e-07,3.892061781590736e-07,3.8387432699537275e-07,2.764881030990718e-05
6.721232277759788e-07,3.871856116500528e-07,3.8183545794487946e-07,2.7528471073875954e-05
6.764991932319784e-07,3.8507050067033357e-07,3.798187198290715e-07,2.739859664446805e-05
6.806105431267743e-07,3.82866471106207e-07,3.778382214139504e-07,2.7259992245411765e-05
6.844464434383012e-07,3.805798423844265e-07,3.7590949934948703e-07,2.711343607544757e-05
6.880031447151572e-07,3.7821802356127377e-07,3.740471795056402e-07,2.6959796802565477e-05
6.912810145073867e-07,3.757897794046874e-07,3.7226271287967867e-07,2.680026498358667e-05
6.942798233724248e-07,3.7330485138195035e-07,3.705631314768107e-07,2.6636444770054212e-05
6.969967801517667e-07,3.7077397524776116e-07,3.689510423150393e-07,2.647022004766328e-05
6.994282701871041e-07,3.682084715410039e-07,3.6742641833615776e-07,2.630355948326581e-05
7.015736270678976e-07,3.656187866939558e-07,3.659896677682988e-07,2.6138366504336607e-05
7.034403317962928e-07,3.6301381077316153e-07,3.6464315069852706e-07,2.5976364444278158e-05
7.050464237656877e-07,3.6040110453453545e-07,3.63390425387051e-07,2.581900751840368e-05
7.06415421667327e-07,3.5778677973495227e-07,3.622352682541705e-07,2.566743078087766e-05
7.075689244698404e-07,3.5517491185055147e-07,3.61180341917165e-07,2.5522440552655294e-05
7.08524371499731e-07,3.525671091578951e-07,3.602254745762649e-07,2.5384532733676667e-05
7.092962518815129e-07,3.499627534973083e-07,3.5936759798909677e-07,2.525391845048995e-05
7.098967290923807e-07,3.473602936080093e-07,3.5860286069765895e-07,2.513054127184071e-05
7.103364285124934e-07,3.447606834852828e-07,3.579286296907325e-07,2.5014104955318648e-05
7.106257469026809e-07,3.421717667688076e-07,3.5734318400637043e-07,2.490412190326062e-05
7.10775388900387e-07,3.3960868777990533e-07,3.5684500423375103e-07,2.479996486415819e-05
7.107967948730929e-07,3.370898255606749e-07,3.5643400905180285e-07,2.470093376740153e-05
7.10701704215182e-07,3.3463319902515247e-07,3.5611247026069386e-07,2.460634554213625e-05
7.104988858673181e-07,3.322546585541537e-07,3.558833323756965e-07,2.451560584872188e-05
7.101906183196218e-07,3.2996649097254116e-07,3.5574743414720173e-07,2.4428230863829885e-05
7.097729472223476e-07,3.277768546335145e-07,3.5570212147786476e-07,2.4343836884960786e-05
7.092392708088956e-07,3.256902649662403e-07,3.55741737689482e-07,2.4262129675758544e-05
7.085833360843762e-07,3.2370928878233285e-07,3.558587493984104e-07,2.4182892675282167e-05
7.077996779396114e-07,3.21837709614756e-07,3.5604486892245004e-07,2.4105950052408387e-05
7.068836832726081e-07,3.2008298785683426e-07,3.5629170511502815e-07,2.4031102315486467e-05
7.058327998634703e-07,3.184553897415646e-07,3.5659053100892065e-07,2.3958061528853877e-05
7.046475534625874e-07,3.169646485064409e-07,3.569324089752225e-07,2.388644282096525e-05
7.033313777028955e-07,3.156168988989352e-07,3.5730909782882864e-07,2.381586127130849e-05
7.018899398812957e-07,3.1441348482912324e-07,3.577135701331587e-07,2.374606734592642e-05
7.003302970753073e-07,3.1335251850775386e-07,3.5814005429578463e-07,2.3676987001440493e-05
6.986589719436473e-07,3.124334815460044e-07,3.5858376212078464e-07,2.360865651959647e-05
6.968804123746511e-07,3.116618670684103e-07,3.5904011145152457e-07,2.3541153767941e-05
6.949978129385131e-07,3.110488786249599e-07,3.5950391070655826e-07,2.347456313935841e-05
6.930135520399902e-07,3.106073062703468e-07,3.599691011341393e-07,2.3408939237418482e-05
6.909274100377954e-07,3.103498610437272e-07,3.6042916816472504e-07,2.3344301145767e-05
6.88735172365821e-07,3.102899208933966e-07,3.608775739322028e-07,2.328068754823338e-05
6.864288135291815e-07,3.1043980370643945e-07,3.61307731632924e-07,2.321819753012884e-05
6.839973285076953e-07,3.1080731823721033e-07,3.6171257460599976e-07,2.3156988463378948e-05
6.814279197014905e-07,3.11394338809242e-07,3.6208399392206615e-07,2.309725745002405e-05
6.787072105817421e-07,3.1219737702476244e-07,3.6241351888793366e-07,2.3039183097136818e-05
6.758220390291406e-07,3.132082722372899e-07,3.626947206671021e-07,2.2982841825322143e-05
6.727602412475608e-07,3.1441448473528054e-07,3.629247842944592e-07,2.292815345127251e-05
6.695112011521203e-07,3.1579946418641683e-07,3.631033431515539e-07,2.287485918583574e-05
6.660654911892127e-07,3.173434903948401e-07,3.632303656598447e-07,2.282251860415715e-05
6.624151600525714e-07,3.190248751391184e-07,3.6330499291686227e-07,2.2770543261530685e-05
6.585552759574958e-07,3.208206915867949e-07,3.633248605013483e-07,2.2718264776746696e-05
6.544840341690281e-07,3.2270687915787446e-07,3.6328579077640903e-07,2.266499086335492e-05
6.502018485980964e-07,3.246589545723325e-07,3.6318258472098174e-07,2.261001491190598e-05
6.457124562191483e-07,3.266541189987131e-07,3.6301060584314596e-07,2.255260863810784e-05
6.410240521246209e-07,3.286740598147073e-07,3.62767344226533e-07,2.2492077417207987e-05
6.361473805697113e-07,3.3070689683032077e-07,3.6245321696806923e-07,2.242786382413997e-05
6.310926035113639e-07,3.327471937853517e-07,3.6207078443831467e-07,2.235957196850665e-05
6.258675425560938e-07,3.3479375048782077e-07,3.6162350147993567e-07,2.2286894076775312e-05
6.204781218674432e-07,3.368458759292541e-07,3.611159380512987e-07,2.2209534696686304e-05
6.149306115062087e-07,3.3890020211820105e-07,3.605545237843882e-07,2.212716838629336e-05
6.092329937231501e-07,3.4094992774256567e-07,3.5994841681636455e-07,2.2039415105759425e-05
6.033940068730432e-07,3.4298703356375433e-07,3.593116854138232e-07,2.194582739062679e-05
5.974225777335168e-07,3.4500622694437573e-07,3.5866405971685295e-07,2.184588579140975e-05
5.91329164650145e-07,3.470069890262111e-07,3.580274285847918e-07,2.1739003750840963e-05
5.851267532058181e-07,3.489913317685343e-07,3.574214210365549e-07,2.162455219011802e-05
5.788303746514954e-07,3.5096061739319897e-07,3.568621945557369e-07,2.150189749671297e-05
5.724577331070008e-07,3.529156856134672e-07,3.5636373822791227e-07,2.1370438020285848e-05
5.660326902940893e-07,3.548584386706282e-07,3.559386241612338e-07,2.122964438482765e-05
5.595872798606313e-07,3.5679102381338076e-07,3.5559680209515317e-07,2.1079106319000813e-05
5.531578448907741e-07,3.587132696249872e-07,3.5534368020578603e-07,2.0918574438867762e-05
5.467794470936665e-07,3.606211014352158e-07,3.551791362521131e-07,2.074799358677302e-05
5.404844674850579e-07,3.625063613237449e-07,3.5509789741456105e-07,2.056751645593809e-05
5.343039557895975e-07,3.6435771689220647e-07,3.5509115643708075e-07,2.0377462145219518e-05
5.282676581770364e-07,3.661642558022974e-07,3.5514894131332725e-07,2.017821492373956e-05
5.224025703933937e-07,3.6792164174009535e-07,3.55262222609891e-07,1.9970124280370456e-05
5.167321455671657e-07,3.6963518368641725e-07,3.55423659759603e-07,1.975346080945184e-05
5.112772241493093e-07,3.713160721114298e-07,3.5562716851454246e-07,1.9528421771433425e-05
5.060572588511714e-07,3.729752077500108e-07,3.558680130166996e-07,1.929515919720277e-05
5.010894875337368e-07,3.746194074671171e-07,3.5614334932036844e-07,1.9053805587433623e-05
4.963875526276786e-07,3.7625013838726687e-07,3.5645086841772273e-07,1.880448410979412e-05
4.919624065445121e-07,3.778645225504176e-07,3.567860192386512e-07,1.8547325460850067e-05
4.878231463556384e-07,3.7945781103420074e-07,3.5714124417946256e-07,1.8282503696501733e-05
4.839753375073833e-07,3.810248004078426e-07,3.5750776279284074e-07,1.801025989656055e-05
4.804193535438089e-07,3.825602902993652e-07,3.5787685074598296e-07,1.7730894890519012e-05
4.771503198165707e-07,3.8406088532285793e-07,3.582391567665893e-07,1.7444746985631754e-05
4.7415843995582714e-07,3.855266428186384e-07,3.5858366720459757e-07,1.7152173807463777e-05
4.7142986909896175e-07,3.869597350587991e-07,3.5889761565965454e-07,1.6853545203043647e-05
4.6894940193192155e-07,3.883619157270469e-07,3.5916713098269964e-07,1.6549249718126633e-05
4.667039201780755e-07,3.8973334284412755e-07,3.5937802623108114e-07,1.6239723239666332e-05
4.6468365969917926e-07,3.910730150292643e-07,3.595168160108253e-07,1.5925477025923347e-05
4.6288038379820784e-07,3.923822627523042e-07,3.595719898086956e-07,1.5607077501556725e-05
4.612842370282226e-07,3.936709809723925e-07,3.595347564211285e-07,1.528509447719505e-05
4.5988194970412815e-07,3.949607309489717e-07,3.5939996238512674e-07,1.4960078240848475e-05
4.5865835640837097e-07,3.962809152977476e-07,3.5916753964898455e-07,1.4632584438824694e-05
4.575997015783671e-07,3.976617483711111e-07,3.588421317046252e-07,1.4303215004052273e-05
4.5669494245089123e-07,3.991285173759911e-07,3.5843060622937423e-07,1.3972639428852594e-05
4.5593435734502496e-07,4.006983439194605e-07,3.5794005627644295e-07,1.3641610191775473e-05
4.553077409104658e-07,4.0237973079558047e-07,3.573770866967069e-07,1.33110002273511e-05
4.548033595694078e-07,4.041741901155817e-07,3.56747538814668e-07,1.2981864582896665e-05
4.544081073983533e-07,4.060784924829722e-07,3.560567035438512e-07,1.265551332169994e-05
4.5410890066019793e-07,4.080860306935476e-07,3.553097477286981e-07,1.2333547446476249e-05
4.5389305095312117e-07,4.1018636897618033e-07,3.5451109787665546e-07,1.201781665798759e-05
4.5374721643817645e-07,4.123643625869037e-07,3.536633107255117e-07,1.1710313072589376e-05
4.5365838955174115e-07,4.1460078867196296e-07,3.5276739041615063e-07,1.1413022002553744e-05
4.536166617974086e-07,4.1687484931017257e-07,3.518241865303732e-07,1.1127757852939446e-05
4.5361587359700594e-07,4.1916707068758437e-07,3.508347054831183e-07,1.0856059383636664e-05
4.536534937405384e-07,4.214597321422323e-07,3.497990754423576e-07,1.0599186140782463e-05
4.5373244588320073e-07,4.2373456250279217e-07,3.487157734377317e-07,1.03581667624283e-05
4.5386116982672557e-07,4.259712240097174e-07,3.475822201767041e-07,1.0133841165806256e-05
4.540497821183896e-07,4.2814862615342866e-07,3.4639665714097553e-07,9.92687935146723e-06
4.5430615702961204e-07,4.302469862822589e-07,3.451595855161841e-07,9.737801481146857e-06
4.5463365380592157e-07,4.3224800277022096e-07,3.438730604500996e-07,9.5670360147584e-06
4.550297515094961e-07,4.341340729274226e-07,3.4253982388511236e-07,9.4150058810865e-06
4.5548614716544074e-07,4.358890893435847e-07,3.4116484340573843e-07,9.282198127907596e-06
4.5599049829899644e-07,4.3750023228251936e-07,3.397569293109259e-07,9.169178094211622e-06
4.5652875400698776e-07,4.389589470616805e-07,3.38327461393983e-07,9.076550110481987e-06
4.570868879731105e-07,4.4026114078655464e-07,3.3688820806232405e-07,9.004895259040484e-06
4.576512712191949e-07,4.4140633896118756e-07,3.3545117836184897e-07,8.954704435700028e-06
4.582088965613554e-07,4.423954196276411e-07,3.3402950587920017e-07,8.926325914912517e-06
4.58750099460005e-07,4.432283541654546e-07,3.326377923411579e-07,8.919941609961935e-06
4.5927262862620623e-07,4.4390394754003504e-07,3.3129245280653164e-07,8.93555618386326e-06
4.5978252814886034e-07,4.444220239618123e-07,3.300111880393208e-07,8.972969465302229e-06
4.602917254279956e-07,4.4478574760349634e-07,3.288108302407668e-07,9.031731919457696e-06
4.6081692153539324e-07,4.4500156158108586e-07,3.277055693266633e-07,9.111112849520174e-06
4.613800797085882e-07,4.450773753691288e-07,3.267061872107991e-07,9.210100523897623e-06
4.6200663474343326e-07,4.450205100410651e-07,3.25820073734e-07,9.327444425930203e-06
4.6272302559834187e-07,4.4483625398237237e-07,3.250528431762896e-07,9.461745862870005e-06
4.6355723342573615e-07,4.4452829546712245e-07,3.244097665555764e-07,9.611564300210223e-06
4.6453998894346655e-07,4.440998630349787e-07,3.238948208220559e-07,9.775467995301082e-06
4.657045482974167e-07,4.4355312642036925e-07,3.235094260553932e-07,9.95199974835525e-06
4.6708579043042716e-07,4.428880783081258e-07,3.232537456020088e-07,1.0139613151182917e-05
4.687172997492903e-07,4.4210283358534204e-07,3.231293225543487e-07,1.0336641466901234e-05
4.706266721203332e-07,4.4119503209003975e-07,3.231391138149693e-07,1.054130560546927e-05
4.7283302473594504e-07,4.4016372100396654e-07,3.2328457923208735e-07,1.0751742166920174e-05
4.753488178624733e-07,4.390104463449943e-07,3.2356387920557025e-07,1.0966044423319442e-05
4.781828383510432e-07,4.3773839392983205e-07,3.23972297346578e-07,1.1182316086752183e-05
4.813405745693502e-07,4.3635138076572714e-07,3.245026039508066e-07,1.1398740596669853e-05
4.848241403951995e-07,4.348550562972703e-07,3.251448177176512e-07,1.1613668338578967e-05
4.886340305707674e-07,4.3325839786136523e-07,3.2588622744665433e-07,1.182569744919436e-05
4.927696626526732e-07,4.315731820957858e-07,3.2671270302272764e-07,1.2033702940283675e-05
4.97227452873328e-07,4.2981468904995787e-07,3.2761150601032826e-07,1.2236797799689345e-05
5.019988413230667e-07,4.2800516807343037e-07,3.2857420146136543e-07,1.2434264025702595e-05
5.070697455263002e-07,4.261743208194982e-07,3.295985321554577e-07,1.2625497278250413e-05
5.124207406820614e-07,4.2435391161370656e-07,3.306880970902994e-07,1.2809954845669895e-05
5.180262743895863e-07,4.225718962995904e-07,3.318489284273335e-07,1.2987094530132599e-05
5.238536123159189e-07,4.208509310681551e-07,3.330851267923329e-07,1.3156358098877742e-05
5.298639437052771e-07,4.192093340614956e-07,3.343973349543165e-07,1.3317227984766619e-05
5.36015097648876e-07,4.176611601790197e-07,3.3578541921808173e-07,1.3469287803076827e-05
5.422642019546345e-07,4.1621563993787756e-07,3.372516179481941e-07,1.3612223126448468e-05
5.485702516136472e-07,4.148771435764061e-07,3.3879920971485354e-07,1.3745783039156766e-05
5.548956996008669e-07,4.1364556964447547e-07,3.4042842473061837e-07,1.3869778291148569e-05
5.612060534642229e-07,4.1251660682514796e-07,3.4213442869148305e-07,1.3984147288527402e-05
5.674682993634872e-07,4.1148182034016707e-07,3.439080282947134e-07,1.4089001994958813e-05
5.736493721381266e-07,4.1052894441959296e-07,3.457372604903735e-07,1.418457870627334e-05
5.797158249345708e-07,4.096430907294654e-07,3.476080817061889e-07,1.4271140953292884e-05
5.856349772887353e-07,4.088096362807114e-07,3.495042591718172e-07,1.43489121848228e-05
5.913758949497358e-07,4.080169129342268e-07,3.514092104286032e-07,1.4418094772731256e-05
5.969089239837612e-07,4.0725550600225524e-07,3.533106254200408e-07,1.4478980122671865e-05
6.022045298692947e-07,4.0651578588463896e-07,3.5520425638654156e-07,1.4532043493004565e-05
6.072333762501206e-07,4.057880934669878e-07,3.570932978808232e-07,1.457792382746104e-05
6.119681533592247e-07,4.0506517727281215e-07,3.589846396797836e-07,1.4617321416425113e-05
6.163843753241771e-07,4.043435855518683e-07,3.608860052569784e-07,1.465089367386468e-05
6.20458886187648e-07,4.0362338590460393e-07,3.6280515968705274e-07,1.4679194805049377e-05
6.241694752980342e-07,4.029062456981571e-07,3.647495739850888e-07,1.4702658917914115e-05
6.27497429178922e-07,4.0219208555175707e-07,3.667249841331373e-07,1.4721589574588337e-05
6.304299320448558e-07,4.0147702835959295e-07,3.687330289198711e-07,1.4736153521242306e-05
6.329596281883579e-07,4.007542574815883e-07,3.707701843102146e-07,1.4746441446471536e-05
6.350830080990871e-07,4.000156754747111e-07,3.728285265501721e-07,1.475263916042878e-05
6.367998922867253e-07,3.992522228340923e-07,3.7489697836702255e-07,1.4755204598973138e-05
6.381131984723984e-07,3.9845358345567275e-07,3.7696366783999963e-07,1.4754873446543345e-05
6.390278270920449e-07,3.976095008410751e-07,3.790189606827625e-07,1.475249416976599e-05
6.395494737351067e-07,3.9671302005276757e-07,3.810558729223408e-07,1.4748854782291925e-05
6.396850605718309e-07,3.95762722508865e-07,3.830685028564003e-07,1.4744669836032767e-05
6.394452866191126e-07,3.947619759859217e-07,3.8505240553656113e-07,1.4740820531491901e-05
6.388478079121252e-07,3.937171880540273e-07,3.870060290715692e-07,1.473867469827929e-05
6.379187260206913e-07,3.926368930758157e-07,3.889301013056379e-07,1.4740168728559629e-05
6.366902713446084e-07,3.91531080898852e-07,3.908263156738152e-07,1.4747630340645456e-05
6.351953837843057e-07,3.9040999010429064e-07,3.926974828472956e-07,1.4763553422156839e-05
6.334632822708597e-07,3.8928230381507243e-07,3.9454725717357563e-07,1.4790421628061533e-05
6.315188482694063e-07,3.8815362422876476e-07,3.9637779434817046e-07,1.4830564909030716e-05
