3.7402727000619273e-07,5.245112826144486e-07,1.2101611514140978e-06,2.8184094185937654e-05
3.765762147224477e-07,5.221515239337527e-07,1.2301959942913065e-06,2.7980669020670094e-05
3.7892321733786136e-07,5.206798772065635e-07,1.2497057034745364e-06,2.7768856601748388e-05
3.810598806958656e-07,5.201191697803207e-07,1.2685763614055127e-06,2.7548942021528804e-05
3.8297790422725203e-07,5.204763155925307e-07,1.2867105688221479e-06,2.732158505453021e-05
3.8467181838039386e-07,5.21743926200091e-07,1.3040235263303718e-06,2.708778728958217e-05
3.861404238227369e-07,5.239032382502943e-07,1.3204378296682414e-06,2.684884936375737e-05
3.8738489260034585e-07,5.269275712607779e-07,1.3358783262142664e-06,2.660634351337536e-05
3.8840688396861367e-07,5.30787135765551e-07,1.350269898745192e-06,2.636206421318225e-05
3.8920842804532573e-07,5.354534639008178e-07,1.363538468792594e-06,2.611791245910136e-05
3.897912015607894e-07,5.409002967481954e-07,1.375612779179105e-06,2.5875721757498926e-05
3.901552656706329e-07,5.471010805889599e-07,1.386427426913425e-06,2.563709440786267e-05
3.902992030577234e-07,5.5402545430657e-07,1.3959269639671421e-06,2.540329844420241e-05
3.9022114782092526e-07,5.616373356075971e-07,1.404066579577485e-06,2.5175256552693e-05
3.8991953919749066e-07,5.698948375580897e-07,1.4108091713920168e-06,2.495367742469494e-05
3.8939352844686325e-07,5.787492952505636e-07,1.4161231309461603e-06,2.473929628906124e-05
3.8864327294926747e-07,5.881433744175828e-07,1.4199815812249226e-06,2.453306640680092e-05
3.876702278255642e-07,5.980112770089249e-07,1.4223622986073406e-06,2.433619058028553e-05
3.8647707400610634e-07,6.082808739668484e-07,1.4232482571953517e-06,2.4150023377588115e-05
3.850670668752253e-07,6.188755036797995e-07,1.4226274950327989e-06,2.3975936456461915e-05
3.834431818808042e-07,6.297162406089766e-07,1.4204925352534798e-06,2.381521835953727e-05
3.816075874964408e-07,6.407256824549921e-07,1.4168408009531822e-06,2.366902569681766e-05
3.795618886814288e-07,6.518308446327003e-07,1.4116747539177381e-06,2.3538398205854223e-05
3.7730774959433774e-07,6.629635020611036e-07,1.40500070199394e-06,2.3424423645418772e-05
3.7484732283472315e-07,6.740598598813688e-07,1.3968277558985892e-06,2.332861739023447e-05
3.7218419689379156e-07,6.850601901153671e-07,1.3871682740618204e-06,2.325333556433905e-05
3.693256909530418e-07,6.959065551789139e-07,1.376039919996076e-06,2.32018912753674e-05
3.6628481299704254e-07,7.065404520313085e-07,1.3634675412429856e-06,2.317829986499083e-05
3.630792356808501e-07,7.169044761468966e-07,1.3494836946363292e-06,2.31868586418797e-05
3.597282953920213e-07,7.26945469774673e-07,1.334129942307572e-06,2.3231714036581162e-05
3.562508473827329e-07,7.366137373778145e-07,1.3174592164776556e-06,2.331647264590259e-05
3.5266442791104773e-07,7.458599544747007e-07,1.2995360588342726e-06,2.34440040375406e-05
3.489854542476684e-07,7.546343151785855e-07,1.2804332133735518e-06,2.361654791016601e-05
3.4523047429457905e-07,7.628882264427669e-07,1.2602265244476308e-06,2.3835956858993005e-05
3.414167621448854e-07,7.705762695774591e-07,1.238991495784911e-06,2.4103844240882128e-05
3.3756105304630827e-07,7.776564451187547e-07,1.2168032612246846e-06,2.442161091096072e-05
3.3367836740986237e-07,7.840888386188917e-07,1.1937383660817856e-06,2.4790406885581768e-05
3.297821424051765e-07,7.898346346609356e-07,1.169874973721612e-06,2.5211052336335118e-05
3.2588463624696324e-07,7.94856275973003e-07,1.1452912415734266e-06,2.5683943783335776e-05
3.21997617741319e-07,7.991178493791862e-07,1.1200651363862437e-06,2.6208999546759425e-05
3.1813363452443145e-07,8.025852844800041e-07,1.094276086226466e-06,2.6785694165415672e-05
3.1430728864845647e-07,8.052273469561706e-07,1.0680054977677724e-06,2.7413153065636287e-05
3.105362187273307e-07,8.070183484401655e-07,1.041335009294095e-06,2.8090207806985572e-05
3.0684065757612816e-07,8.079418938873431e-07,1.0143440908243325e-06,2.8815343169951617e-05
3.032407779677394e-07,8.079926963842117e-07,9.871093821793402e-07,2.9586571616451368e-05
2.997539838406001e-07,8.071743422763574e-07,9.59706802323897e-07,3.040134228722792e-05
2.96393995071699e-07,8.054961945225606e-07,9.322151127391535e-07,3.125653792113857e-05
2.9317136162447465e-07,8.029740696670491e-07,9.047191437702877e-07,3.214850269584494e-05
2.900953590396137e-07,7.996343328201887e-07,8.773101769950979e-07,3.307304022885025e-05
2.8717627400906097e-07,7.95517441610213e-07,8.50080901515532e-07,3.402539709812441e-05
2.844253976734613e-07,7.906776864756744e-07,8.231189427640572e-07,3.500028764685265e-05
2.818528624485348e-07,7.851791589991338e-07,7.965069332360976e-07,3.599201244093268e-05
2.7946620630383395e-07,7.790901958698949e-07,7.703276305244201e-07,3.699466612940893e-05
2.7727001948504766e-07,7.72477595510145e-07,7.446655729181856e-07,3.800235162345526e-05
2.752663113597153e-07,7.654024251157181e-07,7.196048720576899e-07,3.900931343918905e-05
2.73456667740461e-07,7.579199848150951e-07,6.952282729274022e-07,4.000997395893592e-05
2.7184419172268553e-07,7.500833530026641e-07,6.716166706932187e-07,4.099890428783894e-05
2.704329621870027e-07,7.41947862516511e-07,6.488468463397715e-07,4.197076320623424e-05
2.692266026192246e-07,7.335735357867494e-07,6.269893474387632e-07,4.292027541168021e-05
2.682275684999399e-07,7.250233115485992e-07,6.061067223196479e-07,4.3842316085209166e-05
2.674370444731095e-07,7.163593408575807e-07,5.862510347851885e-07,4.473205402726079e-05
2.668543186010141e-07,7.076413372501463e-07,5.674624334956577e-07,4.5585036213914115e-05
2.664753050183486e-07,6.989277111336564e-07,5.497704929657635e-07,4.6397143045717574e-05
2.6629180251749357e-07,6.902777117551565e-07,5.331978138939566e-07,4.716446866636406e-05
2.6629252664692924e-07,6.817524650273491e-07,5.177627800820833e-07,4.7883267057465133e-05
2.664653207400774e-07,6.734131779757415e-07,5.034789623784926e-07,4.855003688640736e-05
2.667992387176961e-07,6.653162960617279e-07,4.903527975914378e-07,4.9161704223920286e-05
2.672852099835466e-07,6.575089336512102e-07,4.783821676949289e-07,4.971583607275596e-05
2.6791524136954986e-07,6.500276723473582e-07,4.675572539057806e-07,5e-06
2.686816293755628e-07,6.428999729483701e-07,4.578640087089197e-07,5e-06
2.695765534873777e-07,6.361475140980454e-07,4.4928859352095396e-07,5e-06
2.7059121089868257e-07,6.297919620058884e-07,4.4182003253112886e-07,5e-06
2.717151299066543e-07,6.238618138698953e-07,4.354502541537554e-07,5e-06
2.729363066699557e-07,6.183962410440162e-07,4.301727150807227e-07,5e-06
2.7424146996128767e-07,6.134425794772743e-07,4.2597958374502406e-07,5e-06
2.756160373632164e-07,6.090498566014183e-07,4.2285720137802257e-07,5e-06
2.770444284308439e-07,6.052642776621437e-07,4.207829142183225e-07,5e-06
2.7851164012047084e-07,6.021279625554013e-07,4.1972631669244683e-07,5e-06
2.800045135420621e-07,5.996773722177755e-07,4.1965272164317345e-07,5e-06
2.815107586645533e-07,5.97940482140471e-07,4.2052461529811396e-07,5e-06
2.8301777299783284e-07,5.969346925588314e-07,4.2230069493780216e-07,5e-06
2.8451329269652533e-07,5.966657860663525e-07,4.249357450450911e-07,5e-06
2.859862914388241e-07,5.971276917249471e-07,4.2838312080647544e-07,5e-06
2.874265870419502e-07,5.983043141526665e-07,4.3259700725266706e-07,5e-06
2.888241127332757e-07,6.001731494199657e-07,4.3753114144797496e-07,5e-06
2.901695147088121e-07,6.027075609441416e-07,4.4313706315191184e-07,5e-06
2.914555854651047e-07,6.058762711043533e-07,4.49367870680741e-07,4.973083620545528e-05
2.9267708522169945e-07,6.096427691264983e-07,4.561860415345085e-07,4.926911304195039e-05
2.938290122710832e-07,6.139679352226408e-07,4.6356880190066644e-07,4.877837247877807e-05
2.949059819644996e-07,6.188148128407295e-07,4.715082725812662e-07,4.826307967986522e-05
2.959030284033517e-07,6.241505686889836e-07,4.800068111117837e-07,4.77279720478939e-05
2.96816000718452e-07,6.299436584121739e-07,4.890689946328026e-07,4.717794426913528e-05
2.976408615892034e-07,6.361596309303478e-07,4.986935730222633e-07,4.6617933532666084e-05
2.983726570720177e-07,6.427592334677416e-07,5.088697000765415e-07,4.605280714163678e-05
2.9900495655603525e-07,6.496997180278277e-07,5.195779500407732e-07,4.5487241133582286e-05
2.9952972085444324e-07,6.569373207556776e-07,5.307914566706497e-07,4.4925602400806695e-05
2.999374847987329e-07,6.644273688753225e-07,5.424752756408764e-07,4.4371869112722965e-05
3.0021813411096405e-07,6.721220832259567e-07,5.545870082338811e-07,4.3829579481784616e-05
3.00362039949976e-07,6.799688567431958e-07,5.670814085403607e-07,4.330175220907503e-05
3.00360635775804e-07,6.879096630136147e-07,5.799182953663078e-07,4.279077362056064e-05
3.00206365866084e-07,6.9588245105926e-07,5.930677462854843e-07,4.2298348744858425e-05
2.998932834921248e-07,7.038255098601412e-07,6.065069134703679e-07,4.182558671705044e-05
2.9941855637140856e-07,7.116820841032513e-07,6.202116585023163e-07,4.137315251292624e-05
2.9878301846156585e-07,7.194024750431362e-07,6.341521558052321e-07,4.0941396518218426e-05
2.9798977056613077e-07,7.269440890187948e-07,6.482965679226051e-07,4.053045651285041e-05
2.970422650443151e-07,7.342698734491549e-07,6.626180446996109e-07,4.0140340853057224e-05
2.9594348695879347e-07,7.413466711352395e-07,6.770997763881919e-07,3.9770985942355245e-05
2.946962603947428e-07,7.481472386328795e-07,6.917363193873903e-07,3.942231042121107e-05
2.9330333881700764e-07,7.546557781064216e-07,7.065299585195442e-07,3.909428935175365e-05
2.9176698623003604e-07,7.608722180538924e-07,7.214830457492195e-07,3.8787018434455093e-05
2.9008988037530327e-07,7.668123343545127e-07,7.36590008345174e-07,3.850073029620185e-05
2.882776411106988e-07,7.725050187396123e-07,7.518328707989471e-07,3.823576008459127e-05
2.86340164416593e-07,7.779872180973246e-07,7.671820346805414e-07,3.7992449900678464e-05
2.8429004054141785e-07,7.832961297921533e-07,7.826000543438598e-07,3.777097967750818e-05
2.8214033623585147e-07,7.884641233489057e-07,7.980460644301198e-07,3.7571187380247965e-05
2.799041669766996e-07,7.935201141607123e-07,8.134810191173483e-07,3.739249150707432e-05
2.775947243615828e-07,7.984910604036606e-07,8.288704637266376e-07,3.7233922180202644e-05
2.752241990586639e-07,8.033996160319227e-07,8.441809660075521e-07,3.709416446298438e-05
2.7280307207605226e-07,8.082615107882404e-07,8.59374929844883e-07,3.697159455709821e-05
2.703411328661085e-07,8.130852765685441e-07,8.744097036096291e-07,3.686433630250573e-05
2.678490023696691e-07,8.17874961594532e-07,8.892401583921551e-07,3.677032442274468e-05
2.6533802776550196e-07,8.22635609668013e-07,9.038224988390363e-07,3.6687371679810806e-05
2.628185078166486e-07,8.273792986586333e-07,9.181173688940169e-07,3.661321138611311e-05
2.6029840319513844e-07,8.321280946617684e-07,9.320909941409576e-07,3.65454892219966e-05
2.577838943689795e-07,8.369113485144227e-07,9.457149031497593e-07,3.648178491603786e-05
2.5528184333096405e-07,8.417600519610121e-07,9.58964255771023e-07,3.641974668372397e-05
2.5280255518238413e-07,8.467024433915656e-07,9.718144185485387e-07,3.635727567632782e-05
2.503596914897847e-07,8.517599137649683e-07,9.842363163928169e-07,3.629260863269626e-05
2.479678180715804e-07,8.569423214824101e-07,9.961930593400043e-07,3.6224239013099735e-05
2.4564094936671605e-07,8.622456195330179e-07,1.0076404022388524e-06,3.615076594363855e-05
2.4339173452993716e-07,8.676528375398966e-07,1.0185293222157223e-06,3.607080122592847e-05
2.412301388653644e-07,8.731366026198286e-07,1.0288076920755623e-06,3.598300159392356e-05
2.3916343581995426e-07,8.786617140439634e-07,1.0384219150673358e-06,3.588617963510028e-05
2.3719749645805906e-07,8.84186820365533e-07,1.0473207325533454e-06,3.5779369710424267e-05
2.3533749550352626e-07,8.896661802640282e-07,1.0554599334937308e-06,3.566177697545073e-05
2.335883020556962e-07,8.950545724876024e-07,1.0628039683388286e-06,3.5532672664334916e-05
2.3195525599728136e-07,9.003148592672645e-07,1.0693232308393411e-06,3.5391397418475584e-05
2.3044458479346658e-07,9.054228721480276e-07,1.0749902838782598e-06,3.5237538594013486e-05
2.2906244492735177e-07,9.103667139297009e-07,1.0797783599807026e-06,3.507108180215364e-05
2.278130057733119e-07,9.151420744341634e-07,1.083662821635138e-06,3.4892329263104484e-05
2.2669734471650018e-07,9.197456284714436e-07,1.086623876982525e-06,3.4701693524575325e-05
2.2571373559988337e-07,9.241701454713056e-07,1.088647891225728e-06,3.44996282949747e-05
2.2485856314800664e-07,9.284043202227505e-07,1.0897263924420565e-06,3.4286832135595514e-05
2.2412717101672696e-07,9.324343136995355e-07,1.0898540878008336e-06,3.4064589956571765e-05
2.235142786571628e-07,9.362433389000332e-07,1.0890280103102174e-06,3.383492357109923e-05
2.2301414813569814e-07,9.39810162246258e-07,1.0872479414208486e-06,3.360041580323965e-05
2.2262057429499374e-07,9.431092685319388e-07,1.0845158474813031e-06,3.3363866071506204e-05
2.2232655189505587e-07,9.461149252365768e-07,1.0808343777287905e-06,3.312795840767041e-05
2.22124070451092e-07,9.488075930521921e-07,1.0762066744187428e-06,3.28950260544713e-05
2.220046796352187e-07,9.511767270227608e-07,1.0706377885603458e-06,3.266692005058981e-05
2.219604251231005e-07,9.532172589644573e-07,1.0641374001236211e-06,3.2444965061878836e-05
2.219838099992441e-07,9.549243545072391e-07,1.0567242608811086e-06,3.2229996913821424e-05
2.2206678690299683e-07,9.56291520370257e-07,1.0484294788063197e-06,3.2022443112829835e-05
2.222002852440359e-07,9.573129360142063e-07,1.0392942349383448e-06,3.1822384043964756e-05
2.223748709461307e-07,9.579880888661308e-07,1.0293642419592346e-06,3.162958391127387e-05
2.225822394492681e-07,9.58324293192125e-07,1.0186873758099131e-06,3.144354012980989e-05
2.228167175144725e-07,9.583339206527291e-07,1.0073160271589564e-06,3.126359721030687e-05
2.2307532010750762e-07,9.58029054630642e-07,9.953096026910016e-07,3.108910786039319e-05
2.233568100919148e-07,9.574182374420202e-07,9.827319243786706e-07,3.091957647321817e-05
2.236619094710958e-07,9.565067966435699e-07,9.696453802879978e-07,3.0754742889154466e-05
2.239941335656255e-07,9.552993090631731e-07,9.561078434588098e-07,3.05945927998593e-05
2.2435902749997567e-07,9.538014819049508e-07,9.421724184910871e-07,3.0439291285590477e-05
2.247625113381968e-07,9.52019587428459e-07,9.278873522591202e-07,3.028907140598029e-05
2.2521021618834792e-07,9.499591473321535e-07,9.132968422001024e-07,3.0144126705300946e-05
2.257071733807361e-07,9.476253112011763e-07,8.98443399292299e-07,3.000452652738171e-05
2.2625680474200143e-07,9.450229930001484e-07,8.833695608692222e-07,2.9870155393064448e-05
2.268601990172655e-07,9.421547154384137e-07,8.681169277742365e-07,2.97406778968542e-05
2.2751637356925306e-07,9.390188142506687e-07,8.527244022820224e-07,2.9615531504961327e-05
2.282225999296267e-07,9.356104204234984e-07,8.372278930656147e-07,2.949397188250473e-05
2.289744751751165e-07,9.319231567384184e-07,8.216604503585198e-07,2.937519902178396e-05
2.297665560426757e-07,9.279488767169163e-07,8.060535952672176e-07,2.92585306767109e-05
2.3059416094496608e-07,9.236770684316204e-07,7.904428705044661e-07,2.9143521557925007e-05
2.3145512952387518e-07,9.190968263667879e-07,7.748759581646844e-07,2.9029978761468733e-05
2.323494226078034e-07,9.142003249729281e-07,7.594174505357892e-07,2.8917945564770618e-05
2.332774270466856e-07,9.089841187915596e-07,7.441460198278335e-07,2.880767943493096e-05
2.3423917909257842e-07,9.034470751428259e-07,7.291450509580439e-07,2.86995373919824e-05
2.352345096938371e-07,8.975877769769499e-07,7.144932188003585e-07,2.859377710768443e-05
2.3626386101710467e-07,8.914038286362369e-07,7.0026069946519e-07,2.8490438266492152e-05
2.3733040652063689e-07,8.848926563549698e-07,6.865105505067997e-07,2.83894320742975e-05
2.38442122045683e-07,8.780527093268337e-07,6.733010968351619e-07,2.8290761542789196e-05
2.396103082392007e-07,8.708849007640645e-07,6.606858957213111e-07,2.8194695474719208e-05
2.4084510876466236e-07,8.633956789974049e-07,6.487112050635025e-07,2.8101843146424207e-05
2.421529297763525e-07,8.556004937334195e-07,6.374141321213837e-07,2.801315831593209e-05
2.435369193831231e-07,8.475230997630833e-07,6.268248459819967e-07,2.7929882962567302e-05
2.4499792477506005e-07,8.391934475374869e-07,6.169730420262517e-07,2.7853451121268768e-05
2.465347902683325e-07,8.306516092989485e-07,6.078940470524257e-07,2.778535814064488e-05
2.4814425647483765e-07,8.219546801688509e-07,5.996286526607218e-07,2.7726974718796648e-05
2.498209514847589e-07,8.131761515001082e-07,5.922162217148902e-07,2.7679331545671028e-05
2.515577951406e-07,8.043961412796425e-07,5.856868663842462e-07,2.7642966546862848e-05
2.533469916101421e-07,7.956944042145705e-07,5.80058788066138e-07,2.761789164055059e-05
2.551814826454057e-07,7.871544897911989e-07,5.753411783284977e-07,2.7603650259517378e-05
2.57055547156032e-07,7.788706767663812e-07,5.715384818160061e-07,2.759942680988268e-05
2.589636254914258e-07,7.70947215448217e-07,5.686542258173289e-07,2.76042199056276e-05
2.6089903213104865e-07,7.634897043003594e-07,5.666950742281654e-07,2.761704767005072e-05
2.6285410917790887e-07,7.56593717479755e-07,5.65674216398016e-07,2.763706158981436e-05
2.648204620610115e-07,7.503373470437451e-07,5.65612511578426e-07,2.7663611316157342e-05
2.66788353478686e-07,7.447808565522725e-07,5.665351813528596e-07,2.7696390235890203e-05
2.6874647301328194e-07,7.399704327289756e-07,5.684631574520874e-07,2.773554787560299e-05
2.7068233855190173e-07,7.35941889623019e-07,5.714043452670887e-07,2.7781666641463983e-05
2.725825167780528e-07,7.327205648667342e-07,5.753518064896233e-07,2.783568994980371e-05
2.7443283084557875e-07,7.303172446241179e-07,5.802881207817444e-07,2.7898841682230077e-05
2.762189756435419e-07,7.28725810210924e-07,5.861896264694304e-07,2.797250205224565e-05
2.7792704256971395e-07,7.27925292854179e-07,5.930276568917647e-07,2.8058013138123657e-05
2.7954357533375816e-07,7.278828259085291e-07,6.007678033711856e-07,2.815642794896111e-05
2.810558198668564e-07,7.285560303013092e-07,6.09369293754321e-07,2.8268304278649048e-05
2.8245259089683416e-07,7.298968725630933e-07,6.187866676962393e-07,2.8393637829450562e-05
2.837248278439048e-07,7.318562031713263e-07,6.289724066852093e-07,2.8531908530113075e-05
2.8486565257966926e-07,7.343861519137458e-07,6.398771451670014e-07,2.8682194075734888e-05
2.85871337134145e-07,7.374399978902894e-07,6.514487045522086e-07,2.8843315476008728e-05
2.867429699631857e-07,7.409702677266318e-07,6.63633014296144e-07,2.9013918093200512e-05
2.8748676908094593e-07,7.449261813577783e-07,6.763751848316367e-07,2.9192472408847112e-05
2.881126846830208e-07,7.492526384404492e-07,6.896176855685165e-07,2.937732561973761e-05
2.886326895536713e-07,7.5389068505812e-07,7.032976646053891e-07,2.9566837181439117e-05
2.890592787130405e-07,7.58777327889655e-07,7.173473471482229e-07,2.9759456398023626e-05
2.894039128307118e-07,7.638449941754964e-07,7.316963941224261e-07,2.9953678158617186e-05
2.89675724185147e-07,7.69021997982823e-07,7.462733335313846e-07,3.0147966750580896e-05
2.89881322168588e-07,7.742341486994798e-07,7.610061960937177e-07,3.0340701380573338e-05
2.900258679727579e-07,7.794082011901683e-07,7.758223941782623e-07,3.0530126000376285e-05
2.901140398712662e-07,7.844779776083806e-07,7.906492971961144e-07,3.071433609678051e-05
2.901500500462305e-07,7.893907163549565e-07,8.054177004046434e-07,3.0891365606333205e-05
2.901376055981847e-07,7.94108849817445e-07,8.200645936809166e-07,3.105935188827406e-05
2.900799539750132e-07,7.986057637075847e-07,8.345319304303359e-07,3.121667634190816e-05
2.8997975393333397e-07,8.028591010190448e-07,8.48764234854196e-07,3.1362011489575745e-05
2.898393410210528e-07,8.068472763921439e-07,8.627070228908498e-07,3.1494305825527975e-05
2.896610109392973e-07,8.105514712349117e-07,8.7630513952184e-07,3.161279158441429e-05
2.89446751035568e-07,8.139590472747498e-07,8.895014804163908e-07,3.1717057911752144e-05
2.8919834220169225e-07,8.170641288427037e-07,9.022377698070328e-07,3.1807130722761075e-05
2.889181954485353e-07,8.198651141001866e-07,9.14457686126276e-07,3.188342638437781e-05
2.886098619433616e-07,8.223607082433006e-07,9.26111531854575e-07,3.1946527542808376e-05
2.882778615078748e-07,8.245465663971665e-07,9.3716083172434e-07,3.199691827246358e-05
2.8792686483326826e-07,8.264138729531628e-07,9.475789876169705e-07,3.203484599878208e-05
2.8756055883656386e-07,8.279495274458924e-07,9.573459927370475e-07,3.206032392958394e-05
2.871820282412398e-07,8.291374677444632e-07,9.664412421121858e-07,3.207318395763e-05
2.8679572253897786e-07,8.299620365029784e-07,9.748401364679843e-07,3.207315883593395e-05
2.8640792111294264e-07,8.304124536863955e-07,9.825166989455515e-07,3.206005599365847e-05
2.860253187236413e-07,8.304842369715321e-07,9.894495936816256e-07,3.203398457956457e-05
2.856553757317641e-07,8.301767173420252e-07,9.95625709625327e-07,3.199552628716972e-05
2.8530837396730165e-07,8.29490166410691e-07,1.0010384821283243e-06,3.194583609712764e-05
2.8499760735001765e-07,8.284244247763642e-07,1.0056862397077796e-06,3.188666191541076e-05
2.8473825538863964e-07,8.269781898207949e-07,1.0095768696835743e-06,3.1820231378584055e-05
2.845464075923524e-07,8.251483980047862e-07,1.0127354725194728e-06,3.174905097657508e-05
2.844372241619747e-07,8.229300862222473e-07,1.0152064039093941e-06,3.1675716406921786e-05
2.844235596474544e-07,8.203164998667706e-07,1.0170466241522731e-06,3.1602739383254824e-05
2.8451750740695663e-07,8.173002406883691e-07,1.0183153825952617e-06,3.1532375783365744e-05
2.847331667821436e-07,8.138778121309944e-07,1.0190677760279283e-06,3.146654645529528e-05
2.850864329886343e-07,8.100561707139144e-07,1.0193530674499664e-06,3.140690615924151e-05
2.855915439466999e-07,8.058557133929634e-07,1.0192141474924534e-06,3.1354953263407316e-05
2.862580779906013e-07,8.0130755573242e-07,1.0186897172788337e-06,3.1312075127480545e-05
2.870902388102264e-07,7.964487061166086e-07,1.0178207682948619e-06,3.127956420368883e-05
2.8808727499623827e-07,7.913184992340869e-07,1.0166563928946495e-06,3.1258626274873356e-05
2.8924389291905605e-07,7.859564520456877e-07,1.0152549914105178e-06,3.1250286070920784e-05
2.905508234340484e-07,7.804003064192994e-07,1.0136813813062878e-06,3.125523331874164e-05
2.9199591568158843e-07,7.746837597066073e-07,1.0120017296439433e-06,3.1273788861489786e-05
2.935654880796664e-07,7.688363098026719e-07,1.0102787518882612e-06,3.130598675568213e-05
2.952453687380567e-07,7.628871297061753e-07,1.0085679653630067e-06,3.135167302565666e-05
2.9702207140972825e-07,7.568685330738472e-07,1.0069152187163821e-06,3.141060565348491e-05
2.988845145699818e-07,7.508141834835494e-07,1.0053571161757477e-06,3.148255123260087e-05
3.008245210189949e-07,7.447552803316015e-07,1.0039245369326215e-06,3.1567380386609714e-05
3.028352093035824e-07,7.387190295025011e-07,1.0026468525363036e-06,3.166517908848464e-05
3.0490887605911786e-07,7.327280308262844e-07,1.0015527844135665e-06,3.1776345524267295e-05
3.070355618559887e-07,7.268005475169424e-07,1.0006669398066564e-06,3.190163014345141e-05
3.092027824923697e-07,7.209541199013038e-07,1.0000062796640514e-06,3.204211851643039e-05
3.113967249754199e-07,7.152110806077219e-07,9.995784862073065e-07,3.219916142437087e-05
3.1360379366770924e-07,7.096028291315068e-07,9.993813243940884e-07,3.237427572861101e-05
3.1581095751391463e-07,7.041728695743269e-07,9.994032407534034e-07,3.256906809934801e-05
3.180058120826703e-07,6.989782138991591e-07,9.99624687231458e-07,3.278514921835498e-05
3.20177758363793e-07,6.940853391922942e-07,1.0000203070819759e-06,3.3023925641627426e-05
3.2231858639230897e-07,6.895606671340251e-07,1.0005639261855756e-06,3.328628289286449e-05
3.2442110192001877e-07,6.854624235848099e-07,1.0012368452982208e-06,3.3572337747277476e-05
3.264775528835926e-07,6.818400455006232e-07,1.0020362140781383e-06,3.388137167144637e-05
3.2847920681791054e-07,6.787407623199993e-07,1.0029763199699028e-06,3.421191165170321e-05
3.304165795341161e-07,6.762160233909401e-07,1.004079043107495e-06,3.45619281112238e-05
3.3227967392376125e-07,6.743201044427434e-07,1.005361600771904e-06,3.4929121147873794e-05
3.340582736285245e-07,6.731021678172835e-07,1.0068314548040933e-06,3.531119505272123e-05
3.3574244121563085e-07,6.726001790128448e-07,1.008486416774657e-06,3.570606517625641e-05
3.373228759550844e-07,6.728409624834201e-07,1.010314610064439e-06,3.611200566517403e-05
3.3879070698074414e-07,6.738428319986875e-07,1.01229470630017e-06,3.6527685570851795e-05
3.401370010059913e-07,6.756162031638972e-07,1.01439737251769e-06,3.695202810650626e-05
3.41353261164349e-07,6.781614849613457e-07,1.0165876553494584e-06,3.738394657000003e-05
3.424328991855784e-07,6.814668584441516e-07,1.0188286164726272e-06,3.782209850270836e-05
3.433714045683496e-07,6.855097040749595e-07,1.0210863574869438e-06,3.826474783793592e-05
3.4416488360268026e-07,6.902639687036997e-07,1.0233356566568823e-06,3.870973875490509e-05
3.448093211451322e-07,6.957105508487152e-07,1.0255633334165372e-06,3.915455149247001e-05
3.453009286100309e-07,7.01843635901372e-07,1.0277655230163373e-06,3.959639416848596e-05
3.456362534082193e-07,7.086701185444387e-07,1.0299389916327628e-06,4.003230010218862e-05
3.4581228911392423e-07,7.162040916722979e-07,1.0320726196566891e-06,4.04591962544569e-05
3.458270706424291e-07,7.244579107776641e-07,1.0341448275432328e-06,4.087390870327442e-05
3.456798276251749e-07,7.334332987997431e-07,1.0361276096775415e-06,4.127318207908739e-05
3.453700491254078e-07,7.431165015715341e-07,1.0379947565291905e-06,4.1653801498194754e-05
3.448971518962199e-07,7.534767212115848e-07,1.0397285769249656e-06,4.2012720516870096e-05
3.4426239519189684e-07,7.644660487957119e-07,1.0413207816518456e-06,4.2347054104851424e-05
3.434707580883069e-07,7.760210388203536e-07,1.0427710516562114e-06,4.265399235165229e-05
3.4253014343704727e-07,7.88065435906605e-07,1.0440870066852712e-06,4.293080929664677e-05
3.414495032437896e-07,8.005130638976645e-07,1.045283560141303e-06,4.317501833830193e-05
3.402383131462009e-07,8.132714037985266e-07,1.0463811188237406e-06,4.3384537564543264e-05
3.389069002719423e-07,8.262475992249715e-07,1.0474048037727643e-06,4.3557710669420105e-05
3.374660307812085e-07,8.393564853860341e-07,1.048382857885198e-06,4.36932037861382e-05
3.359261279961627e-07,8.525262625868654e-07,1.0493410442170955e-06,4.378992123672695e-05
3.3429728262511244e-07,8.656981500423846e-07,1.0502961984601071e-06,4.3846991102634526e-05
3.325892773981549e-07,8.788218300219773e-07,1.0512541241793758e-06,4.386374688196285e-05
3.308108503970768e-07,8.918506820714557e-07,1.052211757555571e-06,4.3839673144346556e-05
3.289693854647736e-07,9.047385814793033e-07,1.0531608468043298e-06,4.377437481123779e-05
3.2707143579821097e-07,9.174378102244196e-07,1.0540903572969484e-06,4.366761654509813e-05
3.251228153718945e-07,9.298966868760616e-07,1.0549868170648395e-06,4.3519401520252534e-05
3.2312805220132754e-07,9.420578693723427e-07,1.0558368328843044e-06,4.3330021148176296e-05
3.210899927851437e-07,9.53859969887757e-07,1.0566338715420557e-06,4.3100049512067295e-05
3.190098494882605e-07,9.652403896936892e-07,1.0573827313176551e-06,4.283032776683355e-05
3.168878455467403e-07,9.761352863198364e-07,1.0580963173887021e-06,4.252201769675198e-05
3.1472381773778976e-07,9.86478820572908e-07,1.0587880068484342e-06,4.2176698631173025e-05
3.125171855095468e-07,9.962065135833477e-07,1.0594645910573094e-06,4.1796361121746456e-05
3.102674468887727e-07,1.0052623213710012e-06,1.0601224978277502e-06,4.13832608527884e-05
3.079754996201813e-07,1.0136052646130555e-06,1.0607488258476126e-06,4.093973197890121e-05
3.056448846244968e-07,1.0212125105966169e-06,1.061325920701068e-06,4.046803638513747e-05
3.0328317219730353e-07,1.0280780963200191e-06,1.0618356550598988e-06,3.997029343951512e-05
3.009033462463661e-07,1.0342078452509862e-06,1.06226027652845e-06,3.9448493413560436e-05
2.985239299402897e-07,1.0396114537794009e-06,1.0625801822086504e-06,3.890452452859675e-05
2.961671240923352e-07,1.0442950919998402e-06,1.0627718066516813e-06,3.834016425205254e-05
2.9385539820555377e-07,1.0482588500451238e-06,1.062808770534317e-06,3.7757082343800294e-05
2.9160837667855157e-07,1.0514991748528332e-06,1.0626670154223235e-06,3.715691121593774e-05
2.8944208488722293e-07,1.054013550977394e-06,1.0623307622937914e-06,3.6541343711863124e-05
2.873699280867728e-07,1.055804916926288e-06,1.061794536712198e-06,3.591218586564545e-05
2.854030355813151e-07,1.056884455145805e-06,1.0610591036667698e-06,3.5271362705433974e-05
2.8354974689294e-07,1.0572718294453185e-06,1.0601240631967054e-06,3.4620896842212864e-05
2.818154801145473e-07,1.056990940753565e-06,1.058982942668876e-06,3.396283872931062e-05
2.802033797809349e-07,1.056062888780912e-06,1.057624586312772e-06,3.329915238685509e-05
2.7871556567278054e-07,1.0545024161313792e-06,1.0560400959264832e-06,3.263162112304342e-05
2.773541257923559e-07,1.0523196758218165e-06,1.0542304296637208e-06,3.196182487315848e-05
2.7612114645606736e-07,1.0495229652471405e-06,1.0522097675998853e-06,3.129117529917032e-05
2.750184779121149e-07,1.0461203527230698e-06,1.0500049599836297e-06,3.062096190213471e-05
2.740476298984761e-07,1.0421220101998311e-06,1.0476529314272968e-06,2.9952393663094768e-05
2.7320958432596853e-07,1.0375422667625194e-06,1.0451949750475394e-06,2.9286653933411463e-05
2.725050958725638e-07,1.032399078991182e-06,1.0426691828116005e-06,2.862495879015044e-05
2.719352716374747e-07,1.026714410153228e-06,1.0401064090335652e-06,2.7968583400604963e-05
2.715016024660864e-07,1.020519370188561e-06,1.0375311288140822e-06,2.7318861784815955e-05
2.7120551667599e-07,1.013858595583513e-06,1.034963042758916e-06,2.667718671727286e-05
2.710471555358985e-07,1.0067865061236177e-06,1.0324178588818727e-06,2.6044989118980162e-05
2.710237896679854e-07,9.99358801507455e-07,1.0299075771741656e-06,2.542367013131965e-05
2.711295979650205e-07,9.91628580638957e-07,1.0274387830577652e-06,2.4814509347656266e-05
2.7135662980829804e-07,9.83650120075563e-07,1.0250105679876093e-06,2.4218591774817026e-05
2.7169529516097963e-07,9.754836507063135e-07,1.0226149001788358e-06,2.363679889321012e-05
2.721343496988964e-07,9.671946845625049e-07,1.0202388863524678e-06,2.3069907661184462e-05
2.726611394737246e-07,9.588502647968158e-07,1.017867696239662e-06,2.25187602792566e-05
2.732619048263248e-07,9.505149710847984e-07,1.0154865415292855e-06,2.198437407723817e-05
2.739222053833626e-07,9.422460877503708e-07,1.0130803857459e-06,2.1467914214740155e-05
2.746278632925096e-07,9.340916295634519e-07,1.0106324539876355e-06,2.097056140567688e-05
2.7536546758905374e-07,9.2609368855846e-07,1.0081250013534555e-06,2.049334003066686e-05
2.761215371586726e-07,9.182917410369893e-07,1.0055445614827365e-06,2.0036984261053265e-05
2.768814584369255e-07,9.107221053249944e-07,1.0028884424045709e-06,1.9601909231371387e-05
2.7762949570741e-07,9.034155449607798e-07,1.0001688515618013e-06,1.918829095368688e-05
2.783495251701612e-07,8.963958477047718e-07,9.974131569379804e-07,1.8796226177647447e-05
2.790256461214317e-07,8.896812574514487e-07,9.946577141654108e-07,1.842596019267457e-05
2.796428802775859e-07,8.832877301764825e-07,9.91939000742392e-07,1.8078126004480808e-05
2.801882014485694e-07,8.772311531816048e-07,9.892914844377418e-07,1.775385484092477e-05
2.806508702948337e-07,8.715279382364517e-07,9.867512722637621e-07,1.7454679493938017e-05
2.810219124251253e-07,8.661943332641027e-07,9.843572885383736e-07,1.7182314287031122e-05
2.812941434749423e-07,8.612444341317344e-07,9.821483160921672e-07,1.6938438585680587e-05
2.814627200373034e-07,8.566880609726133e-07,9.80157552230358e-07,1.6724529337066412e-05
2.8152485955828285e-07,8.525306837659138e-07,9.784071832250388e-07,1.6541727985833473e-05
2.814788986121915e-07,8.487760394500837e-07,9.769081221364769e-07,1.6390771645489585e-05
2.813239099376344e-07,8.454289829325181e-07,9.756650177161364e-07,1.627204683251079e-05
2.81059817179703e-07,8.424959435468087e-07,9.746797646586077e-07,1.6185685065097388e-05
2.80687183133833e-07,8.399827542536566e-07,9.739501544337043e-07,1.613156807168534e-05
2.802067821028591e-07,8.378918387971031e-07,9.734683083500136e-07,1.6109313840047596e-05
2.796193893511614e-07,8.362210594985168e-07,9.73222752685435e-07,1.61183254208721e-05
2.7892659052067797e-07,8.34963630502881e-07,9.73202438445703e-07,1.6157783765802847e-05
2.781332054502499e-07,8.341070453575454e-07,9.734019669451405e-07,1.6226567156964998e-05
2.772487302971841e-07,8.336313019042852e-07,9.73826613494254e-07,1.632330928336554e-05
2.762855313908965e-07,8.335076136153698e-07,9.744910234551969e-07,1.6446719354002165e-05
2.752565600929244e-07,8.336980664063714e-07,9.75410147397657e-07,1.6595966814906396e-05
2.741751465409625e-07,8.341575481453037e-07,9.765903286025906e-07,1.6770830340863887e-05
2.730549770897509e-07,8.348386597785693e-07,9.78027129066214e-07,1.6971583935170258e-05
2.7190859978509864e-07,8.356972263382426e-07,9.797084271989141e-07,1.7198786956070378e-05
2.707460820310204e-07,8.366950590224587e-07,9.816190552867391e-07,1.7453076451132894e-05
2.6957546940361055e-07,8.377982820091765e-07,9.837446840442794e-07,1.7734987731361352e-05
2.684044821409794e-07,8.389725428046574e-07,9.860724570985016e-07,1.8044802974353118e-05
2.6724154876780075e-07,8.401791077632611e-07,9.88587908148898e-07,1.8382418853615828e-05
2.6609560856110357e-07,8.413743658019688e-07,9.912709874126076e-07,1.8747243776055293e-05
2.6497628229877964e-07,8.425118274178034e-07,9.94093590829095e-07,1.9138154449297212e-05
2.638944021016284e-07,8.435445375932735e-07,9.970188286179023e-07,1.9553536375438352e-05
2.628615967856512e-07,8.44426577740239e-07,1.0000016592166036e-06,1.999138272088519e-05
2.6188998931542875e-07,8.451142093420498e-07,1.0029915794267121e-06,2.044937799784162e-05
2.6099310116832936e-07,8.455675671041477e-07,1.0059372950740534e-06,2.0924926196836208e-05
2.601863136229766e-07,8.457532280436739e-07,1.008789692119865e-06,2.1415152478112758e-05
2.594851868062631e-07,8.456479522713671e-07,1.0115013440530122e-06,2.1916932195343495e-05
2.5890286979847864e-07,8.45241221984572e-07,1.0140272245281954e-06,2.2426974659615838e-05
2.584493070059641e-07,8.445340948065518e-07,1.016328322153765e-06,2.294192665462827e-05
2.581325102419681e-07,8.435354974763922e-07,1.018373588070002e-06,2.3458453739553056e-05
2.579595888282836e-07,8.422578116039728e-07,1.0201391830883836e-06,2.397332070691098e-05
2.579366650977576e-07,8.40714126052233e-07,1.0216065705281687e-06,2.448347789889942e-05
2.580682866183711e-07,8.389180388724901e-07,1.0227598773087342e-06,2.498610428752489e-05
2.5835607421735484e-07,8.368845265200804e-07,1.0235849964867386e-06,2.547859689577579e-05
2.587972537237578e-07,8.34632848154509e-07,1.0240707395524354e-06,2.595855738437895e-05
2.5938467134232184e-07,8.321895706325866e-07,1.024208581264282e-06,2.6423814246744964e-05
2.601083315947014e-07,8.295864168870023e-07,1.0239902219276591e-06,2.6872468306641292e-05
2.609572684107533e-07,8.268580783861312e-07,1.023405611440541e-06,2.7302907185044025e-05
2.6192036283212363e-07,8.240482599401166e-07,1.0224428644443467e-06,2.7713745567887678e-05
2.6298582146033544e-07,8.212179276245866e-07,1.0210884007907064e-06,2.8103747746398106e-05
2.641410722352293e-07,8.184445010176053e-07,1.0193259316420616e-06,2.8471834335170894e-05
2.653739377798297e-07,8.158109023869476e-07,1.0171357560789482e-06,2.881715264482917e-05
2.666732711946342e-07,8.133939714617924e-07,1.0144958230192499e-06,2.9139108350444946e-05
2.6802799199314107e-07,8.112614354224995e-07,1.0113839693181184e-06,2.9437358609305574e-05
2.694259216657015e-07,8.094759094119905e-07,1.0077812548121859e-06,2.9711843366345856e-05
2.708537646495416e-07,8.080982683470174e-07,1.0036769274688832e-06,2.9962825463822254e-05
2.722976965582335e-07,8.071857286234857e-07,9.990732783032574e-07,3.0190823231368373e-05
2.737436632989138e-07,8.067865366426124e-07,9.939863813466929e-07,3.039643181014502e-05
2.7517825525788424e-07,8.069376239859847e-07,9.884411023156182e-07,3.0580147273927484e-05
2.7659082346438453e-07,8.076656943103491e-07,9.824666091938854e-07,3.0742267767582614e-05
2.779748434162232e-07,8.089868414456119e-07,9.760984922986578e-07,3.088287889034204e-05
2.793270468413179e-07,8.109065946076204e-07,9.693824684158196e-07,3.1001910362258197e-05
2.8064629406524125e-07,8.134231619667997e-07,9.62372712346388e-07,3.109923453960368e-05
2.8193377041101194e-07,8.16529338218368e-07,9.551266399950189e-07,3.11747802446182e-05
2.8319278989445307e-07,8.202125606249756e-07,9.477011414686012e-07,3.1228653654808143e-05
2.8442678240242825e-07,8.244577199288206e-07,9.401505159111843e-07,3.126124355416981e-05
2.85636975861125e-07,8.292496255063031e-07,9.325233331535585e-07,3.127327008468161e-05
2.8682172428183685e-07,8.345692828745073e-07,9.248587959221243e-07,3.1265770037155445e-05
2.879773978225229e-07,8.403881884591409e-07,9.171853542669296e-07,3.124003487545828e-05
2.8909971376167133e-07,8.466679906914897e-07,9.095217975023639e-07,3.1197478452820595e-05
2.901847701070197e-07,8.533644414375669e-07,9.018802824281788e-07,3.1139466982017076e-05
2.912293936330044e-07,8.604304467504809e-07,8.942715475348861e-07,3.106726584907929e-05
2.922311676976936e-07,8.678169524602214e-07,8.867106320723439e-07,3.0982131678665255e-05
2.931882573283991e-07,8.754733112295954e-07,8.792196236400524e-07,3.088539169242461e-05
2.9409847427981574e-07,8.833489409101843e-07,8.718256790175628e-07,3.0778444225637024e-05
2.9495858274366796e-07,8.913973518610451e-07,8.645559983084591e-07,3.066271403748664e-05
2.957645511910719e-07,8.99580214539638e-07,8.574329419258217e-07,3.0539563146779e-05
2.9651236599012265e-07,9.078684717607895e-07,8.5047098771878e-07,3.0410165534442082e-05
2.972004736174552e-07,9.162401020597702e-07,8.436759168917844e-07,3.027539477433532e-05
2.978324726595845e-07,9.246746633078121e-07,8.370465055131151e-07,3.013580068667505e-05
2.984157089380789e-07,9.331473882118984e-07,8.305772580215369e-07,2.9991731415904352e-05
2.989570577803294e-07,9.416275343461563e-07,8.242596525117185e-07,2.984354423080739e-05
2.994620371570081e-07,9.500833056650465e-07,8.180822071138983e-07,2.9691735973739062e-05
2.9993736794773484e-07,9.584927733138578e-07,8.120316192736607e-07,2.953690957908314e-05
3.003912282254719e-07,9.668537429018857e-07,8.060948756485327e-07,2.937965346652481e-05
3.008301181815145e-07,9.7518313954722e-07,8.002600885373238e-07,2.922041899944019e-05
3.0125662601925483e-07,9.835066132732278e-07,7.945161082704092e-07,2.905948928221676e-05
3.016696760375913e-07,9.918461540435916e-07,7.888532479973708e-07,2.8897153626482373e-05
3.0206548910176693e-07,1.0002113532222174e-06,7.832652151395741e-07,2.8734039961110247e-05
3.0243841776015127e-07,1.0085970194346463e-06,7.777508456436386e-07,2.8571381433007756e-05
3.02781688019504e-07,1.0169865563782287e-06,7.723143037686577e-07,2.8411072341450843e-05
3.030886344184981e-07,1.025357734230031e-06,7.66962948853292e-07,2.825554166954292e-05
3.033553010863428e-07,1.033685999586917e-06,7.6170566972867e-07,2.8107501938624776e-05
3.035825016467092e-07,1.04194300629727e-06,7.56553952981774e-07,2.796963231304702e-05
3.0377472534619175e-07,1.050094776022398e-06,7.515231001789187e-07,2.784430872584005e-05
3.039377338169382e-07,1.0581029849058502e-06,7.466318969863658e-07,2.7733488519596907e-05
3.040780466709996e-07,1.0659277195705198e-06,7.419020173804232e-07,2.763881879519853e-05
3.0420335525281856e-07,1.0735300260843042e-06,7.373571916975243e-07,2.7561970425235472e-05
3.043218454465668e-07,1.080871701280642e-06,7.330207582815704e-07,2.750498379409077e-05
3.044420437839749e-07,1.0879124131634242e-06,7.289115674517045e-07,2.747031627918503e-05
3.045739341502123e-07,1.0946101752363593e-06,7.250408042602169e-07,2.746056779925586e-05
3.047283039677118e-07,1.100925852219068e-06,7.214122319970874e-07,2.747809531218765e-05
3.0491432733644056e-07,1.1068249001255363e-06,7.180238814007396e-07,2.7524717324327666e-05
3.051388863995869e-07,1.1122747302518385e-06,7.148680906602123e-07,2.760172714405295e-05
3.05407395837149e-07,1.1172430502185571e-06,7.119321785113742e-07,2.771025292587829e-05
3.057237525169418e-07,1.121699461146632e-06,7.092038261118301e-07,2.7851618354494983e-05
3.0609008517517525e-07,1.1256163859476498e-06,7.066787239013652e-07,2.802739219165776e-05
3.065071104570145e-07,1.1289671829426876e-06,7.04364127609232e-07,2.8239188814928382e-05
3.069742793799599e-07,1.1317245016362144e-06,7.02277550175369e-07,2.848840960204201e-05
3.074905045361708e-07,1.133860286972527e-06,7.004434414278422e-07,2.877601658172838e-05
3.080552357827098e-07,1.135345558252765e-06,6.988882088767863e-07,2.910236994824975e-05
3.0866740814169934e-07,1.1361496703147494e-06,6.976348073490295e-07,2.9467157643238416e-05
3.093233108363131e-07,1.1362401568242859e-06,6.967004243494163e-07,2.986942275240677e-05
3.1001652973901865e-07,1.1355835264113642e-06,6.960980997267486e-07,3.0307646442045496e-05
3.107395073896649e-07,1.1341467880744332e-06,6.958399654472199e-07,3.0779829794132744e-05
3.114843880070713e-07,1.1318998379956776e-06,6.959397790740799e-07,3.128354760410176e-05
3.122427849742121e-07,1.1288194971021022e-06,6.964121733658544e-07,3.1815982132535204e-05
3.130055754311161e-07,1.124893195604235e-06,6.972672123615651e-07,3.2373958070014365e-05
3.13763160512699e-07,1.1201179600439748e-06,6.985043090748153e-07,3.295399534110749e-05
3.1450624757670997e-07,1.1144956971371804e-06,7.001106395560147e-07,3.355239125662186e-05
3.1522819804176357e-07,1.1080308980548383e-06,7.020633535119028e-07,3.4165317782811176e-05
3.159280329504469e-07,1.100732785860852e-06,7.043331363940807e-07,3.478889481235904e-05
3.166101534400676e-07,1.0926176845027072e-06,7.068878691157185e-07,3.5419244256235884e-05
3.1728086856177805e-07,1.0837086766187322e-06,7.096945863154299e-07,3.605254429415153e-05
3.1794620363487767e-07,1.0740343100601158e-06,7.127198405471743e-07,3.6685037937791104e-05
3.18611712156208e-07,1.0636273803385356e-06,7.159306719324372e-07,3.7312969327658116e-05
3.1928183983405554e-07,1.0525224999649908e-06,7.192983449093968e-07,3.793250093013941e-05
3.199587091322464e-07,1.0407535013648387e-06,7.228033874257724e-07,3.853968685220071e-05
3.206421772473673e-07,1.028353392336829e-06,7.264352971095233e-07,3.913054937892554e-05
3.213319521602544e-07,1.0153573132092837e-06,7.301851304159539e-07,3.970123309866819e-05
3.220294945091489e-07,1.0018073667358428e-06,7.340389925750015e-07,4.0248167095701565e-05
3.227371935495532e-07,9.877572450273148e-07,7.37978942867824e-07,4.076816609476172e-05
3.234564044151761e-07,9.732724365064158e-07,7.419884072524808e-07,4.1258411477069455e-05
3.241869352287781e-07,9.584239030467285e-07,7.460553955519159e-07,4.171633094999471e-05
3.249273237378984e-07,9.432802383763776e-07,7.501708761154953e-07,4.213947647085726e-05
3.25674715141462e-07,9.279039403636032e-07,7.543248580487707e-07,4.252548826268285e-05
3.2642518574270247e-07,9.123508598135405e-07,7.585037785639233e-07,4.287216953005263e-05
3.271749754070842e-07,8.966708796031477e-07,7.626909200828037e-07,4.317764858604121e-05
3.2792154058360556e-07,8.809098348281359e-07,7.668706133949111e-07,4.3440577056530094e-05
3.2866360138714225e-07,8.65110306350952e-07,7.710340258186977e-07,4.3660275919686735e-05
3.294007552562216e-07,8.493097161187567e-07,7.751812768607459e-07,4.3836755108690946e-05
3.301334953980427e-07,8.335390216729462e-07,7.793181476612165e-07,4.397062343630479e-05
3.3086288894958337e-07,8.178246449770543e-07,7.83450411694361e-07,4.4062999570971065e-05
3.315893826892478e-07,8.021912678383399e-07,7.875806525747574e-07,4.4115538258935294e-05
3.323125411737111e-07,7.866635922460337e-07,7.917107414677362e-07,4.413054815054144e-05
3.330322921245097e-07,7.712697766523716e-07,7.958463221571004e-07,4.4111064103565614e-05
3.337497560476797e-07,7.560475652842396e-07,7.999977038977027e-07,4.406078540896042e-05
3.3446789698570446e-07,7.410490931187351e-07,8.041777436658599e-07,4.3983892259630264e-05
3.351925156462012e-07,7.263408091065015e-07,8.083995156199048e-07,4.388481711427637e-05
3.359313536065221e-07,7.11997479547742e-07,8.126735360241703e-07,4.3768036188500843e-05
3.366919700792132e-07,6.980921244944675e-07,8.170040092726141e-07,4.363788910232328e-05
3.3748144031513984e-07,6.846885802836992e-07,8.213866281898072e-07,4.3498447396267815e-05
3.3830726733790304e-07,6.718418004672254e-07,8.258098839481456e-07,4.3353509210411545e-05
3.391772771888018e-07,6.596020411021058e-07,8.302566539321356e-07,4.3206763124720614e-05
3.400982548234969e-07,6.480161122921408e-07,8.347034621138142e-07,4.306197659024506e-05
3.4107455634853593e-07,6.371244253396944e-07,8.391200390072828e-07,4.2922949238617654e-05
3.421073525045165e-07,6.26956953037133e-07,8.434710002085795e-07,4.279318424667944e-05
3.43194213632443e-07,6.175307987540696e-07,8.477179057464953e-07,4.267551052349488e-05
3.4432958172384035e-07,6.088501927139996e-07,8.518202469514041e-07,4.257193255106443e-05
3.455063551138577e-07,6.00908351230615e-07,8.55735975054586e-07,4.248387058973924e-05
3.467171727398121e-07,5.936895217479405e-07,8.594226822622999e-07,4.2412715860705484e-05
3.4795520025444717e-07,5.871701182623331e-07,8.628388557737913e-07,4.2360361236614095e-05
3.492160376145582e-07,5.813199952890523e-07,8.659438226164025e-07,4.232942511905632e-05
3.5049993740619047e-07,5.761052331074269e-07,8.686974279980837e-07,4.232321249852214e-05
3.5181148476213765e-07,5.714908188776896e-07,8.7106087177897e-07,4.23455793027293e-05
3.531573184159739e-07,5.674404491094764e-07,8.729980390470053e-07,4.240074067671013e-05
3.545444042585846e-07,5.639147471119196e-07,8.744775450182361e-07,4.249300779975595e-05
3.5597847337252325e-07,5.608706668909881e-07,8.75475585448855e-07,4.262651024478335e-05
3.574622329508094e-07,5.582616708348024e-07,8.759782520136586e-07,4.280499493442286e-05
3.58995282218085e-07,5.560378625964001e-07,8.759823654878233e-07,4.3031720366716495e-05
3.6057550387857726e-07,5.541467385874982e-07,8.75492920947148e-07,4.330938830587816e-05
3.622000652475893e-07,5.525351666550727e-07,8.745174581848417e-07,4.36400510526361e-05
3.6386670000724423e-07,5.5115198591127e-07,8.730618505920904e-07,4.402496344909807e-05
3.6557564808049186e-07,5.499489834780786e-07,8.71129187949157e-07,4.446440184373869e-05
3.673300212369425e-07,5.488795639589512e-07,8.687199213325201e-07,4.495754256488375e-05
3.691335442815053e-07,5.478982161219713e-07,8.65832625563764e-07,4.550245409169558e-05
3.70987753642457e-07,5.469632278060032e-07,8.624656239416399e-07,4.6096153905683866e-05
3.7289136046495037e-07,5.460402819761356e-07,8.586185610865255e-07,4.673472789489983e-05
3.748415809623337e-07,5.451035112982206e-07,8.542923979275064e-07,4.7413553238349184e-05
3.768346655789864e-07,5.441349652656179e-07,8.494881720852185e-07,4.8127566602888626e-05
3.788649625079186e-07,5.43124646647085e-07,8.4420688311577e-07,4.887150038144545e-05
3.8092435609257977e-07,5.420706290970889e-07,8.384528281792295e-07,4.9640065760380545e-05
3.830028205115467e-07,5.409775982248168e-07,8.322401288199794e-07,5e-06
3.85089121655568e-07,5.398529434088628e-07,8.255983009053818e-07,5e-06
3.8717113212044313e-07,5.387032182039954e-07,8.185724537821629e-07,5e-06
3.8923654306932786e-07,5.375345077684558e-07,8.112177862349893e-07,5e-06
3.9127361796951494e-07,5.363545260371178e-07,8.035924181004451e-07,5e-06
3.9327094066954756e-07,5.351722419574857e-07,7.957553067593121e-07,5e-06
3.9521789909887274e-07,5.339955574913518e-07,7.877721060794817e-07,5e-06
3.971072125660414e-07,5.328299357332457e-07,7.79721536274902e-07,5e-06
3.9893620359772186e-07,5.31678146489529e-07,7.716929625164466e-07,5e-06
4.0070415732278745e-07,5.305405544063299e-07,7.637764290384156e-07,5e-06
4.024085490456956e-07,5.294164244989751e-07,7.56053147142763e-07,5e-06
4.0404369778307526e-07,5.283047672971401e-07,7.48590438782792e-07,5e-06
4.056012209680833e-07,5.27203799035917e-07,7.414404637382645e-07,5e-06
4.0707050538350156e-07,5.261105149423157e-07,7.346413822466156e-07,5e-06
4.084396732494273e-07,5.250201647198633e-07,7.282203292168022e-07,5e-06
4.0969716465054476e-07,5.23925420965432e-07,7.22197892673379e-07,5e-06
4.1083323181678244e-07,5.228167268415034e-07,7.165930435592176e-07,5e-06
4.118408468080954e-07,5.216846948608689e-07,7.114280871675536e-07,5e-06
4.127152218173504e-07,5.205246229615964e-07,7.067325548955181e-07,5e-06
4.1345319549671847e-07,5.193398067781831e-07,7.025422428979983e-07,5e-06
4.140536552505522e-07,5.181392856625228e-07,6.988928997454604e-07,5e-06
4.1451744551752244e-07,5.169321535688286e-07,6.958161144612728e-07,5e-06
4.148473076405622e-07,5.157243855399498e-07,6.933453575514686e-07,5e-06
4.150488647786469e-07,5.145201649321114e-07,6.915265890499321e-07,5e-06
4.151302922951923e-07,5.133240891580315e-07,6.904178927536256e-07,5e-06
4.1510023322432884e-07,5.121415275791328e-07,6.900753975556613e-07,5e-06
4.149659908228832e-07,5.109800751901379e-07,6.905388185962029e-07,5e-06
4.14732398860972e-07,5.098528325903224e-07,6.918262767537108e-07,5e-06
4.144014363782578e-07,5.087786173732264e-07,6.939365402760988e-07,5e-06
4.1397269604423617e-07,5.07778408357856e-07,6.968526791059278e-07,5e-06
4.1344379645189703e-07,5.068731530380154e-07,7.005436958739157e-07,5e-06
4.1281059266334637e-07,5.060859476123842e-07,7.049649208927178e-07,5e-06
4.1206808296474103e-07,5.054459339354168e-07,7.100595182617152e-07,5e-06
4.112113827375362e-07,5.049882262283823e-07,7.157625141326645e-07,5e-06
4.102357758836789e-07,5.047504035419521e-07,7.220070037371219e-07,5e-06
4.0913701204638674e-07,5.047717043083059e-07,7.287297337846415e-07,5e-06
4.079119230308674e-07,5.050924220520012e-07,7.358734888175567e-07,5e-06
4.065579457118503e-07,5.057478862986807e-07,7.433870137974211e-07,5e-06
4.050730938646853e-07,5.067617251911382e-07,7.512244355075e-07,5e-06
4.0345808155650246e-07,5.081442195170814e-07,7.593439608196666e-07,5e-06
4.017178123076008e-07,5.09894931941881e-07,7.677044372862431e-07,5e-06
3.998598606739592e-07,5.120072270794707e-07,7.762613818927091e-07,5e-06
3.978920163579729e-07,5.144730274232435e-07,7.849656618538606e-07,5e-06
3.9582098767632493e-07,5.172868895331242e-07,7.93764765841778e-07,5e-06
3.9365242744314815e-07,5.204488591773771e-07,8.026042889806019e-07,5e-06
3.9139201035113147e-07,5.23965783400173e-07,8.114278057016592e-07,5e-06
3.8904668252620274e-07,5.278513700374284e-07,8.20175626064035e-07,5e-06
3.86625260034371e-07,5.321260206407093e-07,8.287854023581834e-07,5e-06
3.841384588269696e-07,5.368176154385312e-07,8.371964612974135e-07,5e-06
3.8159829687354396e-07,5.419604082223872e-07,8.453556443066625e-07,5e-06
3.790171283094739e-07,5.475884925901807e-07,8.53220208533139e-07,5e-06
3.764077187250699e-07,5.537297583467588e-07,8.607561992510277e-07,5e-06
3.737838076341826e-07,5.604072488107171e-07,8.679352820216906e-07,5e-06
3.711597151538271e-07,5.676427320917375e-07,8.747325282932148e-07,5e-06
3.6854955741975203e-07,5.754551220644722e-07,8.811242055819996e-07,5e-06
3.6596619934797116e-07,5.838546991132344e-07,8.870852279331743e-07,5e-06
3.634202053102507e-07,5.928376649539442e-07,8.925879221397989e-07,4.975750462343503e-05
3.6091932363247634e-07,6.023839487552436e-07,8.976022768651575e-07,4.9240124797545944e-05
3.584681203457653e-07,6.12458702934698e-07,9.020961765074436e-07,4.874576130076394e-05
3.560686050336963e-07,6.230173554213215e-07,9.060358157846052e-07,4.827544694791634e-05
3.5372263327812633e-07,6.34013763442103e-07,9.093880861379282e-07,4.782986132063193e-05
3.514350118369194e-07,6.454074870649853e-07,9.121244332457873e-07,4.740919048357298e-05
3.492160264729475e-07,6.571647453841377e-07,9.142228310518357e-07,4.701306724480896e-05
3.470819115051496e-07,6.692525194244285e-07,9.156660271321793e-07,4.664061980256446e-05
3.450520165463281e-07,6.816316566720172e-07,9.164380061401665e-07,4.629054120219922e-05
3.431444805810064e-07,6.942555238280052e-07,9.165215957865644e-07,4.5961132319903856e-05
3.413737011407453e-07,7.070738197269531e-07,9.158984127303957e-07,4.565036733459959e-05
3.397496003646273e-07,7.200375881787581e-07,9.145507444857523e-07,4.535597622917609e-05
3.3827722054270106e-07,7.331061039591329e-07,9.124638860835787e-07,4.507551611364258e-05
3.3695732826172764e-07,7.462537939271113e-07,9.096269844146507e-07,4.4806471765014035e-05
3.3578786608382445e-07,7.594693353502237e-07,9.060320279636477e-07,4.454639599930396e-05
3.3476465127079463e-07,7.727471677728125e-07,9.016731681534993e-07,4.429302836747224e-05
3.3388115049786787e-07,7.860792530134044e-07,8.965482849220674e-07,4.4044335661581125e-05
3.331278539063573e-07,7.994497932299824e-07,8.906615660712376e-07,4.379845343877106e-05
3.324920524486829e-07,8.128323716501422e-07,8.840255707951849e-07,4.3553575860275177e-05
3.319589255894569e-07,8.261893729762705e-07,8.76663653680926e-07,4.3307939592637395e-05
3.315132393534952e-07,8.394726212464881e-07,8.686119215940719e-07,4.3060006263876114e-05
3.311398743048625e-07,8.526252366235623e-07,8.599173095788613e-07,4.280875879336765e-05
3.3082344665666923e-07,8.655862172989124e-07,8.506313209763112e-07,4.25539209818788e-05
3.305491455017437e-07,8.782980796938973e-07,8.408040314484286e-07,4.229596754853324e-05
3.3030441191393854e-07,8.907136874443913e-07,8.304837366532405e-07,4.203594482972127e-05
3.300789363924353e-07,9.027970075805315e-07,8.197216844452692e-07,4.177521510693698e-05
3.2986309387118266e-07,9.145177945579123e-07,8.085758958820209e-07,4.151518787431727e-05
3.2964719710973e-07,9.258449408441816e-07,7.971113686708754e-07,4.125710889734505e-05
3.2942212302780197e-07,9.367430302050352e-07,7.853982704417276e-07,4.100201125172962e-05
3.29180319999092e-07,9.471730247216871e-07,7.735085899052056e-07,4.075076438686209e-05
3.289165312885047e-07,9.57095117518638e-07,7.615125488190799e-07,4.0504116967571056e-05
3.286281187560152e-07,9.664716143018645e-07,7.494770324467035e-07,4.0262821074091836e-05
3.283154589102704e-07,9.752677708521922e-07,7.374644823853591e-07,4.0027813370168155e-05
3.279815283458679e-07,9.834507364445574e-07,7.255310308720544e-07,3.980022689500136e-05
3.276294362881104e-07,9.90989376884327e-07,7.137261855545789e-07,3.9581195267127865e-05
3.272599075309056e-07,9.978551563494915e-07,7.020942899445828e-07,3.937161782374798e-05
3.268713923449446e-07,1.0040217324973128e-06,6.90677329534512e-07,3.9171997992120776e-05
3.264623288476854e-07,1.0094637915111682e-06,6.795199972556113e-07,3.8982360792997556e-05
3.26032833727292e-07,1.0141580918771724e-06,6.686727411106085e-07,3.880223498295529e-05
3.255840131919631e-07,1.0180868758093842e-06,6.581878369469165e-07,3.863069671973745e-05
3.2511632234555867e-07,1.0212405148346174e-06,6.481149283754132e-07,3.846644808411743e-05
3.2462906718821376e-07,1.0236168307371892e-06,6.385066222088419e-07,3.830789194001036e-05
3.241203956503704e-07,1.0252172369830247e-06,6.294312979623572e-07,3.815319326317498e-05
3.235869529344821e-07,1.0260426325186388e-06,6.209799820001895e-07,3.8000341352293154e-05
3.2302457190903745e-07,1.0260916499165592e-06,6.132610165861851e-07,3.7847219719326384e-05
3.2243013116759056e-07,1.02536072823502e-06,6.063867763784765e-07,3.769167525653013e-05
3.218021236297098e-07,1.0238451623220735e-06,6.004601358802935e-07,3.753162987925109e-05
3.211392039439654e-07,1.0215411467073022e-06,5.955669016370911e-07,3.736530247912107e-05
3.2043862083841005e-07,1.0184473255562568e-06,5.917742846579882e-07,3.719146875310396e-05
3.1969616410939906e-07,1.0145642886646172e-06,5.891313437365483e-07,3.7009587466917103e-05
3.189078204138453e-07,1.0098931496701518e-06,5.876716277056803e-07,3.681974646387051e-05
3.180709875860919e-07,1.0044351875397492e-06,5.874190661780827e-07,3.662253210602754e-05
3.1718386057228173e-07,9.981931461772242e-07,5.883926405993784e-07,3.641890635756839e-05
3.1624501263975605e-07,9.911748899700785e-07,5.906063904142267e-07,3.621008024066401e-05
3.152538855860095e-07,9.833983461656505e-07,5.94065774939346e-07,3.5997360382450466e-05
3.1421089186087776e-07,9.748928711369968e-07,5.987629836978971e-07,3.578197626036541e-05
3.1311664112939506e-07,9.656953851194526e-07,6.046751580581719e-07,3.5564907041489945e-05
3.1197061246124957e-07,9.558455356328392e-07,6.117668392183493e-07,3.534676334064317e-05
3.107704987501345e-07,9.453828969553772e-07,6.199928323187934e-07,3.5127785456562324e-05
3.095128193322268e-07,9.343464474456242e-07,6.292988664383122e-07,3.4907971272074564e-05
3.0819412787269376e-07,9.227767081523618e-07,6.3962126828656e-07,3.46873299359457e-05
3.068118610468944e-07,9.10719943472496e-07,6.508868918107559e-07,3.4466194287352555e-05
3.0536424152301347e-07,8.982316604301224e-07,6.630132687195677e-07,3.424540376106781e-05
3.038500280069223e-07,8.85375797531174e-07,6.759088065305553e-07,3.402622263211672e-05
3.022690142330551e-07,8.722188965308756e-07,6.894738367594171e-07,3.381008410263819e-05
3.006230651609467e-07,8.588237404882916e-07,7.036029698772493e-07,3.359837114660553e-05
2.989170800905521e-07,8.452486292663213e-07,7.181871805323565e-07,3.339236421016895e-05
2.9715886649156997e-07,8.315534664214483e-07,7.331150474924189e-07,3.3193332124424234e-05
2.953577497850625e-07,8.178062640714306e-07,7.482750455147643e-07,3.300262516579121e-05
2.93523598563723e-07,8.040853555023479e-07,7.63560962450851e-07,3.282161344598466e-05
2.916664938885297e-07,7.904800699820143e-07,7.788788871974191e-07,3.2651472408833145e-05
2.8979615766084647e-07,7.770905727861884e-07,7.941491204670821e-07,3.249302041734617e-05
2.879221726804685e-07,7.640241398977955e-07,8.093004782424937e-07,3.2346769358824524e-05
2.8605432777890786e-07,7.513883474614701e-07,8.242634948650736e-07,3.221313681957578e-05
2.842011973130303e-07,7.392835836682794e-07,8.389695782403881e-07,3.2092693952089806e-05
2.82368644407009e-07,7.277983790167068e-07,8.53357603111904e-07,3.19863433430482e-05
2.8056011203954225e-07,7.170084953361054e-07,8.673824586910948e-07,3.189535565449238e-05
2.787779906000616e-07,7.06975485030595e-07,8.810173455513949e-07,3.182128353843591e-05
2.770259339123468e-07,6.977437038842986e-07,8.94248562380343e-07,3.176580631310504e-05
2.753113168527479e-07,6.893395746738725e-07,9.070694673336415e-07,3.1730559297281173e-05
2.7364485728916985e-07,6.817746256748222e-07,9.194791530063841e-07,3.171703118308164e-05
2.7203764879359336e-07,6.750513150450346e-07,9.314838295913715e-07,3.172655059500075e-05
2.704989829794104e-07,6.691703008402392e-07,9.430953947347828e-07,3.176029452259399e-05
2.6903550033804213e-07,6.641366761496747e-07,9.543262219625569e-07,3.1819310734280085e-05
2.676507966323681e-07,6.599622602454109e-07,9.65184593526006e-07,3.190459089428063e-05
2.663461960338815e-07,6.566634408013349e-07,9.756740794726176e-07,3.201707699653278e-05
2.6512225245997176e-07,6.542565876056419e-07,9.857944666101447e-07,3.215744591694889e-05
2.6397896461433866e-07,6.527531517889409e-07,9.95541447730382e-07,3.232578488996799e-05
2.6291471588475733e-07,6.521558835396754e-07,1.004906695002403e-06,3.252142448747512e-05
2.619255578665092e-07,6.524568002433929e-07,1.0138789341965307e-06,3.2743078012481784e-05
2.610054082036347e-07,6.536372038792461e-07,1.02244478395964e-06,3.2989294384544985e-05
2.601470561526998e-07,6.556705336185356e-07,1.0305908043750893e-06,3.325902847476518e-05
2.5934364557100913e-07,6.585267132146507e-07,1.038308347135453e-06,3.355196587999183e-05
2.585899647705452e-07,6.621734947982018e-07,1.0455999676428832e-06,3.3868449116943717e-05
2.5788339839821684e-07,6.66573063601301e-07,1.052485012484469e-06,3.4209190964469224e-05
2.572244224513161e-07,6.716779677866413e-07,1.0590026313494429e-06,3.4575004223394014e-05
2.566157154698556e-07,6.774301923427408e-07,1.0652100399042268e-06,3.4966638086955104e-05
2.5606059469339993e-07,6.837628685827451e-07,1.071173778008409e-06,3.538470405519248e-05
2.555631327288884e-07,6.906025208966575e-07,1.0769572673135099e-06,3.5829625892375226e-05
2.5512934538322925e-07,6.97870851533368e-07,1.0826120885937091e-06,3.630154767391779e-05
2.547666852311743e-07,7.054858701112121e-07,1.0881751349359907e-06,3.6800190966774464e-05
2.5448172592850597e-07,7.133624201772234e-07,1.0936690700820106e-06,3.7324707066903396e-05
2.542782194223474e-07,7.214128631212486e-07,1.0991044208155857e-06,3.787355720308952e-05
2.541568357068129e-07,7.295487095334064e-07,1.1044820077158216e-06,3.8444450058161684e-05
2.5411591609007175e-07,7.376839925807443e-07,1.1097951165711022e-06,3.903436717608512e-05
2.5415223049027164e-07,7.457395807120001e-07,1.11503174759963e-06,3.963967942227815e-05
2.542622560583922e-07,7.536444399444079e-07,1.1201758510760094e-06,4.025637543349695e-05
2.5444445152869355e-07,7.613329268763567e-07,1.1252076236135829e-06,4.088038469583804e-05
2.5470098266113557e-07,7.687426748816239e-07,1.1301058218251022e-06,4.1507858066431054e-05
2.5503746733106517e-07,7.758157186153151e-07,1.1348527670548638e-06,4.2135297791859526e-05
2.554615743618311e-07,7.82500357815999e-07,1.1394395410469644e-06,4.275958064399591e-05
2.5598165399145324e-07,7.887514327018569e-07,1.1438701482604752e-06,4.337795114093764e-05
2.5660580395756586e-07,7.945304767859569e-07,1.1481633007784791e-06,4.3987980664401034e-05
2.5734157434907805e-07,7.998066004883248e-07,1.152347253493984e-06,4.458744840584464e-05
2.581954305856754e-07,8.045576388495026e-07,1.1564477384538909e-06,4.517415545722011e-05
2.5917176221013865e-07,8.087724900301062e-07,1.160478932775869e-06,4.574575083308332e-05
2.6027269079428053e-07,8.124527350998287e-07,1.1644437778154042e-06,4.629965456363849e-05
2.614982221628808e-07,8.156098287020601e-07,1.1683379552254605e-06,4.683314259285469e-05
2.628461083622703e-07,8.18259125990242e-07,1.1721505980183869e-06,4.73435549659477e-05
2.6431235920029047e-07,8.204149587216173e-07,1.1758619162276794e-06,4.782845544015968e-05
2.65891750933476e-07,8.220888317400464e-07,1.1794421207079887e-06,4.828565480598164e-05
2.675772223800008e-07,8.232917858912642e-07,1.182853847478277e-06,4.871319020752823e-05
2.69359782318095e-07,8.24041082582357e-07,1.1860558661389343e-06,4.91093535222628e-05
2.7123020426996287e-07,8.24366424975493e-07,1.189005206668683e-06,4.947274529587365e-05
2.731809989487077e-07,8.243091783195913e-07,1.1916572393612587e-06,4.98022696984417e-05
2.7520702157110305e-07,8.239147858724756e-07,1.1939663444228016e-06,5e-06
2.7730407503864825e-07,8.23225351036638e-07,1.1958889624236334e-06,5e-06
2.794661905532134e-07,8.222785217552267e-07,1.1973850114055813e-06,5e-06
2.8168439606182645e-07,8.211111201012423e-07,1.1984152895046456e-06,5e-06
2.839486988990294e-07,8.197606452154873e-07,1.1989393232005074e-06,5e-06
2.862507271984794e-07,8.182629803446385e-07,1.1989163891488308e-06,5e-06
2.8858369436837094e-07,8.166497212610873e-07,1.1983078076713442e-06,5e-06
2.909401700924677e-07,8.14946139488046e-07,1.1970778567857045e-06,5e-06
2.9331043746417487e-07,8.131699127998718e-07,1.1951928519089149e-06,5e-06
2.9568326562181265e-07,8.113307436861041e-07,1.1926210469961143e-06,5e-06
2.9804849001278117e-07,8.094308189534099e-07,1.1893342757082501e-06,5e-06
3.0039871208946855e-07,8.074684829540871e-07,1.1853091825873178e-06,5e-06
3.027288882995773e-07,8.054448695367753e-07,1.1805279285540932e-06,5e-06
3.050348658428647e-07,8.033670406133339e-07,1.1749808725928958e-06,5e-06
3.073117089002291e-07,8.012446098224651e-07,1.1686712614979615e-06,5e-06
3.095526363398334e-07,7.990865148145356e-07,1.1616178617074293e-06,4.993978194290747e-05
3.1174922588684695e-07,7.969031662831994e-07,1.1538521664180806e-06,4.963420685446462e-05
3.1389337400717895e-07,7.947097610969834e-07,1.1454112231235942e-06,4.930217845422562e-05
3.1598083977178717e-07,7.925271703356836e-07,1.1363309630716022e-06,4.8948040521783364e-05
3.18012494382238e-07,7.903825494780459e-07,1.1266437325093471e-06,4.8576277344147794e-05
3.199911626029624e-07,7.883086732143313e-07,1.1163783626215842e-06,4.819123651118113e-05
3.2191852042835133e-07,7.863388877359612e-07,1.1055609911455324e-06,4.7796874610157614e-05
3.237947611491195e-07,7.84501746180516e-07,1.094218463324407e-06,4.739663238512166e-05
3.256193209089347e-07,7.828212250934553e-07,1.0823843123351136e-06,4.699349725882434e-05
3.273914924356697e-07,7.813208360275711e-07,1.070103927140539e-06,4.659007603995886e-05
3.291102330467478e-07,7.800266433306806e-07,1.0574358273733671e-06,4.618856779059519e-05
3.307729870522872e-07,7.789667348476412e-07,1.0444471624621747e-06,4.579072243076517e-05
3.323749327316752e-07,7.781669973551704e-07,1.0312049490430712e-06,4.539785947922381e-05
3.339097411464961e-07,7.776461448193102e-07,1.0177696228357424e-06,4.501095569341307e-05
3.3537081324430013e-07,7.774137222390826e-07,1.004194397424428e-06,4.46307663948762e-05
3.367512931865964e-07,7.774713750821872e-07,9.905259726951028e-07,4.425793551242237e-05
3.3804349982822534e-07,7.778165539327084e-07,9.768034802635785e-07,4.389307981485033e-05
3.392392906551239e-07,7.784464667789866e-07,9.630580303702808e-07,4.353683793079344e-05
3.4033035905666704e-07,7.793577290197273e-07,9.49313475973125e-07,4.3189882667270786e-05
3.413076479678594e-07,7.805426997118235e-07,9.35587070884544e-07,4.285293796588389e-05
3.4216131021884e-07,7.819883605220495e-07,9.218915413990679e-07,4.2526835853711155e-05
3.428818873005744e-07,7.836795502264879e-07,9.082391837059904e-07,4.221258757669929e-05
3.434616652838584e-07,7.856044797748186e-07,8.946446095030681e-07,4.1911433171471666e-05
3.4389488504700734e-07,7.87757901490708e-07,8.811236378263426e-07,4.1624853447258977e-05
3.441770697833274e-07,7.901376944219497e-07,8.67690004826553e-07,4.135452286453018e-05
3.443047780406981e-07,7.927376741560682e-07,8.54352893519311e-07,4.1102200641528396e-05
3.4427539785688425e-07,7.955441385332141e-07,8.411161476204687e-07,4.086959467809964e-05
3.4408635495653357e-07,7.985394938185091e-07,8.27978664869836e-07,4.065823072316415e-05
3.437348387580166e-07,8.017076521950227e-07,8.149357420356102e-07,4.046933149703858e-05
3.4321949724819325e-07,8.050337659736986e-07,8.019810638698911e-07,4.030369632198064e-05
3.4254358457687425e-07,8.084996104467627e-07,7.891088807965205e-07,4.0161582800993985e-05
3.417161842548279e-07,8.120810736747813e-07,7.763161617066396e-07,4.004263758495049e-05
3.40749780140325e-07,8.157487781659962e-07,7.636039048149766e-07,3.9945928945565556e-05
3.396572237858211e-07,8.194697415420951e-07,7.509764559777652e-07,3.987005137701055e-05
3.384505732443648e-07,8.232090992924548e-07,7.38439749231883e-07,3.981322488579852e-05
3.3714071615238124e-07,8.269302639710544e-07,7.260006740077594e-07,3.977334063016477e-05
3.357370531855688e-07,8.305935159179252e-07,7.136674524397402e-07,3.974797485457129e-05
3.342475962462737e-07,8.341559520538715e-07,7.014497343694294e-07,3.9734435248222354e-05
3.326792885709684e-07,8.375742154895386e-07,6.893591085058133e-07,3.972982800105349e-05
3.3103844955930005e-07,8.40807553832013e-07,6.774096090020169e-07,3.973110999221718e-05
3.293308564461392e-07,8.438185007645694e-07,6.656160105864581e-07,3.973518665954942e-05
3.275610985930344e-07,8.465718099735099e-07,6.539915974946181e-07,3.973908704003053e-05
3.257321733736374e-07,8.490330088808981e-07,6.4254965835004e-07,3.974011182055164e-05
3.2384566279772305e-07,8.51166636140603e-07,6.313090563485122e-07,3.9735877239261977e-05
3.219018664321654e-07,8.529349877641844e-07,6.202993266154444e-07,3.97243146069354e-05
3.199005902199046e-07,8.542984835888438e-07,6.095613968717784e-07,3.970369870689448e-05
3.178437330009972e-07,8.552171690364366e-07,5.991449770584848e-07,3.96727167400956e-05
3.1573802162722945e-07,8.556519666587068e-07,5.891039683631193e-07,3.963052929007681e-05
3.135944532159298e-07,8.555649818766475e-07,5.794894832926854e-07,3.9576729468152e-05
3.1142471184206484e-07,8.549196498173679e-07,5.703435937409177e-07,3.951118247742151e-05
3.0923841346076887e-07,8.536822138374937e-07,5.616984052747717e-07,3.943383081648728e-05
3.0704272620674906e-07,8.518241136308293e-07,5.535809997465976e-07,3.934453111123555e-05
3.048438382257686e-07,8.493224495695058e-07,5.460215360654309e-07,3.9242941448001366e-05
3.0264966738019464e-07,8.461584260181677e-07,5.390595172632928e-07,3.9128479426474745e-05
3.0047099142558216e-07,8.423182942312178e-07,5.327422828026369e-07,3.900038294738182e-05
2.9831909024083573e-07,8.377986786035506e-07,5.271162555233751e-07,3.885792215783534e-05
2.9620305379497825e-07,8.326135191230691e-07,5.222201918196868e-07,3.870077685865536e-05
2.9413037564190606e-07,8.268011204500734e-07,5.180857842739733e-07,3.8529417190453004e-05
2.9210981165077445e-07,8.204280773999315e-07,5.147395422048093e-07,3.834523849954821e-05
2.901530143818101e-07,8.135828005114821e-07,5.121998774186762e-07,3.815042810672896e-05
2.8827400698610284e-07,8.063606617465547e-07,5.104724234010572e-07,3.7947721921995614e-05
2.864878242479323e-07,7.988541453851155e-07,5.095490960606803e-07,3.774010500490294e-05
2.848086473034655e-07,7.911535361119586e-07,5.094123734501147e-07,3.753047701831523e-05
2.832480354480859e-07,7.833507521127497e-07,5.10043026283187e-07,3.732146073458094e-05
2.8181480099433235e-07,7.755397627636298e-07,5.114263831463496e-07,3.711545642732545e-05
2.805158543938853e-07,7.678144216566673e-07,5.13552827993429e-07,3.691475096006849e-05
2.7935600969076417e-07,7.602674531336947e-07,5.164148028202282e-07,3.672150875733477e-05
2.7833727998525657e-07,7.52991180887722e-07,5.200038925958887e-07,3.653769458998704e-05
2.774592565518022e-07,7.460775003015983e-07,5.243072949598389e-07,3.636500111404248e-05
2.7672008809329767e-07,7.396155739622024e-07,5.293050174649393e-07,3.620478040241277e-05
2.7611733654377264e-07,7.336873252123027e-07,5.349724017976772e-07,3.605797698672787e-05
2.756490921658155e-07,7.283618662717875e-07,5.412869011206282e-07,3.592508820225024e-05
2.753143377352308e-07,7.23691497945031e-07,5.482315753241003e-07,3.580616635158986e-05
2.751113413626629e-07,7.197131745964393e-07,5.557914666526657e-07,3.5700851086575456e-05
2.750359896961627e-07,7.164557771003011e-07,5.639471188665655e-07,3.5608434241655826e-05
2.7508225404592557e-07,7.139459315252609e-07,5.726703335878272e-07,3.5527975438616944e-05
2.7524386238135673e-07,7.122062846169466e-07,5.819233759863028e-07,3.5458439178966284e-05
2.7551526734682823e-07,7.112498907771685e-07,5.916610320966571e-07,3.539877379805495e-05
2.758919800767465e-07,7.110792697633135e-07,6.018331071289294e-07,3.534789330189569e-05
2.7637105853882466e-07,7.11694731305086e-07,6.12384820572061e-07,3.5304594389497324e-05
2.769511883831129e-07,7.131069221865255e-07,6.232562643453824e-07,3.526748429945514e-05
2.776324904517282e-07,7.153432030202779e-07,6.34382871994642e-07,3.523499915419192e-05
2.7841613824042394e-07,7.184445699413837e-07,6.456963817890282e-07,3.520550849705648e-05
2.7930241436579884e-07,7.224582519555211e-07,6.571263315838587e-07,3.517740991189851e-05
2.802887505989436e-07,7.274291481038132e-07,6.686030781545918e-07,3.514915582236553e-05
2.813711282481424e-07,7.333902499767173e-07,6.800617590249117e-07,3.5119247386784134e-05
2.825484780352818e-07,7.403548965255723e-07,6.914447867987701e-07,3.5086228642586305e-05
2.838264440047428e-07,7.483143008599335e-07,7.027011216061818e-07,3.504867401569383e-05
2.8521695862116106e-07,7.572407470721911e-07,7.137858425532004e-07,3.5005186178109335e-05
2.8673374811335357e-07,7.670933045686582e-07,7.246637118897949e-07,3.495444826358705e-05
2.883882731113407e-07,7.778220380470011e-07,7.353122280785359e-07,3.4895324462259554e-05
2.9018876742087104e-07,7.893709407009829e-07,7.457189535998745e-07,3.482691451422158e-05
2.921400129621408e-07,8.016800949171731e-07,7.55874988827138e-07,3.4748483156884754e-05
2.942424022238523e-07,8.146840698272116e-07,7.657699999583942e-07,3.465932703430841e-05
2.96492365113167e-07,8.283075219244897e-07,7.753919911616602e-07,3.455870439598323e-05
2.988846789998926e-07,8.424626661109072e-07,7.847296608366977e-07,3.444586004917113e-05
3.0141375812766546e-07,8.570497904160759e-07,7.93774976128736e-07,3.4320073371244095e-05
3.040723248434352e-07,8.719601019876859e-07,8.025263571855457e-07,3.418066651072901e-05
3.0684978454357014e-07,8.870802875401529e-07,8.109895234494002e-07,3.402701755475481e-05
3.097328200415787e-07,9.022965257049124e-07,8.19172899832862e-07,3.385865801806043e-05
3.127075870891539e-07,9.174968063277157e-07,8.270813089395036e-07,3.3675441912606394e-05
3.1576191524006764e-07,9.325730956920877e-07,8.347126885246677e-07,3.3477728402770193e-05
3.188872441518068e-07,9.474242103988556e-07,8.420579004923162e-07,3.326655768453192e-05
3.2207947924233194e-07,9.619586825650575e-07,8.491016398588231e-07,3.304375570568566e-05
3.253374678547597e-07,9.76095234616685e-07,8.558232990961435e-07,3.2811839936713235e-05
3.286600154711995e-07,9.897588921200985e-07,8.621982722556326e-07,3.257370984782328e-05
3.3204341169005285e-07,1.0028762247957336e-06,8.68200612698965e-07,3.2332248209793595e-05
3.354809093152079e-07,1.0153744100612407e-06,8.738061319078209e-07,3.2089980779499544e-05
3.389644146048084e-07,1.027182393692412e-06,8.789939451817063e-07,3.184890483893513e-05
3.4248588444769465e-07,1.038230519901812e-06,8.837467906467235e-07,3.161048031290836e-05
3.460368658519372e-07,1.0484495805928177e-06,8.880526082073462e-07,3.137568104831704e-05
3.4960807811794053e-07,1.0577716072733575e-06,8.919072864858696e-07,3.1145099766211684e-05
3.5318975989240133e-07,1.0661318113275455e-06,8.953150142845689e-07,3.091918474695063e-05
3.5677138489866683e-07,1.0734702849901385e-06,8.982855617065258e-07,3.069850987970915e-05
3.603403281249101e-07,1.0797335782759778e-06,9.008315202505423e-07,3.0483829205345368e-05
3.6388096407884347e-07,1.0848753471041927e-06,9.029660744494476e-07,3.027588737176397e-05
3.673755568722224e-07,1.0888552689503888e-06,9.047010850082048e-07,3.0075234559692967e-05
3.708055114200245e-07,1.091638129851887e-06,9.060468522765706e-07,2.988224825359532e-05
3.74151862478801e-07,1.0931944174682802e-06,9.07013593684738e-07,2.9697376519627336e-05
3.7739646083334823e-07,1.0935031548810278e-06,9.076140342837186e-07,2.9521489584030828e-05
3.8052350824596274e-07,1.0925580244940122e-06,9.078667047445628e-07,2.935611351240615e-05
3.835207885494103e-07,1.0903730413768893e-06,9.077994461299486e-07,2.920337019067181e-05
3.8638159945553064e-07,1.086981337766377e-06,9.074513552437395e-07,2.906572856562755e-05
3.8910548444521253e-07,1.0824273671462579e-06,9.068692406454895e-07,2.8945776271968128e-05
3.9169674637310313e-07,1.0767604791933642e-06,9.060983603495846e-07,2.8846043541565e-05
3.941633257661413e-07,1.0700342250775582e-06,9.051740003761337e-07,2.8768836079583587e-05
3.9651560912838284e-07,1.0623068411885808e-06,9.041199948457092e-07,2.8716105087744622e-05
3.987640024366475e-07,1.053639331546017e-06,9.029532588206176e-07,2.8689368952894386e-05
4.009178523679323e-07,1.0440935934995466e-06,9.016884359811363e-07,2.8689627097161548e-05
4.029865603103765e-07,1.0337328747266164e-06,9.00339357837714e-07,2.8717267670844517e-05
4.0498025032815006e-07,1.022622737687574e-06,8.989195863796927e-07,2.8772102112469506e-05
4.069088080385656e-07,1.0108307519849271e-06,8.974443822664706e-07,2.8853589459783613e-05
4.0878020481608245e-07,9.984271241975685e-07,8.959328370810171e-07,2.8961124755061475e-05
4.105987323966312e-07,9.854867881216848e-07,8.944075760269779e-07,2.9094245785474702e-05
4.1236371893036025e-07,9.720887534816148e-07,8.928915809579191e-07,2.925270988659886e-05
4.1406947921665103e-07,9.583110113271186e-07,8.914055990714036e-07,2.943644587290086e-05
4.157061494581489e-07,9.442248689258579e-07,8.899692417646088e-07,2.964541350347254e-05
4.172607334078097e-07,9.29892651336478e-07,8.886044383138286e-07,2.98794513620032e-05
4.1871873590455093e-07,9.153695794539741e-07,8.873372294328248e-07,3.0138209648058826e-05
4.200660406764787e-07,9.007091534562444e-07,8.861948128474844e-07,3.0421176918665003e-05
4.212895163843886e-07,8.859708051621843e-07,8.8520203623681e-07,3.072771676208542e-05
4.223763679906455e-07,8.712271074608435e-07,8.843834018323395e-07,3.105704285977372e-05
4.2331386431863753e-07,8.565661849740682e-07,8.837667610100157e-07,3.140811896744291e-05
4.2409031336197366e-07,8.420874224046532e-07,8.833848649741422e-07,3.177952234041772e-05
4.246963264503051e-07,8.278939571641775e-07,8.832779040694874e-07,3.216935913704348e-05
4.251247480451388e-07,8.14085456797852e-07,8.83496100465918e-07,3.257533635515524e-05
4.253694392486486e-07,8.007516495792134e-07,8.840982214293268e-07,3.29949952527008e-05
4.2542476344926297e-07,7.879682849721804e-07,8.851472727501318e-07,3.3425953343387536e-05
4.252859823082586e-07,7.757965530762372e-07,8.867068942322331e-07,3.3866029514282434e-05
4.249494268131879e-07,7.642831819025254e-07,8.888377207937256e-07,3.4313286464166294e-05
4.24413261148741e-07,7.534598911408244e-07,8.915909293460657e-07,3.476606361054879e-05
4.236790101231394e-07,7.433437701046432e-07,8.950013441222147e-07,3.5223032359350095e-05
4.2275110914075226e-07,7.339386485607285e-07,8.990854764223806e-07,3.5683250732063296e-05
4.216347355966224e-07,7.252362238692309e-07,9.038435213233132e-07,3.614613904682933e-05
4.203357690638154e-07,7.172171844662281e-07,9.092601740799313e-07,3.661134275478956e-05
4.188627501720417e-07,7.098534081200733e-07,9.153045669637232e-07,3.707849906179662e-05
4.172274561208861e-07,7.0311227047057e-07,9.219331478180571e-07,3.754694237547019e-05
4.154436749122529e-07,6.969637030262736e-07,9.290942287745208e-07,3.8015496355580506e-05
4.1352532441030313e-07,6.913869173417039e-07,9.36729352665724e-07,3.8482502541507094e-05
4.1148452408522345e-07,6.863718008921493e-07,9.44771512901162e-07,3.8946012601309694e-05
4.093313219524522e-07,6.819164887948901e-07,9.531447525013752e-07,3.940394969667193e-05
4.0707516113436816e-07,6.780266911311658e-07,9.617669687817524e-07,3.985413859614286e-05
4.0472518418968027e-07,6.747146484472592e-07,9.705542642420428e-07,4.0294235411298105e-05
4.022890009386266e-07,6.719927560236619e-07,9.794245576975555e-07,4.072165914876056e-05
3.997723709658507e-07,6.698670935531178e-07,9.882992305564823e-07,4.113360906644379e-05
3.971800989412625e-07,6.683365292977568e-07,9.971044555424756e-07,4.1527184247278584e-05
3.9451716163856907e-07,6.673924788604356e-07,1.005773912293308e-06,4.189958703393868e-05
3.9178924896850135e-07,6.670161508368914e-07,1.0142506890862137e-06,4.224841179600805e-05
3.890018925854152e-07,6.671776860795427e-07,1.022485335877604e-06,4.2572041590634526e-05
3.8615908004029204e-07,6.678400807280783e-07,1.0304314668323805e-06,4.287005097638101e-05
3.832625836920114e-07,6.689675180973786e-07,1.0380428025734514e-06,4.314332236175385e-05
3.803119976069054e-07,6.70535402172781e-07,1.0452721542110342e-06,4.339367518741218e-05
3.7730521907699043e-07,6.725372548001239e-07,1.0520709599301297e-06,4.3623171713410966e-05
3.742391185885583e-07,6.74985627438593e-07,1.0583895196793447e-06,4.383350771538751e-05
3.71110573372333e-07,6.779058417278869e-07,1.064178348357081e-06,4.402575973817492e-05
3.6791826489643226e-07,6.813242918961324e-07,1.0693921019309052e-06,4.420041293642789e-05
3.646646911257827e-07,6.852596554481963e-07,1.073997594571427e-06,4.435746576814714e-05
3.6135715092430076e-07,6.897212638292221e-07,1.0779818555122313e-06,4.4496532893103494e-05
3.5800775387744753e-07,6.947087886877133e-07,1.0813516038652014e-06,4.461696000924295e-05
3.546333727431346e-07,7.00211123228459e-07,1.084122193945548e-06,4.4717980241887077e-05
3.512547676611283e-07,7.062076769067449e-07,1.086306605292689e-06,4.479892306533133e-05
3.4789435526192175e-07,7.126703622824398e-07,1.0879154239945708e-06,4.4859427173046554e-05
3.445741962529521e-07,7.195642741165493e-07,1.0889662474699251e-06,4.489957866004471e-05
3.413147573737389e-07,7.268492701081787e-07,1.0894936433360769e-06,4.491993495462225e-05
3.3813351739001433e-07,7.344817314690427e-07,1.089553807708477e-06,4.492145924903062e-05
3.3504359957126305e-07,7.424139356430476e-07,1.0892230021018274e-06,4.490540624157049e-05
3.3205371818228223e-07,7.505927641489444e-07,1.0885917719444777e-06,4.487315619613103e-05
3.291702805309288e-07,7.589607633031923e-07,1.087756798265904e-06,4.482599292978527e-05
3.264001761883335e-07,7.674612770040282e-07,1.0868109766703966e-06,4.4764910161095566e-05
3.2375141613926103e-07,7.760480898160184e-07,1.085833914351715e-06,4.469055900094219e-05
3.2123230192543247e-07,7.846954707234416e-07,1.0848870969030614e-06,4.460329581750639e-05
3.1885217771642754e-07,7.93400853531812e-07,1.0840146326868356e-06,4.450319414153467e-05
3.166235540722957e-07,8.021763228098116e-07,1.0832454113169135e-06,4.439002529470403e-05
3.145631060402625e-07,8.110343941905315e-07,1.0825942606840106e-06,4.426328407447519e-05
3.126904302414373e-07,8.199788596901842e-07,1.0820630212228457e-06,4.412224199812119e-05
3.1102572175304944e-07,8.290047860056971e-07,1.081641926689903e-06,4.3966020433144284e-05
3.095878537723524e-07,8.381012534737092e-07,1.0813120827342695e-06,4.3793729657971656e-05
3.0839321234725214e-07,8.472510293762324e-07,1.0810511225038292e-06,4.360465799203503e-05
3.074559679711697e-07,8.564284657403243e-07,1.080842202858482e-06,4.339842283915216e-05
3.067889002341383e-07,8.655983044616647e-07,1.0806813939586675e-06,4.31749969653689e-05
3.0640217304918666e-07,8.74715934582491e-07,1.080577594821042e-06,4.2934591963011296e-05
3.063008571623601e-07,8.837291081979813e-07,1.080545490327685e-06,4.267747026354362e-05
3.064837710532509e-07,8.925805453765288e-07,1.080596858791791e-06,4.2403787075921365e-05
3.069441987414142e-07,9.012101200973052e-07,1.0807352390875494e-06,4.211352035794977e-05
3.076718517387436e-07,9.095557417592755e-07,1.0809571816142722e-06,4.1806484098917703e-05
3.0865443423611657e-07,9.175533720318859e-07,1.0812581889555606e-06,4.148237814753078e-05
3.098782856220763e-07,9.251378380559484e-07,1.0816364560874494e-06,4.1140843198147476e-05
3.113293337249432e-07,9.322455922392113e-07,1.0820914638607238e-06,4.0781559145921006e-05
3.1299378923234345e-07,9.388186025661274e-07,1.082620180080385e-06,4.0404401091358566e-05
3.148576109786984e-07,9.44806392695672e-07,1.083212775290978e-06,4.000954968820106e-05
3.1690589781902754e-07,9.501641018726048e-07,1.0838490797320295e-06,3.9597474533851016e-05
3.191227641940552e-07,9.54848832667906e-07,1.0844979381932305e-06,3.916883656649687e-05
3.2149079599048065e-07,9.588187800069126e-07,1.0851192759556513e-06,3.87243779464935e-05
3.2399022261096157e-07,9.620373445807351e-07,1.0856665626350308e-06,3.826482735680679e-05
3.265986746674867e-07,9.64478982451917e-07,1.0860889644526098e-06,3.779084912031945e-05
3.29291415455563e-07,9.661304865664092e-07,1.0863340136105995e-06,3.730304426993077e-05
3.320420786891324e-07,9.669864879554934e-07,1.0863511787281714e-06,3.680196481072289e-05
3.348249572859109e-07,9.670447853140751e-07,1.0860952197239008e-06,3.628815599224011e-05
3.3761821707492125e-07,9.663069096473724e-07,1.0855272467633249e-06,3.576231140537513e-05
3.404047946371754e-07,9.647824267044469e-07,1.0846129496962844e-06,3.5225530345680474e-05
3.431699503346525e-07,9.62490436339192e-07,1.083321218514162e-06,3.4679539213641414e-05
3.458986812540545e-07,9.594560376859779e-07,1.0816266288767142e-06,3.4126755429131974e-05
3.485754227413011e-07,9.557060296942858e-07,1.0795125038053305e-06,3.357017487703861e-05
3.5118496412409573e-07,9.512681936468704e-07,1.0769708089771472e-06,3.3013124782075315e-05
3.537134965352249e-07,9.461742744876905e-07,1.0740028013800185e-06,3.245895641730733e-05
3.561509980866642e-07,9.404628006125178e-07,1.0706231016985115e-06,3.191084139850543e-05
3.584948177097854e-07,9.341788509179722e-07,1.0668626625492157e-06,3.137178126330676e-05
3.6075052174090155e-07,9.27371183976354e-07,1.0627657695433806e-06,3.0844707937906754e-05
3.6292785914640265e-07,9.200876715946272e-07,1.058383035815677e-06,3.0332528215943733e-05
3.650360413565445e-07,9.123710762793566e-07,1.0537653012937046e-06,2.983809922296109e-05
3.670830338967332e-07,9.042581546291664e-07,1.0489583662630778e-06,2.9364131627124248e-05
3.6907841435021364e-07,8.957822536337539e-07,1.0439980173567345e-06,2.8913040926289476e-05
3.7103624688944246e-07,8.869766370072789e-07,1.0389077900123828e-06,2.8486855305446186e-05
3.7297497193135377e-07,8.778757181178827e-07,1.0336999112237464e-06,2.808720095395719e-05
3.7491501029207726e-07,8.685135439703846e-07,1.028378486365507e-06,2.7715256566981597e-05
3.768769070883429e-07,8.589217174908807e-07,1.0229441701997421e-06,2.7371682299347198e-05
3.788799967931346e-07,8.49129132510153e-07,1.0173988495411085e-06,2.705664845200193e-05
3.8094016026241824e-07,8.391628090961769e-07,1.0117492895348451e-06,2.677000105927953e-05
3.830672262288504e-07,8.290475137601185e-07,1.0060092659776029e-06,2.651148805665467e-05
3.852639754506847e-07,8.188045652026323e-07,1.0002005522767922e-06,2.628097203626039e-05
3.875285113245321e-07,8.084516623264767e-07,9.943540421368554e-07,2.6078592396588394e-05
3.898591516325632e-07,7.980032220470247e-07,9.885105611817405e-07,2.5904825617675573e-05
3.922580966037655e-07,7.874712634372472e-07,9.82717773492584e-07,2.5760407039732724e-05
3.9473098477993567e-07,7.768679444483693e-07,9.770217720199916e-07,2.5646163117158013e-05
3.9728329456211574e-07,7.662074082885252e-07,9.714589320308242e-07,2.5562839998463724e-05
3.99917383901366e-07,7.555045014969565e-07,9.660531554999063e-07,2.5510967093493755e-05
4.0263230944191843e-07,7.447735923444337e-07,9.608170497971904e-07,2.549078322377789e-05
4.054247198146189e-07,7.340310179584985e-07,9.55754073104604e-07,2.5502269097628838e-05
4.0828940433076686e-07,7.232976256676247e-07,9.508609171654215e-07,2.554526158007311e-05
4.1122048176033923e-07,7.125969032011856e-07,9.461308480945593e-07,2.561954978098527e-05
4.142126311506749e-07,7.019512005111953e-07,9.415571772453804e-07,2.572489179700841e-05
4.172603255177329e-07,6.913808504501788e-07,9.371339751707209e-07,2.586095800076892e-05
4.203557572400874e-07,6.809065385802796e-07,9.328539918395365e-07,2.6027203829502325e-05
4.234880257901889e-07,6.705515357204846e-07,9.287071419203831e-07,2.622270063698693e-05
4.2664397730714266e-07,6.603410405868452e-07,9.246810786217493e-07,2.644605501648197e-05
4.2980831047320053e-07,6.502990470778328e-07,9.207619754927416e-07,2.6695531885390123e-05
4.329622701691741e-07,6.404450445645397e-07,9.169337901911295e-07,2.696930958119176e-05
4.36083316384175e-07,6.307930104974905e-07,9.131768908321968e-07,2.7265705601893368e-05
4.391466343888607e-07,6.213544443931442e-07,9.094689425197577e-07,2.7583318790327893e-05
4.4212684940849456e-07,6.121439362963211e-07,9.057891302675116e-07,2.792110387950731e-05
4.4499908482069434e-07,6.031827797183055e-07,9.021208048646023e-07,2.827836906588125e-05
4.4773955147577467e-07,5.944980035004059e-07,8.984489724583836e-07,2.8654716047434962e-05
4.503259621018283e-07,5.861174594193043e-07,8.947576909849893e-07,2.9049981467121363e-05
4.527381487100194e-07,5.780644267100307e-07,8.910306296639059e-07,2.9464219271533264e-05
4.5495804805555065e-07,5.703563281953284e-07,8.872514526157665e-07,2.98976897284344e-05
4.5696882994136593e-07,5.630066059889526e-07,8.83404149397879e-07,3.0350715508514422e-05
4.587547235412941e-07,5.560248555041854e-07,8.794765080429302e-07,3.082335601746915e-05
4.603015204638121e-07,5.49415603852709e-07,8.754661725664301e-07,3.131509647570195e-05
4.6159687623505276e-07,5.431789250406387e-07,8.713855761650032e-07,3.18247386192893e-05
4.626301697940324e-07,5.373118204047385e-07,8.672609007865196e-07,3.235046845065124e-05
4.633915639359802e-07,5.318083232949316e-07,8.63124261568426e-07,3.288999227371324e-05
4.638709199353767e-07,5.266590678614928e-07,8.590050683343861e-07,3.34406800361688e-05
4.640576930734993e-07,5.218508624679044e-07,8.549250085277682e-07,3.399969867832745e-05
4.639418956081079e-07,5.173660772080525e-07,8.508963301729183e-07,3.456410218273493e-05
4.635151575616333e-07,5.131824846160913e-07,8.46922466847918e-07,3.5130833885192686e-05
4.627715383823221e-07,5.092737851708621e-07,8.429992002527165e-07,3.569667209019641e-05
4.6170970182277403e-07,5.056104526684116e-07,8.391156163318349e-07,3.625823134369404e-05
