5.184672407549711e-07,3.613049338399028e-07,3.5701267983413e-07,1.622174202173967e-05
5.151324236686491e-07,3.575544204991916e-07,3.5873302383109755e-07,1.6443334943107048e-05
5.119700918074298e-07,3.538811220961417e-07,3.6041195476782396e-07,1.6661608414641017e-05
5.089966791832695e-07,3.5029822325881443e-07,3.62030869547401e-07,1.687502201531171e-05
5.06225465403645e-07,3.4681518116304433e-07,3.6357107457039225e-07,1.7082007997143414e-05
5.036667295586099e-07,3.4343886565013423e-07,3.650149162631213e-07,1.7281008929778194e-05
5.013273022278892e-07,3.401749934181759e-07,3.6634710046058153e-07,1.7470552039626756e-05
4.992121300680253e-07,3.370288466722293e-07,3.675539818117409e-07,1.7649301524981934e-05
4.973269249820784e-07,3.3400602597808773e-07,3.6862298452688345e-07,1.7816031372292554e-05
4.956779540510086e-07,3.311131468099141e-07,3.695431908327268e-07,1.7969580051311992e-05
4.94270163444321e-07,3.283578248912736e-07,3.703048326339816e-07,1.8108862758873075e-05
4.931075973821598e-07,3.257482921535043e-07,3.708978916374792e-07,1.823292243137969e-05
4.921952079463673e-07,3.232928204087092e-07,3.713115859391022e-07,1.834099874944852e-05
4.915400170474084e-07,3.2099896024082376e-07,3.7153464159967867e-07,1.8432608006840376e-05
4.911510471489548e-07,3.1887344059525487e-07,3.7155600976583965e-07,1.8507552608526363e-05
4.910369764177363e-07,3.169223129288187e-07,3.713658505272882e-07,1.8565823195030363e-05
4.912027384665912e-07,3.151499606333069e-07,3.709557670485305e-07,1.860750162158249e-05
4.91647067192367e-07,3.135581586586765e-07,3.703181913618785e-07,1.8632726049648453e-05
4.923613919270852e-07,3.1214663023423325e-07,3.694463171668049e-07,1.8641664437058287e-05
4.933316888004628e-07,3.1091372902004874e-07,3.6833491302294564e-07,1.863448727674542e-05
4.945430692340069e-07,3.098557846615861e-07,3.6698107351995297e-07,1.8611367677275492e-05
4.95982888789382e-07,3.089658968203013e-07,3.6538444610304155e-07,1.8572525739625304e-05
4.976400869555639e-07,3.082337751936503e-07,3.635470162251733e-07,1.851835153588993e-05
4.995030755201827e-07,3.076470256950693e-07,3.614730764413601e-07,1.844956387791504e-05
5.015596489491046e-07,3.0719290298401816e-07,3.5916941865659227e-07,1.836726360936084e-05
5.037981294326392e-07,3.0685908703969414e-07,3.5664450568116884e-07,1.8272844102468712e-05
5.06205918901132e-07,3.0663417534068104e-07,3.539069068781557e-07,1.8167879208538602e-05
5.087665200642157e-07,3.0650970229583164e-07,3.509649113657925e-07,1.805405047432576e-05
5.114585600097842e-07,3.0648154393516e-07,3.4782783933779897e-07,1.7933054278405324e-05
5.142560537280049e-07,3.065486585208918e-07,3.445082683140824e-07,1.7806473047785668e-05
5.17128275279988e-07,3.067117336936077e-07,3.410239534653747e-07,1.7675683105262313e-05
5.200399226413398e-07,3.069727876327203e-07,3.373975481005199e-07,1.7541835996733018e-05
5.229525614393657e-07,3.073340807408067e-07,3.336537616650013e-07,1.7405862729197882e-05
5.258274962293442e-07,3.077970269665785e-07,3.2981700104263747e-07,1.7268466766255033e-05
5.286297000123066e-07,3.083626235810542e-07,3.259118564539041e-07,1.7130168220152747e-05
5.313318404701181e-07,3.090321523373202e-07,3.219641127376027e-07,1.6991488767059883e-05
5.33915712455823e-07,3.0980680427161725e-07,3.180003391103402e-07,1.685320497255759e-05
5.363694620147048e-07,3.106872266093844e-07,3.140488683159154e-07,1.6716416762865616e-05
5.386845944276947e-07,3.116731818248793e-07,3.1014312823045375e-07,1.6582386981563854e-05
5.408569502025771e-07,3.127624084729488e-07,3.063224427100406e-07,1.6452479361106888e-05
5.428886571499739e-07,3.1394934982183816e-07,3.026275802957241e-07,1.6328334951754707e-05
5.447864605425122e-07,3.1522583946532326e-07,2.990951651730248e-07,1.6212007292736998e-05
5.465582066924474e-07,3.165843865923509e-07,2.957553401345463e-07,1.6105900645258513e-05
5.482117296650448e-07,3.180204513580293e-07,2.9263249138137603e-07,1.60126266037283e-05
5.497566201504196e-07,3.19531103176064e-07,2.897465405323096e-07,1.5934854273385098e-05
5.512072436128689e-07,3.211129411010313e-07,2.871136677645046e-07,1.5875159188962935e-05
5.525841862088338e-07,3.227618144801936e-07,2.84747513453828e-07,1.5835881914392758e-05
5.539118313094497e-07,3.244736496983816e-07,2.8266125903458163e-07,1.5819009067430928e-05
5.552168231759603e-07,3.262448753613941e-07,2.808692128659813e-07,1.5826085426425774e-05
5.565323239217936e-07,3.280717304786125e-07,2.7938759182261766e-07,1.5858152376823778e-05
5.579009294864132e-07,3.299487318731924e-07,2.782351664046241e-07,1.5915702961870536e-05
5.593679995964129e-07,3.318669552984962e-07,2.774321404449112e-07,1.599866287360181e-05
5.609712698526754e-07,3.338131515281841e-07,2.769960625685831e-07,1.610642095422612e-05
5.627368894290835e-07,3.3577016803881896e-07,2.7693846811548404e-07,1.623790139924722e-05
5.646822775665699e-07,3.3771827546504806e-07,2.7726607640169976e-07,1.6391645880227834e-05
5.668213569305461e-07,3.396370644509485e-07,2.77984703352456e-07,1.6565918314272638e-05
5.691686803605504e-07,3.4150724415142514e-07,2.7910221427360677e-07,1.6758857918072393e-05
5.71739586105254e-07,3.433112827774662e-07,2.8062907169081695e-07,1.6968630499613118e-05
5.74546934027869e-07,3.450331760406271e-07,2.8257560282476806e-07,1.7193510361663293e-05
5.775971543834061e-07,3.4665918208233754e-07,2.84947535051295e-07,1.743190211971409e-05
5.808872511153919e-07,3.4817996864673674e-07,2.877438430249909e-07,1.768234093174946e-05
5.844038959608932e-07,3.495920857088613e-07,2.909573200014241e-07,1.7943472220265624e-05
5.88124866649055e-07,3.508969778290446e-07,2.945759118223719e-07,1.8214007504058632e-05
5.920223245471244e-07,3.520979145884257e-07,2.985845480853127e-07,1.8492688808739933e-05
5.960688402614644e-07,3.531969938461809e-07,3.029670475947989e-07,1.8778275298334644e-05
6.002458890772653e-07,3.5419413099433105e-07,3.0770668276462546e-07,1.906950361080517e-05
6.045485187606226e-07,3.550873661477033e-07,3.1278449712457963e-07,1.9364997739195926e-05
6.089822667671612e-07,3.5587332846419494e-07,3.1817654563617825e-07,1.966319971278798e-05
6.135603277603668e-07,3.5654801113632824e-07,3.2385279561036385e-07,1.996241013228349e-05
6.183052332988564e-07,3.571078616819986e-07,3.2977896595345865e-07,2.0260918786308e-05
6.232456193737489e-07,3.575509522063093e-07,3.359194964067067e-07,2.055710220664273e-05
6.284057666012959e-07,3.578772139408963e-07,3.422392694637949e-07,2.0849418794092144e-05
6.337975086002085e-07,3.5808722005042427e-07,3.487044239443687e-07,2.113636486332595e-05
6.39418310771701e-07,3.5818134755488854e-07,3.5528275430832187e-07,2.1416462088247304e-05
6.45252679605092e-07,3.581614859113775e-07,3.6194239018506215e-07,2.1688252184008847e-05
6.51274790107931e-07,3.580357748119876e-07,3.686493526647302e-07,2.1950288034022728e-05
6.574508225140128e-07,3.5782280419144074e-07,3.753662875700189e-07,2.2201166469186244e-05
6.637406216894868e-07,3.575498469616486e-07,3.8205299929499604e-07,2.2439562954511064e-05
6.700996662427761e-07,3.572459117671001e-07,3.886677132681528e-07,2.266420000264963e-05
6.764813217405811e-07,3.5693587270391495e-07,3.951681122512122e-07,2.287381396185981e-05
6.828383534388705e-07,3.5663860268476855e-07,4.015124829473781e-07,2.3067210156591946e-05
6.891229507019301e-07,3.5636724492346795e-07,4.07661087712161e-07,2.3243388292762328e-05
6.952855038817876e-07,3.56129722614423e-07,4.1357658267808144e-07,2.3401662569846066e-05
7.012743052518541e-07,3.5592946189883826e-07,4.19223560840551e-07,2.354169978175769e-05
7.070375672072513e-07,3.557674195947628e-07,4.2456847466970503e-07,2.366343601492517e-05
7.125252967580751e-07,3.5564476629304206e-07,4.2957977554062777e-07,2.376691955461828e-05
7.176887488795466e-07,3.5556300798909805e-07,4.342282356290046e-07,2.385219947727012e-05
7.22479078026802e-07,3.5552208953763813e-07,4.3848832920562e-07,2.3919332191407238e-05
7.268472604987836e-07,3.555212619588013e-07,4.4234004457797365e-07,2.396842509310535e-05
7.307451656138976e-07,3.55561827997021e-07,4.4576999972481535e-07,2.3999606671814014e-05
7.341267351503984e-07,3.556462675099856e-07,4.487714097335005e-07,2.4012993364987533e-05
7.369486746097863e-07,3.5577447914151613e-07,4.513419806067754e-07,2.400881968705265e-05
7.391710749314148e-07,3.5594194935754327e-07,4.534806027305135e-07,2.398769291080732e-05
7.407583574200933e-07,3.5614034410318385e-07,4.551857591751581e-07,2.395071327623329e-05
7.416800637486737e-07,3.5635911090831144e-07,4.564562037023217e-07,2.3899332981500103e-05
7.419110417229179e-07,3.5658811424983844e-07,4.5729258835790737e-07,2.3835106652445066e-05
7.414311763114982e-07,3.5682002091814926e-07,4.5769885300560286e-07,2.3759508458829115e-05
7.402262039829969e-07,3.570516544564382e-07,4.5768184256991634e-07,2.367389187031402e-05
7.382905433249356e-07,3.572850175944481e-07,4.5724963138517455e-07,2.357966948657068e-05
7.356290241832778e-07,3.575270266762053e-07,4.564110202262685e-07,2.34786436303498e-05
7.322559005628289e-07,3.577878621404964e-07,4.5517624731126425e-07,2.3373193469962115e-05
7.281946185607994e-07,3.580792452672464e-07,4.535569450557802e-07,2.3266181517485417e-05
7.234787538077847e-07,3.5841324274310814e-07,4.5156574727661713e-07,2.3160732680513172e-05
7.181501337209048e-07,3.588027776350389e-07,4.492169435114845e-07,2.3060010299192247e-05
7.122535620277297e-07,3.592640162475021e-07,4.4652669314358303e-07,2.2967004431032515e-05
7.058318065810825e-07,3.598180851106136e-07,4.435117664794864e-07,2.2884382548596523e-05
6.989239010374741e-07,3.6048981396003226e-07,4.401887519775318e-07,2.2814450121400892e-05
6.915673346076434e-07,3.613039299450676e-07,4.3657460067838547e-07,2.2759172771139555e-05
6.838014611315378e-07,3.6228061531101276e-07,4.3268728150185673e-07,2.2720177618092264e-05
6.756680923521582e-07,3.634330027328045e-07,4.2854570941233723e-07,2.269869781910477e-05
6.672096342903225e-07,3.6476911003840427e-07,4.241698554087305e-07,2.2695498884158795e-05
6.584678209458765e-07,3.6629575826437937e-07,4.195821534558246e-07,2.27108954263201e-05
6.49483498253385e-07,3.680187832833103e-07,4.1480864825664464e-07,2.2744861756055235e-05
6.402965436782821e-07,3.6994017682206077e-07,4.0987783814145626e-07,2.2797076439734197e-05
6.309452818882635e-07,3.7205689937925094e-07,4.048180604250065e-07,2.2866885254311693e-05
6.214660622202589e-07,3.743624208867829e-07,3.996556918348087e-07,2.295335649403255e-05
6.118939761038801e-07,3.7684923890740705e-07,3.9441481802711136e-07,2.305545169423502e-05
6.022629745398565e-07,3.79509596269157e-07,3.891172539865471e-07,2.317217073659472e-05
5.926041993306275e-07,3.823337100601738e-07,3.837825655295928e-07,2.33026260915349e-05
5.82944648874242e-07,3.8530877611238365e-07,3.7842838020843727e-07,2.344609247842105e-05
5.733079618189343e-07,3.8842001282358345e-07,3.7307047386622355e-07,2.3602016824475548e-05
5.637164255599516e-07,3.916520809549533e-07,3.677224898164777e-07,2.376994015363342e-05
5.541916050389827e-07,3.949902651443783e-07,3.6239589967358386e-07,2.3949354157179292e-05
5.447525162154955e-07,3.984206860372058e-07,3.5710021154262107e-07,2.4139558460184798e-05
5.354136538378196e-07,4.0192938296203e-07,3.518433879851962e-07,2.4339563485032145e-05
5.261855978945539e-07,4.0550185083749923e-07,3.4663297391303165e-07,2.4548073644466864e-05
5.170783030838018e-07,4.0912372229177474e-07,3.414771499459024e-07,2.476354615116624e-05
5.08104229435635e-07,4.127817982108023e-07,3.363851936914311e-07,2.4984309730134688e-05
4.992786011569149e-07,4.1646382620682953e-07,3.3136886171857874e-07,2.520879387444195e-05
4.906175501123977e-07,4.201568345885385e-07,3.264437057480431e-07,2.5435754657205066e-05
4.821361483414524e-07,4.2384713150598423e-07,3.2162774956913985e-07,2.5664245106313792e-05
4.738472046812411e-07,4.275236113748895e-07,3.169397809438193e-07,2.589342904673917e-05
4.65761031788611e-07,4.311805114168083e-07,3.123995761281536e-07,2.612249810198788e-05
4.5788561269654425e-07,4.3481605820464906e-07,3.080271262519845e-07,2.635068375688787e-05
4.5022701347439117e-07,4.384291038395711e-07,3.038396107392477e-07,2.6577304866884697e-05
4.4279096569581784e-07,4.420166475989234e-07,2.998491019291613e-07,2.680182306578929e-05
4.355853918754546e-07,4.4557227031642257e-07,2.96062411999825e-07,2.702379874361203e-05
4.2862210531717206e-07,4.490854593285291e-07,2.924823144604756e-07,2.7242726881324304e-05
4.2191662646533433e-07,4.525419105881095e-07,2.891102624247281e-07,2.7457885318449994e-05
4.154859652195004e-07,4.559247349926734e-07,2.8594978173414986e-07,2.766829892214092e-05
4.0934504927305773e-07,4.592169946649269e-07,2.8300742298066876e-07,2.7872811988467102e-05
4.035046633018424e-07,4.6240360137811916e-07,2.8029065581390874e-07,2.807023504119226e-05
3.9797389691172277e-07,4.654702423084121e-07,2.7780548399466417e-07,2.8259509916730048e-05
3.927654885727211e-07,4.6840180894289286e-07,2.7555519381132457e-07,2.8439766246339758e-05
3.878978555444564e-07,4.7118378129120073e-07,2.735399914204272e-07,2.8610219281445387e-05
3.8339095106424645e-07,4.738053055701075e-07,2.717578537795756e-07,2.8770073074439343e-05
3.792610472573165e-07,4.7625982410635155e-07,2.7020608158601827e-07,2.8918573518764906e-05
3.755203228814971e-07,4.785425027171489e-07,2.688812806539171e-07,2.9055104605594842e-05
3.721802215797393e-07,4.806481926485204e-07,2.6777766821092644e-07,2.917916618522881e-05
3.692528663906157e-07,4.825722675162543e-07,2.6688648969493696e-07,2.9290273691060777e-05
3.6674842868062077e-07,4.843129519287448e-07,2.661971279836026e-07,2.9387984815478693e-05
3.646720800477135e-07,4.858722829387121e-07,2.6569810759563946e-07,2.9472120622205937e-05
3.6302317986721676e-07,4.872540208148498e-07,2.6537721077167285e-07,2.954292650527564e-05
3.617960786006451e-07,4.884601379900153e-07,2.652213805461317e-07,2.9600940228896386e-05
3.60983254823485e-07,4.894889711327868e-07,2.652173985347656e-07,2.964669073589702e-05
3.6058096104799046e-07,4.903360110340024e-07,2.6535324513840253e-07,2.96804788956018e-05
3.6059269173013626e-07,4.909962132403228e-07,2.6561896513226146e-07,2.970231913379673e-05
3.610276559521522e-07,4.914661704315923e-07,2.660062386107325e-07,2.9711974636814726e-05
3.6189724606053093e-07,4.917444308067986e-07,2.6650749690027817e-07,2.9709007461012226e-05
3.632116411851589e-07,4.918298596481227e-07,2.6711590473771375e-07,2.9692821552908758e-05
3.649767804106826e-07,4.917202266984928e-07,2.6782558140836374e-07,2.966275233903522e-05
3.671928047689703e-07,4.914126567273482e-07,2.6863092688265684e-07,2.9618266314333447e-05
3.6985465874372357e-07,4.90905109440719e-07,2.6952624986173967e-07,2.9559166025868383e-05
3.729534631025e-07,4.9019723670935e-07,2.705067624897388e-07,2.94855885369737e-05
3.7647647223109796e-07,4.8929068225588e-07,2.715692687363207e-07,2.93978230985212e-05
3.804057919055964e-07,4.881891326899904e-07,2.7271161352403195e-07,2.9296158951238868e-05
3.847171493916247e-07,4.868971146190022e-07,2.7393212586710117e-07,2.91808189242547e-05
3.8937906413975075e-07,4.854180694765196e-07,2.752294665131925e-07,2.9051917271430487e-05
3.943530172554237e-07,4.837534514884832e-07,2.766020715244613e-07,2.890943195587296e-05
3.9959496068838075e-07,4.819028417242653e-07,2.780470025324692e-07,2.875320945862331e-05
4.0505777055056846e-07,4.798645876906939e-07,2.7955916947777386e-07,2.8582997763200347e-05
4.106937249956e-07,4.77637203460036e-07,2.811315734497377e-07,2.8398483455774666e-05
4.164554520156282e-07,4.752206096147586e-07,2.827566692048253e-07,2.819932719685686e-05
4.222955483114204e-07,4.7261626836757404e-07,2.8442845644548e-07,2.7985221690511652e-05
4.28166997482177e-07,4.6982755479624346e-07,2.8614310644176674e-07,2.7755981501364227e-05
4.340245347380743e-07,4.668607941725796e-07,2.878973310233725e-07,2.7511632313322058e-05
4.3982580474495316e-07,4.637251573261336e-07,2.896867211836894e-07,2.725243502631467e-05
4.4553249591054315e-07,4.6043189307829754e-07,2.9150477538265565e-07,2.6978816326224372e-05
4.511105130251732e-07,4.5699451848303864e-07,2.933422434912283e-07,2.6691272199781174e-05
4.565281010752221e-07,4.534283575512696e-07,2.951874765132544e-07,2.639031115691829e-05
4.617542545736075e-07,4.497486728449186e-07,2.970273149146009e-07,2.607644410315729e-05
4.667591241119294e-07,4.4596951969485037e-07,2.988474579804566e-07,2.575021654275796e-05
4.7151461836762637e-07,4.421039148463342e-07,3.006327517284264e-07,2.541224701117757e-05
4.7599408567989255e-07,4.3816491318143756e-07,3.0236760994222265e-07,2.506323890422227e-05
4.801728417724463e-07,4.3416666417144296e-07,3.040363154926473e-07,2.470400532731772e-05
4.840311718029546e-07,4.301236608738125e-07,3.0562408115911857e-07,2.4335526066959783e-05
4.87557325274872e-07,4.2604907793845615e-07,3.071187825417133e-07,2.395896949360241e-05
4.907467395802865e-07,4.219541018006498e-07,3.085119961120736e-07,2.3575642622397726e-05
4.936000060372356e-07,4.178475962409138e-07,3.0979892471998547e-07,2.3186929320799288e-05
4.961236664191421e-07,4.1373570791700723e-07,3.1097721318612945e-07,2.2794289459221246e-05
4.983316372369911e-07,4.0962282083987425e-07,3.1204548751681554e-07,2.2399343226968792e-05
5.002449458008748e-07,4.05514010732989e-07,3.130031556927967e-07,2.200399231925153e-05
5.01889981543481e-07,4.014166901302346e-07,3.1385134953309865e-07,2.1610461544652667e-05
5.032948434404003e-07,3.973395548685439e-07,3.145932181092432e-07,2.122118275604441e-05
5.044849282975484e-07,3.9329057744162686e-07,3.1523293196640227e-07,2.083857177662145e-05
5.054801150246615e-07,3.892769954725924e-07,3.1577551573229087e-07,2.046482105503045e-05
5.062951443934519e-07,3.8530600163290265e-07,3.1622767297425104e-07,2.010177755768316e-05
5.069424901126497e-07,3.813835610828677e-07,3.165967880890173e-07,1.975089801531159e-05
5.074339807528256e-07,3.7751279286958897e-07,3.168891012113008e-07,1.9413273438427915e-05
5.077798059327727e-07,3.736939094939216e-07,3.171099201710489e-07,1.9089725239339496e-05
5.079875375545568e-07,3.699255314938889e-07,3.1726502533013785e-07,1.878095927627789e-05
5.080625536711026e-07,3.6620649164030706e-07,3.1736126172775514e-07,1.848771807485693e-05
5.080101946988785e-07,3.6253669445490004e-07,3.174059022485011e-07,1.821079709566127e-05
5.078386433404371e-07,3.5891652796249025e-07,3.174056063514656e-07,1.7950890354347672e-05
5.0755871755148e-07,3.553466714677775e-07,3.173659855840075e-07,1.7708448803415524e-05
5.071805490814019e-07,3.518290750184274e-07,3.1729241873932147e-07,1.748372359416328e-05
5.067112782240492e-07,3.483668468059687e-07,3.171916926375811e-07,1.7277015321677392e-05
5.061548541987112e-07,3.449623427834043e-07,3.170724675402256e-07,1.7089034550456194e-05
5.05512396654958e-07,3.4161584755039373e-07,3.169439049571025e-07,1.6921129469426153e-05
5.047821623963337e-07,3.3832594073447013e-07,3.1681464820233623e-07,1.6775185044053967e-05
5.039596445917547e-07,3.3509031965534194e-07,3.166937585919843e-07,1.665330021855708e-05
5.030389405668842e-07,3.319063054397037e-07,3.165926241888068e-07,1.6557449374779996e-05
5.02014489564661e-07,3.287711678068598e-07,3.1652599577526667e-07,1.6489220592343038e-05
5.008815168622618e-07,3.256823006007611e-07,3.165108840380257e-07,1.644967760499419e-05
4.996355553818862e-07,3.226379047726306e-07,3.165633352636121e-07,1.64393306442426e-05
4.982716484844903e-07,3.1963871176598037e-07,3.166951898132244e-07,1.6458143740754448e-05
4.967830549148086e-07,3.166896788894903e-07,3.169130391842397e-07,1.6505560872848486e-05
4.95160304228041e-07,3.1380074040731713e-07,3.1721887677710945e-07,1.6580558653893657e-05
4.933919680073603e-07,3.109865419567743e-07,3.176113777404108e-07,1.668169920109953e-05
4.914670614908088e-07,3.082647606809813e-07,3.180884081244406e-07,1.680717285378352e-05
4.89377279667668e-07,3.056531527152984e-07,3.186497923584141e-07,1.6954851153135346e-05
4.871175433041199e-07,3.031665771532763e-07,3.192978853676594e-07,1.7122371895664214e-05
4.846853526674896e-07,3.0081519765552585e-07,3.200364333628132e-07,1.7307268542725514e-05
4.82080171559518e-07,2.9860489022357444e-07,3.208697665853408e-07,1.7507118209402248e-05
4.793028605535463e-07,2.965397848854941e-07,3.218025537314158e-07,1.7719636361222473e-05
4.763547354045372e-07,2.9462393772249196e-07,3.228400355730047e-07,1.7942671681163355e-05
4.7323663092457773e-07,2.9286040436196764e-07,3.2398960958758976e-07,1.817414968190031e-05
4.6994853495036003e-07,2.912506153591937e-07,3.252624305518224e-07,1.8412053436653075e-05
4.664898168375261e-07,2.89795625449405e-07,3.266718395494985e-07,1.8654451102290675e-05
4.6285998165781223e-07,2.884968816374384e-07,3.282297193117203e-07,1.889949558017492e-05
4.5906067400755156e-07,2.8735602053173363e-07,3.29944439908474e-07,1.9145359352397218e-05
4.550986490478732e-07,2.863762578533973e-07,3.318209118412349e-07,1.9390178635234367e-05
4.509867494921954e-07,2.855643818522822e-07,3.33861888032274e-07,1.9632109632856444e-05
4.4674190432958546e-07,2.849295901758514e-07,3.3606953507773446e-07,1.986952143272712e-05
4.4238282229254124e-07,2.8448090493631876e-07,3.384456505847717e-07,2.010122261139568e-05
4.379287306496327e-07,2.842273117766128e-07,3.4099036324091547e-07,2.032653108381303e-05
4.333987920923482e-07,2.841792877379613e-07,3.437013329833449e-07,2.054511809947293e-05
4.2881143128600797e-07,2.8434825355396727e-07,3.4657579523007047e-07,2.0756775244690047e-05
4.241831328111808e-07,2.847445621592074e-07,3.49613630939597e-07,2.096127223050979e-05
4.1952887918735147e-07,2.853765178832924e-07,3.5281623164635575e-07,2.1158327810280524e-05
4.1486493778116593e-07,2.862501660657099e-07,3.5618203974285704e-07,2.1347605847756014e-05
4.102100720946174e-07,2.873686289293518e-07,3.5970465691213434e-07,2.1528681785124245e-05
4.055838120701013e-07,2.887310064004184e-07,3.633739669946245e-07,2.1701049788521065e-05
4.0100502681113063e-07,2.9033145123606e-07,3.6717649387673714e-07,2.1864266964661565e-05
3.964913924551428e-07,2.921593779486418e-07,3.710945059464672e-07,2.201818950385136e-05
3.920582765264694e-07,2.9420023090830267e-07,3.7510696201395494e-07,2.2163119943971325e-05
3.8771786707534546e-07,2.964358407897349e-07,3.79193013998551e-07,2.229976237383964e-05
3.8347905483970976e-07,2.9884537693952605e-07,3.833340082615269e-07,2.242906005280848e-05
3.793477442062352e-07,3.0140672594718017e-07,3.875122615997414e-07,2.255202047251925e-05
3.753282222513077e-07,3.0409698840836894e-07,3.917102126256397e-07,2.2669554746299725e-05
3.714255926109485e-07,3.068932898244113e-07,3.9591077376613045e-07,2.2782339127243123e-05
3.6764874752798464e-07,3.097745430454239e-07,4.000962069151032e-07,2.2890761687672824e-05
3.6401234214207137e-07,3.1272139048309224e-07,4.0424652254154524e-07,2.299499342194693e-05
3.6053476144055965e-07,3.15713650220655e-07,4.083405881293103e-07,2.3095109981342865e-05
3.572327678466393e-07,3.187285147578404e-07,4.1235926926411865e-07,2.319116277567776e-05
3.541175462633646e-07,3.2174134315538986e-07,4.1628679311643547e-07,2.3283178135867104e-05
3.5119402477356353e-07,3.247282496635095e-07,4.201098715251364e-07,2.3371167462800395e-05
3.484617747873081e-07,3.276686244850475e-07,4.2381712480368094e-07,2.345520644979481e-05
3.459164780954679e-07,3.305457812429288e-07,4.2739858682750776e-07,2.353546864878806e-05
3.435519977946675e-07,3.333460496835661e-07,4.3084504197634495e-07,2.3612160672956565e-05
3.4136211720098947e-07,3.360581285621756e-07,4.341481560761314e-07,2.3685549389874635e-05
3.393410397468168e-07,3.3867338035507804e-07,4.3729991424437714e-07,2.375611853486285e-05
3.374832964497267e-07,3.411861517669549e-07,4.402909806840661e-07,2.3824619823988705e-05
3.357838294903513e-07,3.435930307703031e-07,4.431100550263561e-07,2.389194542495357e-05
3.342384419824151e-07,3.4589098974195186e-07,4.457447449148717e-07,2.3958950976412177e-05
3.3284427417086137e-07,3.4807605147483613e-07,4.48184114260473e-07,2.4026305318578447e-05
3.315992761768367e-07,3.501450892764465e-07,4.504225222063717e-07,2.4094386015097765e-05
3.3050125435309627e-07,3.520999057689481e-07,4.5246106845227184e-07,2.416323760686442e-05
3.295484788833147e-07,3.5394894441303343e-07,4.543051033532624e-07,2.423260095869857e-05
3.287405590749073e-07,3.5570558193181794e-07,4.559612846762789e-07,2.4302007689290772e-05
3.280771387169224e-07,3.573856727915953e-07,4.5743626243742506e-07,2.437090588513275e-05
3.275563063648616e-07,3.5900569615866366e-07,4.5873569989328746e-07,2.443875677748857e-05
3.2717470624540446e-07,3.6058135315564437e-07,4.598627818258876e-07,2.450506709939781e-05
3.269278591269994e-07,3.621255438709413e-07,4.608173234440981e-07,2.4569391406707604e-05
3.2680981933455274e-07,3.6364614267769977e-07,4.6159603797492865e-07,2.4631355798006226e-05
3.268131033420907e-07,3.651461318517439e-07,4.621931081905228e-07,2.4690700005719628e-05
3.269292230665905e-07,3.6662633699973175e-07,4.6260114228677003e-07,2.474729449407049e-05
3.2714899419315905e-07,3.6808733759151406e-07,4.6281290771080025e-07,2.480109651922893e-05
3.274620949429009e-07,3.6952862400957045e-07,4.6282273327869843e-07,2.4852056061930372e-05
3.278563646053326e-07,3.7094815961807297e-07,4.62626713620249e-07,2.490004623317613e-05
3.2831769640135933e-07,3.723442435639532e-07,4.6222276166215533e-07,2.494487490921525e-05
3.288307718969988e-07,3.7371626368060456e-07,4.616111991356616e-07,2.498633362102347e-05
3.293797992756361e-07,3.7506300347579594e-07,4.6079449869446066e-07,2.5024213097878325e-05
3.299486147321213e-07,3.763812363157181e-07,4.597756952702527e-07,2.505828803664168e-05
3.3052052784037186e-07,3.776659396930994e-07,4.585574793733409e-07,2.508830828726834e-05
3.3107879918833773e-07,3.7891119474370995e-07,4.571429554961385e-07,2.511398416135876e-05
3.3160787857025505e-07,3.8011026082149456e-07,4.555361093221776e-07,2.513494001099498e-05
3.3209366911103053e-07,3.8125546415111213e-07,4.537406297346278e-07,2.5150680404243664e-05
3.3252235086773164e-07,3.8233996553171e-07,4.5175875349001893e-07,2.516063484915545e-05
3.328806609885819e-07,3.833603168893546e-07,4.4959131020330774e-07,2.5164302118810785e-05
3.331583768684485e-07,3.8431810436046725e-07,4.4723811579412136e-07,2.516147748761992e-05
3.333495418883035e-07,3.852209424592405e-07,4.446985471955074e-07,2.515246659452897e-05
3.3345128445286607e-07,3.8608190835598313e-07,4.4197238067622244e-07,2.513813631754408e-05
3.334623793922133e-07,3.8691649642469355e-07,4.3906025627433565e-07,2.5119762766586355e-05
3.3338249136195414e-07,3.877383824351944e-07,4.3596335421861495e-07,2.5098808629887052e-05
3.332121237660765e-07,3.885567061472296e-07,4.3268238495589293e-07,2.5076816469631838e-05
3.329530761752665e-07,3.893772919633342e-07,4.292173364543347e-07,2.5055475488420057e-05
3.326086494257771e-07,3.9020613888778594e-07,4.2556977215222006e-07,2.5036723849560395e-05
3.3218390200875845e-07,3.910515543544813e-07,4.217462828968791e-07,2.5022722774926225e-05
3.3168660570893867e-07,3.919254102971818e-07,4.1775915854191105e-07,2.501568257794893e-05
3.311277673842194e-07,3.928440377073801e-07,4.136235233299218e-07,2.5017615145405223e-05
3.305200602413274e-07,3.938260960439925e-07,4.093549249224361e-07,2.503010643514015e-05
3.2987481041064767e-07,3.9488820754037205e-07,4.0497023111376187e-07,2.5054227202005373e-05
3.29200095698946e-07,3.9604198652906546e-07,4.0048932348193045e-07,2.509063639406192e-05
3.285007691314067e-07,3.972930658049781e-07,3.959341537409561e-07,2.5139757632751628e-05
3.277794710333414e-07,3.986414414979725e-07,3.913264360307763e-07,2.520184962839519e-05
3.270380408413792e-07,4.0008346763298883e-07,3.86687218631188e-07,2.5276933567723625e-05
3.262782541497721e-07,4.016160673756654e-07,3.820383676864663e-07,2.536469374332731e-05
3.255016486163623e-07,4.0324096806187784e-07,3.774030236083085e-07,2.5464482658010363e-05
3.2470967775992285e-07,4.049640722803733e-07,3.72803842559416e-07,2.557546006897492e-05
3.239044237319403e-07,4.067905687630153e-07,3.6826160621750567e-07,2.569679622284007e-05
3.2308951855893996e-07,4.087214342799915e-07,3.637954985122582e-07,2.582786601859921e-05
3.222714359770009e-07,4.107530066657533e-07,3.5942381883372686e-07,2.5968436468567112e-05
3.214606912912395e-07,4.128779876018409e-07,3.5516496594110604e-07,2.611884573315352e-05
3.206713799839831e-07,4.150864006538922e-07,3.510377431751353e-07,2.628005241345639e-05
3.199186398374399e-07,4.1736614266679383e-07,3.470595755151051e-07,2.645347522737907e-05
3.1921630464408026e-07,4.197043812000636e-07,3.432445346931849e-07,2.664072294650388e-05
3.185764352671767e-07,4.2208921222407885e-07,3.396032756776244e-07,2.6843327042704926e-05
3.1800948344820765e-07,4.245098290395558e-07,3.3614449782359697e-07,2.7062523031073292e-05
3.175240817405047e-07,4.269555450883842e-07,3.328768142561687e-07,2.729915753263373e-05
3.171268000200638e-07,4.2941459939942044e-07,3.298097131031032e-07,2.7553766028669745e-05
3.168221196037633e-07,4.3187359758351146e-07,3.269533776000018e-07,2.782669793459684e-05
3.1661303729547525e-07,4.34317310851001e-07,3.243183564048064e-07,2.811814618270503e-05
3.1650119963096354e-07,4.3672862083433e-07,3.219159197985065e-07,2.8428100416880736e-05
3.164857674370271e-07,4.390905213068923e-07,3.197588933449281e-07,2.875629310791546e-05
3.1656330215587586e-07,4.413889005345508e-07,3.178606922252757e-07,2.9102157195576763e-05
3.167289494946767e-07,4.436128349903189e-07,3.1623178321723407e-07,2.9464791675828722e-05
3.1697659986255606e-07,4.457537225288125e-07,3.148769090947242e-07,2.984293309819668e-05
3.172984456653677e-07,4.478048961047058e-07,3.137958169285626e-07,3.02349458206826e-05
3.176852696216998e-07,4.4976038692190335e-07,3.1298660185108405e-07,3.0638833215535705e-05
3.1812665911769645e-07,4.5161320986181277e-07,3.124484202577548e-07,3.1052249109585946e-05
3.1861079193094017e-07,4.533550867675296e-07,3.121808251336565e-07,3.1472504453564505e-05
3.1912481732250924e-07,4.5497704847275476e-07,3.121813614167342e-07,3.189658763421898e-05
3.1965580545979105e-07,4.5646979773658235e-07,3.124452113120421e-07,3.232121062337666e-05
3.2019093706853213e-07,4.578245518491154e-07,3.129661580184362e-07,3.274288428315197e-05
3.2071690117362144e-07,4.5903408856072205e-07,3.1373618248602107e-07,3.3158035435426454e-05
3.2122020996010986e-07,4.600922058202555e-07,3.147447276797011e-07,3.3563157338235556e-05
3.216886346067037e-07,4.609918374828949e-07,3.159791124023261e-07,3.395492689923511e-05
3.22112019394822e-07,4.6172437737622406e-07,3.174253513588052e-07,3.4330241723961104e-05
3.224820198097725e-07,4.622805675595306e-07,3.1906819444631767e-07,3.4686220225204134e-05
3.227926458310277e-07,4.6265065385826817e-07,3.2088994627440307e-07,3.502020378487628e-05
3.230432049731734e-07,4.6282378657436323e-07,3.228692333396442e-07,3.532972975611621e-05
3.2324099037730735e-07,4.6278908840036887e-07,3.249810692327841e-07,3.561247514399692e-05
3.233991762707341e-07,4.6253906214867466e-07,3.271981386768157e-07,3.5866261455319605e-05
3.235311009015168e-07,4.620726431832161e-07,3.2949248484427234e-07,3.608917225021484e-05
3.236461474995289e-07,4.61394809494412e-07,3.318366457311181e-07,3.627971618872096e-05
3.237492956718517e-07,4.605135876450525e-07,3.3420391359733517e-07,3.6436954101453904e-05
3.2384299546557677e-07,4.5943735223221034e-07,3.3656847314411304e-07,3.6560536475789914e-05
3.239287633148528e-07,4.5817371580357027e-07,3.3890652658914737e-07,3.665062904110637e-05
3.240069043900436e-07,4.567305686980501e-07,3.411990392018209e-07,3.670779312923592e-05
3.240757366194353e-07,4.551181682293497e-07,3.434344531469035e-07,3.673290011963061e-05
3.2413218651721967e-07,4.5334927973187723e-07,3.456081587519152e-07,3.672707868607992e-05
3.241736682746778e-07,4.514374281172814e-07,3.4771906159907133e-07,3.669165754156055e-05
3.242000237736432e-07,4.49396091662064e-07,3.497668096134788e-07,3.662806527012866e-05
3.2421456311879997e-07,4.4723853887553605e-07,3.517513214578938e-07,3.6537678491636294e-05
3.242235666763277e-07,4.44977155393842e-07,3.5367352985944844e-07,3.642168544078143e-05
3.2423413097088397e-07,4.4262347158082454e-07,3.555358375294321e-07,3.628105153529551e-05
3.242526216399956e-07,4.401882819572411e-07,3.573417909359571e-07,3.611660418807207e-05
3.242867025749064e-07,4.376807186628376e-07,3.5909461692056937e-07,3.592920137838037e-05
3.243497444023524e-07,4.351080311222666e-07,3.6079477307729297e-07,3.5719919933281896e-05
3.244622463660123e-07,4.324776901531296e-07,3.6243835662084865e-07,3.5490155759609584e-05
3.2464739067133607e-07,4.2980045910320776e-07,3.640174045709136e-07,3.5241569938804854e-05
3.249247522922798e-07,4.270910510723399e-07,3.6552091956370726e-07,3.497591928990264e-05
3.253074851915638e-07,4.243651691560307e-07,3.6693594983005925e-07,3.4694850502601286e-05
3.258033538287425e-07,4.216358045915507e-07,3.6824927949501755e-07,3.439975512723301e-05
3.2641692041347186e-07,4.189116903976074e-07,3.694491769516879e-07,3.409175725840096e-05
3.271509010344593e-07,4.161978321384796e-07,3.705262531569024e-07,3.377178979188637e-05
3.280064435962285e-07,4.1349689514802007e-07,3.714734983328181e-07,3.3440662234037374e-05
3.289829148587869e-07,4.108117536973162e-07,3.722851432313156e-07,3.309913431921475e-05
3.3007735075422013e-07,4.0815001975474207e-07,3.7295481403788255e-07,3.274810128132458e-05
3.312835370149197e-07,4.055272941160457e-07,3.734747539025465e-07,3.2388835744857124e-05
3.325913455355321e-07,4.0296471220942005e-07,3.7383601483557546e-07,3.2023079693571724e-05
3.339871642091809e-07,4.004842092350487e-07,3.7402864351136297e-07,3.165295485763873e-05
3.354551288530918e-07,3.981070016374251e-07,3.7404225243884247e-07,3.128080900826053e-05
3.369780450080688e-07,3.9585318067778357e-07,3.7386697104593615e-07,3.090903468669422e-05
3.385381758018646e-07,3.9373971845403254e-07,3.734938763538268e-07,3.053990857390678e-05
3.401186589054437e-07,3.917785432892272e-07,3.7291470455119535e-07,3.017556884975378e-05
3.4170479028592037e-07,3.899762944000903e-07,3.721216527229972e-07,2.9818091100939118e-05
3.432844427767741e-07,3.88336969936171e-07,3.7110789633195595e-07,2.946948034108952e-05
3.4484770849171037e-07,3.8686682449486046e-07,3.6986815813451117e-07,2.913154274171784e-05
3.4638596934294247e-07,3.855767533504043e-07,3.6839864277143567e-07,2.8805754041727007e-05
3.4789221588144087e-07,3.8447944280116204e-07,3.66696611434551e-07,2.8493201138685246e-05
3.49363207543346e-07,3.8358454408760133e-07,3.6476046494440005e-07,2.819457427613967e-05
3.50799455255547e-07,3.828959579810825e-07,3.625910729030547e-07,2.7910162968869355e-05
3.5220182094411285e-07,3.824126262951134e-07,3.6019279692361434e-07,2.763987458222165e-05
3.535695738868507e-07,3.82132795824056e-07,3.5757254852320306e-07,2.7383314446659586e-05
3.549016806172618e-07,3.8206047380442697e-07,3.5473854992464217e-07,2.7139892612390424e-05
3.5619813094602364e-07,3.8220901698687757e-07,3.517005595439485e-07,2.690889905307713e-05
3.574589620329585e-07,3.825973200709725e-07,3.484706499779961e-07,2.668955089302444e-05
3.5868217795744723e-07,3.832428943841725e-07,3.450628305776418e-07,2.648102259726033e-05
3.598635177417992e-07,3.841582884107168e-07,3.414915290502697e-07,2.628242807725789e-05
3.609976926422004e-07,3.853499567164629e-07,3.377703300942834e-07,2.609277442477436e-05
3.620786798674883e-07,3.868171121076125e-07,3.3391139066686805e-07,2.591097318643915e-05
3.631000278081504e-07,3.885515794927055e-07,3.299253804205654e-07,2.5735924188040045e-05
3.6405647041916717e-07,3.9053944668799537e-07,3.258226006161624e-07,2.556659069765317e-05
3.6494494240545346e-07,3.9276300216637714e-07,3.216152081737395e-07,2.540201220224757e-05
3.657636680224861e-07,3.9520115788036656e-07,3.173183701689185e-07,2.5241274773180945e-05
3.665117634966093e-07,3.978289785106243e-07,3.129487531180617e-07,2.508346980161541e-05
3.671927628060747e-07,4.006191208936367e-07,3.085228629424642e-07,2.4927651631963345e-05
3.678195940893557e-07,4.035457771400139e-07,3.040585264327651e-07,2.477280848621324e-05
3.684136953973684e-07,4.0658752966214e-07,2.995770321557782e-07,2.461786003595865e-05
3.68998523140141e-07,4.0972704641017225e-07,2.951016864463088e-07,2.4461686908457136e-05
3.6959531305506357e-07,4.1295009844535625e-07,2.906546104548862e-07,2.4303226717535612e-05
3.702227776469609e-07,4.1624499088454213e-07,2.8625541229580604e-07,2.4141637894333084e-05
3.708965908820394e-07,4.196008366702896e-07,2.819212480720895e-07,2.3976417953595804e-05
3.71627929879732e-07,4.2300562289132406e-07,2.7766712809652055e-07,2.3807395987704786e-05
3.724228612307825e-07,4.2644603926376975e-07,2.735072386819562e-07,2.363467327678512e-05
3.7328276037802527e-07,4.299078089580113e-07,2.694568593028036e-07,2.345860793805816e-05
3.7420508025039676e-07,4.3337474894616776e-07,2.6553276788926003e-07,2.3279822746878424e-05
3.751844403685072e-07,4.3682751823830216e-07,2.6175143380315805e-07,2.3099133635636428e-05
3.7621376395464504e-07,4.402436609713354e-07,2.581265441241808e-07,2.291738663073978e-05
3.7728468662750827e-07,4.435996369159949e-07,2.546681641195405e-07,2.2735322020332825e-05
3.7838724110160365e-07,4.46874314649661e-07,2.513839143082237e-07,2.2553534297910432e-05
3.795097912769165e-07,4.5005152684212043e-07,2.482798422933199e-07,2.2372483061098983e-05
3.8064084843384975e-07,4.531209627861242e-07,2.453598824381477e-07,2.2192506896793285e-05
3.8177356543291343e-07,4.560792360388472e-07,2.426253608689869e-07,2.2013840656483245e-05
3.829093887601304e-07,4.5892979490609294e-07,2.400750472978693e-07,2.183664917874564e-05
3.840560803692742e-07,4.6168040177379246e-07,2.3770547118251706e-07,2.1661067136272227e-05
3.852224374880914e-07,4.643419811110725e-07,2.355122830786809e-07,2.148721534600408e-05
3.864151796552521e-07,4.6692893375931777e-07,2.3349210875521921e-07,2.1315189853217333e-05
3.876384945669153e-07,4.694564770813915e-07,2.316430275612678e-07,2.1145066429051308e-05
3.8889502799648477e-07,4.7193631096218394e-07,2.299636210521205e-07,2.09769382721092e-05
3.901867489531175e-07,4.743746782131253e-07,2.284524253069479e-07,2.0810937933552303e-05
3.915137690312605e-07,4.767730554118533e-07,2.271096165188693e-07,2.064721177716794e-05
3.9287297706973045e-07,4.791299683912103e-07,2.2593920618734365e-07,2.048593715712018e-05
3.9425833037170883e-07,4.814426054758765e-07,2.249476991558581e-07,2.032745603528556e-05
3.9566100984884596e-07,4.837078626291342e-07,2.241405011751452e-07,2.017236405836165e-05
3.970691560062291e-07,4.859226598620861e-07,2.2352054102704397e-07,2.002141881817564e-05
3.98469016096416e-07,4.880824361035933e-07,2.230885134412496e-07,1.9875381940387712e-05
3.998466743496661e-07,4.901789723449969e-07,2.228425450351799e-07,1.973489646662508e-05
4.0118819270914187e-07,4.922012074221928e-07,2.2277853998401322e-07,1.9600429360952176e-05
4.024789332423992e-07,4.941394006343174e-07,2.2289137805797435e-07,1.947233755780913e-05
4.037043072883208e-07,4.959885368048911e-07,2.2317536221392413e-07,1.935101640738512e-05
4.048519615659784e-07,4.977487422380112e-07,2.2362432173194948e-07,1.923698700233726e-05
4.059130156403789e-07,4.994253936323846e-07,2.2423194507285376e-07,1.9130876542249847e-05
4.0688090121450383e-07,5.010313711949364e-07,2.2499216803355247e-07,1.9033383448606948e-05
4.0774911837087937e-07,5.025896520302253e-07,2.258995526261989e-07,1.8945295231727217e-05
4.085099683437108e-07,5.041326479712421e-07,2.269494200587851e-07,1.8867527998124773e-05
4.091552123684503e-07,5.056971830976287e-07,2.281381022343462e-07,1.8801136144839067e-05
4.0967762444627033e-07,5.073179083458054e-07,2.294630871111e-07,1.8747276186680248e-05
4.100719487325061e-07,5.090225479418084e-07,2.3092271126441602e-07,1.870712106870207e-05
4.10336025463298e-07,5.108310346384576e-07,2.3251649440415172e-07,1.8681730102068368e-05
4.1047323964325354e-07,5.127582696451853e-07,2.3424572371707355e-07,1.8671925272632267e-05
4.104942222048322e-07,5.148156188156426e-07,2.3611228648384253e-07,1.867824722704431e-05
4.1041465590677045e-07,5.170089219470359e-07,2.3811625656540798e-07,1.8700986849060206e-05
4.102505962240435e-07,5.193378673153392e-07,2.402546787153489e-07,1.874020365458996e-05
4.100156306563638e-07,5.217980099545075e-07,2.4252214822583946e-07,1.8795689004241467e-05
4.097207212493439e-07,5.243821911742572e-07,2.4491183432553384e-07,1.886693951970187e-05
4.093751370109749e-07,5.270819506139814e-07,2.4741552303084803e-07,1.8953228211906847e-05
4.089884661467426e-07,5.29889786192461e-07,2.500228986783107e-07,1.905376694757677e-05
4.0857284936841065e-07,5.327994661789067e-07,2.52721845314874e-07,1.9167862840356758e-05
4.081431762332278e-07,5.358039079777721e-07,2.5549946768231977e-07,1.9295005369367746e-05
4.0771606559634134e-07,5.388942939240962e-07,2.583420827132581e-07,1.9434891791058802e-05
4.073097528487956e-07,5.420612014214405e-07,2.612349734828673e-07,1.958742055025015e-05
4.0694428836243783e-07,5.452941421114735e-07,2.6416282322675625e-07,1.975267910559943e-05
4.0664049316076e-07,5.485792983446507e-07,2.6710963672895805e-07,1.9930926691727976e-05
4.064175906269689e-07,5.518990371739302e-07,2.700581142891511e-07,2.0122577669340868e-05
4.0629052439849953e-07,5.552333869897722e-07,2.729898122235395e-07,2.032821504024862e-05
4.062682335260353e-07,5.58562323628187e-07,2.758857180778189e-07,2.054861630856819e-05
4.063544387697432e-07,5.618691380034056e-07,2.787262472820058e-07,2.078469065517157e-05
4.0655099475705645e-07,5.651420579325863e-07,2.814913088244842e-07,2.1037254380796906e-05
4.068608432040193e-07,5.683722315038499e-07,2.841615958099234e-07,2.130675330094884e-05
4.072878628663594e-07,5.715513013965609e-07,2.867208590703752e-07,2.15931172381998e-05
4.07835070130428e-07,5.746699980711131e-07,2.891571187914453e-07,2.1895787516023733e-05
4.085047926754732e-07,5.777172528815899e-07,2.9146191009657413e-07,2.2213860697060643e-05
4.093004703877697e-07,5.806809387981094e-07,2.936287102937563e-07,2.254626335222026e-05
4.102258629687185e-07,5.835492569929836e-07,2.9565104386313483e-07,2.2891825015761326e-05
4.1128178348010243e-07,5.863108401513937e-07,2.975211067326288e-07,2.3249203244082602e-05
4.1246563042751973e-07,5.889538157160082e-07,2.9922994666679824e-07,2.361677542839012e-05
4.137745990013825e-07,5.914652107261623e-07,3.007684881937848e-07,2.399264113925184e-05
4.1520770509444725e-07,5.938318782140951e-07,3.0212860754982856e-07,2.437478487857637e-05
4.1676444105782397e-07,5.960412417945824e-07,3.033040504750521e-07,2.4761332836575845e-05
4.1844224290704175e-07,5.980797602496294e-07,3.042911769991624e-07,2.51507624918689e-05
4.2023489001119386e-07,5.999312412022733e-07,3.050892554384094e-07,2.5541943954971905e-05
4.221327808806665e-07,6.015776363479551e-07,3.0569969665105266e-07,2.5934010353005883e-05
4.2412428137685923e-07,6.030007758843161e-07,3.061254035101664e-07,2.632614863953801e-05
4.261964232363728e-07,6.041829205479012e-07,3.0637135651370076e-07,2.671741725454763e-05
4.283357113119597e-07,6.051083158011842e-07,3.064447616490582e-07,2.7106653392812868e-05
4.3052983258512576e-07,6.057668654929664e-07,3.06353957230746e-07,2.7492450392755542e-05
4.3276877999029893e-07,6.061557682863102e-07,3.0610788705306803e-07,2.7873190645987782e-05
4.350449158072258e-07,6.062773853650807e-07,3.057164206497045e-07,2.8247194859803527e-05
4.3735201620652753e-07,6.06136135342094e-07,3.0518970945369096e-07,2.861300739908433e-05
4.3968364152445755e-07,6.057358860609438e-07,3.045370961830002e-07,2.8969661966834453e-05
4.4203294828919457e-07,6.050779435826126e-07,3.0376801171088824e-07,2.9316728076439672e-05
4.443940522775016e-07,6.041603041753579e-07,3.028942442629951e-07,2.9654152255682567e-05
4.467622478772617e-07,6.029783002400039e-07,3.019306966404528e-07,2.998204587059801e-05
4.4913205949596093e-07,6.015254685112688e-07,3.008943774843129e-07,3.03004955108466e-05
4.514946332688363e-07,5.997941865460514e-07,2.9980321196647764e-07,3.060946037547361e-05
4.538362524521279e-07,5.977772130003046e-07,2.986747299028053e-07,3.0908875212432377e-05
4.561384661611677e-07,5.95469503043338e-07,2.975242591440456e-07,3.119890301132807e-05
4.5837941333711207e-07,5.928682917501031e-07,2.963635670646901e-07,3.148008019996413e-05
4.605361163263282e-07,5.899722139958943e-07,2.9520092520683466e-07,3.1753266552949484e-05
4.6258640514365493e-07,5.867817360955437e-07,2.940421488522356e-07,3.201951933414573e-05
4.6450912719421045e-07,5.833020397120062e-07,2.9289181592337697e-07,3.227994966249598e-05
4.6628436696348666e-07,5.795472633301553e-07,2.917543496144031e-07,3.253555504831099e-05
4.678950245766345e-07,5.755414425546393e-07,2.906343910279509e-07,3.278706623912284e-05
4.6932834302398083e-07,5.713137369779775e-07,2.895370899219514e-07,3.3034883742409584e-05
4.7057638613293297e-07,5.668925913232936e-07,2.8847050329636345e-07,3.327914844991456e-05
4.7163533103631994e-07,5.623031828764478e-07,2.8744861348498575e-07,3.351991488225722e-05
4.7250419060204077e-07,5.575671696113655e-07,2.864902861520887e-07,3.3757333500201056e-05
4.7318433440678795e-07,5.527025852010107e-07,2.8561494872251336e-07,3.3991738023942226e-05
4.736795014793501e-07,5.477237449452237e-07,2.848398223223444e-07,3.42235899795839e-05
4.739947553518328e-07,5.426416524233583e-07,2.841795146983671e-07,3.445331027157842e-05
4.7413485393149203e-07,5.374647560184266e-07,2.836465850014265e-07,3.4681070741486964e-05
4.7410462446916e-07,5.322003971241733e-07,2.8325278249913156e-07,3.490663800580353e-05
4.739109934556325e-07,5.268570731336338e-07,2.830097079290061e-07,3.512935484760411e-05
4.7356266941776656e-07,5.21445752269417e-07,2.8292814176183227e-07,3.534824783975882e-05
4.7306736132625025e-07,5.159788166889738e-07,2.830167782132824e-07,3.556212726390164e-05
4.7243016262037504e-07,5.10468350289315e-07,2.8328077587649586e-07,3.5769606449750744e-05
4.7165378988595676e-07,5.049263566232578e-07,2.8372122116219594e-07,3.5969159252507564e-05
4.7073965781200154e-07,4.99366050714282e-07,2.8433647128015146e-07,3.615931863754543e-05
4.6969025019848393e-07,4.938016167489014e-07,2.8512451076979964e-07,3.633890979380305e-05
4.6851191333468496e-07,4.882469689381973e-07,2.860844346477449e-07,3.650715922283656e-05
4.6721441827549323e-07,4.8271551614054e-07,2.872153521170231e-07,3.666363341492741e-05
4.6580685713564464e-07,4.77220569116228e-07,2.88513541820308e-07,3.68080438164812e-05
4.642943584423893e-07,4.7177513791595924e-07,2.899710127248765e-07,3.694003714806406e-05
4.626779002768128e-07,4.6639095015045776e-07,2.915764838060049e-07,3.7059124966198406e-05
4.609554945720607e-07,4.6107739941750575e-07,2.933163782055625e-07,3.7164763795808426e-05
4.5912347561596776e-07,4.558414172142989e-07,2.951744920304894e-07,3.7256470731891086e-05
4.571781198474801e-07,4.5068837230934246e-07,2.971317928742074e-07,3.733390106976631e-05
4.551175072121271e-07,4.4562265159044075e-07,2.9916704265591586e-07,3.7396864742590216e-05
4.529433195187022e-07,4.406471910928441e-07,3.012578289949709e-07,3.744531916328754e-05
4.506615440670718e-07,4.3576350771591203e-07,3.033817869973649e-07,3.7479445275294174e-05
4.482806605938673e-07,4.309730662892045e-07,3.0551711408054385e-07,3.749986000146939e-05
4.4580983601415385e-07,4.262784677451669e-07,3.0764234317970693e-07,3.750794248732286e-05
4.432602716137067e-07,4.216836425506663e-07,3.0973672901861054e-07,3.75062068989492e-05
4.4064700326244575e-07,4.171930532247901e-07,3.1178102067565864e-07,3.7498572452241635e-05
4.379886426089241e-07,4.128100508546152e-07,3.137573797241783e-07,3.749038409470744e-05
4.353066169256108e-07,4.0853581727685033e-07,3.156490352528212e-07,3.748818437712525e-05
4.3262397167466023e-07,4.0436955826790254e-07,3.174406205269645e-07,3.7499330127631986e-05
4.299627980208128e-07,4.0030944909623843e-07,3.191184923622952e-07,3.7531513270938e-05
4.27342516546451e-07,3.963543648137694e-07,3.206704519956016e-07,3.759225390508468e-05
4.2478099268155174e-07,3.9250554072078727e-07,3.220852238023245e-07,3.768847966190333e-05
4.222957638419025e-07,3.887669322922228e-07,3.2335217309131443e-07,3.782623187490611e-05
4.1990313530658176e-07,3.8514399707144534e-07,3.2446158999904336e-07,3.801042111020453e-05
4.1761713077953953e-07,3.816413953156989e-07,3.2540502929100306e-07,3.824459095314832e-05
4.1544896621638186e-07,3.782613200363372e-07,3.261752347137177e-07,3.8530792332208015e-05
4.1340588866945896e-07,3.7500330257747823e-07,3.2676656204636174e-07,3.8869649794882564e-05
4.1149043005466657e-07,3.718651832153749e-07,3.271767263553689e-07,3.9260545588184216e-05
4.09701048837585e-07,3.6884513144190433e-07,3.274086568096537e-07,3.9701850035046784e-05
4.080329972325856e-07,3.6594350857260727e-07,3.274700986561088e-07,4.0191235317401675e-05
4.064789634275731e-07,3.6316411206616954e-07,3.273708723808864e-07,4.072605432765208e-05
4.0503130206204313e-07,3.60515663780985e-07,3.271204954323806e-07,4.1303637129569285e-05
4.0368617591161215e-07,3.580122253255126e-07,3.267274644678236e-07,4.192141986207925e-05
4.024452119484864e-07,3.5567058689222434e-07,3.2619916261427197e-07,4.2576950057488206e-05
4.0131281877198894e-07,3.5350623487074727e-07,3.255424220107405e-07,4.3267830484997494e-05
4.0029482147492683e-07,3.515315879789505e-07,3.247652058531797e-07,4.399165117485633e-05
3.994011692779986e-07,3.497575998001189e-07,3.2387819929211857e-07,4.474596113635615e-05
3.986481170751417e-07,3.4819621818060897e-07,3.228958875066578e-07,4.552831119974684e-05
3.9805679944275253e-07,3.4686026888975855e-07,3.218375406622966e-07,4.633630102321071e-05
3.9764963991345857e-07,3.457604932994013e-07,3.207265986834519e-07,4.716749801985759e-05
3.9744729587779367e-07,3.449028884016283e-07,3.195876856526815e-07,4.801922213679718e-05
3.974678878908257e-07,3.4428816278801733e-07,3.1844329615403054e-07,4.888832931577091e-05
3.977271630610573e-07,3.4391312943319465e-07,3.173123815459195e-07,4.977109869901299e-05
3.982367730530133e-07,3.437737918012243e-07,3.1621114811595217e-07,5e-06
3.990014139345496e-07,3.438685678609044e-07,3.1515414943344145e-07,5e-06
4.00018201667259e-07,3.441993075321118e-07,3.141544249408066e-07,5e-06
4.0127881901547387e-07,3.447707844231939e-07,3.1322458889953656e-07,5e-06
4.027720536731921e-07,3.45590191685358e-07,3.123809232271342e-07,5e-06
4.044847352308189e-07,3.466649652087482e-07,3.1164755735250175e-07,5e-06
4.064010019135604e-07,3.479994418338927e-07,3.110546512682074e-07,5e-06
4.0850218703996564e-07,3.495946304191954e-07,3.1063097405787946e-07,5e-06
4.107696674632137e-07,3.5145126204964557e-07,3.1039815037356073e-07,5e-06
4.131896300980375e-07,3.5357152661188134e-07,3.103702540788053e-07,5e-06
4.157562070585047e-07,3.559577581714317e-07,3.1055618265956747e-07,5e-06
4.1847046295062343e-07,3.5861077172672976e-07,3.1096127675757377e-07,5e-06
4.2133548600992926e-07,3.615293381319814e-07,3.115869291877408e-07,5e-06
4.2435058715218813e-07,3.647091924909421e-07,3.124298581972838e-07,5e-06
4.275081930250152e-07,3.68140918833616e-07,3.134829374071776e-07,5e-06
4.3079478955646535e-07,3.718086954782246e-07,3.147367628152484e-07,5e-06
4.3419425475282327e-07,3.756910916654099e-07,3.161808036821791e-07,5e-06
4.3769032099411116e-07,3.7976266863888953e-07,3.17803850127575e-07,5e-06
4.4126721822547705e-07,3.83994963671349e-07,3.1959409542055715e-07,5e-06
4.4490943604295066e-07,3.883564874350421e-07,3.215405928350391e-07,5e-06
4.4860039482655575e-07,3.928124735423138e-07,3.236355029893495e-07,5e-06
4.5232158836822995e-07,3.9732597299339275e-07,3.2587456798796074e-07,5e-06
4.5605476207631817e-07,4.0186056467758216e-07,3.2825580943266093e-07,5e-06
4.597847332799906e-07,4.0638263330994353e-07,3.307772920853795e-07,5e-06
4.634985859337015e-07,4.108612531500075e-07,3.334348259702804e-07,5e-06
4.671822947127239e-07,4.1526615263212116e-07,3.362211288969807e-07,5e-06
4.7081884839314783e-07,4.1956593789769814e-07,3.391261139302733e-07,5e-06
4.7438915332475757e-07,4.2372790451665343e-07,3.421367392085445e-07,5e-06
4.778735128409614e-07,4.277190450821625e-07,3.4523626110303047e-07,5e-06
4.812514413290226e-07,4.315071401622453e-07,3.4840402924328033e-07,5e-06
4.845006892657951e-07,4.3506151053010366e-07,3.5161652229306266e-07,5e-06
4.875977599252368e-07,4.383536075927066e-07,3.548488061468154e-07,5e-06
4.905204003200463e-07,4.4135720536325866e-07,3.580754976802842e-07,5e-06
4.932496953020134e-07,4.4404852981335716e-07,3.6127147858848283e-07,5e-06
4.957695149793914e-07,4.4640709855606405e-07,3.644124072441676e-07,5e-06
4.980647334962973e-07,4.484170970304332e-07,3.6747513003798463e-07,5e-06
5.001199628443744e-07,4.5006840901400003e-07,3.704387374041129e-07,5e-06
5.019188830759014e-07,4.513559706960713e-07,3.732854393200256e-07,5e-06
5.034449851518139e-07,4.522775272843545e-07,3.760003892651897e-07,5e-06
5.046832828472457e-07,4.5283228952562656e-07,3.785717613210261e-07,5e-06
5.056209318842447e-07,4.530216713996809e-07,3.8099130183290564e-07,5e-06
5.062467985138215e-07,4.528501204493157e-07,3.832539180134467e-07,5e-06
5.065517347046432e-07,4.523244056017724e-07,3.85356609994403e-07,5e-06
5.065298403316476e-07,4.5145190763020534e-07,3.8729850613215923e-07,5e-06
5.061786198203995e-07,4.5023940447567025e-07,3.890823410707898e-07,5e-06
5.054970007660931e-07,4.48693949297784e-07,3.907158136672644e-07,5e-06
5.044834297316633e-07,4.468248239613305e-07,3.922106818099583e-07,5e-06
5.031355389262067e-07,4.446436757522687e-07,3.9357918027650744e-07,5e-06
5.014506090429436e-07,4.421629801929099e-07,3.9483035891337037e-07,5e-06
4.994266428116403e-07,4.3939509768737325e-07,3.9596911836721477e-07,5e-06
4.970644739782131e-07,4.3635356036480207e-07,3.9699778484909206e-07,5e-06
4.94370696795737e-07,4.3305640797004996e-07,3.979177614832149e-07,5e-06
4.913602907678637e-07,4.2952818851067293e-07,3.987297177994411e-07,5e-06
4.880573255019132e-07,4.257975251208763e-07,3.99433419988683e-07,5e-06
4.844929260187045e-07,4.2189235671834286e-07,4.000290658870141e-07,5e-06
4.80700967816554e-07,4.1783819266956726e-07,4.0051935410774156e-07,5e-06
4.767135702113349e-07,4.136616293749111e-07,4.0090930890159467e-07,5e-06
4.725585514377248e-07,4.093950726814975e-07,4.012040395768618e-07,5e-06
4.682587737167498e-07,4.050768525095029e-07,4.0140747272212077e-07,5e-06
4.638329905607586e-07,4.007470430467757e-07,4.0152273309819507e-07,5e-06
4.592982624035716e-07,3.9644383573490866e-07,4.0155282046421006e-07,5e-06
4.546717584638837e-07,3.9220171505587655e-07,4.015011569935461e-07,5e-06
4.4997031410470886e-07,3.880501526189078e-07,4.0137260997978243e-07,5e-06
4.4520979775902755e-07,3.8401406172846525e-07,4.0117414262343137e-07,5e-06
4.4040501309909536e-07,3.8011639507945523e-07,4.0091373093481117e-07,5e-06
4.355691703779649e-07,3.763795368697432e-07,4.005989692438385e-07,5e-06
4.307147816777214e-07,3.7282402242543405e-07,4.0023679152298715e-07,5e-06
4.2585624610298133e-07,3.694672058066169e-07,3.998335001120279e-07,5e-06
4.2101094192284923e-07,3.6632299278586067e-07,3.993952280874476e-07,5e-06
4.161990708970795e-07,3.63401144794101e-07,3.9892932083157296e-07,5e-06
4.114443290151443e-07,3.6070653612345006e-07,3.9844454562199396e-07,5e-06
4.067737214099608e-07,3.582407134762058e-07,3.979487208243097e-07,5e-06
4.0221567554104245e-07,3.560057065801248e-07,3.974460886002426e-07,5e-06
3.9779910052815256e-07,3.540063464727904e-07,3.969367304880955e-07,5e-06
3.9355389185542223e-07,3.5224821602106537e-07,3.964175129228958e-07,5e-06
3.895103023661014e-07,3.50733654579224e-07,3.958829456780176e-07,5e-06
3.8569649346291187e-07,3.494601380948095e-07,3.953252495301478e-07,5e-06
3.8213658522837703e-07,3.484215073976819e-07,3.947348669353261e-07,5e-06
3.7885031543748686e-07,3.4761062860625804e-07,3.9410369971022547e-07,5e-06
3.7585267287291756e-07,3.470229305188541e-07,3.9343027842033036e-07,5e-06
3.731529480928345e-07,3.466579578840373e-07,3.9272148935058973e-07,5e-06
3.7075494299637977e-07,3.465160768069673e-07,3.91988143513221e-07,5e-06
3.686589362551243e-07,3.4659394551950717e-07,3.912395027829146e-07,5e-06
3.668638303293322e-07,3.468835972114556e-07,3.904819342084978e-07,5e-06
3.6536802565416797e-07,3.4737368899968173e-07,3.897201621937897e-07,5e-06
3.641688884234058e-07,3.480497694657753e-07,3.889581810289543e-07,5e-06
3.632618858701518e-07,3.4889377088743426e-07,3.8819907667440883e-07,5e-06
3.6264056293473225e-07,3.4988403122901825e-07,3.874438988795479e-07,5e-06
3.6229728280058007e-07,3.5099608684431873e-07,3.8669105434904813e-07,5e-06
3.622243049067593e-07,3.522036027594893e-07,3.8593659436591046e-07,5e-06
3.6241553411985e-07,3.5347909047962134e-07,3.8517453033732724e-07,5e-06
3.62868650598279e-07,3.5479475599611493e-07,3.8439797625971406e-07,5e-06
3.635857649256203e-07,3.5612366328432216e-07,3.8360080521683104e-07,5e-06
3.6457139719339385e-07,3.574420140313305e-07,3.827784313591288e-07,5e-06
3.658288602435811e-07,3.5873326041935744e-07,3.8192909365801937e-07,5e-06
3.6735700703762454e-07,3.5999199597031946e-07,3.8105715360931653e-07,5e-06
3.6914867682998954e-07,3.612240267614028e-07,3.8017635612986394e-07,5e-06
3.7119063128998844e-07,3.62441406921516e-07,3.7930933969910607e-07,5e-06
3.7346402468404993e-07,3.6365594493021187e-07,3.7848317167004684e-07,5e-06
3.7594526878553064e-07,3.648759715630844e-07,3.777248843304114e-07,5e-06
3.786069628603464e-07,3.661063113975466e-07,3.770588176893687e-07,5e-06
3.814183043401713e-07,3.67348851645144e-07,3.7650487326972103e-07,5e-06
3.8434593788107383e-07,3.686031233466002e-07,3.760791925828638e-07,5e-06
3.873568788502647e-07,3.6986655612017853e-07,3.757982849967099e-07,5e-06
3.90422412432435e-07,3.711340792389621e-07,3.7568324490104215e-07,5e-06
3.9351917140457904e-07,3.7239799793369385e-07,3.7576058227563756e-07,5e-06
3.9662657944777174e-07,3.7364867374612397e-07,3.7605940679563177e-07,5e-06
3.9972425057189864e-07,3.74875136158676e-07,3.7660649850110113e-07,5e-06
4.027913756599364e-07,3.760647511809304e-07,3.7742191877510643e-07,5e-06
4.0580683462526406e-07,3.772029673500817e-07,3.7851726886052774e-07,5e-06
4.087492973236509e-07,3.782755521497362e-07,3.798961929879828e-07,5e-06
4.1159742833873747e-07,3.79273208929476e-07,3.815561018819758e-07,5e-06
4.1432972449346354e-07,3.801945988367934e-07,3.8349117032820257e-07,5e-06
4.1692416130863843e-07,3.8104648410241533e-07,3.856965061177435e-07,5e-06
4.19358254163288e-07,3.818439707560468e-07,3.8817066866358536e-07,5e-06
4.21609361653921e-07,3.8260965559418247e-07,3.909133640697814e-07,5e-06
4.2365552526018405e-07,3.8336859380547815e-07,3.9392099346074254e-07,5e-06
4.254776152149185e-07,3.8414235934329883e-07,3.97185252311911e-07,5e-06
4.2706178510224035e-07,3.8494650788048344e-07,4.006953467630737e-07,5e-06
4.283998786637608e-07,3.857907762472861e-07,4.044415331174132e-07,5e-06
4.2948752076267156e-07,3.866797859170774e-07,4.0841845247926654e-07,5e-06
4.3032212329411793e-07,3.8761414838926286e-07,4.1262708178600614e-07,5e-06
4.309020370277073e-07,3.885930393518016e-07,4.1707391243503365e-07,5e-06
4.312268744820125e-07,3.8961659338338267e-07,4.217671443229955e-07,5e-06
4.3129904225550137e-07,3.9068536799762576e-07,4.2671187221418726e-07,4.986445304986562e-05
4.311249199331643e-07,3.9179852203922756e-07,4.3190672987263965e-07,4.9731791401439176e-05
4.307143995219828e-07,3.929535254474382e-07,4.373429885936168e-07,4.961509428537068e-05
4.300795022596141e-07,3.94146383353971e-07,4.43005284252948e-07,4.9519240311210884e-05
4.292324315311893e-07,3.953707379990741e-07,4.488721776836648e-07,4.9449341965988784e-05
4.281843493404849e-07,3.9661724175705815e-07,4.549160880381283e-07,4.9410635901332e-05
4.269465061596025e-07,3.978760570717631e-07,4.611038330970793e-07,4.94083391936143e-05
4.255321467101405e-07,3.9914155124130256e-07,4.673978521048091e-07,4.944739418914304e-05
4.2395757420967605e-07,4.004141587935476e-07,4.7375704517614935e-07,4.953213856009757e-05
4.222418020389548e-07,4.016983479458994e-07,4.801379880656961e-07,4.96659447822813e-05
4.20403630843786e-07,4.030006118069199e-07,4.864972387830174e-07,4.985089143238037e-05
4.1845831673158986e-07,4.043283316781526e-07,4.927926274901373e-07,5e-06
4.164174107723971e-07,4.056875558755413e-07,4.98983134578874e-07,5e-06
4.142906850612881e-07,4.070804446424445e-07,5.050303678545711e-07,5e-06
4.1208721541921073e-07,4.0850417957806775e-07,5.109011954155229e-07,5e-06
4.0981515337403677e-07,4.0995141742978906e-07,5.165675752160195e-07,5e-06
4.07481187829031e-07,4.114111969092913e-07,5.220039473961477e-07,5e-06
4.050908570755325e-07,4.1286957454903046e-07,5.271858525519586e-07,5e-06
4.026498704979725e-07,4.1431076741506063e-07,5.32090347923955e-07,5e-06
4.0016478856526665e-07,4.1571877405280204e-07,5.366965515072229e-07,5e-06
3.9764202808090076e-07,4.170782603428521e-07,5.409854248425264e-07,5e-06
3.9508744522428175e-07,4.183751553674492e-07,5.449394445426985e-07,5e-06
3.925089246700242e-07,4.195975530441936e-07,5.485432556141761e-07,5e-06
3.899188059576817e-07,4.2073596349179026e-07,5.517843279274916e-07,5e-06
3.8733221523123243e-07,4.217823209310979e-07,5.546521263237869e-07,5e-06
3.847642519482601e-07,4.2272874707496436e-07,5.5713665969173e-07,5e-06
3.8222923917808666e-07,4.235682649310246e-07,5.592280431154286e-07,5e-06
3.7974018387146134e-07,4.2429761041083117e-07,5.609172601312062e-07,5e-06
3.773072583769891e-07,4.249185890025772e-07,5.62196682333145e-07,5e-06
3.749366695962811e-07,4.254367708558884e-07,5.630591283165964e-07,5e-06
3.7263080343042844e-07,4.2585998937545936e-07,5.634970711103013e-07,5e-06
3.7038954022965286e-07,4.2619689894857633e-07,5.635039500084557e-07,5e-06
3.682127784611132e-07,4.264547806681013e-07,5.630755487577847e-07,5e-06
3.6610370649982744e-07,4.266377409301529e-07,5.622091418675169e-07,5e-06
3.640705186257779e-07,4.2674640599379005e-07,5.609022085790871e-07,5e-06
3.6212473716085674e-07,4.267793373877953e-07,5.591524336153105e-07,5e-06
3.6027793380324787e-07,4.2673645880785e-07,5.569585142451104e-07,5e-06
3.5853943628822477e-07,4.266229393570422e-07,5.543218927887564e-07,5e-06
3.569149378748562e-07,4.264503915851694e-07,5.512490515309459e-07,5e-06
3.554055572592264e-07,4.2623511500806396e-07,5.477524575461715e-07,5e-06
3.54007895119462e-07,4.2599495483204585e-07,5.438490179371435e-07,5e-06
3.5271494023074243e-07,4.2574584072487063e-07,5.39556918716689e-07,5e-06
3.515167930287894e-07,4.254996785137197e-07,5.348936282309949e-07,5e-06
3.504011723616076e-07,4.2526401333719046e-07,5.298775271056807e-07,5e-06
3.49355087885388e-07,4.2504365456208097e-07,5.245313899280725e-07,5e-06
3.4836728874669427e-07,4.2484621570393576e-07,5.188830507834648e-07,5e-06
3.47429400558656e-07,4.2468838355151314e-07,5.129629334546569e-07,5e-06
3.465354026213664e-07,4.2459644210780616e-07,5.068031671447565e-07,5e-06
3.456801299778833e-07,4.2460169876291045e-07,5.004391141862647e-07,5e-06
3.4485773435483943e-07,4.247349809923815e-07,4.939090675701744e-07,5e-06
3.440614421448996e-07,4.250235634439514e-07,4.872513773723787e-07,5e-06
3.432837758315733e-07,4.254928805077167e-07,4.805017249513264e-07,5e-06
3.4251595570668395e-07,4.2616923844945437e-07,4.736914283753214e-07,5e-06
3.417481755494246e-07,4.2707824006503064e-07,4.668474197088813e-07,5e-06
3.4097168483287933e-07,4.2824032003718244e-07,4.599949673923469e-07,5e-06
3.4018043071842623e-07,4.296678180170302e-07,4.531611441021322e-07,5e-06
3.393703737851534e-07,4.313651107870453e-07,4.4637528973336887e-07,5e-06
3.385377615951461e-07,4.333301586271964e-07,4.3966622689858887e-07,5e-06
3.376792834751709e-07,4.355563691072274e-07,4.3305943077673036e-07,5e-06
3.367936597718515e-07,4.380347483075245e-07,4.2657573638421117e-07,5e-06
3.358813282954136e-07,4.407551792652398e-07,4.20230842062704e-07,5e-06
3.3494247391737515e-07,4.437064511805909e-07,4.140355891950089e-07,5e-06
3.339764952615414e-07,4.4687524214933994e-07,4.079970808705669e-07,5e-06
3.3298350548573773e-07,4.5024397130712345e-07,4.0212007280674727e-07,5e-06
3.319661288467275e-07,4.5378978371680443e-07,3.964088642830979e-07,5e-06
3.3092955682309033e-07,4.574864806741686e-07,3.9086894425817436e-07,5e-06
3.298798978139409e-07,4.6130736451548775e-07,3.855064889345392e-07,5e-06
3.288233406551629e-07,4.6522646923864973e-07,3.8032680540298743e-07,5e-06
3.277663953562268e-07,4.6921785058290187e-07,3.75334015002052e-07,5e-06
3.267150886226539e-07,4.732541393729136e-07,3.705311710832523e-07,5e-06
3.2567332701876424e-07,4.773056877445844e-07,3.659200289124596e-07,5e-06
3.246421726141536e-07,4.81341006181816e-07,3.615009057362866e-07,5e-06
3.236203762560556e-07,4.853295436653567e-07,3.5727216750938285e-07,5e-06
3.2260553012777946e-07,4.892462193014171e-07,3.5322988666648454e-07,5e-06
3.215951335832016e-07,4.930731652850848e-07,3.4936864416253447e-07,5e-06
3.205871910355621e-07,4.96796447240835e-07,3.45683347723048e-07,5e-06
3.195803541386763e-07,5.004016360810252e-07,3.421721585159641e-07,5e-06
3.185737561533889e-07,5.038724034127723e-07,3.388395038676172e-07,5e-06
3.1756702487046215e-07,5.071929960306956e-07,3.3569626888782413e-07,5e-06
3.165607703348818e-07,5.103524491806267e-07,3.3275640127254793e-07,5e-06
3.155571833941911e-07,5.13346254223181e-07,3.300340407883392e-07,5e-06
3.1456071924395014e-07,5.161734703520275e-07,3.275443195706503e-07,5e-06
3.1357889963611604e-07,5.188324103873712e-07,3.253044711072804e-07,5e-06
3.126223910544009e-07,5.213185581017213e-07,3.2333161803607965e-07,5e-06
3.117038928328267e-07,5.236253679501026e-07,3.216391194404514e-07,5e-06
3.108367082244206e-07,5.25747203518147e-07,3.202346601936125e-07,5e-06
3.100338105474556e-07,5.276819928359087e-07,3.191202981149052e-07,5e-06
3.0930681972901914e-07,5.29430663867545e-07,3.1829282929027535e-07,5e-06
3.086650422638217e-07,5.309947162575111e-07,3.177441362454229e-07,5e-06
3.0811643613133e-07,5.323753627987629e-07,3.174624754506419e-07,5e-06
3.076696025177854e-07,5.335741197003964e-07,3.1743392209902677e-07,5e-06
3.073333555641433e-07,5.345924078506462e-07,3.176424838174654e-07,5e-06
3.0711400686611557e-07,5.354297187233725e-07,3.1807021528731043e-07,5e-06
3.0701357897032627e-07,5.360824583714113e-07,3.187004981567761e-07,5e-06
3.070302291905179e-07,5.365442004636159e-07,3.195238633573377e-07,5e-06
3.071600177285684e-07,5.368060309868931e-07,3.205400447635555e-07,5e-06
3.073991147965864e-07,5.36856607079551e-07,3.217529364035712e-07,5e-06
3.077455832365235e-07,5.366825702515681e-07,3.231637383456102e-07,5e-06
3.0819945308937536e-07,5.362705409378797e-07,3.247685056367213e-07,5e-06
3.087608346908719e-07,5.35610860979512e-07,3.265603417966287e-07,5e-06
3.09428016313618e-07,5.347000584095528e-07,3.285321719576079e-07,5e-06
3.101972692212857e-07,5.335408131161891e-07,3.306767471452222e-07,5e-06
3.11063833897035e-07,5.321425956690113e-07,3.3298467986286996e-07,5e-06
3.120226537066895e-07,5.305226958827529e-07,3.3544313749879043e-07,5e-06
3.130679203507336e-07,5.287037286077246e-07,3.380355423749091e-07,5e-06
3.141919349165329e-07,5.267085920096238e-07,3.407421217475716e-07,5e-06
3.1538462467680733e-07,5.245571883893834e-07,3.435424687224235e-07,5e-06
3.166335381327744e-07,5.222658750911935e-07,3.464184301238798e-07,5e-06
3.1792375830236557e-07,5.198479312325038e-07,3.493540613623633e-07,5e-06
3.192383817849003e-07,5.173141431795646e-07,3.5233453260666353e-07,5e-06
3.205594298089218e-07,5.146729630830051e-07,3.5534792406934977e-07,5e-06
3.21868579801074e-07,5.119297722161837e-07,3.5838810926080864e-07,5e-06
3.2314810244636336e-07,5.090865470230414e-07,3.614538102685482e-07,5e-06
3.2438258762693076e-07,5.061434851689282e-07,3.6454397174440433e-07,5e-06
3.255621193308547e-07,5.03102786062131e-07,3.6765412670200743e-07,5e-06
3.2668582656899525e-07,4.999730399434805e-07,3.707762210472361e-07,4.961032286455661e-05
3.277616894440384e-07,4.967699944602045e-07,3.73900188878895e-07,4.8477052734808535e-05
3.2880136050979593e-07,4.935120673476321e-07,3.77014993107148e-07,4.739129969921856e-05
3.2981501145606777e-07,4.902161620251364e-07,3.801087494123677e-07,4.635317110304223e-05
3.3081015742316736e-07,4.86897939781233e-07,3.831682468900421e-07,4.536271541695805e-05
3.3179264309907177e-07,4.835729572288191e-07,3.8617855223754274e-07,4.4420067801167795e-05
3.327670241553354e-07,4.802553530124939e-07,3.8912337771102143e-07,4.35254591092063e-05
3.33736401756275e-07,4.769561806093252e-07,3.919859247704912e-07,4.267915306602667e-05
3.3470267653257045e-07,4.7368289172807654e-07,3.947501893590567e-07,4.188140879719532e-05
3.356668578612898e-07,4.704388770799218e-07,3.974024550294895e-07,4.113247760849376e-05
3.3662900818845e-07,4.672234109833419e-07,3.999317041200128e-07,4.043257798240767e-05
3.375885120674812e-07,4.6403305633686895e-07,4.023285279981915e-07,3.978183955412769e-05
3.3854412493901966e-07,4.608641098466549e-07,4.045835730099863e-07,3.918022644960958e-05
3.394928997521534e-07,4.577146429460664e-07,4.066869788092497e-07,3.8627408308341606e-05
3.404295370690702e-07,4.5458506298807963e-07,4.0862885930894104e-07,3.81226072040461e-05
3.413467891670477e-07,4.514774968750212e-07,4.103995633074233e-07,3.766454684954353e-05
3.422355810181075e-07,4.483950917045336e-07,4.119894519386982e-07,3.725153668092025e-05
3.4308497006444603e-07,4.4534191173768283e-07,4.1338932408949656e-07,3.688155855390565e-05
3.438823148460042e-07,4.423221930499485e-07,4.1459190091299883e-07,3.65523217740912e-05
3.446136304775177e-07,4.393381154784149e-07,4.155922600970691e-07,3.626138901085047e-05
3.4526517777114557e-07,4.363883618816451e-07,4.1638586811460745e-07,3.600633284316209e-05
3.4582556673475214e-07,4.334688463099845e-07,4.169665860258575e-07,3.578479205804814e-05
3.462856697886705e-07,4.305746825552728e-07,4.173266879306575e-07,3.559442113853682e-05
3.466366958752856e-07,4.277032955973771e-07,4.1745783506925274e-07,3.543280083114851e-05
3.468692492128659e-07,4.248576913700757e-07,4.1735164204287293e-07,3.5297430889052165e-05
3.469740183949809e-07,4.22046736368791e-07,4.170003079663453e-07,3.518596820512348e-05
3.469428195482538e-07,4.192823641432136e-07,4.163977615010003e-07,3.509661032171546e-05
3.467692102787448e-07,4.1657681052493883e-07,4.1554039301556547e-07,3.5028246711906564e-05
3.4644897604194716e-07,4.139406429800563e-07,4.144268584662083e-07,3.498028126706269e-05
3.45980794457498e-07,4.113812082491743e-07,4.1305737237127526e-07,3.495241745028636e-05
3.453661077321191e-07,4.0890180578918774e-07,4.114329646762251e-07,3.494456009259271e-05
3.446079804410897e-07,4.065019628699021e-07,4.095551505554038e-07,3.4956703299044486e-05
3.43711072395416e-07,4.0418002507452974e-07,4.074263571513655e-07,3.4988761014859614e-05
3.4268362363378627e-07,4.019366655013034e-07,4.050507219327224e-07,3.5040480142135886e-05
3.4153900467328586e-07,3.997750000743781e-07,4.024344071770181e-07,3.511144864940316e-05
3.402941168462892e-07,3.9769819547695386e-07,3.9958530594318745e-07,3.52010806681812e-05
3.3896595807596565e-07,3.9570967874652257e-07,3.965122952165669e-07,3.530857588763737e-05
3.375710671615171e-07,3.9381490363105845e-07,3.932242742770951e-07,3.543290894097513e-05
3.361291317646703e-07,3.9202065741255776e-07,3.8972999081587383e-07,3.557284243809955e-05
3.346664718813253e-07,3.9033336778018994e-07,3.8603918219327606e-07,3.5726951798619286e-05
3.332156691934076e-07,3.887589680026286e-07,3.821638461026443e-07,3.5893692797377534e-05
3.318126489976396e-07,3.8730513181772975e-07,3.7811776504307225e-07,3.607153695746623e-05
3.304936406288024e-07,3.8598462077690227e-07,3.7391448236970134e-07,3.625911024762777e-05
3.29291844449652e-07,3.848149582742347e-07,3.69565938115313e-07,3.645519722980712e-05
3.282346246408289e-07,3.838137163237794e-07,3.650823363525974e-07,3.665856815648534e-05
3.273433423904884e-07,3.8299436283856676e-07,3.604724557407678e-07,3.686777222550906e-05
3.2663498124365567e-07,3.8236454271796043e-07,3.5574474485460504e-07,3.708104344256701e-05
3.26122787209917e-07,3.819254160021536e-07,3.509091241471768e-07,3.729631851693745e-05
3.258156479332918e-07,3.81672145289466e-07,3.459785330047728e-07,3.7511349323762706e-05
3.257175821551985e-07,3.815959119000519e-07,3.409698422031669e-07,3.772394582210571e-05
3.2582760244619534e-07,3.816856814425316e-07,3.359028278634147e-07,3.793231566728489e-05
3.261403800833807e-07,3.819284702293153e-07,3.307973505457619e-07,3.8135397209667156e-05
3.2664839542354546e-07,3.8230973861243366e-07,3.256726992989539e-07,3.833309967685954e-05
3.2734568805894005e-07,3.8281507685091184e-07,3.205497696145527e-07,3.85263663892689e-05
3.282322395416248e-07,3.834314520707565e-07,3.154520454349801e-07,3.871701707329012e-05
3.293163247147472e-07,3.841467619402466e-07,3.104040463347867e-07,3.8907445409104665e-05
3.30612854441753e-07,3.8494916762656897e-07,3.054294802806606e-07,3.9100279608906424e-05
3.321394214881155e-07,3.858271567488938e-07,3.005508810083937e-07,3.929803129608911e-05
3.3391418463722356e-07,3.867699107489017e-07,2.957904526853569e-07,3.950274953262732e-05
3.359563674842575e-07,3.877675435428253e-07,2.911707518359825e-07,3.971580288535648e-05
3.382860557365007e-07,3.88810570373797e-07,2.867144863003638e-07,3.99379105978165e-05
3.409219402081888e-07,3.898887239520636e-07,2.8244397923052194e-07,4.016936526139773e-05
3.4387894327247786e-07,3.9098986309420273e-07,2.783802947376364e-07,4.041030289383925e-05
3.471665626595807e-07,3.920992939669097e-07,2.745418854429296e-07,4.066095781029493e-05
3.5078703498231075e-07,3.931994656463365e-07,2.709442227304246e-07,4.0921880088962336e-05
3.5473440852070525e-07,3.942700575376028e-07,2.676000647300173e-07,4.119404154952299e-05
3.5899616485662997e-07,3.952892812744137e-07,2.6451863412358185e-07,4.147876613182466e-05
3.635558191962952e-07,3.9623699381908997e-07,2.617047935755587e-07,4.1777535422652175e-05
3.683938119026469e-07,3.970976405080738e-07,2.591594788229007e-07,4.209176086439677e-05
3.734869391337674e-07,3.9786096882113206e-07,2.568813249285883e-07,4.242254893491677e-05
3.788092456557286e-07,3.9852172504921866e-07,2.548696497102633e-07,4.2770471128239095e-05
3.843342138746714e-07,3.9907910547159796e-07,2.5312694218587684e-07,4.31354124239222e-05
3.900344967966612e-07,3.995351224969073e-07,2.5165794335405265e-07,4.35165933109173e-05
3.958794316027197e-07,3.9989276550032244e-07,2.5046661539463386e-07,4.391272240961654e-05
4.0183413206781997e-07,4.001555290305023e-07,2.4955498572582734e-07,4.4322096972740995e-05
4.078613347605786e-07,4.003281559196894e-07,2.4892422036470056e-07,4.474256998750805e-05
4.1392418657619547e-07,4.0041647379272103e-07,2.4857508711646183e-07,4.517148370718355e-05
4.199883848880222e-07,4.004253202434793e-07,2.485067049029108e-07,4.560567850874018e-05
4.2602425713239187e-07,4.0035651494764254e-07,2.487151277531159e-07,4.604157405267434e-05
4.320078369210959e-07,4.002082010879832e-07,2.4919291694645536e-07,4.6475272295631347e-05
4.379183625177743e-07,3.9997535662687977e-07,2.499289723418369e-07,4.690270633824999e-05
4.437346849388789e-07,3.9965140127342097e-07,2.5090851327747674e-07,4.7319911627146193e-05
4.494354357310213e-07,3.9922939730285186e-07,2.5211398025100745e-07,4.772335905077024e-05
4.550021872380849e-07,3.987015955581076e-07,2.535259379250401e-07,4.811011584754298e-05
4.6042101043193683e-07,3.980589967925989e-07,2.551233660702524e-07,4.8477713723583066e-05
4.6568179267822925e-07,3.9729189097582325e-07,2.56884750921012e-07,4.882386469823658e-05
4.70778017138377e-07,3.963903491830525e-07,2.5878976913524444e-07,4.914623284613178e-05
4.7570630479077175e-07,3.9534490705306905e-07,2.608194817249712e-07,4.944241362281707e-05
4.804639826418861e-07,3.941486407101477e-07,2.6295516159421266e-07,4.971019166475561e-05
4.850463654644422e-07,3.927997604212224e-07,2.651777547168052e-07,4.9947913923214676e-05
4.894453359006929e-07,3.913019659650768e-07,2.674680701638162e-07,5e-06
4.936489402508577e-07,3.896627434838627e-07,2.6980645191233897e-07,5e-06
4.976426549873991e-07,3.878933212934525e-07,2.7217266639938177e-07,5e-06
5.014121567614364e-07,3.8601016957920645e-07,2.74547001883173e-07,5e-06
5.049447818165318e-07,3.8403369317837564e-07,2.76911050902279e-07,5e-06
5.082291871675339e-07,3.819840202261032e-07,2.7924721746835843e-07,5e-06
5.112553610265755e-07,3.79878241194905e-07,2.815385125011332e-07,5e-06
5.140147983134764e-07,3.777314700621762e-07,2.837691622038929e-07,5e-06
5.164993904721699e-07,3.7556014191847456e-07,2.859250579684802e-07,5e-06
5.186996132737352e-07,3.733839438635151e-07,2.8799421392954704e-07,5e-06
5.2060414513496e-07,3.712247541493968e-07,2.899671713642232e-07,5e-06
5.222017090523425e-07,3.6910414120778986e-07,2.91836489380828e-07,5e-06
5.234832091623911e-07,3.670414398356967e-07,2.935966512913069e-07,5e-06
5.244422921120051e-07,3.650541330672578e-07,2.952461895848536e-07,4.9848951031246994e-05
5.250747870850654e-07,3.6315972579006e-07,2.9678994094498574e-07,4.9580773927696976e-05
5.253778905857572e-07,3.6137553130787346e-07,2.982381108328117e-07,4.927549407606579e-05
5.253500784622672e-07,3.597163728227518e-07,2.9960310519777997e-07,4.893305892723342e-05
5.2499309386727e-07,3.581934803121524e-07,3.008977323104573e-07,4.855382139526898e-05
5.243140291056262e-07,3.568156787440573e-07,3.0213459981607837e-07,4.81385697730719e-05
5.233248012233218e-07,3.5559117879224723e-07,3.033245710196932e-07,4.768851518798701e-05
5.220411202785058e-07,3.545278256147309e-07,3.0447580341916326e-07,4.720521360917877e-05
5.204827261098042e-07,3.5363175365528716e-07,3.055946676469325e-07,4.6690411307225e-05
5.186726886554053e-07,3.529057673115243e-07,3.0668692852796106e-07,4.614586799335775e-05
5.166356759817032e-07,3.523486900630333e-07,3.077580233388805e-07,4.5573239901905496e-05
5.143981597650036e-07,3.519568419362925e-07,3.0881241999668864e-07,4.497406913677227e-05
5.11990073414373e-07,3.517265292492323e-07,3.0985286361318033e-07,4.434984774988675e-05
5.094444283240479e-07,3.516545987872128e-07,3.108805113104928e-07,4.370209068525885e-05
5.067940226802934e-07,3.517366483159693e-07,3.118952872611584e-07,4.303240198019062e-05
5.04067697802567e-07,3.5196523265336687e-07,3.128953862296263e-07,4.2342546757060324e-05
5.012890181673894e-07,3.5232963016606093e-07,3.1387694430284105e-07,4.1634509038263284e-05
4.984772277107188e-07,3.528169857162489e-07,3.1483489768962013e-07,4.09105057727612e-05
4.956478415826161e-07,3.534140103477265e-07,3.1576407570525946e-07,4.017291900018355e-05
4.928126681871021e-07,3.5410856980677626e-07,3.166593857602762e-07,3.9424126130679415e-05
4.89981490790548e-07,3.5489092175855864e-07,3.1751532670478947e-07,3.866632289315328e-05
4.8716432380476e-07,3.557538791603404e-07,3.1832586493181946e-07,3.790144889505869e-05
4.84370919386602e-07,3.566924431189607e-07,3.190847571834161e-07,3.713119161092274e-05
4.816093041994967e-07,3.577051629882111e-07,3.197858146605196e-07,3.635700648053244e-05
4.78887739217971e-07,3.5879558214819093e-07,3.2042336462566177e-07,3.5580151028596545e-05
4.7621801062035597e-07,3.5997036189735634e-07,3.209928645562731e-07,3.4801746971597465e-05
4.7361453795544433e-07,3.612359937311823e-07,3.214910621573751e-07,3.402285937609333e-05
4.7109057307260637e-07,3.625975325623683e-07,3.2191594768584504e-07,3.324455676977204e-05
4.686566293986732e-07,3.6405847453297946e-07,3.222666548728611e-07,3.246791059295992e-05
4.663209957544472e-07,3.6561987637640846e-07,3.225426889107752e-07,3.1693934625784693e-05
4.6408940006070565e-07,3.672797225619565e-07,3.227431960354592e-07,3.0923526970886167e-05
4.619640937563055e-07,3.690333863966783e-07,3.2286755060107177e-07,3.0157474456519343e-05
4.59943691490336e-07,3.708736486192897e-07,3.22916446374079e-07,2.939652050567625e-05
4.580232702034194e-07,3.727900223267774e-07,3.228924498965848e-07,2.8641476217723796e-05
4.561942119784976e-07,3.7476948703003923e-07,3.2280011561374477e-07,2.7893360929225487e-05
4.5444417300865936e-07,3.767986255392906e-07,3.226452954985189e-07,2.7153477639592e-05
4.5275733674771654e-07,3.788646183260993e-07,3.224334711165151e-07,2.6423296889367292e-05
4.5111520599786474e-07,3.809544741615796e-07,3.221679990160258e-07,2.5704234702669554e-05
4.4949828291877707e-07,3.8305376270277537e-07,3.2184955812615044e-07,2.499752144078871e-05
4.478875179836111e-07,3.851457929845855e-07,3.214773897397153e-07,2.430418127873064e-05
4.4626436954507215e-07,3.872122559016127e-07,3.210511329369975e-07,2.362505492657241e-05
4.4461044160215643e-07,3.8923544550469363e-07,3.205717840248527e-07,2.2960845824105512e-05
4.4290773819695537e-07,3.9120019871390297e-07,3.200423226805304e-07,2.2312171174133095e-05
4.4113916177571867e-07,3.9309432575102187e-07,3.194690357254306e-07,2.1679591576153187e-05
4.3928860721729925e-07,3.9490919545084723e-07,3.188621525973821e-07,2.1063603858079786e-05
4.3734086567436325e-07,3.9664254143143797e-07,3.182339363814931e-07,2.0464621651202983e-05
4.3528204549481947e-07,3.9830188194076144e-07,3.175957512413713e-07,1.988299417652305e-05
4.3309999477307396e-07,3.999037405409251e-07,3.169563431150248e-07,1.9319059885111616e-05
4.307840578518713e-07,4.014675019690976e-07,3.163210819168312e-07,1.8773191868651942e-05
4.2832478157089856e-07,4.030095385389804e-07,3.156919083960493e-07,1.824583362538295e-05
4.257139208988364e-07,4.0454219832285045e-07,3.150684372829493e-07,1.7737551491188535e-05
4.2294471583400786e-07,4.0607558936709204e-07,3.1445005972509897e-07,1.72490877557374e-05
4.2001262440418967e-07,4.076183316703968e-07,3.1383777130051217e-07,1.678135759113088e-05
4.169162093995315e-07,4.0917732968668497e-07,3.132341460250186e-07,1.6335371276432008e-05
4.136573652319507e-07,4.107580412970736e-07,3.126425163970003e-07,1.591213504648378e-05
4.10240644139516e-07,4.1236397229225594e-07,3.120676185234427e-07,1.5512591463239845e-05
4.066731449579254e-07,4.13994928155781e-07,3.115166162588577e-07,1.5137617465594635e-05
4.029667891488379e-07,4.156462985595536e-07,3.109981955194272e-07,1.4788065333115674e-05
3.991416086799808e-07,4.173101633997888e-07,3.1052066942486304e-07,1.4464815808693985e-05
3.952255599515665e-07,4.189768655782761e-07,3.1009134128628283e-07,1.4168807180140094e-05
3.912495689055272e-07,4.206354944774813e-07,3.097173528111809e-07,1.3901012970704749e-05
3.8724228443497227e-07,4.222733140870692e-07,3.0940643764787735e-07,1.366235998411856e-05
3.83228315765928e-07,4.238766053703394e-07,3.091660304097908e-07,1.3453594672284554e-05
3.792287315287571e-07,4.254335457294563e-07,3.0900140884870324e-07,1.327514308303818e-05
3.7526145733795e-07,4.269359159975259e-07,3.089146118660091e-07,1.312705994123979e-05
3.713419393615434e-07,4.283781625886636e-07,3.0890438892257177e-07,1.3009107195390755e-05
3.6748457985505545e-07,4.2975586086658784e-07,3.089668942266457e-07,1.2920867292439328e-05
3.6370289468329774e-07,4.310655057813297e-07,3.0909671964417855e-07,1.2861775949805744e-05
3.600077026011644e-07,4.3230570769128887e-07,3.092879482247797e-07,1.2831078780082927e-05
3.5640578857876503e-07,4.3347746248350133e-07,3.095354925913363e-07,1.2827818834365365e-05
3.5290049624794935e-07,4.3458184493792846e-07,3.098361556150321e-07,1.2850899556300521e-05
3.4949410038195144e-07,4.356174343473818e-07,3.101894067971411e-07,1.2899140910280412e-05
3.461907082057527e-07,4.3657974758689403e-07,3.105985060009004e-07,1.2971276839181148e-05
3.429971378972733e-07,4.3746201119218795e-07,3.1107024604712736e-07,1.3065930835830146e-05
3.3992183536402504e-07,4.3825567677105006e-07,3.116122333868956e-07,1.3181609394348785e-05
3.369745704254828e-07,4.3895009212262285e-07,3.1222998752078285e-07,1.3316719330618124e-05
3.341671239147009e-07,4.3953259329474e-07,3.129253169973138e-07,1.3469573707831971e-05
3.315130448957679e-07,4.3999023004099343e-07,3.1369557337347985e-07,1.363838530762113e-05
3.290269498521208e-07,4.4031245762002756e-07,3.1453439566686174e-07,1.3821311113984662e-05
3.267247868621008e-07,4.40493259103827e-07,3.1543377957639825e-07,1.4016558812964417e-05
3.246239652180077e-07,4.40531768778594e-07,3.1638566456866667e-07,1.4222524732953854e-05
3.2274202549994826e-07,4.404318789025046e-07,3.173832515486967e-07,1.4437952158261023e-05
3.210945117306584e-07,4.402014071080368e-07,3.184224454666647e-07,1.4662035152681445e-05
3.1969370512034164e-07,4.398505006633536e-07,3.195015687059249e-07,1.4894363920239533e-05
3.185486601766668e-07,4.3938998226262257e-07,3.206193910309461e-07,1.5134730850060407e-05
3.1766540729516576e-07,4.3883071410915673e-07,3.217735665288793e-07,1.5382904510605788e-05
3.170471428965705e-07,4.381831523214443e-07,3.2295997306285385e-07,1.5638455025169072e-05
3.166941326044164e-07,4.3745699239328936e-07,3.2417252517938556e-07,1.5900667998445265e-05
3.166026675140013e-07,4.366620664989073e-07,3.254039123211184e-07,1.6168536917995648e-05
3.167644109369093e-07,4.358096926683457e-07,3.266470220737947e-07,1.6440809091293307e-05
3.17166953882974e-07,4.349138440148506e-07,3.2789522259584305e-07,1.6716111664915413e-05
3.17794546214546e-07,4.3399232794056556e-07,3.29141282800308e-07,1.6993179760530647e-05
3.186285709210261e-07,4.3306603902766286e-07,3.303764670629741e-07,1.7271030485979346e-05
3.196480803076428e-07,4.3215569890769966e-07,3.315904338348945e-07,1.7548884498385462e-05
3.208302899226211e-07,4.3127906875045175e-07,3.327723626324743e-07,1.7825935269513707e-05
3.2215108905466125e-07,4.3045039621342964e-07,3.3391350186462497e-07,1.8101209561414952e-05
3.2358653472516606e-07,4.2968119423259965e-07,3.350092225905893e-07,1.8373593564769396e-05
3.251149919940518e-07,4.289806783534378e-07,3.360581742688068e-07,1.8642041663225603e-05
3.2671776387724e-07,4.28354677488509e-07,3.37059584016253e-07,1.890592795128772e-05
3.2837772087259986e-07,4.278043309774548e-07,3.380119538989037e-07,1.9165283220116268e-05
3.3007737485976693e-07,4.27327188720253e-07,3.389135245323331e-07,1.942072281024904e-05
3.317978098636561e-07,4.269204041952278e-07,3.397625494869891e-07,1.9673197208022207e-05
3.335194305348873e-07,4.265825028073809e-07,3.4055668203226217e-07,1.9923762572794023e-05
3.352232841460713e-07,4.263124603361065e-07,3.412921326634256e-07,2.017340041661043e-05
3.3689074454169265e-07,4.261085540096757e-07,3.4196351936400106e-07,2.042285415087044e-05
3.385022822936495e-07,4.259684865850034e-07,3.425641483393809e-07,2.067250095375124e-05
