7.577301176153253e-07,4.933563699585218e-07,3.9617703328159756e-07,2.5089062312976512e-05
7.60276301779896e-07,4.94986199015209e-07,3.958197060119928e-07,2.502139226521047e-05
7.622744227588841e-07,4.966351871417533e-07,3.9531597741391677e-07,2.499364724721293e-05
7.637520058259841e-07,4.983028716480857e-07,3.946753388655114e-07,2.500773598062796e-05
7.64738029594913e-07,4.999937509003106e-07,3.939049869508538e-07,2.5065154310867115e-05
7.652598773192742e-07,5.01718108830285e-07,3.9300996168787065e-07,2.516680392854721e-05
7.653403235966846e-07,5.034903960706624e-07,3.9199319178224243e-07,2.531281049253981e-05
7.649958010682607e-07,5.053251236372208e-07,3.908554606145136e-07,2.5502430081168654e-05
7.642374142514637e-07,5.072326422719782e-07,3.8959647674925043e-07,2.573408523412711e-05
7.630733392231897e-07,5.092174742023942e-07,3.88217550331079e-07,2.6005495753244198e-05
7.615101627563618e-07,5.112803020800726e-07,3.867250441578178e-07,2.6313867127490468e-05
7.595529593872136e-07,5.134229663646982e-07,3.851319528618657e-07,2.6656092006392126e-05
7.572066675740973e-07,5.156534922380722e-07,3.834550818238318e-07,2.702888895386789e-05
7.544803096240826e-07,5.17987453556482e-07,3.817103610404355e-07,2.7428857667028464e-05
7.513905973461995e-07,5.204443691093343e-07,3.799115225540064e-07,2.7852496246676086e-05
7.479609169981452e-07,5.230415101622116e-07,3.7807194081669783e-07,2.82962062204852e-05
7.442174997783331e-07,5.257890795382023e-07,3.762050433960164e-07,2.8756278774565265e-05
7.401862956432585e-07,5.286888083905004e-07,3.743225490047642e-07,2.9228892951067494e-05
7.358911956166296e-07,5.317347442689036e-07,3.724337885839249e-07,2.971017625232991e-05
7.313531985637519e-07,5.349140863327211e-07,3.7054649657915956e-07,3.019629741927634e-05
7.265900445032139e-07,5.382078332364409e-07,3.6866717626504593e-07,3.068352000142855e-05
7.216160668239608e-07,5.415919110078165e-07,3.6680130160914786e-07,3.1168200469982944e-05
7.164422552961448e-07,5.450386420944245e-07,3.6495375624066357e-07,3.1646769319084886e-05
7.11076197015493e-07,5.485182840772295e-07,3.631288728938201e-07,3.211576350698189e-05
7.055220541127177e-07,5.520001528044677e-07,3.613299806858879e-07,3.2571942037955716e-05
6.997817270852746e-07,5.554525334401697e-07,3.595589927706265e-07,3.3012462143902745e-05
6.938575440151965e-07,5.588420033003556e-07,3.578175898490361e-07,3.343513022175947e-05
6.877542562214936e-07,5.621344868914419e-07,3.561094922709989e-07,3.383871717643291e-05
6.814783940252988e-07,5.652990680803095e-07,3.5444018540101793e-07,3.4223181898109335e-05
6.750368737975522e-07,5.683111408162004e-07,3.528143877497283e-07,3.4589649738361194e-05
6.684375201242997e-07,5.711512192591542e-07,3.5123530320703986e-07,3.4940162527030314e-05
6.616906783955104e-07,5.738016312849026e-07,3.497056842119021e-07,3.5277293966334817e-05
6.548102786091453e-07,5.762449022806605e-07,3.482277401843563e-07,3.5603698200482955e-05
6.478140563479471e-07,5.784649567357642e-07,3.4680221736596805e-07,3.5921673501141525e-05
6.407219060159275e-07,5.804504745301028e-07,3.454296271951445e-07,3.623287055144465e-05
6.335523790034045e-07,5.821964166905211e-07,3.441127517836833e-07,3.653822618684821e-05
6.263197508532906e-07,5.83700962882615e-07,3.42856130132234e-07,3.6838047525788645e-05
6.190330767826581e-07,5.84961447880986e-07,3.4166287003490484e-07,3.7132122743097055e-05
6.116964891891227e-07,5.859729795808113e-07,3.405329947793358e-07,3.741988080816643e-05
6.043105559997649e-07,5.86729623006571e-07,3.394637385752861e-07,3.7700669355053475e-05
5.968764293514861e-07,5.872262818256337e-07,3.3844975639701e-07,3.7974001758437186e-05
5.894019312122664e-07,5.874586758832305e-07,3.3748342906789326e-07,3.823953964317179e-05
5.819034306420593e-07,5.874219131672793e-07,3.365557582511577e-07,3.849689783776479e-05
5.744007665238785e-07,5.871109506540858e-07,3.356569029396504e-07,3.8745648742218456e-05
5.669120791445505e-07,5.865223834760314e-07,3.3477607186338537e-07,3.898567332774776e-05
5.594558965162285e-07,5.856544646464082e-07,3.3390220906319825e-07,3.921754987769906e-05
5.520576573855764e-07,5.845058847268946e-07,3.330260558986306e-07,3.944265884621405e-05
5.447521601948205e-07,5.830756582272851e-07,3.321414619838901e-07,3.966302149908957e-05
5.375805314024192e-07,5.813650288232786e-07,3.3124428722694377e-07,3.9881044204977975e-05
5.305862809636694e-07,5.793815280746172e-07,3.303306347510846e-07,4.009928938106778e-05
5.238114974907501e-07,5.771424259089315e-07,3.293972738335869e-07,4.0320320839721835e-05
5.172936553535893e-07,5.746735529822867e-07,3.284443260017439e-07,4.054660099352954e-05
5.110663729444256e-07,5.720045069292318e-07,3.2747740813584014e-07,4.0780395354957627e-05
5.051634070734446e-07,5.691638995012349e-07,3.265074278913886e-07,4.102367363484981e-05
4.996201747000289e-07,5.661765695919078e-07,3.2554908877158627e-07,4.127802589972124e-05
4.944711089427625e-07,5.630638362969385e-07,3.246194832755672e-07,4.154461798536881e-05
4.897471258166234e-07,5.598453720920896e-07,3.2373695211929323e-07,4.182419134078186e-05
4.85475682678127e-07,5.565393329811396e-07,3.2292074296973147e-07,4.211707373437171e-05
4.816813366362018e-07,5.531605266516714e-07,3.2219216119318546e-07,4.242317043548242e-05
4.783848861311339e-07,5.497192182596185e-07,3.2157577818332306e-07,4.274194723169918e-05
4.7560182137187365e-07,5.46221939622933e-07,3.2109849701824216e-07,4.307241059294638e-05
4.733416318442096e-07,5.42673294255966e-07,3.2078693152178864e-07,4.341307110541069e-05
4.7160945222621534e-07,5.390772669785838e-07,3.206650861965034e-07,4.376191221601592e-05
4.704086344567916e-07,5.35437476625164e-07,3.207529993947898e-07,4.411642564083335e-05
4.6973948409639675e-07,5.317565460494454e-07,3.21065916665333e-07,4.447374506589706e-05
4.6959471619172783e-07,5.280357657617779e-07,3.216142632528412e-07,4.483084629765885e-05
4.6995753033615534e-07,5.242758854074006e-07,3.224050732514687e-07,4.518475724109801e-05
4.7080414504200744e-07,5.204776769178769e-07,3.234432119825345e-07,4.553271033707451e-05
4.721075384316741e-07,5.166409283481944e-07,3.2473010268222963e-07,4.5872185834080014e-05
4.738385808512654e-07,5.127636115446272e-07,3.262614584532894e-07,4.620085892200191e-05
4.759643591601288e-07,5.08843506970809e-07,3.280268887653469e-07,4.6516497986373966e-05
4.784472921710786e-07,5.048802340493872e-07,3.300110303291981e-07,4.681686033049775e-05
4.812468641013855e-07,5.008745091347735e-07,3.321943475127953e-07,4.709964471535662e-05
4.843214779221692e-07,4.968260031830173e-07,3.345538980303804e-07,4.73625241186472e-05
4.876288825112128e-07,4.927323675105068e-07,3.370654028883213e-07,4.760318149901217e-05
4.911266112860122e-07,4.885893994544905e-07,3.397058411032561e-07,4.781929836177862e-05
4.947722297695293e-07,4.843915020220874e-07,3.424545650135232e-07,4.800860199162914e-05
4.985224627156923e-07,4.801322959989616e-07,3.4529223266531684e-07,4.816903769379135e-05
5.023331754309165e-07,4.7580567273454284e-07,3.481985285515356e-07,4.8298916281086985e-05
5.061622438954797e-07,4.7140664176145393e-07,3.511505156490847e-07,4.83968990827373e-05
5.099730709760026e-07,4.669312007041155e-07,3.54122830860099e-07,4.846191380815855e-05
5.137350404007356e-07,4.6237660736136047e-07,3.5709013231806614e-07,4.849313711379207e-05
5.174216175132187e-07,4.5774288282439784e-07,3.600307434462613e-07,4.849003555509424e-05
5.210088788036364e-07,4.5303342103128717e-07,3.6292841392135e-07,4.845243035914864e-05
5.244747461072583e-07,4.482539068495072e-07,3.6577135209062576e-07,4.8380613173269986e-05
5.277978138177282e-07,4.4341091553136474e-07,3.6855046943679314e-07,4.8275516565305736e-05
5.309555122155704e-07,4.3851116743856965e-07,3.712577599555271e-07,4.813883022319499e-05
5.339230530532107e-07,4.3356295501483393e-07,3.7388561941585174e-07,4.7972919452976396e-05
5.366741420082279e-07,4.285784507070568e-07,3.764272108509583e-07,4.7780559032798683e-05
5.391823167383458e-07,4.235727077440232e-07,3.7887622883263385e-07,4.7564613046300546e-05
5.414223057548068e-07,4.1856048600796796e-07,3.812261037553116e-07,4.7327740881598404e-05
5.433714963802316e-07,4.135549635797157e-07,3.8347025308694073e-07,4.7072184686797586e-05
5.450101532782727e-07,4.085687344909728e-07,3.856030770352642e-07,4.679971351937204e-05
5.463202386641293e-07,4.036162408424763e-07,3.8762007926542036e-07,4.651172194208421e-05
5.472851804294971e-07,3.9871555689881576e-07,3.8951758327876895e-07,4.620935070219163e-05
5.478914637245963e-07,3.938866511320409e-07,3.912930749285089e-07,4.589349942898263e-05
5.481301884490722e-07,3.891479193119576e-07,3.92944786286433e-07,4.556478431638241e-05
5.479966072006584e-07,3.8451497079131715e-07,3.944700854164579e-07,4.522360502988829e-05
5.474885748310827e-07,3.8000133320868857e-07,3.9586462484989046e-07,4.4870323265948334e-05
5.466067857693968e-07,3.756193600300824e-07,3.971225870374928e-07,4.450540927714612e-05
5.453561630704217e-07,3.713825638150421e-07,3.982370423253194e-07,4.412955231748495e-05
5.43745402605862e-07,3.673083518109351e-07,3.9920100621617215e-07,4.374390420332675e-05
5.417851920622654e-07,3.634166813610097e-07,4.0000956881244686e-07,4.3350484913026505e-05
5.394870304561994e-07,3.597261014062494e-07,4.006623958630144e-07,4.2952449977618234e-05
5.368626926931486e-07,3.56253745711754e-07,4.0116514650057064e-07,4.255395237747063e-05
5.339240109753947e-07,3.5301969919537867e-07,4.015275631630841e-07,4.215972725379245e-05
5.306826198100869e-07,3.500502116098529e-07,4.017599967571426e-07,4.177465696873147e-05
5.271495965870824e-07,3.4737636209283906e-07,4.018723833683343e-07,4.140340186745807e-05
5.2333564174054e-07,3.4502938575435357e-07,4.018748966085929e-07,4.1050098516801306e-05
5.192516578525643e-07,3.430361310021253e-07,4.0177814717351776e-07,4.071814082914169e-05
5.149087356569993e-07,3.4141704764960553e-07,4.015926663137003e-07,4.041005270253833e-05
5.103181312005795e-07,3.4018660303881787e-07,4.013273528479074e-07,4.012744196308776e-05
5.054923798069084e-07,3.3935382627534827e-07,4.0098765151083567e-07,3.9871036335523096e-05
5.004467866693735e-07,3.389217601618545e-07,4.0057496465486113e-07,3.9640814334635606e-05
4.952011060089721e-07,3.3888775031672725e-07,4.000874176183731e-07,3.943619119128842e-05
4.897808532454893e-07,3.392444716466263e-07,3.9952140677521656e-07,3.9256168115391e-05
4.842160719289928e-07,3.3997964072500697e-07,3.988737079130409e-07,3.909941269260395e-05
4.785392373763993e-07,3.410753755844842e-07,3.9814284497278117e-07,3.896434158938701e-05
4.727848780644902e-07,3.4250914983323674e-07,3.973283047434992e-07,3.8849267128981126e-05
4.6698996391254406e-07,3.442566929781061e-07,3.9642926373612704e-07,3.875257501545765e-05
4.6119444102828246e-07,3.4629552335448687e-07,3.954448286125243e-07,3.8672869643045786e-05
4.554402426823017e-07,3.486075019025425e-07,3.943749084838198e-07,3.860906235755244e-05
4.497679926737914e-07,3.511796073959285e-07,3.932207309565465e-07,3.8560404197606344e-05
4.442156346104697e-07,3.5400167595305035e-07,3.91985077304648e-07,3.8526459939777375e-05
4.388207141142772e-07,3.570618457326021e-07,3.90671722379768e-07,3.850702093343379e-05
4.336234914783579e-07,3.6034398314711777e-07,3.8928420767578757e-07,3.8501985835936616e-05
4.286697814976925e-07,3.638292656588983e-07,3.878251989670037e-07,3.851126041164428e-05
4.2401118138123057e-07,3.6749929032353757e-07,3.8629679341955117e-07,3.853468064523485e-05
4.196992113077789e-07,3.713372299627507e-07,3.8470123897184313e-07,3.8571896024666214e-05
4.1577904517823634e-07,3.75326473826355e-07,3.830413200719233e-07,3.862219184289064e-05
4.122916112015544e-07,3.794489703876209e-07,3.813202446417261e-07,3.868435262803335e-05
4.0927903077316797e-07,3.836849215013483e-07,3.795416716874473e-07,3.8756665922837767e-05
4.06783652726864e-07,3.880131835361893e-07,3.777099855074615e-07,3.8837032575319755e-05
4.0484475228435224e-07,3.9241187969583936e-07,3.758306971334105e-07,3.8923106799347117e-05
4.034993830766272e-07,3.968603321124841e-07,3.7391039897397593e-07,3.901244043134794e-05
4.0278279452442725e-07,4.013416731820164e-07,3.7195556480152436e-07,3.910259833805191e-05
4.0272490246752893e-07,4.058427340211882e-07,3.6997145478526895e-07,3.919121963559176e-05
4.0334618454898365e-07,4.10350673880408e-07,3.6796235709066757e-07,3.927608001000119e-05
4.0465546687867046e-07,4.1485011643531727e-07,3.659328980461261e-07,3.9355169996208115e-05
4.0664968293158935e-07,4.193232224744072e-07,3.638894282416503e-07,3.942668522968954e-05
4.0931474035114227e-07,4.237515940598269e-07,3.618396661612592e-07,3.9488899539631875e-05
4.126263930845456e-07,4.281173969415674e-07,3.597904328667074e-07,3.954004368177089e-05
4.165526381705341e-07,4.324029602883171e-07,3.577457404181582e-07,3.957826304658e-05
4.2106114551286406e-07,4.365906158809501e-07,3.557069025237021e-07,3.960161946526488e-05
4.261290003069654e-07,4.406632022363732e-07,3.5367394431323535e-07,3.9608133002095785e-05
4.31745417707499e-07,4.4460462290247754e-07,3.516463032854756e-07,3.9595875265054746e-05
4.3790477636285286e-07,4.483999639580642e-07,3.4962304734021075e-07,3.956305919347791e-05
4.4459730463446395e-07,4.5203455358694704e-07,3.476045630544558e-07,3.9508065860634975e-05
4.5180442397150366e-07,4.5549322818533004e-07,3.455944217478925e-07,3.9429411034738646e-05
4.595002775274928e-07,4.587608927941202e-07,3.4359838302316237e-07,3.9325707243642876e-05
4.6765656408756216e-07,4.618232859074032e-07,3.416217652744181e-07,3.919572813884449e-05
4.7624568466298895e-07,4.6466736493578645e-07,3.396686315693545e-07,3.903867112568453e-05
4.852395002410511e-07,4.6728127623813676e-07,3.377425219840429e-07,3.885450963327625e-05
4.946059473733898e-07,4.6965340228853455e-07,3.358466946758316e-07,3.864414946028215e-05
5.043073211292524e-07,4.717713901812385e-07,3.339835890678707e-07,3.840927909304441e-05
5.143005183821802e-07,4.736229147493431e-07,3.3215454613942696e-07,3.8152046178785544e-05
5.245373728536232e-07,4.7519800875764e-07,3.303615218839588e-07,3.7874755658060976e-05
5.349653272145482e-07,4.764911397853753e-07,3.286097037347849e-07,3.7579790296648416e-05
5.455292933815193e-07,4.775016824482382e-07,3.269069802867809e-07,3.7269730441118986e-05
5.561765935717525e-07,4.782331385145175e-07,3.252603306716593e-07,3.6947412122188735e-05
5.668698883583726e-07,4.78692492041081e-07,3.236737048252038e-07,3.661584225813685e-05
5.776036978571311e-07,4.788906122280019e-07,3.2214968637216164e-07,3.627806773998856e-05
5.884073693955346e-07,4.788434583890237e-07,3.206925174934133e-07,3.5937014068494455e-05
5.993298543423095e-07,4.785719990241392e-07,3.1930867051980465e-07,3.559529513045551e-05
6.104213021040426e-07,4.780993152944574e-07,3.18004344748273e-07,3.525506172715806e-05
6.217219978202927e-07,4.77446885393513e-07,3.167830016128234e-07,3.491794742363231e-05
6.332578179426972e-07,4.766324384363713e-07,3.156452949231277e-07,3.458511715404282e-05
6.450397460044779e-07,4.756697692635106e-07,3.1459041801556645e-07,3.4257393735470776e-05
6.570647750321622e-07,4.745696134693858e-07,3.1361716022933676e-07,3.393540862483339e-05
6.693169690116014e-07,4.7334026099586666e-07,3.127245726000419e-07,3.3619684850299786e-05
6.817693226519824e-07,4.71988100984476e-07,3.1191320749326893e-07,3.331059450082311e-05
6.943852251574081e-07,4.7051845959006436e-07,3.111874410604383e-07,3.300826919504992e-05
7.071194717610424e-07,4.689364762977993e-07,3.105573085177252e-07,3.271262790652383e-05
7.199207791075439e-07,4.672487912191443e-07,3.1003714212106504e-07,3.242356469125215e-05
7.32734297190143e-07,4.6546482374381294e-07,3.0964144416877e-07,3.2141156210880436e-05
7.455028607071206e-07,4.63595473732625e-07,3.0938212833405605e-07,3.186575227828814e-05
7.581713714390418e-07,4.6165072009189797e-07,3.0926888122698215e-07,3.159792735022257e-05
7.706957818292687e-07,4.596381835649721e-07,3.0930994331006606e-07,3.133834303346086e-05
7.830482506648794e-07,4.575631396900405e-07,3.095114467583484e-07,3.1087616712559115e-05
7.952109984166063e-07,4.5542939796427203e-07,3.09875987507308e-07,3.084626514779865e-05
8.071646965218958e-07,4.532396232768299e-07,3.1040139014322574e-07,3.0614686350543025e-05
8.18881791588482e-07,4.509958402860932e-07,3.1108049553188486e-07,3.039312550652287e-05
8.303257776972146e-07,4.4870126545018956e-07,3.1190262014897103e-07,3.0181638725991627e-05
8.414530445250003e-07,4.463613212359621e-07,3.1285639435933764e-07,2.9980065594303858e-05
8.522166319663217e-07,4.4398232939433176e-07,3.1393176724944237e-07,2.978799863847087e-05
8.62569995822782e-07,4.4156951612057593e-07,3.151193429511409e-07,2.9604779011428667e-05
8.72467486965292e-07,4.391257020921188e-07,3.164089457612519e-07,2.942954186604321e-05
8.81862222807757e-07,4.366508500653897e-07,3.1779001217128465e-07,2.9261276496585847e-05
8.907050891695732e-07,4.341428859984935e-07,3.1925300952160465e-07,2.9098880605222827e-05
8.989461364260398e-07,4.315994397975276e-07,3.207891627949527e-07,2.8941215987623687e-05
9.065366874459578e-07,4.2901825045656904e-07,3.2238896544304336e-07,2.8787171221630987e-05
9.134304556405058e-07,4.263957707741101e-07,3.240436122395374e-07,2.8635763972673717e-05
9.195836183746679e-07,4.2372728114452207e-07,3.257486142495865e-07,2.848627652468291e-05
9.249555892634052e-07,4.2101008778657606e-07,3.275036150310478e-07,2.8338328315208562e-05
9.295114620520495e-07,4.182470156472162e-07,3.293087923382069e-07,2.81918356455887e-05
9.332238999667307e-07,4.154472385475807e-07,3.311632565709666e-07,2.8046903212255542e-05
9.360721876502209e-07,4.126245013828901e-07,3.330652436377873e-07,2.7903679019265318e-05
9.380404283588608e-07,4.097948715354104e-07,3.3501121659295265e-07,2.776219590563952e-05
9.391178835661345e-07,4.0697471845959464e-07,3.3699483637419017e-07,2.7622260810661876e-05
9.393004729932327e-07,4.041781195429071e-07,3.390076399603199e-07,2.7483431831252842e-05
9.385907564485495e-07,4.014148553107786e-07,3.410404812096947e-07,2.7345065174767127e-05
9.36995843815324e-07,3.9869052975125633e-07,3.4308374713316196e-07,2.7206401750287694e-05
9.34524906652607e-07,3.960078949134031e-07,3.4512713337090905e-07,2.706667516638393e-05
9.311884479377639e-07,3.9336807099182097e-07,3.4716075160563413e-07,2.6925200768024053e-05
9.269995547995873e-07,3.9077204907179866e-07,3.491758733481936e-07,2.678139967794509e-05
9.219752857096752e-07,3.882226542714528e-07,3.511635224655828e-07,2.663476287314636e-05
9.161366415855459e-07,3.857246455726939e-07,3.5311277874138156e-07,2.648481442601436e-05
9.095068708430278e-07,3.832819985462051e-07,3.550113187178402e-07,2.6331177897258664e-05
9.021092369433096e-07,3.808960919678609e-07,3.5684896404537023e-07,2.61737614140008e-05
8.939665206405378e-07,3.785678239384277e-07,3.586217930195533e-07,2.601287974528724e-05
8.851033095521858e-07,3.763011941057275e-07,3.6033182757311346e-07,2.58491941845612e-05
8.755486507529913e-07,3.7410405209202534e-07,3.6198260210258843e-07,2.568355924765529e-05
8.65336423546258e-07,3.719863584285087e-07,3.635769963724422e-07,2.5516883184088008e-05
8.545048517626566e-07,3.699589641334688e-07,3.651182944499275e-07,2.5350119103517115e-05
8.43096628253033e-07,3.6803244856924344e-07,3.666101906844465e-07,2.518444852685359e-05
8.311582385197207e-07,3.662151899186578e-07,3.680553190203259e-07,2.50214701853412e-05
8.187384665151739e-07,3.6451259820481095e-07,3.6945420943110524e-07,2.4863195949778155e-05
8.058869729905813e-07,3.629280827431829e-07,3.708053591359927e-07,2.4711896711631948e-05
7.926526778617674e-07,3.614637501296322e-07,3.7210562444100365e-07,2.4569911877883937e-05
7.790832984598256e-07,3.601198056296701e-07,3.733497320414187e-07,2.443947606705155e-05
7.652266804077395e-07,3.5889404136982655e-07,3.745298605119084e-07,2.4322583298584877e-05
7.51130610919408e-07,3.577823513565958e-07,3.756364196797662e-07,2.4220871777622945e-05
7.368401614210049e-07,3.567800046367897e-07,3.766592778201981e-07,2.4135523061288776e-05
7.223962693702745e-07,3.558830770907279e-07,3.775883495702495e-07,2.4067238719643555e-05
7.07836780656366e-07,3.550883452398254e-07,3.78413314051719e-07,2.4016335064272008e-05
6.93197766515249e-07,3.543911453321605e-07,3.791243610905617e-07,2.3982910643749974e-05
6.785136440258612e-07,3.537836964541733e-07,3.797150283316527e-07,2.396704239095916e-05
6.638163196015525e-07,3.532556092974936e-07,3.801835104942814e-07,2.396897993623751e-05
6.491349299323044e-07,3.5279510641113684e-07,3.805302809792464e-07,2.3989281183786748e-05
6.344966637751843e-07,3.523898230915329e-07,3.8075538098111366e-07,2.402885774552807e-05
6.199269616386219e-07,3.5202817852098473e-07,3.8085809145460157e-07,2.408893909828631e-05
6.054486060220279e-07,3.5170091235859514e-07,3.8083837933800136e-07,2.417096349783501e-05
5.91081478176465e-07,3.514007216572752e-07,3.8069789114575207e-07,2.427641868712236e-05
5.768436542704143e-07,3.5112044834158967e-07,3.8043923318120047e-07,2.4406682301327992e-05
5.627521833517664e-07,3.508528841427783e-07,3.8006495155620973e-07,2.4562894151649555e-05
5.488227048067982e-07,3.505931693294182e-07,3.795772322219233e-07,2.4745841677470082e-05
5.350691645007635e-07,3.503416630446653e-07,3.7897780476563673e-07,2.4955829088672242e-05
5.215043595427075e-07,3.501052731250025e-07,3.782684251545901e-07,2.519255940568714e-05
5.081408760087731e-07,3.4989587164605377e-07,3.774525565181505e-07,2.545509689204589e-05
4.949918229483578e-07,3.497258552754206e-07,3.765365802419158e-07,2.574194070849576e-05
4.820712235801889e-07,3.4960413024220505e-07,3.755284250528129e-07,2.605119365303245e-05
4.69394524293602e-07,3.495353903147739e-07,3.744351380183167e-07,2.638077950885961e-05
4.569793927443971e-07,3.4952159864236014e-07,3.732626208267123e-07,2.6728623334823e-05
4.4484751871248786e-07,3.495630035147483e-07,3.7201741159897463e-07,2.7092721656563972e-05
4.330267189345613e-07,3.496577846346061e-07,3.7070764963094654e-07,2.7471128349721437e-05
4.215498187873053e-07,3.498018057160856e-07,3.6934168445852325e-07,2.7861924291018817e-05
4.1045103179889655e-07,3.4998986294792807e-07,3.679258182329481e-07,2.8263182741634552e-05
3.9976411451377103e-07,3.502172739591565e-07,3.664635540684805e-07,2.867292348290915e-05
3.895222334527545e-07,3.504798614948428e-07,3.649562472857696e-07,2.9089056028198488e-05
3.7975906698475045e-07,3.507725826927593e-07,3.6340349631065544e-07,2.950930214975034e-05
3.7051188075857406e-07,3.510890557807476e-07,3.61802941943664e-07,2.9931132783913573e-05
3.618226309734861e-07,3.514241001249388e-07,3.6015043625281297e-07,3.035179076717088e-05
3.537337901777631e-07,3.517784656259944e-07,3.584410591160798e-07,3.076841355109291e-05
3.462828392198923e-07,3.5216107590910885e-07,3.5667013333450033e-07,3.117822442999889e-05
3.395002506175921e-07,3.525857509648538e-07,3.548337180559628e-07,3.157873255719551e-05
3.334097574035727e-07,3.5306596821875506e-07,3.5292881000823093e-07,3.1967796862989095e-05
3.2802773261514723e-07,3.536126962559132e-07,3.509529950939536e-07,3.234349191222543e-05
3.233623008393476e-07,3.5423505619620474e-07,3.4890382929193803e-07,3.270399323251438e-05
3.194136931364184e-07,3.5494009059372746e-07,3.467791649880809e-07,3.304766328312314e-05
3.1617569099028713e-07,3.5573063240250845e-07,3.445791774551149e-07,3.3373203901316804e-05
3.136373405736676e-07,3.5660381872369683e-07,3.423090542364264e-07,3.367972214178144e-05
3.117832347019941e-07,3.575515149707569e-07,3.399794567959377e-07,3.39667187012958e-05
3.105934423155538e-07,3.585614565351507e-07,3.376035916685602e-07,3.4234002399743576e-05
3.100473563720107e-07,3.5961805132614454e-07,3.3519419891716977e-07,3.44815581056774e-05
3.1012996652086694e-07,3.6070298527446617e-07,3.327633450570815e-07,3.4709512908138314e-05
3.1083336628746034e-07,3.617962638057775e-07,3.303227132925837e-07,3.4918201668653084e-05
3.121523522294534e-07,3.628776577888915e-07,3.27882573280517e-07,3.510813420664937e-05
3.140802994076035e-07,3.639283970893345e-07,3.254518263030712e-07,3.527985729520613e-05
3.166083052885007e-07,3.649335761284038e-07,3.2303910279394424e-07,3.543386265052412e-05
3.197245744375285e-07,3.658841727541903e-07,3.206521451346749e-07,3.557056408069771e-05
3.234124086465518e-07,3.667756625393539e-07,3.182964325659635e-07,3.569037505082598e-05
3.2764917360691765e-07,3.6760412286061883e-07,3.159764307202324e-07,3.5793945843732534e-05
3.324073346179637e-07,3.683645468701854e-07,3.136995865421011e-07,3.5882401516339985e-05
3.376552980524425e-07,3.6905136255457905e-07,3.1147875110533236e-07,3.595736344539833e-05
3.4335703457142427e-07,3.69658548845369e-07,3.093298796053061e-07,3.602075670984561e-05
3.49472183697285e-07,3.7018075125194134e-07,3.072678437365144e-07,3.607451793730257e-05
3.559566937525796e-07,3.706160841449608e-07,3.0530439866060426e-07,3.6120328178967074e-05
3.6276295150901154e-07,3.709676837561951e-07,3.034486503430828e-07,3.615949072367745e-05
3.6984057615147295e-07,3.712423990948958e-07,3.0170858444333283e-07,3.619295450840218e-05
3.7713842197760317e-07,3.7144817435424104e-07,3.000920999212684e-07,3.622137592001303e-05
3.846060141897396e-07,3.715919010117593e-07,2.9860662338465987e-07,3.624514183387065e-05
3.92194526229315e-07,3.716779181446168e-07,2.972577503829084e-07,3.626434410486555e-05
3.9985910627249364e-07,3.7170705874619495e-07,2.9604792708975665e-07,3.62787378099729e-05
4.075607367161505e-07,3.716765956314914e-07,2.9497620884264306e-07,3.6287737847602895e-05
4.1526453598695275e-07,3.715810150993835e-07,2.940397766012523e-07,3.6290481222967155e-05
4.229363620209053e-07,3.7141369705411977e-07,2.932359353848787e-07,3.628594488602229e-05
4.305421014998005e-07,3.7116918405729385e-07,2.9256216679027554e-07,3.6273104150052145e-05
4.38051046527178e-07,3.708438517665405e-07,2.920145416630008e-07,3.625110923578086e-05
4.454407628044364e-07,3.70434632568023e-07,2.915873536233285e-07,3.62194511447744e-05
4.5269848097523526e-07,3.699383927704925e-07,2.9127491052219127e-07,3.6178096101144734e-05
4.598171053001728e-07,3.693521046779214e-07,2.910729108798512e-07,3.6127569269669674e-05
4.667909473658596e-07,3.6867219623075205e-07,2.909773643721297e-07,3.606894824302784e-05
4.7361555801628104e-07,3.6789415160554594e-07,2.9098281802042406e-07,3.60037336111057e-05
4.802880945926253e-07,3.6701389828864496e-07,2.910821394805246e-07,3.5933655523291e-05
4.868050887951204e-07,3.6602941323581815e-07,2.912673699111016e-07,3.586052778684707e-05
4.931626018136708e-07,3.649403661096372e-07,2.9153018964255005e-07,3.578614340597418e-05
4.993620747187407e-07,3.6374633696070975e-07,2.9186171993720856e-07,3.5712123085992854e-05
5.054154644569644e-07,3.6244551919538357e-07,2.922524741916585e-07,3.563978101112968e-05
5.113435645314488e-07,3.610351442892647e-07,2.9269254511970865e-07,3.5570137962983316e-05
5.171693023017896e-07,3.595131644836455e-07,2.93171368769306e-07,3.5504011171821624e-05
5.229106950160197e-07,3.5787935310615494e-07,2.9367771658751396e-07,3.544205637272049e-05
5.285768830341864e-07,3.561357931358096e-07,2.942003006246572e-07,3.538479314695851e-05
5.341677740777305e-07,3.5428815439517094e-07,2.947279129422973e-07,3.533266457226028e-05
5.396752003028371e-07,3.52346327935356e-07,2.952490920156577e-07,3.5286070437817526e-05
5.450842696743062e-07,3.5032227676928467e-07,2.957519926731768e-07,3.5245286901227844e-05
5.503751275911887e-07,3.482269153653239e-07,2.962242908263088e-07,3.521031043455882e-05
5.555259784596537e-07,3.460689555474241e-07,2.966530312848598e-07,3.518077457585116e-05
5.605177240817845e-07,3.4385569208794346e-07,2.9702482680410874e-07,3.5156005278426954e-05
5.653368180840773e-07,3.415938506097189e-07,2.973264907442573e-07,3.51351293951548e-05
5.699726519279952e-07,3.392893111087609e-07,2.97545268424309e-07,3.5117160147710065e-05
5.744130315267459e-07,3.369462435937425e-07,2.97668314132058e-07,3.510108326308158e-05
5.786440386306647e-07,3.3456664213981105e-07,2.9768248595515423e-07,3.508594743950583e-05
5.826543012523039e-07,3.321510037600451e-07,2.975749778798218e-07,3.5070901114492406e-05
5.864381394218912e-07,3.2970095609906587e-07,2.973338735588127e-07,3.505515576041197e-05
5.899940268876332e-07,3.272222393381405e-07,2.9694807193297816e-07,3.503790120612459e-05
5.933215824444812e-07,3.247249926379477e-07,2.964072944543712e-07,3.5018208823702195e-05
5.964216348711043e-07,3.2222152163540345e-07,2.9570303107682876e-07,3.499497964787913e-05
5.992980180230156e-07,3.1972363512648675e-07,2.948301149385488e-07,3.4966990646388466e-05
6.019572160628797e-07,3.1724066275506737e-07,2.937872273106308e-07,3.493299931542421e-05
6.044056225023704e-07,3.1477862433998923e-07,2.925754958366712e-07,3.489182222727124e-05
6.066464766191786e-07,3.123403093138433e-07,2.9119675340185926e-07,3.484244573847713e-05
6.086779074290111e-07,3.099258525565268e-07,2.896528512042175e-07,3.478420011003274e-05
6.10493111607211e-07,3.075338010817717e-07,2.879455990769934e-07,3.471682362898913e-05
6.120827718933225e-07,3.051627519353229e-07,2.860771897959569e-07,3.4640351485779765e-05
6.134379347757887e-07,3.028140133881537e-07,2.840523123569939e-07,3.455493936076433e-05
6.145510573341817e-07,3.004946959409905e-07,2.8188126187269736e-07,3.4460718331691003e-05
6.154151420158949e-07,2.982181576802815e-07,2.795804442902754e-07,3.435782813337517e-05
6.160229279104665e-07,2.960005577648155e-07,2.77169675160034e-07,3.4246684337815965e-05
6.16367416573081e-07,2.9385752530910353e-07,2.746699126662316e-07,3.4128245825236905e-05
6.16442801657464e-07,2.9180504214936016e-07,2.721035177503211e-07,3.400408491022877e-05
6.162441470055414e-07,2.898638886796741e-07,2.694965267189847e-07,3.38763457657237e-05
6.157662330986695e-07,2.8806333582712696e-07,2.66880485629927e-07,3.374768482975427e-05
6.150030055460811e-07,2.864402629664706e-07,2.64290616846274e-07,3.3621134584173133e-05
6.139486720814796e-07,2.850345723822287e-07,2.6176142726832534e-07,3.349984120713383e-05
6.126009363096454e-07,2.838841172278814e-07,2.593238326737446e-07,3.3386727961733694e-05
6.109640785842563e-07,2.830206075354459e-07,2.570048293050818e-07,3.3284194156430356e-05
6.09049546821868e-07,2.824674527253037e-07,2.5482826570521085e-07,3.3193954174276834e-05
6.068752497752944e-07,2.822401151608658e-07,2.528154131187217e-07,3.311706005699046e-05
6.044643331251334e-07,2.823472846935045e-07,2.5098473044690945e-07,3.305404390803235e-05
6.018424510588378e-07,2.827911481418499e-07,2.493513710929371e-07,3.300504376304576e-05
5.990341999401193e-07,2.835676175651135e-07,2.479268518705935e-07,3.2969830627362995e-05
5.960605940881234e-07,2.846673828631845e-07,2.467188810139564e-07,3.294778253321775e-05
5.929385734969844e-07,2.860771040146663e-07,2.457318533631586e-07,3.293792857110301e-05
5.896819182261036e-07,2.877804707025084e-07,2.449674499892084e-07,3.293912210390848e-05
5.863018090637369e-07,2.897597153341364e-07,2.4442521627190836e-07,3.2950258260710934e-05
5.82806601087953e-07,2.919976816979149e-07,2.4410451250017373e-07,3.29704287158841e-05
5.792018154267685e-07,2.9447890160621625e-07,2.4400690790824837e-07,3.299901503392766e-05
5.754906798765967e-07,2.9718859165289003e-07,2.441369424120028e-07,3.303575567709667e-05
5.716751779544289e-07,3.0011133917915175e-07,2.44501059472411e-07,3.308075694536716e-05
5.677571255556661e-07,3.032308743174601e-07,2.4510518794176195e-07,3.313440946463706e-05
5.637383865358271e-07,3.065295467063477e-07,2.459520515217822e-07,3.319722923494228e-05
5.59621664795843e-07,3.099872246308189e-07,2.4703966444368864e-07,3.3269659759625577e-05
5.554138576065572e-07,3.135820846142213e-07,2.48361195482404e-07,3.335188256234157e-05
5.511288142839307e-07,3.172940058490224e-07,2.499053446357141e-07,3.344374213823285e-05
5.467846521004789e-07,3.211072544229104e-07,2.5165665151548185e-07,3.3544830830581704e-05
5.423977919722887e-07,3.250096418618313e-07,2.5359591620475465e-07,3.3654617470532624e-05
5.379797970933805e-07,3.2898994444539623e-07,2.5570114986301406e-07,3.3772536630522565e-05
5.335378773633493e-07,3.3303742872013175e-07,2.579491957564672e-07,3.389807157984657e-05
5.290765632818147e-07,3.3714447258656823e-07,2.6031763168692607e-07,3.403082307734008e-05
5.246001990181903e-07,3.4130892963594324e-07,2.6278568380426567e-07,3.4170509664041256e-05
5.201163161269799e-07,3.4553287048040647e-07,2.653333702035094e-07,3.4316889078669317e-05
5.156387752644879e-07,3.49819002239312e-07,2.679403480456147e-07,3.44696431601442e-05
5.111884400926843e-07,3.5416823507967536e-07,2.7058586617919297e-07,3.4628281239186285e-05
5.067892469982042e-07,3.585799385946219e-07,2.732489959465069e-07,3.479206390209653e-05
5.024623857730565e-07,3.6305380836579854e-07,2.7590893536907585e-07,3.4959936662281735e-05
4.982236923086326e-07,3.6759075078888455e-07,2.78546307336972e-07,3.513056575019658e-05
4.940848124931517e-07,3.721921518121352e-07,2.811442667428928e-07,3.5302559501881425e-05
4.900558618003336e-07,3.768584720948913e-07,2.8368782396643485e-07,3.547475265184633e-05
4.86147151480295e-07,3.8158780699867953e-07,2.8616247765457176e-07,3.564634818233296e-05
4.823681344139052e-07,3.863771859235835e-07,2.88553551393361e-07,3.581685642750784e-05
4.787258071692799e-07,3.912269122879361e-07,2.9084646968384616e-07,3.598589574102525e-05
4.75225752097126e-07,3.961420238425781e-07,2.9302787799128017e-07,3.615296441870432e-05
4.7187349982450075e-07,4.011283991430073e-07,2.95086625921344e-07,3.631730062009474e-05
4.6867332559873113e-07,4.061884117201452e-07,2.970139350107885e-07,3.647786032892865e-05
4.6562630940979854e-07,4.1131975017556563e-07,2.988027793821096e-07,3.6633367218811626e-05
4.6273067518916684e-07,4.165164170305414e-07,3.004467528480012e-07,3.6782446708484935e-05
4.5998689997034083e-07,4.2177071007074756e-07,3.0193968753744716e-07,3.692389903831014e-05
4.5740532708995464e-07,4.270759822518371e-07,3.0327609743747375e-07,3.7057003660779824e-05
4.550076672432065e-07,4.3242827481529034e-07,3.044515344426366e-07,3.718161708875784e-05
4.528214526953128e-07,4.378243017668779e-07,3.054632255574302e-07,3.729803712914296e-05
4.508761584014618e-07,4.4325782437602043e-07,3.063109207362257e-07,3.7406816950259836e-05
4.4920378843869287e-07,4.4871840229030507e-07,3.0699720703511636e-07,3.7508593594902026e-05
4.4784061567308e-07,4.5419218971551675e-07,3.075268944605937e-07,3.760393045688301e-05
4.4682779272170285e-07,4.5966329169942295e-07,3.079058641871227e-07,3.7693313947478576e-05
4.462089970695304e-07,4.651154782325414e-07,3.081404149848136e-07,3.7777314905204636e-05
4.4602475621567107e-07,4.705329831671385e-07,3.082367899767857e-07,3.785667118154104e-05
4.463059471068595e-07,4.759000715636762e-07,3.0820014359238574e-07,3.7932201631217184e-05
4.4706986960246134e-07,4.812008581645861e-07,3.080338212853468e-07,3.8004682126146174e-05
4.483204330202643e-07,4.864191284047184e-07,3.077397356066958e-07,3.807476762479101e-05
4.5005166296616154e-07,4.91537328353379e-07,3.073191364522879e-07,3.814297485923385e-05
4.522527486238048e-07,4.965363498281043e-07,3.067731915453829e-07,3.8209721907180606e-05
4.5491146175693214e-07,5.013964116553056e-07,3.061035421397211e-07,3.827541316358659e-05
4.5801411875686075e-07,5.060969231770527e-07,3.053124502551036e-07,3.834055608895088e-05
4.615446076891962e-07,5.106162964119287e-07,3.044025933527276e-07,3.8405864217478426e-05
4.6548487656527026e-07,5.14933467902626e-07,3.033779809725013e-07,3.847227639815708e-05
4.6981728497370863e-07,5.190289329319483e-07,3.0224596646832184e-07,3.854086636033338e-05
4.745276544994955e-07,5.228836956031707e-07,3.010182253715037e-07,3.86126856582662e-05
4.796071587058833e-07,5.264780980167129e-07,2.997103742988973e-07,3.868859091942816e-05
4.850552349506697e-07,5.297922752426742e-07,2.9834174430832665e-07,3.876908092485397e-05
4.908833674046133e-07,5.328081201999786e-07,2.969349086382206e-07,3.88541735268942e-05
4.971127789790955e-07,5.355118894315371e-07,2.955139539962769e-07,3.8943370028250875e-05
5.037655668642043e-07,5.378955514277903e-07,2.94102537585051e-07,3.90357304698685e-05
5.108575680704709e-07,5.399550626620023e-07,2.9272231140012715e-07,3.9130031202390884e-05
5.183959865870456e-07,5.416867210490893e-07,2.913915682823257e-07,3.9224957099654355e-05
5.263776849030772e-07,5.430851737094986e-07,2.9012462448885003e-07,3.9319271116488974e-05
5.34787400249756e-07,5.441450698079057e-07,2.8893160265066807e-07,3.941190620572519e-05
5.435998832085637e-07,5.448636246537821e-07,2.8781851282632516e-07,3.950199001329346e-05
5.527862332386234e-07,5.4524075350079e-07,2.8678867301127236e-07,3.958886165711369e-05
5.623198113837013e-07,5.452783881325789e-07,2.8584471898558545e-07,3.967208690463024e-05
5.721789492381352e-07,5.449807732015839e-07,2.849890160972406e-07,3.97514101575827e-05
5.823469069255904e-07,5.4435414728475e-07,2.842233803266124e-07,3.982662407725816e-05
5.928097614296073e-07,5.434054799740779e-07,2.8355030524346015e-07,3.989743126674576e-05
6.035523658525311e-07,5.421420899239207e-07,2.8297402726221397e-07,3.996335585512372e-05
6.145534332607395e-07,5.405726456122596e-07,2.82499489749007e-07,4.0023688163742895e-05
6.257822888903208e-07,5.387086192768026e-07,2.821305841040795e-07,4.007747680110597e-05
6.37199681683568e-07,5.3656598255698e-07,2.818691691066319e-07,4.012362316378742e-05
6.487625687436004e-07,5.341664131201439e-07,2.817153371043334e-07,4.0161041951445726e-05
6.604286637307079e-07,5.31536008738893e-07,2.8166866249807895e-07,4.018879856780108e-05
6.72156936652423e-07,5.287014949138017e-07,2.817290513903785e-07,4.0206214441605065e-05
6.839055445701224e-07,5.256868584793962e-07,2.818968076246545e-07,4.0212939256049795e-05
6.956299544190781e-07,5.225127233337589e-07,2.8217280565411945e-07,4.020892600786093e-05
7.072818761128162e-07,5.191973642716302e-07,2.8255829743364765e-07,4.019427659354014e-05
7.188091671202009e-07,5.157572154652332e-07,2.8305358742550004e-07,4.0169023027695833e-05
7.301567178935156e-07,5.122069332383569e-07,2.8365660438446603e-07,4.013298534422425e-05
7.412673911192156e-07,5.085595144757305e-07,2.843626023611731e-07,4.008578153039353e-05
7.520825437411852e-07,5.048257414877644e-07,2.851652132405228e-07,4.0026892887349296e-05
7.625423885681903e-07,5.010133804320691e-07,2.860587200386897e-07,3.995566683122139e-05
7.725860420990728e-07,4.971276783989908e-07,2.870399996469067e-07,3.9871277160195475e-05
7.821517486807771e-07,4.931726032916307e-07,2.8810735579233123e-07,3.977272704455896e-05
7.911783246060906e-07,4.891519088375451e-07,2.892570021980429e-07,3.9658896089169425e-05
7.996075631433822e-07,4.850711481342679e-07,2.904810823243351e-07,3.9528585702947166e-05
8.073858875117839e-07,4.809395055742385e-07,2.9176815183570853e-07,3.938061913226203e-05
8.144644577136276e-07,4.767683420894785e-07,2.9310474621333124e-07,3.9214106837075e-05
8.207989370253138e-07,4.725675769031233e-07,2.944773732623433e-07,3.9028785743209836e-05
8.263497957609622e-07,4.6834356009522865e-07,2.9587389832879767e-07,3.882514615494092e-05
8.310825133700675e-07,4.64099752095549e-07,2.972838761500768e-07,3.860426965244389e-05
8.349670841847331e-07,4.598404052933143e-07,2.986980779572518e-07,3.8367572655842654e-05
8.379780979049215e-07,4.555759564271342e-07,3.001067916584832e-07,3.811657912102408e-05
8.400965543862401e-07,4.5132525136104423e-07,3.0149804605516106e-07,3.7852779165680106e-05
8.41312042805954e-07,4.4711256821955643e-07,3.0285764129851534e-07,3.757770778446263e-05
8.416238791473027e-07,4.429631845882443e-07,3.0417074684626586e-07,3.729320637027628e-05
8.41041732777146e-07,4.389005015177703e-07,3.054238603199825e-07,3.7001589335639805e-05
8.395868151862255e-07,4.3494577987732496e-07,3.066062101625879e-07,3.670560677973183e-05
8.37292884146157e-07,4.311192150551115e-07,3.077099453980937e-07,3.6408336596862566e-05
8.342049884027712e-07,4.274390810847754e-07,3.087292689447332e-07,3.6113077728155656e-05
8.303757954046696e-07,4.2391943717400214e-07,3.096595951263742e-07,3.5823201744663685e-05
8.258612428509699e-07,4.20569856359078e-07,3.104973788510489e-07,3.554193665766176e-05
8.207179287363414e-07,4.173974523937662e-07,3.112404359669637e-07,3.527212374403653e-05
8.150029991955815e-07,4.144077772022547e-07,3.118882089367948e-07,3.501601227742275e-05
8.087736025974961e-07,4.116032168450544e-07,3.124413675596501e-07,3.477515347827795e-05
8.020847859424229e-07,4.08981809606081e-07,3.1290091020681164e-07,3.455045526560811e-05
7.949886887945176e-07,4.0653871225453427e-07,3.13267786298104e-07,3.4342391768644954e-05
7.875364225840376e-07,4.0426942622609526e-07,3.135435859696226e-07,3.415125982235908e-05
7.79781003265547e-07,4.021727241093768e-07,3.137308301704631e-07,3.397737997533191e-05
7.717779069995896e-07,4.002515809158595e-07,3.138319619153207e-07,3.382122213566237e-05
7.635816506241533e-07,3.9851167908806865e-07,3.138490897288563e-07,3.368348524725317e-05
7.552418961810579e-07,3.969586036531221e-07,3.137853291708825e-07,3.3565153089442444e-05
7.46801948906368e-07,3.9559568869808887e-07,3.13646159266142e-07,3.346750611564404e-05
7.382989283662127e-07,3.944234203902846e-07,3.134398476775168e-07,3.3392070397532206e-05
7.297665039792846e-07,3.934394064745946e-07,3.13176537034356e-07,3.334053809938779e-05
7.212413507289889e-07,3.9263856790688476e-07,3.128660415270336e-07,3.331468547143068e-05
7.127700898453928e-07,3.920152082664653e-07,3.125159147245863e-07,3.331626391356414e-05
7.04411982963328e-07,3.915665693204289e-07,3.1213126760178607e-07,3.3346852434634844e-05
6.962353226726529e-07,3.9129394410522597e-07,3.117155787946906e-07,3.3407691726543063e-05
6.883088209342173e-07,3.9120030779980886e-07,3.112711429103709e-07,3.3499516389975314e-05
6.806937626503301e-07,3.9128818849998994e-07,3.10799588701054e-07,3.3622441828451285e-05
6.734431625883243e-07,3.915593699570397e-07,3.1030308989496337e-07,3.377600358669201e-05
6.666069205080272e-07,3.920142959188742e-07,3.097849447430899e-07,3.3959319180160205e-05
6.602378057241602e-07,3.926502296263537e-07,3.092483289802076e-07,3.417122607232678e-05
6.543944491251341e-07,3.9345941031527006e-07,3.086948430693422e-07,3.441036129626649e-05
6.491377407952032e-07,3.9442836322814436e-07,3.081246486258815e-07,3.4675240556481746e-05
6.445221380534181e-07,3.9553895690319243e-07,3.0753753025182e-07,3.4964330940969594e-05
6.40589807687071e-07,3.967715454480121e-07,3.06934200007896e-07,3.527605720685885e-05
6.373698062889018e-07,3.9810842855982813e-07,3.0631741991562627e-07,3.5608720903937364e-05
6.348781308916803e-07,3.9953472009375686e-07,3.056915623857488e-07,3.596040897411769e-05
6.331196469297186e-07,4.0103770839195316e-07,3.050608842137626e-07,3.63289720324899e-05
6.320953397822719e-07,4.026073021167071e-07,3.044287880994589e-07,3.67120469945904e-05
6.318109887158504e-07,4.042365326351771e-07,3.037990219060699e-07,3.710706731820428e-05
6.322790393924819e-07,4.0592050657789967e-07,3.031773902768269e-07,3.7511237485845205e-05
6.335114441239e-07,4.0765401912508093e-07,3.025717795987833e-07,3.7921479322215496e-05
6.35510693150535e-07,4.0942937821400907e-07,3.0198991393672984e-07,3.8334415109824894e-05
6.382667265200461e-07,4.112359274130836e-07,3.0143697242721e-07,3.874645596667243e-05
6.417588650853586e-07,4.1306022701997753e-07,3.0091508923816184e-07,3.915399218920176e-05
6.459578932362739e-07,4.148861346348251e-07,3.0042404330249107e-07,3.9553622472504e-05
6.508265288229402e-07,4.166968554684108e-07,2.999619498239745e-07,3.994233561461761e-05
6.563194243958564e-07,4.1847857609026046e-07,2.995266205956131e-07,4.031759802295214e-05
6.62384074801863e-07,4.202212778193376e-07,2.991178897608816e-07,4.067736746819239e-05
6.68962085821526e-07,4.2191642874659297e-07,2.987388619217449e-07,4.102002005453172e-05
6.75989990507383e-07,4.235558105084428e-07,2.983950618523027e-07,4.134415994382047e-05
6.834006267501408e-07,4.2513166632985454e-07,2.980929655292493e-07,4.16484340306024e-05
6.911256968660575e-07,4.2663564353700437e-07,2.978390789152082e-07,4.1931469347012436e-05
6.990997569050546e-07,4.280570486331933e-07,2.9764014591930323e-07,4.219184879148577e-05
7.072650559415823e-07,4.293822748449935e-07,2.9750451451939576e-07,4.242806103297892e-05
7.155731866646037e-07,4.305957709327467e-07,2.974434737876378e-07,4.263848263872552e-05
7.239811708682553e-07,4.3168146673179426e-07,2.974710273903244e-07,4.282147523142645e-05
7.324462169351531e-07,4.326237573407696e-07,2.9760180614555933e-07,4.297566318468394e-05
7.409240334620534e-07,4.3340869014795524e-07,2.978493255874734e-07,4.310026651225248e-05
7.493700576777293e-07,4.340261418505538e-07,2.9822648962948817e-07,4.319521677245888e-05
7.577400699111241e-07,4.344712373536242e-07,2.9874649212573826e-07,4.326100653142912e-05
7.659891606281948e-07,4.3474376806947253e-07,2.9942149412169146e-07,4.329843415017103e-05
7.740722501969751e-07,4.3484906912356566e-07,3.002605590340027e-07,4.3308347295512016e-05
7.819487222650252e-07,4.3480158058792686e-07,3.0126996933072856e-07,4.329146323976567e-05
7.895862495362963e-07,4.346254273440586e-07,3.024556499036012e-07,4.324835321961733e-05
7.969579769343676e-07,4.3434910973520725e-07,3.03825782962378e-07,4.317955609083342e-05
8.040376959487959e-07,4.339991962353296e-07,3.05391602110137e-07,4.308567149987843e-05
8.107997318992552e-07,4.3359755376831816e-07,3.071647213632564e-07,4.296732024884343e-05
8.172208503872522e-07,4.331613239785543e-07,3.0915339051245605e-07,4.282502743964738e-05
8.232802827544851e-07,4.327040678100096e-07,3.1136164071272864e-07,4.2659191891076785e-05
8.289593086231546e-07,4.322379094517063e-07,3.1379070490670697e-07,4.247020531911086e-05
8.342407634486262e-07,4.3177530880889703e-07,3.164393857169777e-07,4.225864784017216e-05
8.391069296288322e-07,4.3132886266972416e-07,3.193029561610431e-07,4.2025476362026815e-05
8.435373022593795e-07,4.3090948467572526e-07,3.2237253115016625e-07,4.177216505390104e-05
8.475088663145685e-07,4.3052445485089455e-07,3.256356308422287e-07,4.150077373289562e-05
8.509977964268795e-07,4.301766221337318e-07,3.2907706905666215e-07,4.121392237845369e-05
8.53980231237009e-07,4.2986487299433786e-07,3.326791688034678e-07,4.091468837997848e-05
8.564328695845287e-07,4.2958522632208827e-07,3.3642151085821e-07,4.0606485992642516e-05
8.583344345363805e-07,4.293325750570611e-07,3.402810433814533e-07,4.0292944761095263e-05
8.59667007439971e-07,4.2910305862752364e-07,3.442326282513409e-07,3.9977742934423684e-05
8.604165731163771e-07,4.288954819995603e-07,3.482495214154872e-07,3.966439943753786e-05
8.605735602655464e-07,4.287106494980186e-07,3.523038184207911e-07,3.935610026753616e-05
8.601341681802074e-07,4.2855004008299604e-07,3.563676323598524e-07,3.90555875837388e-05
8.591015562510306e-07,4.2841524281939476e-07,3.60415052883715e-07,3.8765066470881844e-05
8.574853706430683e-07,4.2830735155459204e-07,3.644241694102768e-07,3.848612537054005e-05
8.552997896967073e-07,4.282257040382745e-07,3.683785879686574e-07,3.8219716029579746e-05
8.525619606060167e-07,4.281671383186423e-07,3.722671543355578e-07,3.796621010899875e-05
8.49292686004227e-07,4.2812598102784493e-07,3.760809342366338e-07,3.772553269054015e-05
8.455178914931428e-07,4.280938103710504e-07,3.7980965912416576e-07,3.749736818085973e-05
8.412667625046459e-07,4.2805954152736797e-07,3.8344058368783543e-07,3.72813846537222e-05
8.365668183728665e-07,4.280106867320893e-07,3.869591488534661e-07,3.707736974144107e-05
8.314404602295798e-07,4.279351847365237e-07,3.9034937551210644e-07,3.6885194317905906e-05
8.259046950948578e-07,4.278232515889569e-07,3.935945156806665e-07,3.670464549494907e-05
8.199728222241169e-07,4.276689208345782e-07,3.9667933486721795e-07,3.653527964805489e-05
8.136567182026339e-07,4.2746984315741246e-07,3.995925814461243e-07,3.6376391950023434e-05
8.069685665844724e-07,4.2722480612043686e-07,4.023277484835285e-07,3.6227044005849485e-05
7.999218614523467e-07,4.269309200915028e-07,4.048826057515762e-07,3.608606114437964e-05
7.925326409547342e-07,4.265825111460721e-07,4.0725790778932426e-07,3.5952029619082534e-05
7.848224767942988e-07,4.261718713744306e-07,4.094552765973797e-07,3.582336953115486e-05
7.768217849079894e-07,4.256907341637149e-07,4.1147598574940094e-07,3.569849142624845e-05
7.685690595697097e-07,4.2513151022104603e-07,4.13322152610506e-07,3.557599212224625e-05
7.601060772401851e-07,4.244879711377613e-07,4.149986359243392e-07,3.545481805448392e-05
7.514736037118343e-07,4.237553218775765e-07,4.1651290749507903e-07,3.533433570522076e-05
7.427108237468319e-07,4.229294525865113e-07,4.1787270238983704e-07,3.521431817646429e-05
7.338584765833997e-07,4.220056522213478e-07,4.1908331455699295e-07,3.509487120650989e-05
7.249614645590175e-07,4.2097837870743545e-07,4.201463802960032e-07,3.497628080802923e-05
7.160666763931499e-07,4.198426442321567e-07,4.210604693773054e-07,3.4858859280823054e-05
7.072189966534611e-07,4.185952256390857e-07,4.21822491458845e-07,3.474296402927409e-05
6.984607173199963e-07,4.1723468563183204e-07,4.224289177037839e-07,3.462910262484561e-05
6.89832681491007e-07,4.1576039191129644e-07,4.2287593330632894e-07,3.4517844846932e-05
6.813729657538885e-07,4.141707861207567e-07,4.231587686976849e-07,3.4409625118716857e-05
6.731142412546818e-07,4.124625573891726e-07,4.232726280024318e-07,3.4304690099420726e-05
6.650841056579957e-07,4.1063205325192533e-07,4.2321607396257136e-07,3.4203126377365364e-05
6.573083079811284e-07,4.0867750470832244e-07,4.229931698156394e-07,3.4104831084445184e-05
6.498135295980957e-07,4.065999552162262e-07,4.226118821641096e-07,3.400945237892149e-05
6.426299040269429e-07,4.0440223496740925e-07,4.220815580044952e-07,3.39163510353186e-05
6.357931561610168e-07,4.0208700878678473e-07,4.214115315207729e-07,3.382460340975707e-05
6.293424162170419e-07,3.996565595563174e-07,4.206096895642672e-07,3.3733039985104045e-05
6.233137501720646e-07,3.971165472055605e-07,4.1968115055378606e-07,3.3640289366630046e-05
6.177358036267461e-07,3.944809663047596e-07,4.1862837967710367e-07,3.3544814678425336e-05
6.126304008302804e-07,3.9177196732838955e-07,4.174522493209638e-07,3.344495779658584e-05
6.080139332150196e-07,3.8901535482308797e-07,4.1615241725222477e-07,3.333899329330777e-05
6.038978635782071e-07,3.8623794556122577e-07,4.147266860118418e-07,3.322517124237883e-05
6.002897182748835e-07,3.834659916512783e-07,4.131706368418049e-07,3.310174116458562e-05
5.971926760939239e-07,3.807221580954761e-07,4.114783279510742e-07,3.2966966301218765e-05
5.946033718827911e-07,3.780239151309749e-07,4.096431480542931e-07,3.2819140515135205e-05
5.925109701383656e-07,3.753854701670415e-07,4.0765825985358895e-07,3.2656623765836584e-05
5.908979097434592e-07,3.728215640754664e-07,4.055181612483082e-07,3.2477899955183964e-05
5.897401843007922e-07,3.703489106046803e-07,4.0322160245351094e-07,3.2281625502370194e-05
5.890072918500975e-07,3.6798352574211655e-07,4.007725222733445e-07,3.206663343528611e-05
5.886644917307645e-07,3.657380530733848e-07,3.981777219260129e-07,3.1831909697933086e-05
5.886768663410722e-07,3.636229181879322e-07,3.954443884499264e-07,3.157659031268962e-05
5.890110418180329e-07,3.616500015676125e-07,3.92579239826108e-07,3.1300014676131e-05
5.896341240086998e-07,3.598348299655365e-07,3.89588395562791e-07,3.1001843017965226e-05
5.905129565166698e-07,3.5819611519632366e-07,3.864771908649042e-07,3.068219047998037e-05
5.916144411610114e-07,3.567549201312149e-07,3.832499944208296e-07,3.0341698161288306e-05
5.929067297432598e-07,3.5553373379174435e-07,3.799108399070211e-07,2.9981515374386244e-05
5.943609231271891e-07,3.545541054570965e-07,3.764648861312443e-07,2.960321305249026e-05
5.959504913431885e-07,3.5383408671299976e-07,3.7291983751899643e-07,2.9208625651919733e-05
5.976478038491259e-07,3.5338681334153e-07,3.69287162464652e-07,2.8799669476465723e-05
5.994213926646072e-07,3.5321961908103594e-07,3.6558231971132177e-07,2.837829945545213e-05
6.012356969137032e-07,3.5333419241513107e-07,3.618225964926897e-07,2.7946631604877912e-05
6.030517479578007e-07,3.53728015573179e-07,3.580241299421286e-07,2.7506995982700262e-05
6.048278426188843e-07,3.543957599235871e-07,3.542020159348814e-07,2.706179859001544e-05
6.065208890888475e-07,3.5533154679389327e-07,3.503734949632793e-07,2.6613363892910065e-05
6.080889109333427e-07,3.565328083521571e-07,3.465591433257933e-07,2.6163913567588105e-05
6.09493282848627e-07,3.5800175998393775e-07,3.427802868759231e-07,2.571565029423335e-05
6.106995497191904e-07,3.5974170381152114e-07,3.390570122691509e-07,2.527083564546697e-05
6.11677950236838e-07,3.6175258974311867e-07,3.3540894514182174e-07,2.4831797022201167e-05
6.124040599632957e-07,3.640304663701167e-07,3.318561092938156e-07,2.440088907839432e-05
6.128587426930679e-07,3.6656934927236546e-07,3.2841816915975057e-07,2.398043722061965e-05
6.130274869058501e-07,3.693626050712323e-07,3.251134847611104e-07,2.3572634976129972e-05
6.128993006533351e-07,3.7240231968276136e-07,3.2195902818535307e-07,2.3179406580583413e-05
6.124652217934391e-07,3.756769384437445e-07,3.1896968956828826e-07,2.2802322655902372e-05
6.117173143774415e-07,3.791702741542525e-07,3.161569901679225e-07,2.244260343779212e-05
6.106487296869579e-07,3.828631265323796e-07,3.1352970740951986e-07,2.2101140243317126e-05
6.092543684463008e-07,3.867351053227515e-07,3.110957268325102e-07,2.1778518565124947e-05
6.07531931903164e-07,3.907648202763874e-07,3.0886229184372505e-07,2.1475104992721453e-05
6.054827895280823e-07,3.949289913578322e-07,3.06834870666888e-07,2.1191153556700752e-05
6.031110405272273e-07,3.992019341854445e-07,3.050161501659493e-07,2.0926806218493217e-05
6.004211852190575e-07,4.035556887738025e-07,3.034052571769509e-07,2.068200629946764e-05
5.974169839595876e-07,4.079604567189911e-07,3.019973981178658e-07,2.045650081788716e-05
5.941024405394733e-07,4.123854623416421e-07,3.007845359576634e-07,2.0250067534035968e-05
5.904831776416014e-07,4.168001671776043e-07,2.9975633198294675e-07,2.0062899441644986e-05
5.86566054827036e-07,4.211752379333737e-07,2.989011335931177e-07,1.989589039089112e-05
5.823575546803389e-07,4.254825029789148e-07,2.982083641119773e-07,1.9750625164018086e-05
5.778642822821215e-07,4.296947518091897e-07,2.9767043311286674e-07,1.9629129543374083e-05
5.730977248336035e-07,4.337868296653817e-07,2.9728127979788487e-07,1.9533551125745763e-05
5.680793131745982e-07,4.377367931623229e-07,2.970344301422157e-07,1.946587074290628e-05
5.628387767328812e-07,4.4152534060007657e-07,2.9692376574512386e-07,1.9427714724370595e-05
5.574077269260571e-07,4.4513416626019136e-07,2.96944228556549e-07,1.942034923908664e-05
5.518179083595193e-07,4.485449946456721e-07,2.9709026540698745e-07,1.944477743176688e-05
5.461050298520516e-07,4.517402846587644e-07,2.973543155658673e-07,1.9501730273832625e-05
5.403097234955864e-07,4.547043933588189e-07,2.9772665347076385e-07,1.9591523428093853e-05
5.344725295705257e-07,4.5742381038204964e-07,2.9819568807523107e-07,1.9713930634785213e-05
5.286288615668946e-07,4.5988781203588564e-07,2.987484777383851e-07,1.9868176843842664e-05
5.228081437903214e-07,4.620899847120636e-07,2.9937129649502533e-07,2.005302720077764e-05
5.170351246852793e-07,4.6402805355024254e-07,3.000495947711264e-07,2.0266863334444108e-05
5.113306600751821e-07,4.6570188412737205e-07,3.007675810099657e-07,2.050770703339085e-05
5.05711543217671e-07,4.6711303644227884e-07,3.015083607356721e-07,2.0773271579206673e-05
5.001904995835575e-07,4.682660849007233e-07,3.0225479943399077e-07,2.106108552951361e-05
4.947773123128715e-07,4.6916839717330407e-07,3.029905881887194e-07,2.136863062387228e-05
4.894824024640818e-07,4.698282796676536e-07,3.037008991295487e-07,2.169342197962358e-05
4.843237207248571e-07,4.7025481199520977e-07,3.0437244727680746e-07,2.2033007288698888e-05
4.793317943299115e-07,4.7045961304199284e-07,3.049933750598963e-07,2.2384914661153337e-05
4.745463613854864e-07,4.7045692194045363e-07,3.055528394718772e-07,2.2746596633615494e-05
4.700086136336154e-07,4.7026135799804603e-07,3.060404446372193e-07,2.311540127956307e-05
4.657577469852376e-07,4.698862412996685e-07,3.064465295496901e-07,2.348859153761041e-05
4.618320093694978e-07,4.6934271304690025e-07,3.0676346858607746e-07,2.386340124093272e-05
4.582690898011021e-07,4.686386511315858e-07,3.0698690972993285e-07,2.423708575546351e-05
4.551032664125802e-07,4.67779096249996e-07,3.071154993251011e-07,2.460694538873689e-05
4.5236090786304273e-07,4.6676885762932385e-07,3.0714939415565016e-07,2.497033178325292e-05
4.500585749070051e-07,4.6561460834732934e-07,3.0708971619053996e-07,2.532468786435089e-05
4.482068153937306e-07,4.643246364058821e-07,3.0693969583284157e-07,2.566764278948761e-05
4.4681686078863174e-07,4.629070162987665e-07,3.067058845209266e-07,2.5997085032657685e-05
4.4590280532417947e-07,4.613679511213006e-07,3.063973257333201e-07,2.631118307109619e-05
4.454792219221737e-07,4.59711573179626e-07,3.060228446101182e-07,2.66084338407644e-05
4.4556222376944324e-07,4.579408293896327e-07,3.055892106594621e-07,2.688774768211684e-05
4.4617325875868433e-07,4.5605883245740326e-07,3.0510223750367397e-07,2.7148479525837534e-05
4.4733821946038637e-07,4.540703210478039e-07,3.0457016992455537e-07,2.739038744067517e-05
4.490821640099229e-07,4.5198235632739456e-07,3.040068209316956e-07,2.7613568037185497e-05
4.5142375954098653e-07,4.4980436452054253e-07,3.034316655698871e-07,2.781837775856852e-05
4.543720701626252e-07,4.475478708630997e-07,3.0286599545779874e-07,2.8005334924951563e-05
4.5792741668231105e-07,4.45225435402233e-07,3.02328055191143e-07,2.8175001895365118e-05
4.6208386578145207e-07,4.428489580331049e-07,3.018312978024048e-07,2.83278494878258e-05
4.668298534804672e-07,4.404280027012641e-07,3.013864609962066e-07,2.8464184915876977e-05
4.721474979390929e-07,4.379693445779855e-07,3.0100468887363346e-07,2.858422560949497e-05
4.780119736256359e-07,4.3547884753120854e-07,3.006986662548332e-07,2.86882677320818e-05
4.84390593550258e-07,4.32963596367023e-07,3.0048157746059434e-07,2.877687494380024e-05
4.912425634947584e-07,4.3043267603397644e-07,3.003658990219727e-07,2.8851057332660167e-05
4.985214026614705e-07,4.278987835935642e-07,3.0036264129373104e-07,2.891235139879463e-05
5.061783479597951e-07,4.2538053874758795e-07,3.00480143113028e-07,2.896271091939608e-05
5.141641385615382e-07,4.2290226721576536e-07,3.0072282751959176e-07,2.9004267049042736e-05
5.224294607975584e-07,4.204904270321304e-07,3.010914611424977e-07,2.9039107633986157e-05
5.309244376540925e-07,4.1816879349273464e-07,3.0158442568624676e-07,2.9069154725010106e-05
5.395990354327758e-07,4.159550271197301e-07,3.0219845151611447e-07,2.9096114993259307e-05
5.48406348624066e-07,4.138600439533338e-07,3.029296234714665e-07,2.9121458576831017e-05
5.573058650363839e-07,4.11889826162546e-07,3.0377501528016e-07,2.9146428141278742e-05
5.662630231328318e-07,4.100476905788427e-07,3.047332242839475e-07,2.917213429256117e-05
5.752447852014587e-07,4.0833474815024577e-07,3.0580398112117673e-07,2.919977693585143e-05
5.842143272863029e-07,4.0674866099903314e-07,3.0698766743662127e-07,2.9230843221204168e-05
5.93129513753729e-07,4.052831274136936e-07,3.082839491212171e-07,2.9267021120779994e-05
6.01945884511199e-07,4.039292027897893e-07,3.096896691781559e-07,2.9309848482665553e-05
6.1061965466948e-07,4.0267669252709925e-07,3.111977619743997e-07,2.936041118609024e-05
6.191075941375387e-07,4.015141659957278e-07,3.127987932372242e-07,2.9419326591331592e-05
6.273654126157675e-07,4.004298626146307e-07,3.1448371436051376e-07,2.9487053923401606e-05
6.353470528316331e-07,3.994166535829324e-07,3.162441409333283e-07,2.956438895100479e-05
6.430053688889035e-07,3.984790367997289e-07,3.1807030009685485e-07,2.9652799932004564e-05
6.502937934861214e-07,3.976361740543336e-07,3.199503125046981e-07,2.975435986057733e-05
6.571695657734316e-07,3.9691821099866275e-07,3.218716798807526e-07,2.987141440790396e-05
6.635988554383047e-07,3.963586934293057e-07,3.238227202963555e-07,3.000626135292314e-05
6.695608497189572e-07,3.9598801020015227e-07,3.2579273372837853e-07,3.016091075461399e-05
6.750475092364657e-07,3.958305514389778e-07,3.277721372926362e-07,3.0336849657543157e-05
6.800592920473212e-07,3.9590436133712344e-07,3.2975361946250127e-07,3.053482424504267e-05
6.845997057402178e-07,3.9622165846913816e-07,3.317332719132623e-07,3.075475809506176e-05
6.886718853648813e-07,3.967897390190861e-07,3.3371107339276517e-07,3.099585280403342e-05
6.922776114797215e-07,3.976107831545809e-07,3.356910657656037e-07,3.125677744610069e-05
6.954168377404173e-07,3.9868034147228e-07,3.376798911711233e-07,3.1535808438526025e-05
6.980879771041123e-07,3.999866861152613e-07,3.396840780961469e-07,3.183086943159089e-05
7.002906000405569e-07,4.0151209499170313e-07,3.417096049687409e-07,3.213956801738027e-05
7.020291744099158e-07,4.0323582982162255e-07,3.4376391064412377e-07,3.2459331686506374e-05
7.033141132628424e-07,4.051382181961853e-07,3.458574225829155e-07,3.278759995831614e-05
7.041601790815004e-07,4.072038249850621e-07,3.4800249716654293e-07,3.312197447087231e-05
7.045859418238117e-07,4.094218558357238e-07,3.5020972258896324e-07,3.3460287669973354e-05
7.046143543795981e-07,4.1178440219042114e-07,3.524846782276733e-07,3.3800582957351644e-05
7.042716879794379e-07,4.142847613070502e-07,3.548271375914047e-07,3.414102278385084e-05
7.035851017538621e-07,4.1691694624306605e-07,3.572316494008525e-07,3.447978019691949e-05
7.025815511298563e-07,4.196751098119697e-07,3.5968931004449723e-07,3.481497054209209e-05
7.012882669125286e-07,4.225522364203789e-07,3.621909993990314e-07,3.5144619424764906e-05
6.997323588941184e-07,4.2553926624289175e-07,3.647308007011485e-07,3.546662998070113e-05
6.979396177611396e-07,4.286244777510428e-07,3.673071053641855e-07,3.5778796173336124e-05
6.959338611744528e-07,4.3179236126152785e-07,3.6992017708184427e-07,3.6078934980393607e-05
6.937358138730333e-07,4.3502293056542856e-07,3.7256947841744157e-07,3.636508765197408e-05
6.913619905247776e-07,4.3829203969842157e-07,3.752536844192663e-07,3.663567157796969e-05
6.888259661236892e-07,4.4157199199863175e-07,3.779715235712035e-07,3.688950754764556e-05
6.861411773070997e-07,4.448324855350561e-07,3.8072302672833965e-07,3.7125739899994485e-05
6.83322451454506e-07,4.480419454438783e-07,3.835109961044234e-07,3.7343739319952655e-05
6.803864020216281e-07,4.511687998537903e-07,3.863390116377167e-07,3.7543041108624435e-05
6.77352250402529e-07,4.541832594544336e-07,3.892069305323301e-07,3.772329569301044e-05
6.742431571596438e-07,4.570594061867542e-07,3.921088551473683e-07,3.788419828432936e-05
6.710867358571304e-07,4.5977607269632757e-07,3.950339134488367e-07,3.8025430447179375e-05
6.679123284247958e-07,4.6231564299789724e-07,3.9796777127227633e-07,3.814668120480643e-05
6.647454462317672e-07,4.646615310497364e-07,4.0089435032679313e-07,3.8247747744564944e-05
6.616041275886522e-07,4.667969737775303e-07,4.0379744350899506e-07,3.832866551283137e-05
6.585002479301e-07,4.6870621019882154e-07,4.066629474123097e-07,3.838982906216947e-05
6.554436894781739e-07,4.7037566242113657e-07,4.094827116841435e-07,3.843209980155548e-05
6.524457759785372e-07,4.7179372693329524e-07,4.1225669189688367e-07,3.845690084254744e-05
6.495203421175746e-07,4.729505625172493e-07,4.149893668141261e-07,3.846624054284937e-05
6.466816222558591e-07,4.738387968865542e-07,4.176831806348296e-07,3.846260737421921e-05
6.439398218808253e-07,4.744547172566309e-07,4.2033479589765045e-07,3.8448742681987796e-05
6.412984637661729e-07,4.747986359533249e-07,4.22935233017677e-07,3.842735344132861e-05
6.387554516468254e-07,4.7487350629835346e-07,4.25472042699128e-07,3.840086404146725e-05
6.363047190997691e-07,4.746834314707178e-07,4.2793233325008006e-07,3.837124679772444e-05
6.339359808555734e-07,4.7423350469521286e-07,4.303044209587289e-07,3.833990283764029e-05
6.316339044305422e-07,4.735303557060768e-07,4.3257705779460075e-07,3.8307648751430124e-05
6.293787107780138e-07,4.7258261395164783e-07,4.34738505113985e-07,3.827492039119533e-05
6.271485752446589e-07,4.7140042102583524e-07,4.3677661396945935e-07,3.8242076676475e-05
6.249220538165866e-07,4.699936808596424e-07,4.386797542867307e-07,3.8209502345620755e-05
6.226789096824708e-07,4.683709659589259e-07,4.4043870128156364e-07,3.817745961526402e-05
6.204008962272193e-07,4.665414337064801e-07,4.420478853255145e-07,3.8145902761231744e-05
6.18073027995861e-07,4.645180251797524e-07,4.435043626757965e-07,3.811444243970824e-05
6.156825638209782e-07,4.623185941231789e-07,4.4480578310825846e-07,3.808258895581728e-05
6.132161064903593e-07,4.59965170455325e-07,4.4594972639758816e-07,3.8050251006279296e-05
6.106584657602881e-07,4.574826582928265e-07,4.4693450054141426e-07,3.8018155691467206e-05
6.0799396639833e-07,4.548971756345791e-07,4.477597212643055e-07,3.798784899015052e-05
6.052077131535675e-07,4.522343578659282e-07,4.4842583429907503e-07,3.796134701092264e-05
6.022851149457571e-07,4.4951881987926294e-07,4.489329311190955e-07,3.794074966930103e-05
5.992111090954596e-07,4.4677534196381435e-07,4.492796568652854e-07,3.792798165902832e-05
5.959709417003998e-07,4.440299770586872e-07,4.494626086254777e-07,3.792464073106476e-05
5.925514797833079e-07,4.4130918073451565e-07,4.4947630671007033e-07,3.793187686125242e-05
5.889415894420518e-07,4.3863682754265144e-07,4.493141697607274e-07,3.795027368634264e-05
5.851326293300973e-07,4.360310327123967e-07,4.489695532330768e-07,3.797978949772168e-05
5.811199595058032e-07,4.33503819029502e-07,4.484359259499897e-07,3.801981737400647e-05
5.769032044399545e-07,4.3106393702278967e-07,4.4770772501814496e-07,3.806935389877263e-05
5.724841092861767e-07,4.287195178887765e-07,4.467816559999277e-07,3.8127219313301294e-05
5.678649734781161e-07,4.264791357966194e-07,4.4565664327968767e-07,3.819224307468357e-05
5.630488044565833e-07,4.2435336308238823e-07,4.4433344044440917e-07,3.826333932939705e-05
5.580388715675454e-07,4.223557917061559e-07,4.428145404732094e-07,3.833947129883321e-05
5.528376801929775e-07,4.2050042401891476e-07,4.4110346196966755e-07,3.8419532823961404e-05
5.474475793252742e-07,4.1879773137644187e-07,4.3920439110681923e-07,3.850219190267738e-05
5.418735586377046e-07,4.172532862532435e-07,4.3712352329523345e-07,3.858580565136822e-05
5.36126616424026e-07,4.15868213203644e-07,4.348702557177695e-07,3.86684638960552e-05
5.302254758687316e-07,4.146396120428397e-07,4.3245566808796083e-07,3.87480769862799e-05
5.24195395781398e-07,4.135607685151077e-07,4.298897456298811e-07,3.882241772347505e-05
5.180644893727391e-07,4.126210960362132e-07,4.2718021340607365e-07,3.888913284644851e-05
5.118602459197424e-07,4.118063273672045e-07,4.243333308781982e-07,3.8945774460233175e-05
5.056083664714447e-07,4.110995707460846e-07,4.2135529019876435e-07,3.8989848688549155e-05
4.993325012002102e-07,4.1048219258611616e-07,4.182528829535832e-07,3.901887538600878e-05
4.930536982707714e-07,4.0993403342103026e-07,4.1503437731812686e-07,3.9030483940300394e-05
4.867902604380596e-07,4.0943436639965406e-07,4.1171155796603156e-07,3.902250393346271e-05
4.805575404020065e-07,4.0896325943997135e-07,4.0830006139211e-07,3.8992976356217855e-05
4.743671137505475e-07,4.085019793290371e-07,4.0481686811326325e-07,3.894013688090564e-05
4.682268715023586e-07,4.080336381189101e-07,4.012784822127823e-07,3.886246582406921e-05
4.621430005232405e-07,4.075447091681955e-07,3.9770069758385294e-07,3.8758763687445426e-05
4.561220850903944e-07,4.070252534937515e-07,3.940976471881711e-07,3.8628163260570255e-05
4.5017153795171434e-07,4.064670551835343e-07,3.904803957837383e-07,3.8470110542710764e-05
4.442992573420624e-07,4.05861594612139e-07,3.8685696045629394e-07,3.828440296145484e-05
4.385152304004401e-07,4.051995106332362e-07,3.832336407074315e-07,3.8071254237046544e-05
4.32834615528259e-07,4.044715612056214e-07,3.796159097587472e-07,3.7831287486994453e-05
4.272775349279293e-07,4.0366945425782883e-07,3.76008063969108e-07,3.756546465795461e-05
4.218651049673106e-07,4.027852553311508e-07,3.7241271910989157e-07,3.7275036509600205e-05
4.1661622254275064e-07,4.018105743263427e-07,3.688309757260615e-07,3.696154990052226e-05
4.1154662026897894e-07,4.0073663206138796e-07,3.65262621262441e-07,3.6626862744329656e-05
4.066698642672618e-07,3.9955489121879894e-07,3.617063180404964e-07,3.627307680133195e-05
4.019994512200986e-07,3.9825883857880047e-07,3.581603308500639e-07,3.590236959608753e-05
3.975495203040664e-07,3.968467687867636e-07,3.5462336617102777e-07,3.551681766839031e-05
3.933352686984819e-07,3.953230416176643e-07,3.510953681079675e-07,3.511830528285717e-05
3.893748450180022e-07,3.936967808218257e-07,3.475786311450844e-07,3.470849484101389e-05
3.856891748357982e-07,3.9197926630769523e-07,3.440782002379588e-07,3.428879344798504e-05
3.822987696947069e-07,3.9018107403401853e-07,3.4060087297627933e-07,3.386034043027433e-05
3.792231125092176e-07,3.883107511174621e-07,3.371539934716133e-07,3.3424076178070535e-05
3.764852679053874e-07,3.863758674692278e-07,3.3374449560425485e-07,3.2980934070073864e-05
3.741160812688947e-07,3.843841277562515e-07,3.3037823397590077e-07,3.253211179771487e-05
3.721524711022383e-07,3.8234345475406854e-07,3.270603561086391e-07,3.207921359895896e-05
3.706331042466262e-07,3.8026184233128534e-07,3.237961008261187e-07,3.16241343082541e-05
3.6959545392114356e-07,3.781464813032214e-07,3.205908593661511e-07,3.1168829684932727e-05
3.69071887843219e-07,3.7600317612118046e-07,3.174501254328594e-07,3.07151397186074e-05
3.690852862040025e-07,3.738384413966666e-07,3.143800745539395e-07,3.026470449730467e-05
3.696486368206854e-07,3.716622838098914e-07,3.11387710250812e-07,2.981902060914411e-05
3.7076846776439364e-07,3.6948774511945063e-07,3.0848007623540595e-07,2.9379596376494752e-05
3.724500646246621e-07,3.673285432681921e-07,3.05664169946401e-07,2.894798375297537e-05
3.747023489702518e-07,3.65198472513968e-07,3.0294790480363714e-07,2.852561185557357e-05
3.7753824304087173e-07,3.63112468490811e-07,3.003399035401045e-07,2.8113609118068793e-05
3.8097218622856156e-07,3.610869297611953e-07,2.978473988881007e-07,2.7712757970768244e-05
3.8502080435214267e-07,3.591379334161228e-07,2.954747486658996e-07,2.7323545719459923e-05
3.89704664671996e-07,3.572784957656825e-07,2.932244476056729e-07,2.694621122821344e-05
3.9504507057778785e-07,3.5551697880614523e-07,2.910985746139679e-07,2.6580746674235e-05
4.0105772504081844e-07,3.5385715584239843e-07,2.890981593736181e-07,2.6226911498098725e-05
4.0775138951314743e-07,3.522992690640289e-07,2.872218860276259e-07,2.588433824633305e-05
4.151319513517221e-07,3.508409162476412e-07,2.8546618111216997e-07,2.5552695958401818e-05
4.232020513955045e-07,3.494774166547596e-07,2.83825713074604e-07,2.523178456095939e-05
4.3195462732850114e-07,3.482026268922309e-07,2.8229333801652943e-07,2.492151626855185e-05
4.413691770535474e-07,3.4700971564014976e-07,2.808608483425603e-07,2.462185167018041e-05
4.514129489801055e-07,3.4589061333333175e-07,2.795217066497217e-07,2.433276147649985e-05
4.620430982502817e-07,3.4483509199334226e-07,2.7827462431926176e-07,2.405422003724892e-05
4.732084775425994e-07,3.438310043856785e-07,2.771251025264329e-07,2.3786193419575324e-05
4.84850939501602e-07,3.4286563054101077e-07,2.7608313732473694e-07,2.3528630492651722e-05
4.96905958285389e-07,3.4192743833675215e-07,2.751589489378294e-07,2.3281495707978635e-05
5.093032179488042e-07,3.410073164431169e-07,2.743601664932759e-07,2.3044805205996272e-05
5.219680541383605e-07,3.400983352034025e-07,2.736918666885875e-07,2.2818601400167504e-05
5.348250894012321e-07,3.39194715010068e-07,2.731582415944837e-07,2.2602886087216172e-05
5.478040852626982e-07,3.382915388801659e-07,2.727634594470231e-07,2.239756123027634e-05
5.608442310668389e-07,3.373847178439127e-07,2.725107529799751e-07,2.2202380221691587e-05
5.738929047506229e-07,3.3647034234050816e-07,2.724014440817899e-07,2.2016907596664155e-05
5.869005549686107e-07,3.355444738215249e-07,2.7243536530289744e-07,2.184050842388555e-05
5.998175527585623e-07,3.346030971031857e-07,2.7261132078327013e-07,2.1672373554203946e-05
6.12595007543561e-07,3.3364129800941034e-07,2.729265584244649e-07,2.1511560565602083e-05
6.25186775347834e-07,3.3265306831221726e-07,2.733770339961309e-07,2.135704623369295e-05
6.375521764999138e-07,3.316320307773601e-07,2.7395881900665133e-07,2.120779702454746e-05
6.496589401638787e-07,3.3057196878851464e-07,2.746683075195753e-07,2.106281984061015e-05
6.614828639644915e-07,3.294671931251205e-07,2.7550139056795286e-07,2.0921149947741e-05
6.730044878652593e-07,3.2831227260200446e-07,2.7645446688905644e-07,2.078182100356725e-05
6.842068075299997e-07,3.271010057208648e-07,2.775268924847953e-07,2.0643910910598035e-05
6.9507541795737e-07,3.2582614802926457e-07,2.787222043974378e-07,2.050665923731957e-05
7.055989528140825e-07,3.244806169434095e-07,2.800479566372581e-07,2.0369560485539112e-05
7.157676274014358e-07,3.2305953308690117e-07,2.815138370360276e-07,2.023241115915305e-05
7.255708556647239e-07,3.2156156814637534e-07,2.8312783301597297e-07,2.009535858018074e-05
7.349962402612599e-07,3.199884862973337e-07,2.8489387389355345e-07,1.995891479136724e-05
7.440304845179893e-07,3.183438983774954e-07,2.8681270708586144e-07,1.982384718000122e-05
7.526619313748177e-07,3.166321213657829e-07,2.888828002111205e-07,1.969096910114788e-05
7.608830930566794e-07,3.148571221495139e-07,2.9109980580143445e-07,1.9560953694489482e-05
7.686899427777177e-07,3.1302213595025026e-07,2.934565081596529e-07,1.9434275354902122e-05
7.760787430045095e-07,3.111296592736115e-07,2.959432299677287e-07,1.931129819728996e-05
7.830442274025493e-07,3.091810471018482e-07,2.9854787863553037e-07,1.919241411456134e-05
7.8957899712711e-07,3.071766284892305e-07,3.012561743991693e-07,1.9078101991421526e-05
7.956740110733874e-07,3.0511711538979587e-07,3.040518032024416e-07,1.8968879850941035e-05
8.013231385161255e-07,3.0300503458182984e-07,3.069166204937709e-07,1.886522723402556e-05
8.065298194720412e-07,3.008455372312059e-07,3.098315217146457e-07,1.876762398489139e-05
8.113094201881648e-07,2.986481528408492e-07,3.1277722723160604e-07,1.867676679961963e-05
8.156868394004755e-07,2.964284307211748e-07,3.157347020146905e-07,1.859375939202165e-05
8.196936534038733e-07,2.942058185952177e-07,3.1868516560784767e-07,1.8520051682226755e-05
8.233641454068395e-07,2.919994677333342e-07,3.216095929330509e-07,1.845718339565856e-05
8.267286445643027e-07,2.898274260473864e-07,3.244892650376322e-07,1.8406547397986483e-05
8.298093572504388e-07,2.877087637634985e-07,3.2730763183254897e-07,1.8369362023249303e-05
8.326224384614001e-07,2.856635481056312e-07,3.3005175821147754e-07,1.8346825720018846e-05
8.351822227586851e-07,2.837105952875465e-07,3.327124043418264e-07,1.8340200760876192e-05
8.375029304926609e-07,2.8186661883306964e-07,3.352825234575169e-07,1.8350728049333168e-05
8.395971811520601e-07,2.8014646756169245e-07,3.377555226600203e-07,1.8379503573847573e-05
8.414732115970801e-07,2.7856223268028607e-07,3.401250428856029e-07,1.8427386466546555e-05
8.431335634501348e-07,2.771217195659731e-07,3.4238518943160093e-07,1.849491819534779e-05
8.445757454652944e-07,2.758280599124481e-07,3.4453009836871483e-07,1.858224856821129e-05
8.457924097638687e-07,2.7468046653937e-07,3.465544580166763e-07,1.868909069921485e-05
8.467706687443434e-07,2.7367504318401665e-07,3.4845480669948557e-07,1.8814734330729602e-05
8.474934200417632e-07,2.7280559138756645e-07,3.502292395404002e-07,1.8958132063206162e-05
8.479426340382606e-07,2.7206426721686593e-07,3.5187623063059796e-07,1.9118040739867608e-05
8.481023415344666e-07,2.714419887866888e-07,3.533941435532508e-07,1.9293160903170318e-05
8.479613671190907e-07,2.7092991203314107e-07,3.547808856339633e-07,1.9482196892087467e-05
8.475148112319648e-07,2.705216295994848e-07,3.560336778246744e-07,1.968381270381172e-05
8.467621176618697e-07,2.702140855879649e-07,3.571494151617989e-07,1.9896578166673558e-05
8.457034611675595e-07,2.70007360431429e-07,3.5812510098241306e-07,2.0119034061894295e-05
8.443381096779114e-07,2.6990372633470964e-07,3.589574009668653e-07,2.0349858465005453e-05
8.426653482219609e-07,2.6990595303278197e-07,3.59641553164271e-07,2.0587976273261527e-05
8.406862732219541e-07,2.7001612905415285e-07,3.6017147847384774e-07,2.0832513221615803e-05
8.384044941048275e-07,2.702354649587902e-07,3.605413897657837e-07,2.1082649769065327e-05
8.358247510720103e-07,2.7056475309959466e-07,3.607465036567997e-07,2.1337486388517515e-05
8.329513832981895e-07,2.710045444217223e-07,3.6078215945903175e-07,2.159597036039641e-05
8.297881742540277e-07,2.715541827949309e-07,3.606439304107815e-07,2.185686312446692e-05
8.263381596804776e-07,2.722110902318993e-07,3.603299673526312e-07,2.211872829629475e-05
8.226031443535773e-07,2.729710319063658e-07,3.598429975922531e-07,2.237995039432763e-05
8.185839543250132e-07,2.738286490479655e-07,3.5918920647471274e-07,2.263878721676176e-05
8.142808649316494e-07,2.7477834433575513e-07,3.5837595248900974e-07,2.289346036491488e-05
8.096939779991977e-07,2.758151588379287e-07,3.5741266254056985e-07,2.3142295487475352e-05
8.048247178782679e-07,2.769353043441128e-07,3.563138803706285e-07,2.3383863370918428e-05
7.996781195542705e-07,2.781367712605276e-07,3.550997262156884e-07,2.361703772751539e-05
7.942641309046841e-07,2.794191685860097e-07,3.537929691912857e-07,2.384096039093986e-05
7.885968879713538e-07,2.807818342311829e-07,3.524159959071132e-07,2.405496239825529e-05
7.826926613392459e-07,2.8222159701092764e-07,3.509900743005941e-07,2.4258471907919602e-05
7.765692769839202e-07,2.8373227875558057e-07,3.4953559332070514e-07,2.445094486745742e-05
7.70248530295519e-07,2.8530632110798717e-07,3.480716269936254e-07,2.463185204842836e-05
7.637591000416407e-07,2.8693649421803304e-07,3.466156312597498e-07,2.480067324420576e-05
7.571357568041023e-07,2.886153963659993e-07,3.4518345502490267e-07,2.495684602577604e-05
7.504136230220735e-07,2.90334011806355e-07,3.437884836737512e-07,2.509974783074604e-05
7.436219995908022e-07,2.920822723240133e-07,3.4244069082626254e-07,2.522880503823626e-05
7.367826692580444e-07,2.938518327242049e-07,3.411484335821324e-07,2.5343692873855388e-05
7.299122728719869e-07,2.956385123332809e-07,3.399223354567522e-07,2.544450782358911e-05
7.230259364251284e-07,2.974416148462661e-07,3.387767852914268e-07,2.5531797651013e-05
7.161395814836497e-07,2.9926093195391213e-07,3.377283048290371e-07,2.560643516105549e-05
7.092689476448902e-07,3.010949120078541e-07,3.3679428370525844e-07,2.5669437965175886e-05
7.024267011390585e-07,3.02940433929028e-07,3.3599323102273103e-07,2.5721820830981703e-05
6.956213924747793e-07,3.0479335856227e-07,3.3534378490431037e-07,2.576450296784762e-05
6.88860110052475e-07,3.066500471709979e-07,3.3486148661543695e-07,2.579826001777827e-05
6.821527829926222e-07,3.0850776107267604e-07,3.345562282854805e-07,2.582369388500628e-05
6.755135261291703e-07,3.1036278629410506e-07,3.344316515246595e-07,2.584123840170304e-05
6.689579558883043e-07,3.122086844348944e-07,3.344853309761766e-07,2.585128165022651e-05
6.62500685632091e-07,3.1403610334420684e-07,3.347096380622302e-07,2.5854416434415414e-05
6.561555317963684e-07,3.158337226163712e-07,3.350934999037209e-07,2.585165401976302e-05
6.499364607618768e-07,3.175895481709269e-07,3.356241696400113e-07,2.584442797299084e-05
6.438572977979911e-07,3.192920685982574e-07,3.362879053301391e-07,2.583441615948273e-05
6.379302545714034e-07,3.2093172789298106e-07,3.3706946370654914e-07,2.5823303751850014e-05
6.321642799104692e-07,3.2250269980871744e-07,3.379517979990352e-07,2.5812593732846162e-05
6.265652464889686e-07,3.240036941649981e-07,3.389175578489584e-07,2.580363053507211e-05
6.211387030976146e-07,3.254369140398161e-07,3.399514778287601e-07,2.5797869101494125e-05
6.158922928929085e-07,3.268065457732952e-07,3.410412987699811e-07,2.579710704904573e-05
6.108349265571837e-07,3.281181456106117e-07,3.421767279010235e-07,2.580347583137757e-05
6.059745483649481e-07,3.293775708783351e-07,3.4334735918446696e-07,2.581930811874847e-05
6.013177172951492e-07,3.305901039470373e-07,3.445412044443911e-07,2.584700671203405e-05
5.968696422425178e-07,3.317634123981298e-07,3.457450648133948e-07,2.5888899266956805e-05
5.926323963161726e-07,3.3291263165103386e-07,3.469451804164497e-07,2.594707001578832e-05
5.886028278425862e-07,3.3406084104857633e-07,3.4812660624347036e-07,2.60232226059052e-05
5.847726241113326e-07,3.352337914070855e-07,3.492727477239637e-07,2.61186231791987e-05
5.811304673902773e-07,3.36454853449544e-07,3.503663144466553e-07,2.623412229808591e-05
5.776641355791268e-07,3.3774401734873254e-07,3.5139119922576624e-07,2.637020438348992e-05
5.743610398463685e-07,3.391184045510176e-07,3.5233433769352754e-07,2.65269921187712e-05
5.712071697691953e-07,3.405912856575123e-07,3.531859953934753e-07,2.670418999257189e-05
5.681859674446429e-07,3.421704903600662e-07,3.5393822291889894e-07,2.690103131763135e-05
5.652792054640586e-07,3.438575789060141e-07,3.545840296518015e-07,2.7116285454373998e-05
5.624691198525074e-07,3.456476121805127e-07,3.551182862425495e-07,2.7348318660142567e-05
5.597399221077458e-07,3.475298576898065e-07,3.5553783203866477e-07,2.7595193275212457e-05
5.570779675970791e-07,3.4948969220247844e-07,3.558401117270551e-07,2.7854815087450203e-05
5.544702361587177e-07,3.5151021113636677e-07,3.56022468897014e-07,2.812511057061007e-05
5.519030102131384e-07,3.5357247679704926e-07,3.560822602955604e-07,2.8404178689204425e-05
5.493624445720321e-07,3.5565562798254537e-07,3.560165529502075e-07,2.86903575419549e-05
5.468355474728497e-07,3.577375432636566e-07,3.5582137176145786e-07,2.898216701927776e-05
5.443100280831646e-07,3.5979557449829997e-07,3.5549129888151826e-07,2.9278155781346112e-05
5.417730339532646e-07,3.618080429274775e-07,3.550200770517061e-07,2.957673491381445e-05
5.392114546775471e-07,3.637562798611474e-07,3.544016473059109e-07,2.9876078169223278e-05
5.366174796247314e-07,3.656253664608903e-07,3.536307790966704e-07,3.01741450055581e-05
5.339953655024136e-07,3.6740342834850113e-07,3.527032195912943e-07,3.0468828258063172e-05
5.313612844493516e-07,3.690803202193747e-07,3.516153486598811e-07,3.075815325403284e-05
5.287395467399382e-07,3.706463875290481e-07,3.5036362652190967e-07,3.1040433985208285e-05
5.261619901063924e-07,3.7209211343993455e-07,3.4894439718346576e-07,3.131434074264498e-05
5.236671442881119e-07,3.7340819265333717e-07,3.4735411597658266e-07,3.157887784727077e-05
5.212964571196339e-07,3.745857070792232e-07,3.455896632277914e-07,3.183327708831811e-05
5.190899897684104e-07,3.756169216534735e-07,3.436486340877909e-07,3.207683254310916e-05
5.170828670468568e-07,3.764965296056074e-07,3.415293779096065e-07,3.230875986618786e-05
5.153035755839205e-07,3.7722285814241475e-07,3.392306762138377e-07,3.252817435440188e-05
5.13773351328408e-07,3.777982089437654e-07,3.367521470364923e-07,3.273416904198875e-05
5.125053825363549e-07,3.782281572697015e-07,3.3409562110812445e-07,3.2925905919251616e-05
5.11505634245252e-07,3.78520869906985e-07,3.3126583484439624e-07,3.310271966757773e-05
5.107751877628311e-07,3.786871223202454e-07,3.2827008792037876e-07,3.3264278384410114e-05
5.10312034355676e-07,3.7874045373062184e-07,3.251178106383165e-07,3.3410783903820634e-05
5.101129956363385e-07,3.786956765678769e-07,3.218199653622648e-07,3.354309801325215e-05
5.101755888722171e-07,3.785663048278638e-07,3.18388846202492e-07,3.366266232946238e-05
5.104977422633894e-07,3.783641594627802e-07,3.148390650690885e-07,3.3771239562639554e-05
5.110758599936301e-07,3.7810098473938385e-07,3.1118804643005427e-07,3.3870638695728426e-05
5.119039361161024e-07,3.777895215588829e-07,3.074555818845191e-07,3.3962534314329216e-05
5.129749608975069e-07,3.774432353413449e-07,3.0366439368366534e-07,3.4048386187967215e-05
5.142821360145603e-07,3.7707481966229563e-07,2.9984039128951613e-07,3.412942033583437e-05
5.158178105325701e-07,3.766945909453314e-07,2.960107984704225e-07,3.420664629105231e-05
5.175720188654336e-07,3.763102115503657e-07,2.92202835072219e-07,3.428092711808472e-05
5.195312765992046e-07,3.75927791298096e-07,2.884440479656298e-07,3.435310783480003e-05
5.216773765499481e-07,3.755534507972958e-07,2.847615627785483e-07,3.442407882033062e-05
5.239881792322925e-07,3.7519498008991887e-07,2.811807070145345e-07,3.449463416827381e-05
5.264390210378947e-07,3.7486359354024923e-07,2.7772547362366054e-07,3.456524976451654e-05
5.290032352251853e-07,3.7457392306704783e-07,2.7441930662991465e-07,3.463603098276672e-05
5.31656197655684e-07,3.743412353821113e-07,2.712849276533759e-07,3.470687766440829e-05
5.343814508316937e-07,3.7417882411083283e-07,2.683453684395459e-07,3.4777821138866405e-05
5.371708876984421e-07,3.7409774910000884e-07,2.6562592108419037e-07,3.484946891285577e-05
5.400210907925147e-07,3.741072397226051e-07,2.6315392017438476e-07,3.4923289362435086e-05
5.429325914409816e-07,3.7421380975743853e-07,2.609557266688748e-07,3.5001526602506724e-05
5.459093913589565e-07,3.744197200831573e-07,2.5905361860804173e-07,3.5086908871517166e-05
5.489548236897847e-07,3.7472283964206006e-07,2.574650631568905e-07,3.518236208920483e-05
5.520673220699927e-07,3.7511856061741815e-07,2.562036048746664e-07,3.5290735988153623e-05
5.552399823299729e-07,3.7560197046380316e-07,2.5527997358963753e-07,3.541453694332616e-05
5.584618210351232e-07,3.761680036988786e-07,2.547027604594693e-07,3.5555726139324465e-05
5.617180607241126e-07,3.768099138516279e-07,2.54477297684906e-07,3.571560354982502e-05
5.6499088977987e-07,3.775184173936458e-07,2.546035843022055e-07,3.5894751335846476e-05
5.682616025341386e-07,3.7828211887389975e-07,2.550758858134602e-07,3.6093026898753944e-05
5.715126931521694e-07,3.790886050839588e-07,2.5588385616463234e-07,3.630960874914621e-05
5.747290973710507e-07,3.799258656185027e-07,2.5701349285717147e-07,3.6543070722011335e-05
5.778975169333515e-07,3.807827738010775e-07,2.584482196525241e-07,3.679145821500913e-05
5.810038086288511e-07,3.8164807288072477e-07,2.6017119318374794e-07,3.70523862517064e-05
5.840318824227931e-07,3.825094338274983e-07,2.621677760951313e-07,3.7323195159571854e-05
5.869661416499393e-07,3.8335398176841007e-07,2.644258706023481e-07,3.7601154855091554e-05
5.897953523279953e-07,3.841693919348921e-07,2.6693362915962035e-07,3.788365406024556e-05
5.925142910728621e-07,3.8494436707679684e-07,2.696764825805697e-07,3.8168290372923024e-05
5.95120398172871e-07,3.856694852093423e-07,2.7263580559617944e-07,3.845284316545177e-05
5.97607984457479e-07,3.863382802136277e-07,2.7578991626615683e-07,3.873520498550854e-05
5.999662778799556e-07,3.869463795451009e-07,2.791160145778993e-07,3.901332440068028e-05
6.021827732319297e-07,3.874897336906927e-07,2.825908775883748e-07,3.9285152249845815e-05
6.042478539121278e-07,3.87964621918639e-07,2.861902354783616e-07,3.954859372726991e-05
6.061566724684244e-07,3.883679193584684e-07,2.8988870409308e-07,3.980147095231037e-05
6.079074808227623e-07,3.8869574021067656e-07,2.9366061861373537e-07,4.00415177343302e-05
6.094995291285468e-07,3.889424397027429e-07,2.9748132589969296e-07,4.02664781093284e-05
6.109331609429304e-07,3.8910156682088644e-07,3.013291588386571e-07,4.0474288638410054e-05
6.122098994029528e-07,3.891677047036096e-07,3.051867739528093e-07,4.066318358471107e-05
6.133302879982334e-07,3.8913742952679403e-07,3.0904022442947867e-07,4.083165283296471e-05
6.142913882474123e-07,3.89008474972658e-07,3.12876740816787e-07,4.0978350660785293e-05
6.15086455539768e-07,3.8877796752348134e-07,3.1668317341833165e-07,4.110204195771156e-05
6.157072296437832e-07,3.884414037500371e-07,3.2044580562468856e-07,4.120158097763825e-05
6.16147562340128e-07,3.8799331399732843e-07,3.2415121200649616e-07,4.127588247128119e-05
6.164067254960456e-07,3.8742961866425855e-07,3.277872511900681e-07,4.1323892800586015e-05
6.164905062699097e-07,3.8674956091996326e-07,3.3134329548629177e-07,4.134461963113468e-05
6.164086554219604e-07,3.859547757539754e-07,3.3481028465971065e-07,4.1337225158991794e-05
6.16171757274416e-07,3.8504707688415327e-07,3.3818163242954673e-07,4.130113172001773e-05
6.157917123146318e-07,3.840274215833375e-07,3.4145373542827037e-07,4.123612127840448e-05
6.152838180144473e-07,3.828956121011285e-07,3.446246723703103e-07,4.114242490394763e-05
6.146659349344303e-07,3.816504723542248e-07,3.476926273002049e-07,4.102075618772465e-05
6.13954832229915e-07,3.8029078202419576e-07,3.50656141803112e-07,4.087224780081903e-05
6.131637182761539e-07,3.788156545344351e-07,3.5351503703997006e-07,4.069830350435725e-05
6.123018861695626e-07,3.772236868328368e-07,3.5626956578912936e-07,4.050039898393268e-05
6.113738038469027e-07,3.7551232097916776e-07,3.589189539721301e-07,4.0279901616161266e-05
6.103782171610108e-07,3.736785022522389e-07,3.614613595016112e-07,4.003800482507936e-05
6.093092480684607e-07,3.7172038362637976e-07,3.638948381895245e-07,3.977578009035183e-05
6.081580261651839e-07,3.696392912083614e-07,3.6621911491740775e-07,3.94942574435717e-05
6.069137785555079e-07,3.6744111433265756e-07,3.6843683298089034e-07,3.919450554090032e-05
6.055666203089064e-07,3.651363890981154e-07,3.7055199597025864e-07,3.8877778810846475e-05
6.041116043581658e-07,3.6273871103508703e-07,3.7256707540125093e-07,3.854569473497088e-05
6.025491130009152e-07,3.602630973320329e-07,3.744816162290199e-07,3.820026412164107e-05
6.008810145354394e-07,3.5772632484639526e-07,3.7629258568713176e-07,3.7843771736926286e-05
5.99107151421887e-07,3.5514759090908493e-07,3.779954183239773e-07,3.7478673574448526e-05
5.972247867429547e-07,3.525471979194265e-07,3.795843750376318e-07,3.710750338844509e-05
5.95230710897923e-07,3.499449176253636e-07,3.810517621766024e-07,3.673273249824702e-05
5.931233625665571e-07,3.473597439432683e-07,3.8238785211061934e-07,3.6356760559260965e-05
