9.517491901424342e-07,5.064700674126759e-07,2.2564056856086183e-07,2.5497937145532667e-05
9.467535507874081e-07,5.086656721013845e-07,2.2586156950991567e-07,2.558573317881528e-05
9.410562167511532e-07,5.113486936825568e-07,2.263241420421515e-07,2.567321586973122e-05
9.346688332970665e-07,5.144933693908385e-07,2.270134845060163e-07,2.575967116877136e-05
9.276064229990588e-07,5.180674615922853e-07,2.279131689292015e-07,2.584465450538071e-05
9.198885956852267e-07,5.220331114281316e-07,2.290050284265157e-07,2.592781508770808e-05
9.11538038142926e-07,5.263479055276325e-07,2.3026991319449982e-07,2.600876290645116e-05
9.025809680763321e-07,5.309664489419857e-07,2.316888384735693e-07,2.6086982499813377e-05
8.930493978787761e-07,5.358414839799897e-07,2.3324311422011304e-07,2.616182353295408e-05
8.829812704446119e-07,5.409263115160576e-07,2.3491455253026327e-07,2.6232590791740506e-05
8.724184952587898e-07,5.461790665093691e-07,2.36686233231222e-07,2.629866813329705e-05
8.614054716189587e-07,5.515650751102241e-07,2.385426112703824e-07,2.6359588503146578e-05
8.499903647114469e-07,5.570548858353941e-07,2.404690016826382e-07,2.641504095124335e-05
8.382293115588199e-07,5.626206062244704e-07,2.424512029896139e-07,2.646483155230591e-05
8.261888399806381e-07,5.682340009126907e-07,2.444760169214445e-07,2.650882794156492e-05
8.139428070502854e-07,5.738672663497265e-07,2.465322266371101e-07,2.6546978749578932e-05
8.015684169333691e-07,5.794953063617424e-07,2.486106852778451e-07,2.657939004395793e-05
7.891462578887984e-07,5.850967482786584e-07,2.5070427550641144e-07,2.660633927385525e-05
7.767617684793839e-07,5.906520180574293e-07,2.5280788117563227e-07,2.6628278258698584e-05
7.645042918057427e-07,5.961405635644581e-07,2.549170884658837e-07,2.664587360395921e-05
7.524639619820941e-07,6.015404656458328e-07,2.570269557368421e-07,2.665997504203072e-05
7.407280436921812e-07,6.068308979369475e-07,2.5913193968415165e-07,2.667151033907674e-05
7.293768527409558e-07,6.119941935725854e-07,2.612260442799732e-07,2.668139189957069e-05
7.18479132325921e-07,6.170150543044019e-07,2.633028839246589e-07,2.66904407178012e-05
7.080892128730807e-07,6.218791136158982e-07,2.653552833103944e-07,2.669931415611269e-05
6.982481869214312e-07,6.265725954568802e-07,2.673744565773399e-07,2.670845167729782e-05
6.88987015669483e-07,6.310816883759189e-07,2.693500523138089e-07,2.6718062193664888e-05
6.803285140198439e-07,6.353910720112426e-07,2.712713336354973e-07,2.6728153857220745e-05
6.72288197289886e-07,6.394822505067153e-07,2.731282369737831e-07,2.673857843045273e-05
6.648752090525588e-07,6.433333298194464e-07,2.7491159146555786e-07,2.674907450109556e-05
6.580939926032345e-07,6.469223781942061e-07,2.766129649274161e-07,2.675930813034266e-05
6.519463109139332e-07,6.502327443770203e-07,2.782243177000398e-07,2.676890376872744e-05
6.464335899062025e-07,6.532548646706035e-07,2.797373822728858e-07,2.677744888633985e-05
6.415594137674669e-07,6.559828526513214e-07,2.8114363911720337e-07,2.678445973521501e-05
6.373293652028453e-07,6.584107489085478e-07,2.8243514622349944e-07,2.6789346031398678e-05
6.337467447803419e-07,6.605320314393544e-07,2.836051408676105e-07,2.6791435665506554e-05
6.308069989378747e-07,6.623412376772307e-07,2.8464822719899146e-07,2.679005332489365e-05
6.28494520605034e-07,6.638357795024503e-07,2.8556024058117773e-07,2.6784605322887023e-05
6.26782949454631e-07,6.650162434168148e-07,2.863376902946052e-07,2.677464815937371e-05
6.256371404324078e-07,6.65884657031422e-07,2.869775878880185e-07,2.6759928026496232e-05
6.25014927496698e-07,6.664419139152229e-07,2.874772774219006e-07,2.674037869362649e-05
6.248692617135467e-07,6.66685706694248e-07,2.87833652877482e-07,2.6716091777273487e-05
6.251518671400434e-07,6.66610725683855e-07,2.880435773773933e-07,2.668728609259724e-05
6.258165404982828e-07,6.662128007163214e-07,2.881059185873899e-07,2.665426641708091e-05
6.268189026106328e-07,6.654962010314278e-07,2.880225218657474e-07,2.66173443963428e-05
6.281145196229584e-07,6.644780107498164e-07,2.877973758932058e-07,2.657673967048953e-05
6.296615583403189e-07,6.631848887389289e-07,2.874358418696998e-07,2.653250719923752e-05
6.314291260813501e-07,6.616501762442016e-07,2.8694525281435907e-07,2.6484531479332115e-05
6.334038242259455e-07,6.599185206886071e-07,2.863363258797648e-07,2.6432618422208774e-05
6.355861384545212e-07,6.580484824927306e-07,2.856230053953862e-07,2.6376623464704972e-05
6.379790871812102e-07,6.561051345624621e-07,2.848206092203684e-07,2.6316471563213737e-05
6.405809121777072e-07,6.541503591981307e-07,2.8394471352743284e-07,2.6252045646344586e-05
6.433861340792601e-07,6.522390969940346e-07,2.830110761333305e-07,2.618308331982271e-05
6.463876292976529e-07,6.504196096836129e-07,2.820358714599748e-07,2.610920573346976e-05
6.495756910666893e-07,6.487328297225514e-07,2.8103596136788964e-07,2.6030069690197985e-05
6.529380068081154e-07,6.472103767790044e-07,2.8002845513975176e-07,2.5945514543153226e-05
6.564610075833553e-07,6.458735525421975e-07,2.7903035766780173e-07,2.585558152022469e-05
6.60128800398395e-07,6.447341831141293e-07,2.780606434663188e-07,2.5760405137370433e-05
6.639215269508734e-07,6.437966500582348e-07,2.771435910388571e-07,2.566006662363406e-05
6.678167871130875e-07,6.430600633746612e-07,2.763091694117144e-07,2.5554522393833082e-05
6.717914172068081e-07,6.425187200619592e-07,2.7559010898077e-07,2.5443693942085896e-05
6.758210073012344e-07,6.421604516957474e-07,2.750191063827733e-07,2.532768981405396e-05
6.798797701010649e-07,6.419662325519272e-07,2.7462776574073075e-07,2.5206999764123494e-05
6.839427239116089e-07,6.419139464825588e-07,2.744457420347472e-07,2.508250902601908e-05
6.879875964346516e-07,6.419844075348952e-07,2.7449882712209764e-07,2.4955314913229334e-05
6.919933848217396e-07,6.42164989078563e-07,2.748071007558597e-07,2.482645620129789e-05
6.9593762795249e-07,6.424488553291648e-07,2.753848567209805e-07,2.469671237557924e-05
6.997954175312801e-07,6.428322857713151e-07,2.762419669067538e-07,2.4566542921877013e-05
7.035395143450202e-07,6.433132649968172e-07,2.7738511338369585e-07,2.443611077218371e-05
7.071408700247327e-07,6.438913525735867e-07,2.788191440957183e-07,2.430535351555243e-05
7.10568763486365e-07,6.445666212086525e-07,2.805486941255632e-07,2.4174153163304392e-05
7.137901796742375e-07,6.453376539218354e-07,2.825777889786563e-07,2.404259253337008e-05
7.167702527699928e-07,6.462008291501907e-07,2.849078065585418e-07,2.391111595072756e-05
7.194737898986661e-07,6.471504069439982e-07,2.875381825838383e-07,2.3780453441633304e-05
7.218661717121427e-07,6.481780433339178e-07,2.90470727429266e-07,2.3651409540299074e-05
7.239134608450777e-07,6.492727614267672e-07,2.937134865588184e-07,2.352468052041453e-05
7.255829781426088e-07,6.504217274003014e-07,2.972805739892226e-07,2.3400779817954808e-05
7.268453533447725e-07,6.516127359286546e-07,3.0118708262806055e-07,2.3280144110063862e-05
7.276763487046369e-07,6.528385565443003e-07,3.054422050292215e-07,2.316340437016485e-05
7.280566476422508e-07,6.540982675758362e-07,3.100457810603516e-07,2.305160299052952e-05
7.279712295789134e-07,6.553932893215422e-07,3.149903290713809e-07,2.2946171981400885e-05
7.27410015817138e-07,6.567219891644279e-07,3.2026639094820063e-07,2.2848747615850885e-05
7.263687194338092e-07,6.58075988199064e-07,3.258672203992805e-07,2.276098157460488e-05
7.248480372532481e-07,6.594390859503597e-07,3.317910310291441e-07,2.268440877546971e-05
7.228516184353645e-07,6.607884838961161e-07,3.380403443689435e-07,2.262036771038769e-05
7.203847427399219e-07,6.620967408235613e-07,3.4461744611517803e-07,2.256995024766159e-05
7.174540493163222e-07,6.633341082654574e-07,3.515189854796685e-07,2.253396831483813e-05
7.14067912213876e-07,6.644714775030928e-07,3.587336981620975e-07,2.2512958865297306e-05
7.102369341906641e-07,6.654821321952864e-07,3.662420089954469e-07,2.2507230602548612e-05
7.059731315008526e-07,6.663424505672773e-07,3.740160620552461e-07,2.2516898396973465e-05
7.012882009404e-07,6.670344431422107e-07,3.8202115215043604e-07,2.254186226886729e-05
6.961934881832343e-07,6.675481414253953e-07,3.902181513203676e-07,2.2581753519068925e-05
6.907014995628884e-07,6.678795258794882e-07,3.985654718256878e-07,2.2635887745262368e-05
6.848260534448928e-07,6.680257844832316e-07,4.0701967228655895e-07,2.270325092082828e-05
6.785809587838125e-07,6.67982584407591e-07,4.155353699524221e-07,2.278255445757577e-05
6.71979433183454e-07,6.67744714607246e-07,4.240673683172496e-07,2.287236111976288e-05
6.65034800519081e-07,6.673079296665425e-07,4.3257504711771117e-07,2.297121491317527e-05
6.577620954759516e-07,6.666695954802624e-07,4.4102424738366004e-07,2.307773085554813e-05
6.501807909174734e-07,6.658286944313706e-07,4.493848308691449e-07,2.319066069985542e-05
6.423169102455025e-07,6.647868671965442e-07,4.5762734489217007e-07,2.330893356002109e-05
6.34201702519067e-07,6.635496685402582e-07,4.657216041236324e-07,2.343163840020901e-05
6.258686948956856e-07,6.621264113372816e-07,4.736368336393509e-07,2.3557941753107936e-05
6.173527899616279e-07,6.605284315043375e-07,4.813417567165331e-07,2.368698554861095e-05
6.086911580694285e-07,6.587667176136592e-07,4.88803941767762e-07,2.381780966148492e-05
5.999245908052071e-07,6.568509203557535e-07,4.959894035567597e-07,2.394930403632112e-05
5.91097842561593e-07,6.547920055870247e-07,5.028642362441843e-07,2.408019279413113e-05
5.822570172906213e-07,6.526107188297635e-07,5.093979162804876e-07,2.4209053458069705e-05
5.734463347893743e-07,6.503488241111387e-07,5.155648200070011e-07,2.433435534708166e-05
5.647087954765161e-07,6.480716338832983e-07,5.213423113490273e-07,2.445451301464561e-05
5.560906875859809e-07,6.458567160181278e-07,5.267082486826261e-07,2.4567966843730186e-05
5.47644548882181e-07,6.437789203788481e-07,5.316405590176616e-07,2.467327908030947e-05
5.394251288071028e-07,6.419022172052879e-07,5.36118215382151e-07,2.476919525758656e-05
5.314815531595843e-07,6.402780200117686e-07,5.401220107208335e-07,2.485463499159796e-05
5.238542268273199e-07,6.389453579112458e-07,5.436347180131476e-07,2.4928630557886967e-05
5.165775444026225e-07,6.379314491672209e-07,5.46641854269864e-07,2.4990252152300385e-05
5.096825110956293e-07,6.372524461223293e-07,5.491342685380929e-07,2.5038573097935583e-05
5.031957508978897e-07,6.369138937102352e-07,5.511107811469041e-07,2.507273799671561e-05
4.971379010648924e-07,6.369123512807096e-07,5.525777300109079e-07,2.509211940650101e-05
4.915272178918503e-07,6.372384482943976e-07,5.535456290603859e-07,2.509643463729201e-05
4.863885608722057e-07,6.37879451336744e-07,5.540259159837989e-07,2.5085709470599482e-05
4.817596465817566e-07,6.388204935027631e-07,5.540293315705856e-07,2.506012138103143e-05
4.776875740175086e-07,6.400443599056111e-07,5.535657124044923e-07,2.5019836490770296e-05
4.742190203519881e-07,6.415322559560131e-07,5.526444355429061e-07,2.496491426301729e-05
4.7139230479646967e-07,6.432681231274421e-07,5.512744281987685e-07,2.4895289305194745e-05
4.692338830429597e-07,6.452424640938307e-07,5.494643925069009e-07,2.4810797708870044e-05
4.677576877300543e-07,6.474510143994146e-07,5.472251485454605e-07,2.471123025996567e-05
4.6696614594954156e-07,6.498894515261004e-07,5.445726501890577e-07,2.459647250527127e-05
4.6685114622506296e-07,6.52548328033194e-07,5.415279179673274e-07,2.446679660373057e-05
4.6739393470627644e-07,6.554125267166147e-07,5.381148055894404e-07,2.432317002791593e-05
4.6856554921602937e-07,6.584642973431543e-07,5.343598665207866e-07,2.416731203483315e-05
4.703301226386357e-07,6.616842499147217e-07,5.302937111609805e-07,2.4001460991104613e-05
4.7265142084284437e-07,6.650494943618389e-07,5.259500932861421e-07,2.382806455407356e-05
4.7549837770861567e-07,6.685328999445368e-07,5.213627258717786e-07,2.3649552116481694e-05
4.788442014740682e-07,6.721053112971596e-07,5.165625765463365e-07,2.346826736300863e-05
4.826613176311174e-07,6.757380029120754e-07,5.115778369426385e-07,2.328660893210797e-05
4.869184868647801e-07,6.794017761710118e-07,5.064365490064753e-07,2.3107234997605208e-05
4.915807405291633e-07,6.830646550752273e-07,5.011692915156381e-07,2.2933098299483772e-05
4.96609949926364e-07,6.866919562126743e-07,4.958092821650114e-07,2.2767312912364403e-05
5.019653807575754e-07,6.90247305866492e-07,4.90389897480775e-07,2.2612987687612188e-05
5.076047588747081e-07,6.936926235538127e-07,4.849431813197303e-07,2.2473074913743882e-05
5.134866628955432e-07,6.969886522434418e-07,4.795018210893674e-07,2.2350250407330624e-05
5.195730352811089e-07,7.000967751358001e-07,4.7410151015945026e-07,2.2246835818126397e-05
5.258295209407373e-07,7.029805183033653e-07,4.6878043894529115e-07,2.2164751247416715e-05
5.322225496837036e-07,7.056063132573687e-07,4.6357687470455493e-07,2.2105498851515962e-05
5.387149428943768e-07,7.079447499118955e-07,4.5852672540150214e-07,2.2070176674835e-05
5.452648022732979e-07,7.099729282276071e-07,4.5366231844572975e-07,2.2059488808780938e-05
5.518298029591417e-07,7.116773805207087e-07,4.490132892427512e-07,2.207371598547708e-05
5.583725123631992e-07,7.130553115176215e-07,4.446083340614049e-07,2.211266091984872e-05
5.648611176800465e-07,7.141113523536567e-07,4.404755103276145e-07,2.2175618255678648e-05
5.712659680485963e-07,7.148524873276716e-07,4.366404936088318e-07,2.2261406224375907e-05
5.77557272065224e-07,7.152867507957081e-07,4.3312365863735077e-07,2.2368469783593303e-05
5.837072510222651e-07,7.154239829422387e-07,4.299381287132322e-07,2.2495025489751667e-05
5.896944464569008e-07,7.152739957192307e-07,4.270907321575106e-07,2.2639187145697595e-05
5.95504621030879e-07,7.148445200420563e-07,4.2458448334538935e-07,2.2799045904786604e-05
6.011259803359007e-07,7.14142936374483e-07,4.224196294991204e-07,2.29727323106878e-05
6.065437215226543e-07,7.131792848016798e-07,4.205928683547131e-07,2.315846824426701e-05
6.117397242416911e-07,7.119676463932591e-07,4.190965395963932e-07,2.3354579881411857e-05
6.166953773805557e-07,7.105283580481513e-07,4.1791944913565544e-07,2.3559468169416814e-05
6.213925206230158e-07,7.088898680093977e-07,4.1704899961203595e-07,2.377155581346205e-05
6.258142898157937e-07,7.070862990926561e-07,4.164719225017381e-07,2.3989221763411308e-05
6.299483612796393e-07,7.051537160707259e-07,4.161732412743915e-07,2.4210767183094955e-05
6.337885674249629e-07,7.03127538727822e-07,4.1613649176107466e-07,2.4434465162583985e-05
6.373341021601901e-07,7.010423011996822e-07,4.1634507014818884e-07,2.465864482922647e-05
6.405889356995621e-07,6.989381099347779e-07,4.167824391221085e-07,2.4881722481129682e-05
6.435589273787747e-07,6.968682813212479e-07,4.1743285489811383e-07,2.510219462632515e-05
6.462466644257383e-07,6.94895934912775e-07,4.182838750736651e-07,2.531864401231619e-05
6.486491574550248e-07,6.9308237957703e-07,4.1932699733633523e-07,2.552974386229133e-05
6.50760385428615e-07,6.914812702316828e-07,4.2055465524119114e-07,2.5734251666437538e-05
6.525772964581211e-07,6.901409744720632e-07,4.219570288051549e-07,2.5931051673323362e-05
6.541050879306325e-07,6.891066064126007e-07,4.235211791125098e-07,2.6119242561644105e-05
6.553565462497771e-07,6.884181234482658e-07,4.252314219833726e-07,2.6298180844072984e-05
6.563464740606012e-07,6.881066908510187e-07,4.2706986598505137e-07,2.6467462835076647e-05
6.570870431007854e-07,6.881919153835451e-07,4.2901754422091217e-07,2.662687921057931e-05
6.575866553736116e-07,6.88681457877564e-07,4.310557340084756e-07,2.6776352144852485e-05
6.578520756670968e-07,6.895721907477335e-07,4.331660253822528e-07,2.691585319826561e-05
6.578925757718768e-07,6.908515217608633e-07,4.353294847491515e-07,2.7045294724038143e-05
6.577227786815255e-07,6.924987803636304e-07,4.375269584467008e-07,2.716443279290424e-05
6.57362029398834e-07,6.944873300220614e-07,4.397404295181312e-07,2.72728555500386e-05
6.568311513758075e-07,6.967878315506494e-07,4.419529382026408e-07,2.737005654587732e-05
6.561496652409878e-07,6.993713626220143e-07,4.4414682490428246e-07,2.745550887399521e-05
6.553369105945996e-07,7.02210491343061e-07,4.4630287551979047e-07,2.7528695134377778e-05
6.54418175249822e-07,7.052775638588831e-07,4.484010413987422e-07,2.758910756411073e-05
6.534320332818404e-07,7.085420571605283e-07,4.50421325547647e-07,2.7636244139878718e-05
6.52431261482466e-07,7.11971834935363e-07,4.5234478396192283e-07,2.7669640557472606e-05
6.514787492933471e-07,7.155381967204003e-07,4.5415507599712667e-07,2.7688909971931018e-05
6.506500428369748e-07,7.192177813937813e-07,4.558406108511336e-07,2.769373307140954e-05
6.500425671630535e-07,7.229906621662948e-07,4.573966454240302e-07,2.768383202295705e-05
6.497770783844833e-07,7.26840063447391e-07,4.5882545585830824e-07,2.765896160665924e-05
6.499841485373352e-07,7.307529169760429e-07,4.601350336913108e-07,2.761890537029141e-05
6.507857909336301e-07,7.347179236317553e-07,4.613377089398133e-07,2.7563468061175014e-05
6.522870754446611e-07,7.387233251030889e-07,4.6244712586189135e-07,2.749245959500631e-05
6.545792499870848e-07,7.427566964185719e-07,4.6347385408412076e-07,2.7405671916723496e-05
6.577443191969036e-07,7.468050512898984e-07,4.644231883154668e-07,2.7302853842585e-05
6.61854734877442e-07,7.508547949691352e-07,4.652963413600957e-07,2.718369940837189e-05
6.669689564909125e-07,7.548932944350949e-07,4.660933402270506e-07,2.7047872773570897e-05
6.731265941831959e-07,7.589109577220975e-07,4.668152535265567e-07,2.689506694780679e-05
6.803458894155336e-07,7.628997551740323e-07,4.6746438415558073e-07,2.6725059988013738e-05
6.886239947219575e-07,7.668480848702338e-07,4.680434159249378e-07,2.6537735939975065e-05
6.979409310423337e-07,7.707372966023898e-07,4.6855444611688994e-07,2.633307945855397e-05
7.082650247434884e-07,7.745423284029735e-07,4.689980601298672e-07,2.611118247179156e-05
7.195549019060832e-07,7.782337712133437e-07,4.693735735322934e-07,2.587226466048437e-05
7.317602634558895e-07,7.817796783434605e-07,4.696800482360357e-07,2.5616662176255536e-05
7.448269242428294e-07,7.851477931948759e-07,4.699159919765084e-07,2.534478021034495e-05
7.587031050975427e-07,7.883079054412366e-07,4.7007844276708405e-07,2.505706012200349e-05
7.733395815351367e-07,7.912323546185849e-07,4.701644840768894e-07,2.4753976683931893e-05
7.886843210015191e-07,7.938941856378598e-07,4.701750457371654e-07,2.443604609461923e-05
8.04678634745105e-07,7.962662924989463e-07,4.701167467791973e-07,2.410384116175372e-05
8.212567126408785e-07,7.983244212099619e-07,4.6999957028336934e-07,2.3757998168699266e-05
8.383465750421855e-07,8.000506015138033e-07,4.6983293326293355e-07,2.3399193370609768e-05
8.558716353982285e-07,8.014315890998336e-07,4.6962390652002156e-07,2.302812228513377e-05
8.737506046953113e-07,8.024539444075888e-07,4.6937863762398595e-07,2.2645536276968773e-05
8.918953549840401e-07,8.031017028922906e-07,4.6910427488784493e-07,2.2252320190684235e-05
9.102097843532408e-07,8.033593491472059e-07,4.688088295137879e-07,2.184954522241885e-05
9.285906352878699e-07,8.032187109067047e-07,4.6849974965412816e-07,2.143846947719447e-05
9.469303419316215e-07,8.026845901328659e-07,4.6818314267671116e-07,2.1020503250280107e-05
9.651220063484173e-07,8.017742882514964e-07,4.678638797164232e-07,2.0597144569704792e-05
9.83063502103747e-07,8.005126544561562e-07,4.6754530748170996e-07,2.0169875158400385e-05
1.000657852674433e-06,7.989274547997873e-07,4.672281950800519e-07,1.9740059550575145e-05
1.0178119197601127e-06,7.970484035243441e-07,4.669098845515211e-07,1.9308918164834705e-05
1.0344383077021515e-06,7.949112134310069e-07,4.6658455341191465e-07,1.8877558663824144e-05
1.0504608819030422e-06,7.925626948414581e-07,4.662454894489344e-07,1.8447000971002733e-05
1.065817965914176e-06,7.900605269388545e-07,4.6588887252484637e-07,1.8018186042194585e-05
1.0804591606254529e-06,7.874678831010859e-07,4.655160563136425e-07,1.7592000935796264e-05
1.0943391381806852e-06,7.84847157462111e-07,4.6513258602431963e-07,1.7169338809816145e-05
1.1074153880396463e-06,7.822543530332325e-07,4.6474526324231474e-07,1.6751147991560917e-05
1.1196512863983706e-06,7.797352813880738e-07,4.64359318037836e-07,1.6338410262286825e-05
1.131018650154814e-06,7.773255424006186e-07,4.639776011841193e-07,1.593206997916354e-05
1.1414968562405635e-06,7.750526372110459e-07,4.636025926532729e-07,1.5532970577152936e-05
1.1510708501107616e-06,7.72936075220494e-07,4.6323877827424505e-07,1.5141850333078103e-05
1.159729290763221e-06,7.709856775016175e-07,4.628919951895711e-07,1.4759447909618353e-05
1.167462230649144e-06,7.692014758882218e-07,4.6256661609425137e-07,1.4386665556874774e-05
1.1742582625193628e-06,7.675758239947629e-07,4.6226398170925123e-07,1.4024642398811773e-05
1.1801024634130214e-06,7.660963564992415e-07,4.619823471666886e-07,1.3674676751556356e-05
1.1849762159243422e-06,7.647475675638271e-07,4.6171697120216845e-07,1.3338071339867065e-05
1.1888580965468207e-06,7.635109044609555e-07,4.61460637391453e-07,1.3016011767171195e-05
1.1917247994334206e-06,7.62367859415709e-07,4.6120426256487963e-07,1.2709533044447687e-05
1.1935521465594948e-06,7.613049429042103e-07,4.609369104155016e-07,1.2419526198771793e-05
1.1943173441500777e-06,7.603130858796042e-07,4.606462909483017e-07,1.2146719800803175e-05
1.1940034823171544e-06,7.593821571770292e-07,4.6031950509231186e-07,1.1891688705443925e-05
1.192603522639623e-06,7.58498583047055e-07,4.5994261451898157e-07,1.165499957726633e-05
1.1901204150745807e-06,7.576481307417802e-07,4.595004190497861e-07,1.1437428995787147e-05
1.1865654573893884e-06,7.568183785291799e-07,4.5897806387004785e-07,1.1240024001870374e-05
1.1819576295307108e-06,7.559975174204961e-07,4.5836222109407777e-07,1.1063936979827313e-05
1.1763225142344977e-06,7.551717782243411e-07,4.576402473524232e-07,1.0910200347002396e-05
1.1696897710717791e-06,7.543235312848389e-07,4.568001178851776e-07,1.0779591501191192e-05
1.1620907672244495e-06,7.534302648197831e-07,4.558319668021436e-07,1.067267624876637e-05
1.153557377110808e-06,7.524657695753366e-07,4.547284904629896e-07,1.0590091744903262e-05
1.1441216005443902e-06,7.51403990171899e-07,4.5348438740006725e-07,1.0532922651647321e-05
1.1338155132381066e-06,7.502224936050777e-07,4.520969458256032e-07,1.0502867909326952e-05
1.1226710364806849e-06,7.48902786497519e-07,4.505670866630602e-07,1.050211701596671e-05
1.1107205613484077e-06,7.474287222641634e-07,4.488989981913587e-07,1.0533109199571164e-05
1.097999091081561e-06,7.457849986651411e-07,4.4709884385818997e-07,1.05983262437923e-05
1.0845453273076963e-06,7.439555596980676e-07,4.4517436575292633e-07,1.0700152823029113e-05
1.0704004996644992e-06,7.419227173722319e-07,4.4313491598019067e-07,1.084076606061193e-05
1.0556074695262279e-06,7.396695983218091e-07,4.4099047228197033e-07,1.1022011762546685e-05
1.040212497132125e-06,7.371844134135923e-07,4.387504951342343e-07,1.1245282486721154e-05
1.0242684512467186e-06,7.344610424803181e-07,4.3642357666931076e-07,1.1511433348921753e-05
1.007834486729028e-06,7.314963832653888e-07,4.3401717351145287e-07,1.1820727039389086e-05
9.909713810729308e-07,7.28291055540827e-07,4.315370656634368e-07,1.2172780151081516e-05
9.737382319467823e-07,7.248537921497794e-07,4.289873021796049e-07,1.256651999623098e-05
9.561918486248834e-07,7.212021916860503e-07,4.263715944170054e-07,1.3000204717516699e-05
9.383854502106924e-07,7.173573496495453e-07,4.236958489427319e-07,1.347155579676395e-05
9.203669247593969e-07,7.133393386462768e-07,4.209690532862772e-07,1.3977988517773773e-05
9.021792468353592e-07,7.091693471059737e-07,4.1820081375981657e-07,1.4516862143403275e-05
8.838629270843076e-07,7.048753124867495e-07,4.153985193503289e-07,1.5085669651482434e-05
8.654572879105684e-07,7.004947718884339e-07,4.125673100668092e-07,1.5682134296037815e-05
8.469991961780191e-07,6.960724610098138e-07,4.0971253735093006e-07,1.630421662642744e-05
8.2852172520381e-07,6.916540157852371e-07,4.068423716362781e-07,1.6950041436677842e-05
8.100546561163069e-07,6.872793943166642e-07,4.0396844815114495e-07,1.761777644640035e-05
7.916263253072523e-07,6.82980299902118e-07,4.0110426170346214e-07,1.830552822963138e-05
7.73265596225279e-07,6.787820619371846e-07,3.982625169875252e-07,1.901128758173957e-05
7.550030094391991e-07,6.747050178953638e-07,3.954535826543133e-07,1.973288484821279e-05
7.368710779449052e-07,6.707628000745072e-07,3.926859001835643e-07,2.0467917024264933e-05
7.189049797857277e-07,6.669623097783246e-07,3.899665661918857e-07,2.1213676105113456e-05
7.0114449031686e-07,6.633109929227171e-07,3.873006739332957e-07,2.196713719320644e-05
6.836369494563336e-07,6.598288623622869e-07,3.8469036652176096e-07,2.2725014698040423e-05
6.664393587500362e-07,6.565537262884905e-07,3.8213495690346633e-07,2.348384643860444e-05
6.496156784251483e-07,6.535324515472029e-07,3.796313972639325e-07,2.424009122011072e-05
6.332304259402771e-07,6.508066140490556e-07,3.7717427336824474e-07,2.4990241749544875e-05
6.173435669389521e-07,6.484052526885088e-07,3.7475663324057797e-07,2.5730902652934172e-05
6.020073744159446e-07,6.463473138010914e-07,3.72372032427305e-07,2.6458809385957904e-05
5.872646222310324e-07,6.446476455521869e-07,3.700157304641794e-07,2.7170835389257155e-05
5.731479308575096e-07,6.433197125265763e-07,3.676840903622139e-07,2.7863995631569323e-05
5.59679748056412e-07,6.423749442571607e-07,3.6537328470230323e-07,2.853543271181148e-05
5.468735397489772e-07,6.418232164492343e-07,3.630781703073369e-07,2.9182401391586452e-05
5.347355907370648e-07,6.416735705797075e-07,3.6079198068010655e-07,2.98022587749794e-05
5.232659589425496e-07,6.419312778202414e-07,3.585071522554537e-07,3.0392461057320496e-05
5.124589710064571e-07,6.425930306116945e-07,3.562165803906056e-07,3.0950555949163374e-05
5.023048487659597e-07,6.436448353994294e-07,3.539147462804816e-07,3.1474175691588845e-05
4.927931704473999e-07,6.450632627288927e-07,3.5159802836224745e-07,3.196108491881768e-05
4.839184379415149e-07,6.468183039981546e-07,3.492638109836191e-07,3.240928992404829e-05
4.7568838009060457e-07,6.488772111189914e-07,3.469099032063817e-07,3.281712456675463e-05
4.681322286668805e-07,6.51207749093961e-07,3.4453466139422734e-07,3.3183251820259913e-05
4.613010871968176e-07,6.537786867863418e-07,3.421362168548257e-07,3.35065952971042e-05
4.5525632373835536e-07,6.565585313392826e-07,3.3971116285645306e-07,3.378626246033364e-05
4.500545141775068e-07,6.595147157891667e-07,3.372541621211673e-07,3.402154566976471e-05
4.457393697495969e-07,6.626134825790538e-07,3.347584193435492e-07,3.421200032607089e-05
4.423399503935029e-07,6.658198103212906e-07,3.3221629136236894e-07,3.4357503968856986e-05
4.3987104815726815e-07,6.690969759781811e-07,3.2961995263647453e-07,3.44582618199588e-05
4.383354050709115e-07,6.724062401409691e-07,3.269625399206148e-07,3.45147806082539e-05
4.3772769362981864e-07,6.757086992581864e-07,3.2423937199994806e-07,3.452781465873228e-05
4.3803959519312593e-07,6.789698899936973e-07,3.2144895518835194e-07,3.449830109087077e-05
4.3926417557795497e-07,6.821631935227684e-07,3.1859386879038656e-07,3.4427320077003565e-05
4.413965300632149e-07,6.852685147979592e-07,3.15680115203663e-07,3.4316093670622855e-05
4.4443140932902994e-07,6.882685695893571e-07,3.1271516133575145e-07,3.416600745703308e-05
4.4836196764190323e-07,6.911467689920596e-07,3.0970741053082397e-07,3.397864371586914e-05
4.5318038584600926e-07,6.938869944882108e-07,3.066667519590365e-07,3.375579318873656e-05
4.588780925503434e-07,6.964732755624927e-07,3.036055319354149e-07,3.349938711499919e-05
4.6544414944312754e-07,6.988883642362286e-07,3.005419651490921e-07,3.321136564676012e-05
4.7286150662814685e-07,7.011125884174686e-07,2.9750218123895486e-07,3.289356916361797e-05
4.811026440193439e-07,7.031246209944728e-07,2.945159366866278e-07,3.2547711720753335e-05
4.901276094751226e-07,7.049031492907576e-07,2.916110465506957e-07,3.2175457214328134e-05
4.998865242685547e-07,7.064280555862654e-07,2.8881192353390863e-07,3.177857309442962e-05
5.103247808051227e-07,7.076811726689948e-07,2.861411103776141e-07,3.135906311032678e-05
5.213874678401826e-07,7.0864728200841e-07,2.836218120522138e-07,3.091919038077819e-05
5.330229513777286e-07,7.093159952494334e-07,2.8127882319621027e-07,3.04614056163018e-05
5.45184337376948e-07,7.096825185872296e-07,2.791365395232908e-07,2.9988247294466322e-05
5.578249034264843e-07,7.097449849725463e-07,2.77216644828768e-07,2.9502250047637347e-05
5.708908622393879e-07,7.095006121635174e-07,2.755370118211812e-07,2.9005873711231844e-05
5.843197314743723e-07,7.089445741879961e-07,2.7411064190794876e-07,2.850146689058327e-05
5.980448394868628e-07,7.080727159577509e-07,2.72944923546916e-07,2.7991281928958586e-05
6.119988655044408e-07,7.068848248450359e-07,2.7204235893810876e-07,2.747758071789084e-05
6.261124719396156e-07,7.053843088345207e-07,2.7140179677427193e-07,2.6962833704341264e-05
6.403122072872193e-07,7.035760911460309e-07,2.710190311532195e-07,2.644986327254837e-05
6.545225404275718e-07,7.014665671024922e-07,2.7088824823617355e-07,2.594176764763795e-05
6.686704729546886e-07,6.990660440073475e-07,2.710051463992879e-07,2.544166619726133e-05
6.826883835026679e-07,6.963931043705943e-07,2.713682281537008e-07,2.4952426397502763e-05
6.965128555459547e-07,6.934768061964439e-07,2.7197617502595227e-07,2.447653917723069e-05
7.100809501737305e-07,6.903518183747073e-07,2.7282476321956486e-07,2.4016309456434e-05
7.233279155950097e-07,6.870513352763481e-07,2.739060013758425e-07,2.357428356697573e-05
7.361892936772782e-07,6.836065263037583e-07,2.752089770762793e-07,2.3153498237832505e-05
7.486082019813437e-07,6.80052965175411e-07,2.767217114665809e-07,2.27573179866642e-05
7.605428955855246e-07,6.764364823940407e-07,2.7843280972667604e-07,2.2389097038270047e-05
7.719660444905541e-07,6.728105476663254e-07,2.803318256197136e-07,2.2051932460854183e-05
7.828575412787177e-07,6.692273231385598e-07,2.824087609452085e-07,2.17485115207814e-05
7.932014039775332e-07,6.657327531629332e-07,2.846533230233736e-07,2.148098114439716e-05
8.029895553355124e-07,6.623679354742087e-07,2.870540210207418e-07,2.125083745624776e-05
8.122275538022894e-07,6.591693031030265e-07,2.8959748108011605e-07,2.105886163482168e-05
8.209378601820432e-07,6.561653165842667e-07,2.9226912834268345e-07,2.0905119921070067e-05
8.291568304396091e-07,6.533744601342461e-07,2.950557185433139e-07,2.0789033213620832e-05
8.369247952307989e-07,6.508067339970114e-07,2.9794752334374345e-07,2.070949074903176e-05
8.442758483992814e-07,6.484663578130984e-07,3.0093755512933057e-07,2.0664961519610487e-05
8.512342196183591e-07,6.46352811425541e-07,3.040188985836032e-07,2.065357801849014e-05
8.57815367751598e-07,6.44460367267649e-07,3.07182934889283e-07,2.067319374691816e-05
8.640264448045041e-07,6.427780336677678e-07,3.104192503823247e-07,2.072143503406098e-05
8.69865807231126e-07,6.412898497442959e-07,3.1371623353119715e-07,2.0795776928637334e-05
8.753246050792196e-07,6.399755009874861e-07,3.1706165834306014e-07,2.0893640071576184e-05
8.803908958884359e-07,6.388112258361274e-07,3.204439730253224e-07,2.101247577329682e-05
8.850519506402252e-07,6.377700525405997e-07,3.238543099310576e-07,2.114981714722192e-05
8.892926638331648e-07,6.368223800996056e-07,3.2728851148792e-07,2.1303289314465186e-05
8.930944559944809e-07,6.35937337143389e-07,3.3074910862418807e-07,2.147059421903015e-05
8.964375206361927e-07,6.350836424483803e-07,3.3424497180373785e-07,2.164948550331304e-05
8.993044365463673e-07,6.34231314947375e-07,3.377867522860223e-07,2.1837717132101323e-05
9.016823941822416e-07,6.333550935460063e-07,3.413823007630569e-07,2.2032977302999546e-05
9.03564153220478e-07,6.324356019766038e-07,3.4503586701762693e-07,2.2232880666826905e-05
9.049509927212095e-07,6.314565677306488e-07,3.487482322592257e-07,2.2435058355074595e-05
9.058559217743864e-07,6.304032072376717e-07,3.5251565240605975e-07,2.263727185559626e-05
9.063008868022938e-07,6.29264439610759e-07,3.5633017239145205e-07,2.283744594322876e-05
9.063097728781604e-07,6.280356328628504e-07,3.6018183603258814e-07,2.303362377061589e-05
9.059050113129785e-07,6.267197072805986e-07,3.6405991460529017e-07,2.322393096969078e-05
9.051110107046688e-07,6.253257419041506e-07,3.67952608338776e-07,2.3406599926235896e-05
9.039598804573713e-07,6.238646976405578e-07,3.7184716418295384e-07,2.3580032767361762e-05
9.024906103487323e-07,6.223449491717528e-07,3.7573079968390094e-07,2.374282914965152e-05
9.007423611391701e-07,6.20770336452806e-07,3.79592219559912e-07,2.389372718720564e-05
8.987529166450522e-07,6.191411806268608e-07,3.834238486686771e-07,2.4031523722809905e-05
8.965622491869722e-07,6.174576491524266e-07,3.8722330048544327e-07,2.4155095092830025e-05
8.942112473939769e-07,6.157243093887417e-07,3.9099292901845004e-07,2.426351442751659e-05
8.917378973538429e-07,6.139541578442714e-07,3.947380071992785e-07,2.435612681670088e-05
8.891792741165009e-07,6.121697909710036e-07,3.984643368442042e-07,2.443251188370792e-05
8.865757545349622e-07,6.104009341948741e-07,4.021762090901178e-07,2.449240191488796e-05
8.839700095484061e-07,6.086795261176526e-07,4.0587484707310183e-07,2.4535608734845373e-05
8.814031725271089e-07,6.070342499236046e-07,4.095576612122808e-07,2.4561957632854275e-05
8.789141472757898e-07,6.054868305082357e-07,4.132198486506803e-07,2.4571259717513808e-05
8.765403199072905e-07,6.040510931527578e-07,4.1685711186010287e-07,2.4563348554127328e-05
8.743147045536161e-07,6.027343490032985e-07,4.204659523286104e-07,2.4538129604122642e-05
8.722608729912868e-07,6.015402778136337e-07,4.2404149987042775e-07,2.4495577205216127e-05
8.703909011912083e-07,6.00471892791639e-07,4.2757586263906883e-07,2.443570104102701e-05
8.687074122122231e-07,5.995331169749907e-07,4.310582414683421e-07,2.43586206835705e-05
8.672062521812678e-07,5.987286851927932e-07,4.344753417508418e-07,2.4264852546901016e-05
8.658779191321155e-07,5.980630608564231e-07,4.3781105750560397e-07,2.4155619691246426e-05
8.647086369889841e-07,5.975392309309617e-07,4.41046606706143e-07,2.4032836125733967e-05
8.63681107914222e-07,5.971592481873694e-07,4.44161526840936e-07,2.3898773264058264e-05
8.62774780896356e-07,5.969268201817404e-07,4.471344806903985e-07,2.375580513473865e-05
8.61966114320772e-07,5.96849354194461e-07,4.499437131262839e-07,2.3606419867729628e-05
8.612283008481733e-07,5.969380664155897e-07,4.525676005138106e-07,2.34532770021064e-05
8.605305458236116e-07,5.972057853522769e-07,4.549855086881391e-07,2.329914291407305e-05
8.59838977618934e-07,5.976632184907359e-07,4.571781475057535e-07,2.314677418517238e-05
8.591217236206266e-07,5.983167102567778e-07,4.59126579981204e-07,2.29988345986064e-05
8.583560116265653e-07,5.99168319887756e-07,4.608111537825614e-07,2.285784655633999e-05
8.575296880674876e-07,6.002165417569216e-07,4.62211869232291e-07,2.2726130554860182e-05
8.566353238373987e-07,6.014578667889724e-07,4.633104111930086e-07,2.260571462894082e-05
8.55663430389298e-07,6.028892977568587e-07,4.6409262649200096e-07,2.2498247923386235e-05
8.54599635507436e-07,6.045088711626708e-07,4.6454882031999673e-07,2.2404943811243505e-05
8.534269171828064e-07,6.063130045400146e-07,4.6467173378991405e-07,2.2326544767833043e-05
8.521308882987786e-07,6.082938583379259e-07,4.644552230163304e-07,2.2263303640100107e-05
8.507025351020094e-07,6.104389835089377e-07,4.6389490081132214e-07,2.2214997723266656e-05
8.491364239416469e-07,6.127318373302835e-07,4.6298948971410276e-07,2.2180982410142068e-05
8.474285365973904e-07,6.151514876633522e-07,4.6174152901811416e-07,2.2160270766804707e-05
8.455760009312536e-07,6.176726301015913e-07,4.601563864565258e-07,2.2151638970358668e-05
8.435786467273812e-07,6.202670304943319e-07,4.582403419053361e-07,2.2153754542734388e-05
8.414450838647527e-07,6.22904735972931e-07,4.5600111974273004e-07,2.2165276178763543e-05
8.392013505593855e-07,6.25554314247066e-07,4.5345118550453865e-07,2.2184879684904862e-05
8.368926120589981e-07,6.281833638079185e-07,4.506087194701164e-07,2.2211238506914425e-05
8.345743536964258e-07,6.307591188442159e-07,4.4749428462039564e-07,2.224301271504092e-05
8.322998335055944e-07,6.332484296633011e-07,4.441276084733553e-07,2.22788708902233e-05
8.301125868362515e-07,6.356175372340292e-07,4.405272192154878e-07,2.2317542259912906e-05
8.280462875714102e-07,6.378328944383339e-07,4.367109911869712e-07,2.23578721367594e-05
8.261260414150662e-07,6.398635145031355e-07,4.3269624030179357e-07,2.2398846798416548e-05
8.243672081477176e-07,6.416823169296526e-07,4.2850006438985403e-07,2.2439571429784804e-05
8.22774567280083e-07,6.432654354483384e-07,4.241400597056754e-07,2.247920363122785e-05
8.213432003257066e-07,6.445918327453379e-07,4.1963480538776974e-07,2.2516875766541198e-05
8.200593737933251e-07,6.456434984362491e-07,4.1500366070488466e-07,2.2551679245388025e-05
8.189016801217296e-07,6.464053059979155e-07,4.102659056029156e-07,2.258274348695353e-05
8.178442543430858e-07,6.468643898282243e-07,4.0543979828836005e-07,2.2609323406420787e-05
8.168629100208713e-07,6.470090974681823e-07,4.0054201379757745e-07,2.263079225270879e-05
8.159438602857467e-07,6.468279101658771e-07,3.955879658492295e-07,2.2646563321163296e-05
8.150949265724825e-07,6.463084160905922e-07,3.905928001475139e-07,2.2656034384215782e-05
8.14356352885372e-07,6.454371433508539e-07,3.855714258733008e-07,2.265857301761697e-05
8.138014456233114e-07,6.442007391720444e-07,3.805379103137751e-07,2.2653523765691e-05
8.135217462382884e-07,6.42587418216773e-07,3.755065176032042e-07,2.264026478779669e-05
8.136079339304927e-07,6.405881711788906e-07,3.7049306580551026e-07,2.2618290368165265e-05
8.141421522282131e-07,6.381973995934969e-07,3.655136050227411e-07,2.2587242410375897e-05
8.152027104774534e-07,6.354122715337928e-07,3.605822721682106e-07,2.254687403906699e-05
8.168676813591341e-07,6.3223211134797e-07,3.5571204470291464e-07,2.2496972706745184e-05
8.192079362193753e-07,6.286598558493611e-07,3.509174927969793e-07,2.2437302390430772e-05
8.22275373809306e-07,6.247046335681128e-07,3.46216037974422e-07,2.236761063509422e-05
8.26096420115403e-07,6.203845643899698e-07,3.4162811898347484e-07,2.2287659415263182e-05
8.306723677375213e-07,6.157308716598347e-07,3.371796654711215e-07,2.219725916154269e-05
8.359827052073494e-07,6.10789928260869e-07,3.329062923334545e-07,2.2096345539400468e-05
8.419896229426163e-07,6.056177276905358e-07,3.288543390636396e-07,2.1985059104842762e-05
8.486450967235428e-07,6.002702216846886e-07,3.250758399587459e-07,2.1863728828724654e-05
8.559005493023344e-07,5.947975389199531e-07,3.2162001231505325e-07,2.173276764996561e-05
8.637138468175006e-07,5.892432423234849e-07,3.1852699231272925e-07,2.1592609359029896e-05
8.720490510312348e-07,5.836456950655659e-07,3.15826454034799e-07,2.1443790798500245e-05
8.808711394545679e-07,5.780398029302827e-07,3.1353884273373384e-07,2.1287101057875607e-05
8.901406393319785e-07,5.724581493252432e-07,3.116771976151941e-07,2.1123584434954683e-05
8.99811631075704e-07,5.669311403736612e-07,3.102499207197898e-07,2.095436069076736e-05
9.09833715742028e-07,5.614862113432156e-07,3.0926332401049605e-07,2.078045259680122e-05
9.201548612745224e-07,5.561478311161334e-07,3.087209526027023e-07,2.0602734543947247e-05
9.307230060855769e-07,5.509391154795849e-07,3.0862073560516426e-07,2.042198064706445e-05
9.414872819765026e-07,5.458832417436659e-07,3.089542395538703e-07,2.0238970696819344e-05
9.523983616081944e-07,5.410065839962953e-07,3.097085568633935e-07,2.005457241781296e-05
9.63407465353038e-07,5.36343800267618e-07,3.108689976401798e-07,1.9869726187423927e-05
9.744660506505078e-07,5.319383909382679e-07,3.124217211637465e-07,1.968537817135075e-05
9.855262356404942e-07,5.278398629643561e-07,3.143547385539318e-07,1.9502444542248004e-05
9.965394226439513e-07,5.241050431822169e-07,3.166566869486673e-07,1.9321796360365635e-05
1.0074529617361714e-06,5.207999778678074e-07,3.1931577715484785e-07,1.9144213106035248e-05
1.0182075520957136e-06,5.17994320781792e-07,3.223196859555685e-07,1.8970322148317096e-05
1.0287374638097638e-06,5.15753081974939e-07,3.2565413235602146e-07,1.8800570386255774e-05
1.038973535144716e-06,5.14134515830171e-07,3.2930055180723066e-07,1.863520965744492e-05
1.0488485578483629e-06,5.131903051515742e-07,3.3323567032922604e-07,1.8474285786190855e-05
1.0583036968446364e-06,5.129614670653707e-07,3.3743434351116e-07,1.831765984456224e-05
1.067291652372871e-06,5.134731774139601e-07,3.418749366330665e-07,1.8165048436281614e-05
1.0757746038405079e-06,5.147339839202067e-07,3.4654372385994325e-07,1.801606756169054e-05
1.0837203275919905e-06,5.16739344752707e-07,3.5143506324603873e-07,1.787030589509289e-05
1.0910997358195342e-06,5.194751417320232e-07,3.565479767849619e-07,1.772745944715198e-05
1.097885472623125e-06,5.22918397026572e-07,3.6188159174974884e-07,1.7587565042988926e-05
1.1040502033744163e-06,5.270378686798439e-07,3.674310284305496e-07,1.7451290758289505e-05
1.1095670755296258e-06,5.317966560187879e-07,3.731846548053454e-07,1.732007984106785e-05
1.1144143249534194e-06,5.371540937399292e-07,3.791236183024125e-07,1.71960212420924e-05
1.1185783330329594e-06,5.43064986500126e-07,3.852236295061073e-07,1.7081578300227317e-05
1.1220509426038711e-06,5.494785916697475e-07,3.9145876521870884e-07,1.6979326020516916e-05
1.1248275162470514e-06,5.563412896366681e-07,3.978066127886977e-07,1.6891737270104903e-05
1.1269118685056463e-06,5.636018764140543e-07,4.04250896633313e-07,1.6821103658752162e-05
1.1283221424795436e-06,5.712134732737809e-07,4.107789497863422e-07,1.6769655900407634e-05
1.1290888132421105e-06,5.791328742454994e-07,4.173773314977611e-07,1.6739753167525905e-05
1.1292469703068271e-06,5.873224049135424e-07,4.240292705099579e-07,1.6733976921348247e-05
1.128830173193225e-06,5.957506855102131e-07,4.307140898786586e-07,1.675510141454701e-05
1.1278666012096874e-06,6.043880255663465e-07,4.3740780948840845e-07,1.6805942205980794e-05
1.126376660706747e-06,6.132007780384921e-07,4.4408393491203634e-07,1.688910033786254e-05
1.1243743060379587e-06,6.221492474875819e-07,4.507137074932032e-07,1.7006723628639207e-05
1.1218699038795997e-06,6.311883899402525e-07,4.5726676031994543e-07,1.7160387736062697e-05
1.118870248685532e-06,6.402692049117011e-07,4.6371230344735564e-07,1.7351067823449812e-05
1.115377206429587e-06,6.493400675802976e-07,4.7001920394133243e-07,1.7579138549607346e-05
1.1113880795946456e-06,6.583475901615464e-07,4.761554079894528e-07,1.7844374912773943e-05
1.1068971083789956e-06,6.672370023737092e-07,4.820882349914874e-07,1.8145948357938305e-05
1.1018967217479177e-06,6.759527509251864e-07,4.877850082384309e-07,1.8482432982456506e-05
1.096379348996172e-06,6.844398123307607e-07,4.93213673020592e-07,1.8851839572549347e-05
1.0903412962260649e-06,6.926447298906535e-07,4.983436839034633e-07,1.9251697074672093e-05
1.0837880573067251e-06,7.005152131192821e-07,5.031463625604375e-07,1.9679197630950107e-05
1.0767372322584738e-06,7.079994841173081e-07,5.07594786537626e-07,2.0131377127689206e-05
1.0692161769796382e-06,7.150466558804509e-07,5.116639219168642e-07,2.0605250983387773e-05
1.061258659791803e-06,7.216077294202677e-07,5.153307097607455e-07,2.1097840403100807e-05
1.0529059699328614e-06,7.276371399589242e-07,5.185746318830529e-07,2.160611225463415e-05
1.044209201258443e-06,7.330952862691086e-07,5.213792961955906e-07,2.212691659507105e-05
1.0352261036082116e-06,7.379506760524935e-07,5.237334188344133e-07,2.265698428221371e-05
1.0260125580810725e-06,7.421801336448034e-07,5.25629647210534e-07,2.319297235101571e-05
1.016615450080088e-06,7.457689402014875e-07,5.270624636576478e-07,2.3731496140032527e-05
1.0070728783420998e-06,7.487118587367092e-07,5.280275184277586e-07,2.4269130370746467e-05
9.974196083727931e-07,7.510118983382802e-07,5.285221715370955e-07,2.480242934564913e-05
9.876902882262016e-07,7.52675806474848e-07,5.285455058350072e-07,2.532801417136757e-05
9.779179771915058e-07,7.537096050173767e-07,5.280977919855632e-07,2.584269282007591e-05
9.681321001159585e-07,7.541169157842627e-07,5.271806511640864e-07,2.634351442340897e-05
9.583584278622193e-07,7.539008877435119e-07,5.257989173392365e-07,2.682771849370889e-05
9.486196786436856e-07,7.53069817604361e-07,5.239642861289167e-07,2.7292640101614056e-05
9.389348256079105e-07,7.516430841568904e-07,5.216987823023678e-07,2.7735652862225488e-05
9.293180909873628e-07,7.496518873415495e-07,5.190352958685826e-07,2.8154193205878063e-05
9.197797037256987e-07,7.471345366112146e-07,5.16015133585964e-07,2.8545863215211437e-05
9.103264876746101e-07,7.441306691375918e-07,5.126847732139443e-07,2.890856260288696e-05
9.009605664020168e-07,7.406788375012017e-07,5.090934600036351e-07,2.924057320770273e-05
8.916787923166004e-07,7.368207655787457e-07,5.052913682035986e-07,2.9540559373889007e-05
8.824744091000443e-07,7.326103254684171e-07,5.013271375820728e-07,2.9807530433563732e-05
8.733409153037001e-07,7.281187357279334e-07,4.972452131927542e-07,3.0040857687129933e-05
8.642766924325567e-07,7.234304859106052e-07,4.930841097302562e-07,3.024037613943773e-05
8.552858075222572e-07,7.186351406770002e-07,4.888758317688445e-07,3.0406457645788446e-05
8.463739520629224e-07,7.138213669627824e-07,4.846467873612956e-07,3.053992015322077e-05
8.375440314508791e-07,7.090717280599396e-07,4.804196143587015e-07,3.064180056544022e-05
8.287957905895961e-07,7.044572857346063e-07,4.7621399983247224e-07,3.071314290549675e-05
8.201311807135373e-07,7.000361829718234e-07,4.720463123514013e-07,3.075489931129181e-05
8.115615190977142e-07,6.958572295253736e-07,4.6792921129038887e-07,3.076793215946062e-05
8.031085123524859e-07,6.919631392892187e-07,4.638712560667229e-07,3.0753066776506025e-05
7.947977664600052e-07,6.883891711879859e-07,4.5987668421160725e-07,3.0711137386365106e-05
7.866526336696516e-07,6.851594782620433e-07,4.5594591292239045e-07,3.0643039303272216e-05
7.786941654699002e-07,6.822857640045769e-07,4.520762137774586e-07,3.054988880433645e-05
7.709437309512181e-07,6.797701822384392e-07,4.482624437540272e-07,3.0433214530267494e-05
7.634236262813673e-07,6.776104702617829e-07,4.4449910677554816e-07,3.029494550292451e-05
7.561574102773729e-07,6.758021553513529e-07,4.4078283680634357e-07,3.0137203229111375e-05
7.491713742033325e-07,6.743372294629594e-07,4.3711234821654204e-07,2.9962087841287208e-05
7.424938515569714e-07,6.732049113205743e-07,4.3348643416755993e-07,2.977156568414093e-05
7.361527148683286e-07,6.723955430558721e-07,4.2990268208331357e-07,2.956756494902417e-05
7.301739338551859e-07,6.719037039539797e-07,4.2635714914568183e-07,2.9352282434489424e-05
7.245795078481043e-07,6.717290342379469e-07,4.2284500842867544e-07,2.9128427037933782e-05
7.193843577822207e-07,6.718740365607968e-07,4.193631260906169e-07,2.8899186375093847e-05
7.145950297757346e-07,6.723383655048678e-07,4.159129872217214e-07,2.8668017830733605e-05
7.102111173895901e-07,6.731138488486355e-07,4.125006140492343e-07,2.8438437309577067e-05
7.062278189517695e-07,6.741854364754815e-07,4.0913407045086103e-07,2.8213867021316967e-05
7.026373805970424e-07,6.755358822482894e-07,4.0582203988044565e-07,2.7997526276032258e-05
6.994314727359553e-07,6.771487329187404e-07,4.025743600889154e-07,2.779233134755556e-05
6.966068582026757e-07,6.790091374379056e-07,3.9940321345444493e-07,2.7600812524992933e-05
6.941685710960222e-07,6.811032010875531e-07,3.9632290890575256e-07,2.742508705746268e-05
6.921259647694459e-07,6.834150872848924e-07,3.933471259240325e-07,2.7266872739646146e-05
6.904853591427652e-07,6.85923495900144e-07,3.904864698181985e-07,2.712746434376161e-05
6.892445774714693e-07,6.886003193536727e-07,3.8774874232857494e-07,2.700766003781502e-05
6.883926144365853e-07,6.91411921399745e-07,3.8513949730178926e-07,2.690774113083229e-05
6.879138089429691e-07,6.943212016688551e-07,3.826614133440131e-07,2.682755897594637e-05
6.877918016946288e-07,6.972887200924831e-07,3.8031502773816827e-07,2.6766658153702413e-05
6.880102467214472e-07,7.002733732537103e-07,3.781015325910533e-07,2.6724378806153766e-05
6.885519099992692e-07,7.032353685685563e-07,3.7602436989878726e-07,2.6699933497189246e-05
6.89397610707761e-07,7.06144009317433e-07,3.740879935387599e-07,2.6692446608597612e-05
6.905239927003139e-07,7.08985455446415e-07,3.7229575599663355e-07,2.6700964777331564e-05
6.919015461893667e-07,7.117608100045696e-07,3.706490685998546e-07,2.6724471246925048e-05
6.934960864363394e-07,7.144759151133784e-07,3.69148191765673e-07,2.6761907718547266e-05
6.95274334455516e-07,7.171334896187321e-07,3.677924778030222e-07,2.6812187576927122e-05
6.972119572935457e-07,7.197318851185266e-07,3.665788253665625e-07,2.687419644347136e-05
6.992990238444082e-07,7.222675836430896e-07,3.655009068030232e-07,2.6946766445571177e-05
7.015372303949929e-07,7.247368219899498e-07,3.645506990733696e-07,2.702861631105881e-05
7.039307562176682e-07,7.271344955333921e-07,3.6372017354252595e-07,2.7118325668998252e-05
7.064787188279702e-07,7.294542269068998e-07,3.63001399525249e-07,2.721440861765777e-05
7.091741422459658e-07,7.316907098598916e-07,3.6238624621178687e-07,2.731541653097352e-05
7.120066070541605e-07,7.338394939682243e-07,3.618673338268818e-07,2.741996778314443e-05
7.149627968548216e-07,7.358948955499961e-07,3.61439504525321e-07,2.752670764741159e-05
7.180244125175419e-07,7.37852026449426e-07,3.610997490051446e-07,2.763427548979532e-05
7.211669803383372e-07,7.397106983921495e-07,3.6084565854929094e-07,2.7741329457019646e-05
7.243612224319308e-07,7.414738453687115e-07,3.6067417108922725e-07,2.7846567924953034e-05
7.27577010201692e-07,7.431448652946598e-07,3.6058109699350117e-07,2.794866890046046e-05
7.307888848992984e-07,7.44734045099499e-07,3.6056142206024227e-07,2.8046213282497853e-05
7.339793601559774e-07,7.462674065134944e-07,3.606099745143686e-07,2.8137713174541356e-05
7.371371294842825e-07,7.477834402488108e-07,3.6072120961654047e-07,2.8221745942606898e-05
7.402546276292022e-07,7.493208685956027e-07,3.608889198058391e-07,2.8297114510179053e-05
7.43329925858687e-07,7.509093930152136e-07,3.6110734644871924e-07,2.836298343254861e-05
7.463682147488895e-07,7.525669614818939e-07,3.613722744948352e-07,2.841894137069742e-05
7.493790031740976e-07,7.54301830173194e-07,3.616808166442164e-07,2.8464935460578168e-05
7.523743407478024e-07,7.561150446813391e-07,3.6203174076340886e-07,2.8501094518504704e-05
7.55369810101281e-07,7.580002051827188e-07,3.624270749520624e-07,2.8527517225454997e-05
7.58383515413817e-07,7.599428907325168e-07,3.628724243737414e-07,2.8544119374672246e-05
7.614326715090238e-07,7.619217904614631e-07,3.6337553626763e-07,2.8550604189531853e-05
7.645305590460455e-07,7.639115361133325e-07,3.639455601995476e-07,2.8546515254039092e-05
7.676839261705957e-07,7.658863637420451e-07,3.6459392656232327e-07,2.85312964001867e-05
7.70891490758822e-07,7.678213215872777e-07,3.6533620319701526e-07,2.8504405043316792e-05
7.741445999144822e-07,7.696902453503242e-07,3.661936536474749e-07,2.84655869322794e-05
7.774284205023995e-07,7.714642097208212e-07,3.671918613589168e-07,2.841519395255398e-05
7.807225438136739e-07,7.731128284846371e-07,3.683555248334978e-07,2.835426059336037e-05
7.840024946253158e-07,7.74606454394633e-07,3.6970309696782296e-07,2.8284301407096607e-05
7.872431584895238e-07,7.759168977463838e-07,3.712448902572964e-07,2.82070102021752e-05
7.904220423542707e-07,7.77018466329058e-07,3.7298420279935033e-07,2.812400584061571e-05
7.93519478780153e-07,7.77890185271808e-07,3.7491875999713367e-07,2.8036781210927064e-05
7.965159860148043e-07,7.785157040455659e-07,3.770413761408354e-07,2.794693068070825e-05
7.99389810384372e-07,7.788800710081349e-07,3.793411645327853e-07,2.7856431024625468e-05
8.02116243244557e-07,7.789666765606112e-07,3.818050641445972e-07,2.776770759719035e-05
8.046679693480349e-07,7.787566172390634e-07,3.8441811723598046e-07,2.7683520888259472e-05
8.070172672393799e-07,7.782299499831162e-07,3.8716280722168567e-07,2.7606825437573432e-05
8.091398615013023e-07,7.773670457031387e-07,3.9001862000059437e-07,2.75406247547932e-05
8.110157697161756e-07,7.761489439402801e-07,3.929624394213029e-07,2.7487800288213312e-05
8.126259349869938e-07,7.745578152922555e-07,3.959699726156124e-07,2.745094395277225e-05
8.139499225199625e-07,7.725804152328531e-07,3.9901750797198073e-07,2.7432246580779308e-05
8.149666329783177e-07,7.702142308579234e-07,4.0208264551912434e-07,2.7433466749262368e-05
8.156544451261237e-07,7.674710388305679e-07,4.0514394678422366e-07,2.745595242126788e-05
8.159899727914771e-07,7.643745873156706e-07,4.08180740448285e-07,2.7500643506970452e-05
8.159478264818161e-07,7.60954711131247e-07,4.111734943120168e-07,2.756801808727173e-05
8.155013018090666e-07,7.572422877401815e-07,4.1410397256517637e-07,2.7658025349662248e-05
8.146232750611228e-07,7.532670430018361e-07,4.1695536576887946e-07,2.7770055997390447e-05
8.132892925130429e-07,7.490562167058126e-07,4.1971358822894616e-07,2.7902993706874823e-05
8.114826237328896e-07,7.446327402565986e-07,4.223686129624229e-07,2.80553848636456e-05
8.091960796341562e-07,7.400145588009477e-07,4.249142528199832e-07,2.822567017593274e-05
8.06428493906763e-07,7.352160671636745e-07,4.273472864396048e-07,2.8412362026823628e-05
8.031806242523056e-07,7.302514479158667e-07,4.296664607946228e-07,2.8614134462283343e-05
7.99454397557823e-07,7.251386644023434e-07,4.318722532973696e-07,2.8829864638699378e-05
7.952538714028566e-07,7.199004318172166e-07,4.339688135382864e-07,2.9058626296678996e-05
7.905856174291716e-07,7.145613311683782e-07,4.3596537600557614e-07,2.9299613074309003e-05
7.854602258496488e-07,7.091452478414781e-07,4.378734926795641e-07,2.9552021771779083e-05
7.79894931691783e-07,7.036750075709671e-07,4.3970197725118743e-07,2.9814953825270336e-05
7.739124320178256e-07,6.981727792127399e-07,4.4145484471843547e-07,3.0087337986105498e-05
7.675363036779003e-07,6.926599920813588e-07,4.431339848591479e-07,3.0367848779380743e-05
7.607892367214592e-07,6.871563874570863e-07,4.4474220613485114e-07,3.065488004651745e-05
7.536941637760892e-07,6.816788143316607e-07,4.4628257652911647e-07,3.0946623043688275e-05
7.462752309425377e-07,6.762412212898118e-07,4.477557696072004e-07,3.124116408797187e-05
7.385596450559561e-07,6.708588843566018e-07,4.4915864405877544e-07,3.153653456226703e-05
7.305802233154027e-07,6.655557697285464e-07,4.504847357527669e-07,3.183074854744595e-05
7.223762598077609e-07,6.603664444517973e-07,4.5172541095366096e-07,3.2121845827185066e-05
7.139922571760753e-07,6.553293188806775e-07,4.5286996777365686e-07,3.240789346674043e-05
7.054763879813884e-07,6.504785448511e-07,4.5390493999094287e-07,3.268692327424736e-05
6.968824839392715e-07,6.458410594625825e-07,4.548144571016234e-07,3.2956865221593625e-05
6.88274751874804e-07,6.41439457226067e-07,4.555820783251254e-07,3.3215539605263826e-05
6.797264577328972e-07,6.372964583019018e-07,4.5619224198409213e-07,3.346072355188809e-05
6.713105147952343e-07,6.334348463612829e-07,4.566297179735712e-07,3.3690297671462245e-05
6.630933128313194e-07,6.298736348436964e-07,4.568787355136056e-07,3.390243584939789e-05
6.551375604655792e-07,6.266263234288025e-07,4.5692434114351455e-07,3.4095713407202756e-05
6.475051168391357e-07,6.237018027199913e-07,4.5675458673486405e-07,3.4269038749955325e-05
6.402529920136122e-07,6.211047375679325e-07,4.563608481637122e-07,3.442148052815669e-05
6.334277495543661e-07,6.188351288567005e-07,4.5573721936228896e-07,3.455212784483467e-05
6.270649573268571e-07,6.168889130697093e-07,4.5488049016890926e-07,3.466003810103721e-05
6.211919971877002e-07,6.152600910933728e-07,4.5378950531183777e-07,3.4744253379790244e-05
6.158285935308051e-07,6.139418812392616e-07,4.5246346814219073e-07,3.480383236653011e-05
6.109851894373212e-07,6.129252933456757e-07,4.5090090235524253e-07,3.483785621239497e-05
6.066637013724655e-07,6.121976914156638e-07,4.490999947461278e-07,3.484546504702375e-05
6.028606606541806e-07,6.117423541590166e-07,4.470595623073396e-07,3.4826050689240764e-05
5.995687699984902e-07,6.115376390283689e-07,4.447794789540782e-07,3.4779547512998264e-05
5.967760939764098e-07,6.115566832580074e-07,4.4226017362024076e-07,3.470654979901086e-05
5.944651874706316e-07,6.117683004481811e-07,4.3950304594544327e-07,3.4608157047860595e-05
5.926134021318146e-07,6.12138280619544e-07,4.3651254385501385e-07,3.448572737603586e-05
5.91194289269655e-07,6.126310770185433e-07,4.332972425977208e-07,3.434069877867422e-05
5.901789599204075e-07,6.132119054559867e-07,4.2986858505002177e-07,3.4174541190833665e-05
5.895361442276589e-07,6.13848510770028e-07,4.26239839915371e-07,3.398888528618453e-05
5.892317778034967e-07,6.145114109542118e-07,4.22427749748005e-07,3.378571816971438e-05
5.892293976377582e-07,6.151725846533795e-07,4.1845532997422717e-07,3.356742698402332e-05
5.894911198475586e-07,6.158045316356477e-07,4.1435188216602343e-07,3.333668564166422e-05
5.899793007325632e-07,6.163813061283273e-07,4.101494353626794e-07,3.309631951513929e-05
5.90658534353521e-07,6.168806777420178e-07,4.058790866786301e-07,3.284917542296973e-05
5.914956226828975e-07,6.172855679829767e-07,4.015691340573111e-07,3.259799375757393e-05
5.924579828281645e-07,6.17584204780959e-07,3.972441132487103e-07,3.234531266727317e-05
5.935140161000643e-07,6.177700024040372e-07,3.9292486819401896e-07,3.209341128560053e-05
5.946350814499824e-07,6.178427118454669e-07,3.8862927222038295e-07,3.1844291015853995e-05
5.957958546309714e-07,6.178097461675815e-07,3.8437278131353324e-07,3.159969496875881e-05
5.96972814321676e-07,6.176843584082517e-07,3.801700690836992e-07,3.136112754780545e-05
5.981440395913762e-07,6.17481360508853e-07,3.760369239674918e-07,3.1129826551346e-05
5.99292141649673e-07,6.172140832388555e-07,3.7198953960808136e-07,3.090670100811313e-05
6.004060736147827e-07,6.168930176913818e-07,3.6804230915851313e-07,3.069228072455405e-05
6.014773926796251e-07,6.165252048422288e-07,3.6420702397199223e-07,3.0486704901451983e-05
6.02495056129654e-07,6.161150975396528e-07,3.604938699144301e-07,3.0289782876348097e-05
6.034445135257061e-07,6.156665442971608e-07,3.5691355805470576e-07,3.0101137722245177e-05
6.043092811757136e-07,6.151846855892813e-07,3.5348000724081844e-07,2.992035804509558e-05
6.050712491887879e-07,6.146781894121822e-07,3.502124495794141e-07,2.974708786145936e-05
6.057100865304457e-07,6.141614086257793e-07,3.47135602160905e-07,2.9581082596994182e-05
6.062029771364192e-07,6.136538295144439e-07,3.44277263754363e-07,2.9422251707470612e-05
6.065248822161304e-07,6.131761631941776e-07,3.416638538138627e-07,2.92706498741844e-05
6.066491948531563e-07,6.127464005824847e-07,3.3931616794303705e-07,2.9126422089860963e-05
6.065483426688306e-07,6.123789118892359e-07,3.372478373618691e-07,2.8989732536358893e-05
6.061945438194137e-07,6.12085100361913e-07,3.35466580814455e-07,2.886066222360013e-05
6.055613077792914e-07,6.118735711346876e-07,3.339763541690154e-07,2.87390972556299e-05
6.04624972098085e-07,6.117505831567905e-07,3.327780602381341e-07,2.8624708625567414e-05
6.03364689181025e-07,6.117199198147138e-07,3.3186858093287413e-07,2.8517041820260967e-05
6.01761504382926e-07,6.11781459669906e-07,3.312404296012372e-07,2.841559691900752e-05
5.997990953450042e-07,6.119315202168273e-07,3.308824638439047e-07,2.831984132513001e-05
5.974655176845435e-07,6.121663944342361e-07,3.307801270748041e-07,2.822921570727139e-05
5.947531978952264e-07,6.124850466287775e-07,3.3091577195516656e-07,2.8143169062715197e-05
5.916583782687938e-07,6.128874790575418e-07,3.3127011852204163e-07,2.806117042987918e-05
5.881824398912049e-07,6.133707868590661e-07,3.318237374418096e-07,2.798265680531109e-05
5.843331956093796e-07,6.139279298566897e-07,3.325575390884528e-07,2.7907015254472712e-05
5.80123803053741e-07,6.145537089016028e-07,3.334527023083933e-07,2.7833678178372942e-05
5.755711943629655e-07,6.152543578085524e-07,3.344906300170333e-07,2.7762225296895777e-05
5.706973064766838e-07,6.160499910520067e-07,3.3565326775899966e-07,2.7692397053350957e-05
5.655338439842139e-07,6.169683881338806e-07,3.369239799149555e-07,2.7624041092096755e-05
5.60125944532653e-07,6.180379953367488e-07,3.382882242175684e-07,2.755702482448841e-05
5.545282668567401e-07,6.192839893330404e-07,3.3973316309340484e-07,2.7491144441073768e-05
5.48796042605528e-07,6.207274440950526e-07,3.4124716536371605e-07,2.742606187829289e-05
5.429796179132979e-07,6.223862829914174e-07,3.428199708326939e-07,2.7361298756725282e-05
5.371248081767636e-07,6.242745998638925e-07,3.444427963062409e-07,2.7296295150199465e-05
5.312766173765601e-07,6.264000026442657e-07,3.461079818557198e-07,2.7230469254452758e-05
5.254829369273162e-07,6.28762266573459e-07,3.4780783776894745e-07,2.716321533291072e-05
5.197936813399031e-07,6.31353700182731e-07,3.495328456320001e-07,2.709386033474986e-05
5.14255498650466e-07,6.341593437653066e-07,3.512711429651976e-07,2.702165876998829e-05
5.089097006194001e-07,6.371579542321339e-07,3.530103737504795e-07,2.6945941648715e-05
5.037987635081714e-07,6.403246892036735e-07,3.547393001235561e-07,2.686636357455212e-05
4.989747533636792e-07,6.436336795933843e-07,3.564467660365226e-07,2.6782961314859664e-05
4.944989396496974e-07,6.470599868064778e-07,3.581204396689105e-07,2.669599746305805e-05
4.904333395779602e-07,6.505814887804924e-07,3.5974765652122066e-07,2.660584257121452e-05
4.868329679676007e-07,6.541796029538725e-07,3.6131628474048036e-07,2.6512927390512728e-05
4.837433851466375e-07,6.578377755325037e-07,3.628150873519189e-07,2.6417677156473362e-05
4.812043398799832e-07,6.615391244347409e-07,3.6423569662893725e-07,2.632044469994085e-05
4.792554500572617e-07,6.652663282421471e-07,3.6557426520743103e-07,2.6221452522205012e-05
4.779359388730411e-07,6.69003859353974e-07,3.6682971439944256e-07,2.612074427460599e-05
4.772790022177115e-07,6.727393172068678e-07,3.680004269142218e-07,2.60181629497254e-05
4.773084488242198e-07,6.76462113744734e-07,3.6908248486196045e-07,2.591335206415641e-05
4.780405671436439e-07,6.801602624770238e-07,3.700697739968705e-07,2.580576624131481e-05
4.794888483391764e-07,6.83817391732486e-07,3.7095455900444935e-07,2.5694688308059453e-05
4.816667914041734e-07,6.874119202529988e-07,3.717280470135672e-07,2.5579255917919438e-05
4.845856119103282e-07,6.9091847834434e-07,3.723819482076679e-07,2.545849744880004e-05
4.882503151455396e-07,6.943112519969982e-07,3.729112811538061e-07,2.5331374228464456e-05
4.92659521870285e-07,6.975676786944054e-07,3.7331663372051844e-07,2.519682793697893e-05
4.978079521237591e-07,7.006693482160794e-07,3.736033426725373e-07,2.505382501867483e-05
5.036866815876817e-07,7.036005028356961e-07,3.737777522087609e-07,2.490137736800872e-05
5.102800214024896e-07,7.063465703095762e-07,3.7384414346208184e-07,2.4738540877148692e-05
5.175618781203801e-07,7.088934142279177e-07,3.738048073660258e-07,2.4564424670962506e-05
5.254944534973987e-07,7.112274105314653e-07,3.7366218067749146e-07,2.43782184159328e-05
5.340302816205484e-07,7.133356124266405e-07,3.734205085021414e-07,2.417921496213035e-05
5.431161340188609e-07,7.152066135362785e-07,3.730854538735129e-07,2.396682064253317e-05
5.526968417449523e-07,7.168337619435098e-07,3.7266264356707634e-07,2.3740551898893248e-05
5.627181531657582e-07,7.182185722698367e-07,3.7215686410799117e-07,2.350002167148236e-05
5.731268078217541e-07,7.193701751709912e-07,3.7157183814108894e-07,2.3244947054933106e-05
5.838679449775714e-07,7.203006811580641e-07,3.709104580754665e-07,2.2975182265195842e-05
5.94883784718449e-07,7.210209429453418e-07,3.701751878293201e-07,2.269072228132945e-05
6.061159002579506e-07,7.215392954696866e-07,3.693677658986783e-07,2.239166347525509e-05
6.175096254264972e-07,7.218624043697356e-07,3.6848885953347906e-07,2.2078178260322432e-05
6.290174897431103e-07,7.219969392322713e-07,3.675383667354618e-07,2.1750546169893173e-05
6.405986145092499e-07,7.219497429596464e-07,3.6651597491940544e-07,2.140925146917574e-05
6.522139321583143e-07,7.21726985656297e-07,3.654220706294374e-07,2.1055108630953524e-05
6.638211008640572e-07,7.213354722515192e-07,3.6425862536168407e-07,2.068929127959905e-05
6.753719851044128e-07,7.207838849591877e-07,3.6302880039782107e-07,2.031320290093561e-05
6.86812394861182e-07,7.200813657470238e-07,3.617360879340144e-07,1.9928316943961866e-05
6.980837741149284e-07,7.192390519413321e-07,3.603850719577532e-07,1.953609788219884e-05
7.091263762836501e-07,7.182772429172171e-07,3.589831986608007e-07,1.9137967206099865e-05
7.198836991794198e-07,7.172284739664924e-07,3.575410578075617e-07,1.873530056918616e-05
7.303080807899809e-07,7.161317181748193e-07,3.560704027922149e-07,1.832947499164285e-05
7.403647595037873e-07,7.150282953671136e-07,3.545820624830604e-07,1.792189776858654e-05
7.500317099692985e-07,7.139641962899957e-07,3.5308600965638353e-07,1.7513958892327492e-05
7.592956274994392e-07,7.129896721595444e-07,3.515938206206541e-07,1.7106965962196507e-05
7.681473711280271e-07,7.12152470759284e-07,3.501218619946337e-07,1.6702155815595165e-05
7.765802670381255e-07,7.11491160167268e-07,3.486914508482852e-07,1.6300816284630177e-05
7.845897075329795e-07,7.110330769202489e-07,3.4732529920429764e-07,1.590445769489531e-05
7.921713409476016e-07,7.107951095462056e-07,3.460453520016171e-07,1.5514905491303338e-05
7.993195363149148e-07,7.107839443023633e-07,3.448739978808136e-07,1.51342327562714e-05
8.060266556679321e-07,7.109960600584144e-07,3.438346180125605e-07,1.4764562971252045e-05
8.12281197427553e-07,7.114196288466383e-07,3.4294973395283607e-07,1.4407845332074216e-05
8.18066378783149e-07,7.120377789842262e-07,3.4223919786662114e-07,1.4065718879819174e-05
8.233614773285344e-07,7.128310891941069e-07,3.4171987387297077e-07,1.3739501681336778e-05
8.28143770013118e-07,7.137793998386523e-07,3.414055980249341e-07,1.3430240162551145e-05
8.323895319390318e-07,7.148631773557986e-07,3.413060215710107e-07,1.3138781181933473e-05
8.360770056701854e-07,7.160625994186284e-07,3.4142512174924934e-07,1.2865926203573724e-05
8.391909614182096e-07,7.173550619449188e-07,3.417611516248814e-07,1.2612672824739908e-05
8.417239235707159e-07,7.187146573135661e-07,3.4230805898167285e-07,1.2380369542008674e-05
8.436732340047727e-07,7.201138336061937e-07,3.430570854972311e-07,1.2170639371275146e-05
8.450375180335598e-07,7.215240719090799e-07,3.439980821780829e-07,1.1985163397782075e-05
8.458156347690973e-07,7.229148487005974e-07,3.4512091777194856e-07,1.1825478811624075e-05
8.460087027784517e-07,7.242524575989892e-07,3.464171844097424e-07,1.1692862785652866e-05
8.456227232804708e-07,7.254996886070585e-07,3.478818581666032e-07,1.1588390096162986e-05
8.446695969181371e-07,7.266173969665857e-07,3.495136474065136e-07,1.1513170502278745e-05
8.431687856399759e-07,7.27567059304453e-07,3.513129861527428e-07,1.1468538452459555e-05
8.411500726826206e-07,7.283114691040287e-07,3.5327914645106566e-07,1.1456023441352944e-05
8.386516456781356e-07,7.288142773515567e-07,3.5540977796222436e-07,1.1477204358954442e-05
8.35712803793367e-07,7.290410450853569e-07,3.577040581796804e-07,1.1533589237956775e-05
8.323685541142356e-07,7.289614533378826e-07,3.601664611032627e-07,1.1626543243462565e-05
8.286498371838831e-07,7.285517577626253e-07,3.6280659637636203e-07,1.1757242477610135e-05
8.245866620409015e-07,7.277970668396723e-07,3.6563480279742104e-07,1.1926636537983126e-05
8.20211390828369e-07,7.266931229213271e-07,3.6865938734240774e-07,1.2135417328972205e-05
8.155611320991715e-07,7.252479554210762e-07,3.7188859300358523e-07,1.2383997307196421e-05
8.106773018823278e-07,7.234810477352284e-07,3.753326519891419e-07,1.2672483194101096e-05
8.056023829016345e-07,7.21417748460515e-07,3.7900310388806727e-07,1.3000627117373551e-05
8.003764751207505e-07,7.19082811283673e-07,3.8291098623394754e-07,1.336777153849682e-05
7.950344630487371e-07,7.164973152678634e-07,3.8706410380242685e-07,1.3772815353404394e-05
7.896050460112632e-07,7.136778839783221e-07,3.914639502770438e-07,1.4214189351192942e-05
7.841136722914275e-07,7.106369586428654e-07,3.961043711813991e-07,1.4689838049718039e-05
7.785862611648538e-07,7.073850216734941e-07,4.009724010489353e-07,1.5197269532920706e-05
7.730489432421044e-07,7.039337612892691e-07,4.0604965076013437e-07,1.5733696390066926e-05
7.675267909640601e-07,7.002976245757436e-07,4.113124645253621e-07,1.629618912677467e-05
7.620456424917064e-07,6.964934803116395e-07,4.167315635163397e-07,1.6881796129494526e-05
7.566331707790628e-07,6.925402071252719e-07,4.222734003579668e-07,1.748764650714549e-05
7.513170820589626e-07,6.884596223014011e-07,4.2790265222417844e-07,1.8111006970852047e-05
7.461242610191727e-07,6.842774614991679e-07,4.33583232621636e-07,1.874925862994436e-05
7.410815900816729e-07,6.800209155688113e-07,4.3927780889890566e-07,1.939983539286033e-05
7.362172239180363e-07,6.757134500836116e-07,4.449485942270278e-07,2.006017453207348e-05
7.315621855442999e-07,6.713718444437779e-07,4.505604315203996e-07,2.07276589509011e-05
7.271491463873573e-07,6.670068536009262e-07,4.560835178079363e-07,2.1399524451412494e-05
7.230065839077642e-07,6.626256570175881e-07,4.6149360708099005e-07,2.2072787136700304e-05
7.191535952298878e-07,6.582340909123545e-07,4.667702812556592e-07,2.274424569941077e-05
7.156007978286196e-07,6.538372448713916e-07,4.7189428351484203e-07,2.341052487337571e-05
7.123557450595559e-07,6.494411706377996e-07,4.768459279106292e-07,2.4068126070649743e-05
7.094269090894982e-07,6.45058254577215e-07,4.816066359842206e-07,2.471350449439309e-05
7.068226766800948e-07,6.407103973382447e-07,4.86161724604406e-07,2.5343160326978562e-05
7.045475584147839e-07,6.364249553763835e-07,4.90501438423704e-07,2.595369375358732e-05
7.025990118000641e-07,6.322295023320203e-07,4.946197603395607e-07,2.65418285929455e-05
7.009658012551665e-07,6.281512778068826e-07,4.985115245158157e-07,2.7104437407561208e-05
6.996284276405495e-07,6.242196133629003e-07,5.021691298153379e-07,2.763857565508977e-05
6.985611658386732e-07,6.204711021965097e-07,5.055817462410656e-07,2.8141552367313493e-05
6.977347507929073e-07,6.169572313102511e-07,5.087393331236711e-07,2.8611056273099652e-05
6.971191513022088e-07,6.137478161566201e-07,5.116389874676449e-07,2.9045294970181666e-05
6.966845248844568e-07,6.109254977660747e-07,5.14287613190204e-07,2.944306849425775e-05
6.964007502103264e-07,6.085743285546339e-07,5.166991813633635e-07,2.980371126687677e-05
6.962391788302361e-07,6.067684803600144e-07,5.188899874108592e-07,3.0126918060047582e-05
6.96177605272538e-07,6.055664826865101e-07,5.208751940911389e-07,3.04125449858826e-05
6.962050982659555e-07,6.050123139592247e-07,5.226679235933135e-07,3.066046641846573e-05
6.963225725669632e-07,6.051377862948671e-07,5.242798699781407e-07,3.0870516358151604e-05
6.965380625152656e-07,6.0596145847927e-07,5.257216723989947e-07,3.1042490923846305e-05
6.968597927747373e-07,6.074872766766279e-07,5.270025713988914e-07,3.117618564191581e-05
6.972920323392329e-07,6.097063184080557e-07,5.281299875767895e-07,3.1271518076620584e-05
6.978360152940496e-07,6.12599535099619e-07,5.291100907804985e-07,3.132878241399729e-05
6.984929552614554e-07,6.161397852821066e-07,5.299494833232642e-07,3.134887152539525e-05
6.992642123831903e-07,6.20294424179141e-07,5.306561169620251e-07,3.133323415521429e-05
7.001478846840329e-07,6.250280398753779e-07,5.312381801045285e-07,3.128362725727433e-05
7.011355312857925e-07,6.303028499388221e-07,5.317033671150535e-07,3.120188652115078e-05
7.022112170120303e-07,6.360776675643057e-07,5.320604535451437e-07,3.108983385090221e-05
7.033523197398281e-07,6.423093372723308e-07,5.323203508712293e-07,3.0949427410317816e-05
7.04530724777377e-07,6.48957356777923e-07,5.324944246659095e-07,3.078313160264556e-05
7.057137536466449e-07,6.559865902859831e-07,5.325927317078067e-07,3.059418390721405e-05
7.068672813155816e-07,6.633635006105519e-07,5.326240800008015e-07,3.038653106945274e-05
7.079632323228219e-07,6.710500952607031e-07,5.325954208535565e-07,3.016457754185796e-05
7.089868642467835e-07,6.790021168520009e-07,5.325099627941448e-07,2.9932938647335772e-05
7.09936445967194e-07,6.871704469955889e-07,5.323671008635255e-07,2.9696235061596284e-05
7.108158429380866e-07,6.955023189874039e-07,5.321639579682464e-07,2.945892331880722e-05
7.116278313972105e-07,7.03942432252668e-07,5.318960402159435e-07,2.922516636779563e-05
7.123737328866217e-07,7.124345981571512e-07,5.315579313085361e-07,2.899874479295565e-05
7.130568307215183e-07,7.209228996437544e-07,5.311450423088978e-07,2.8783013880227983e-05
7.136822595314813e-07,7.293514244224398e-07,5.306543692480398e-07,2.8580885033003082e-05
7.142528065243917e-07,7.376629328254959e-07,5.300834625016918e-07,2.8394775505276728e-05
7.147675591751798e-07,7.457974032226129e-07,5.294293259585138e-07,2.8226514389802838e-05
7.15224950671009e-07,7.536915959333334e-07,5.286879550684815e-07,2.8077279121960356e-05
7.156243484952505e-07,7.612804051625255e-07,5.278543695879731e-07,2.7947638740400824e-05
7.159635612056678e-07,7.684996799127237e-07,5.269230590485905e-07,2.7837695052119478e-05
7.16235791302645e-07,7.752890667100356e-07,5.258888989896514e-07,2.7747254711071656e-05
7.164287231530963e-07,7.815936741196083e-07,5.247497280079968e-07,2.767596568377796e-05
7.165247592360755e-07,7.873660682601822e-07,5.235092165552651e-07,2.762338450620323e-05
7.165013371381219e-07,7.925711246125487e-07,5.221768764808229e-07,2.7589005763341108e-05
7.163319905931621e-07,7.97191447043806e-07,5.207671866492982e-07,2.757230251015929e-05
7.159885046629002e-07,8.012269648457447e-07,5.192995446067424e-07,2.7572763848476647e-05
7.154426607893971e-07,8.046873904485692e-07,5.177952653688908e-07,2.7589899636034657e-05
7.14666726876583e-07,8.075835290416605e-07,5.162718604931772e-07,2.762322190651281e-05
7.136340647811744e-07,8.099227254615339e-07,5.147398510300425e-07,2.767220881774632e-05
7.123199122707652e-07,8.117090999425345e-07,5.13203248657891e-07,2.773622616458756e-05
7.107012597486864e-07,8.129471770418047e-07,5.116618629343311e-07,2.7814411826777112e-05
7.08757078714068e-07,8.136461636992623e-07,5.101141260531705e-07,2.7905603405720702e-05
7.064694485752689e-07,8.138215944085815e-07,5.085587291411875e-07,2.80083475433713e-05
7.038237653980969e-07,8.134939770385548e-07,5.069949303393795e-07,2.8120933464494983e-05
7.008084174928097e-07,8.126872384222504e-07,5.054226846456533e-07,2.8241437098157866e-05
6.974153589057976e-07,8.114300355216596e-07,5.038421641204955e-07,2.83678030800492e-05
6.936400583934966e-07,8.097580398386771e-07,5.022528770264075e-07,2.849792435138653e-05
6.894806721595988e-07,8.077124988147955e-07,5.006547811596348e-07,2.862968898621145e-05
6.849395633807985e-07,8.053371209313172e-07,4.990517237502193e-07,2.8761076699516185e-05
6.80026385886016e-07,8.026768733044911e-07,4.974541279622537e-07,2.88903420329569e-05
6.747582397075071e-07,7.997776566945553e-07,4.958793109996168e-07,2.9016149261498016e-05
6.691558431145652e-07,7.966880242592073e-07,4.943501438064576e-07,2.9137562417919286e-05
6.632389030435186e-07,7.934639792042274e-07,4.928917425139779e-07,2.92539402470485e-05
6.570241350576764e-07,7.90171694154148e-07,4.915266636276465e-07,2.936479713396629e-05
6.505258888308865e-07,7.868833641194648e-07,4.902712371217294e-07,2.9469659611172603e-05
6.437570070323665e-07,7.836680238799032e-07,4.891341234341235e-07,2.956794421186188e-05
6.367296236735679e-07,7.805831669258835e-07,4.881164079224488e-07,2.965889988721488e-05
6.294587474613896e-07,7.776718043850977e-07,4.872128603919154e-07,2.974167057819115e-05
6.21969800129964e-07,7.749647049484071e-07,4.864133326794132e-07,2.9815450818337842e-05
6.143034383661434e-07,7.724839767233262e-07,4.857036068445936e-07,2.987961417601051e-05
6.065112279289767e-07,7.702448373067148e-07,4.850665433151028e-07,2.9933740934234532e-05
5.986473498167253e-07,7.682548034926956e-07,4.844836161652168e-07,2.9977546560681928e-05
5.9076337734002e-07,7.665124876656944e-07,4.839362692882924e-07,3.0010788042061475e-05
5.82906131547001e-07,7.65009000328192e-07,4.834069527897566e-07,3.0033316311660823e-05
5.751184431285424e-07,7.63731098733964e-07,4.828792252016034e-07,3.0045238690018865e-05
5.674431827584315e-07,7.626631107400971e-07,4.823366615670203e-07,3.004693101801322e-05
5.599267060672102e-07,7.61786998703279e-07,4.817622223774205e-07,3.0038910018974848e-05
5.526176871686884e-07,7.610812172370009e-07,4.811397389485818e-07,3.0021757622296546e-05
5.455639038939e-07,7.605199576997423e-07,4.804554619120625e-07,2.9996083542851848e-05
5.388121920342418e-07,7.600751592383793e-07,4.796974408277872e-07,2.996247266599285e-05
5.324104123307664e-07,7.597200059323028e-07,4.788548438480793e-07,2.9921449130436134e-05
5.264071753095225e-07,7.594301988463787e-07,4.779179831458071e-07,2.987344982696937e-05
5.208508428915233e-07,7.591822769112611e-07,4.768776346021589e-07,2.9818780517479185e-05
5.157901060630151e-07,7.589508869995684e-07,4.7572515634244853e-07,2.9757570470304364e-05
5.112724545204643e-07,7.587072676462531e-07,4.744539523021371e-07,2.968975294432786e-05
5.073393611987025e-07,7.584194174442759e-07,4.730597805414874e-07,2.9615077390401386e-05
5.040234732503466e-07,7.580529230118431e-07,4.715394507112847e-07,2.9533141993425166e-05
5.013501322387502e-07,7.575729720377441e-07,4.6989041928384674e-07,2.944343202831877e-05
4.99339510283587e-07,7.5694802585298e-07,4.681125156608281e-07,2.934536695508491e-05
4.980058294292813e-07,7.561522872880583e-07,4.662102594217307e-07,2.9238377749788518e-05
4.973546495161109e-07,7.551639315651063e-07,4.641943108488966e-07,2.9122002561801093e-05
4.973818126753027e-07,7.53961139884191e-07,4.6208094139579027e-07,2.899592203414893e-05
4.980750779290725e-07,7.525199192178009e-07,4.5988887710778206e-07,2.885988553053661e-05
4.994157582303891e-07,7.508139533065242e-07,4.5763561139309997e-07,2.8713601376577226e-05
5.013784975020361e-07,7.488150170564336e-07,4.553355250567727e-07,2.8556680262495428e-05
5.039304280513863e-07,7.464937453626493e-07,4.5299986006682043e-07,2.8388634750263727e-05
5.07032660382294e-07,7.438211776160991e-07,4.5063837017912686e-07,2.820891805437131e-05
5.106461725870672e-07,7.407717688541008e-07,4.482615798908701e-07,2.801699889503281e-05
5.147384171113984e-07,7.373277856053464e-07,4.4588104054889067e-07,2.7812439763102697e-05
5.192841472617552e-07,7.334828472694061e-07,4.435077981709141e-07,2.759494176973612e-05
5.242605738074128e-07,7.292415761795683e-07,4.411509998614587e-07,2.7364363485701933e-05
5.296426850520344e-07,7.246149770117898e-07,4.3881665129055224e-07,2.712073472404159e-05
5.354016473560927e-07,7.196154805421547e-07,4.3650706743226615e-07,2.6864262992324176e-05
5.415047983211501e-07,7.142551905883674e-07,4.342213962372013e-07,2.6595324150638127e-05
5.479168580994626e-07,7.085456360138183e-07,4.319563231622989e-07,2.6314426175344546e-05
5.546029302870489e-07,7.024970856214525e-07,4.297069555992427e-07,2.6022147721419602e-05
5.615312753604262e-07,6.961195628661042e-07,4.274680883794796e-07,2.571910933681268e-05
5.686732875956533e-07,6.894257008731368e-07,4.2523530863601606e-07,2.5406010976306354e-05
5.760008290632264e-07,6.824313723723103e-07,4.2300511242932853e-07,2.5083646274073066e-05
5.834837880021326e-07,6.751534440217067e-07,4.2077453674376176e-07,2.475282974628576e-05
5.910903330089254e-07,6.67610358264691e-07,4.185413448610658e-07,2.44143124635738e-05
5.987890870289379e-07,6.598290748000125e-07,4.1630378282085645e-07,2.406876086097941e-05
6.065499720902239e-07,6.518513167296754e-07,4.1405941105916295e-07,2.371680758502945e-05
6.143423442237095e-07,6.437299457606099e-07,4.1180442634787366e-07,2.335912598689219e-05
6.221338457800325e-07,6.355194507857167e-07,4.0953458069221653e-07,2.2996440857772005e-05
6.298918928308193e-07,6.272725252822852e-07,4.0724721101044973e-07,2.262948501210831e-05
6.375836616199153e-07,6.190452768090316e-07,4.0494224381776426e-07,2.2258988244633736e-05
6.451739652280874e-07,6.109021484922057e-07,4.026212493038592e-07,2.1885711700452747e-05
6.526268625890964e-07,6.029139097144868e-07,4.002860930197619e-07,2.1510487371986907e-05
6.599119818003507e-07,5.951524857089274e-07,3.979386188986918e-07,2.113422757479882e-05
6.670099527771146e-07,5.876886921377003e-07,3.9558138351778265e-07,2.07578876964863e-05
6.73911847055127e-07,5.805920544036172e-07,3.93219147584975e-07,2.0382398224446154e-05
6.806121591173709e-07,5.739285055078115e-07,3.9086127063051057e-07,2.000860569609577e-05
6.871015464779809e-07,5.677558460932933e-07,3.885231837759477e-07,1.9637269175702698e-05
6.933656649929664e-07,5.621203833920125e-07,3.862239857504122e-07,1.926909311775476e-05
6.993887959883328e-07,5.570566575095418e-07,3.8398163889627387e-07,1.8904725283125232e-05
7.051577812099722e-07,5.525900642073214e-07,3.8181028378276345e-07,1.854474937422644e-05
7.106637093422577e-07,5.487397227008694e-07,3.79721463543901e-07,1.8189750415556657e-05
7.159008079606823e-07,5.455175545085975e-07,3.777272413707817e-07,1.784045107928881e-05
7.208655817583903e-07,5.429247250798254e-07,3.758415985786201e-07,1.749787950687488e-05
7.2555841558209e-07,5.40950214415542e-07,3.740784440013142e-07,1.7163447159151495e-05
7.299838072828188e-07,5.395725902268664e-07,3.724486715710922e-07,1.683880837528288e-05
7.341467891915623e-07,5.387637348918252e-07,3.7095968441362535e-07,1.6525616240373822e-05
7.380488920903305e-07,5.38493936252037e-07,3.696166092768582e-07,1.6225376234778925e-05
7.416868818285685e-07,5.387361392300946e-07,3.6842258837354717e-07,1.5939407043669273e-05
7.450550432194958e-07,5.394679287632906e-07,3.6737902410144866e-07,1.5668842773446218e-05
7.481504722978149e-07,5.406733746731353e-07,3.6648665232397647e-07,1.5414676360809585e-05
7.509784205752893e-07,5.423436344963276e-07,3.65745151182164e-07,1.5177842859333518e-05
7.535521785978156e-07,5.444725789380292e-07,3.6515088172543383e-07,1.4959313913670112e-05
7.558865372117359e-07,5.470496055550442e-07,3.646958300603883e-07,1.4760176112741025e-05
7.579916524275958e-07,5.500550088694464e-07,3.643692291882733e-07,1.4581647166651486e-05
7.598712088053556e-07,5.53459630515164e-07,3.6416010929814133e-07,1.4425004793961004e-05
7.615223843682248e-07,5.572274843928732e-07,3.640585222635912e-07,1.4291479175560363e-05
7.629365635023007e-07,5.613197449168621e-07,3.640553979557612e-07,1.4182169635816349e-05
7.641013762515787e-07,5.656982818167119e-07,3.641430870555996e-07,1.4097972844083178e-05
7.650031584179374e-07,5.703270824163829e-07,3.6431619250668545e-07,1.4039485073616681e-05
7.656287869606641e-07,5.751711984589655e-07,3.645702677043774e-07,1.4006932970051722e-05
7.659664910809685e-07,5.801944958485885e-07,3.6489960525193093e-07,1.4000211330568952e-05
7.660051860890594e-07,5.853582195485848e-07,3.6529655297093116e-07,1.4018984943706885e-05
7.657325650830702e-07,5.906210312429474e-07,3.6575195211219506e-07,1.406276514232362e-05
7.651335266427328e-07,5.959397345075576e-07,3.662554438084909e-07,1.4130948738627414e-05
7.641906996223145e-07,6.012705652256069e-07,3.667950165108775e-07,1.4222847523368726e-05
7.628873018343494e-07,6.065707337708912e-07,3.673567414516304e-07,1.4337716480088915e-05
7.612112151547135e-07,6.117994330280234e-07,3.6792653424768256e-07,1.4474797160205304e-05
7.591597744118421e-07,6.169202381885051e-07,3.6849312347780534e-07,1.463342686215908e-05
7.567436757973456e-07,6.219057072716843e-07,3.6904926021594327e-07,1.4813262208487548e-05
7.539867603903487e-07,6.267388385717115e-07,3.695903891225331e-07,1.5014546939833856e-05
7.509212656414691e-07,6.314077141203139e-07,3.701126408625041e-07,1.5238188518973902e-05
7.475814579436832e-07,6.358982513329027e-07,3.706122828995228e-07,1.5485500801168298e-05
7.440003221451498e-07,6.401910017656316e-07,3.7108708080386674e-07,1.5757755370195293e-05
7.402121105116231e-07,6.442624687917097e-07,3.71536981622138e-07,1.6055796893306535e-05
7.362559059712792e-07,6.480896106182179e-07,3.719623506477653e-07,1.637996033492958e-05
7.321733595327284e-07,6.51655435379556e-07,3.723627455231947e-07,1.6730424196536334e-05
7.280023028049854e-07,6.549512810826202e-07,3.727385956063989e-07,1.71077380985866e-05
7.237733580083796e-07,6.57973555072762e-07,3.730930466891815e-07,1.7513005623474976e-05
7.195111557525048e-07,6.607192457715233e-07,3.7343175399977187e-07,1.7947624141034482e-05
7.152368031966266e-07,6.631868126807632e-07,3.737620064089114e-07,1.841293631926688e-05
7.109716775088302e-07,6.653830566325399e-07,3.74091646820596e-07,1.8910012048236724e-05
7.067431706223877e-07,6.673277823474765e-07,3.744277174264258e-07,1.9439512086994558e-05
7.025878149567237e-07,6.690499609910493e-07,3.747769249239764e-07,2.0001561098689003e-05
6.985484722157176e-07,6.705826553906398e-07,3.751484130996685e-07,2.0595644451391173e-05
6.946679206747704e-07,6.719637916622282e-07,3.755551665099936e-07,2.1220576041607453e-05
6.909824975248952e-07,6.73236638815165e-07,3.7601121737112104e-07,2.187452552224e-05
6.875185706782912e-07,6.744454753851384e-07,3.765273395751072e-07,2.2555053865111332e-05
6.842925059990365e-07,6.756309836424859e-07,3.7710936516640745e-07,2.325915787343733e-05
6.81312661821513e-07,6.768290480164665e-07,3.7775908291833403e-07,2.398335694136247e-05
6.78582965107503e-07,6.780711170496133e-07,3.78475250346175e-07,2.4723805575842223e-05
6.761079845472292e-07,6.793832922057802e-07,3.7925432456603366e-07,2.547639202258519e-05
6.738965502105454e-07,6.807849179713532e-07,3.800921485533143e-07,2.6236824375116487e-05
6.719610809664574e-07,6.822879096775911e-07,3.8098573641181563e-07,2.700072663259479e-05
6.70314495876124e-07,6.838966499404081e-07,3.8193321797976884e-07,2.7763749536299846e-05
6.689670568752515e-07,6.856089858619486e-07,3.8293225662919283e-07,2.8521682011261736e-05
6.679232016078191e-07,6.874185400318772e-07,3.839785315720959e-07,2.927053674516441e-05
6.671807227102511e-07,6.893166277191764e-07,3.850649051264496e-07,3.0006588826172656e-05
6.667342541556205e-07,6.91291571789624e-07,3.861811074285792e-07,3.072636688587369e-05
6.665797606693073e-07,6.93326635759165e-07,3.873139581625152e-07,3.1426606300642796e-05
6.667160547811433e-07,6.95400473742209e-07,3.8844820518707793e-07,3.2104193577893796e-05
6.671441107854322e-07,6.974908477273311e-07,3.895675929222844e-07,3.2756133120450436e-05
6.678681317274475e-07,6.995772319140005e-07,3.906559082011464e-07,3.3379533936616336e-05
6.68897782067957e-07,7.016390475249911e-07,3.916987057318872e-07,3.3971626213847585e-05
6.702468972775991e-07,7.036531793352782e-07,3.9268553561650743e-07,3.452980744525429e-05
6.719297896225197e-07,7.055952817904433e-07,3.936106846741057e-07,3.505165614216449e-05
6.739593131716667e-07,7.074438114123994e-07,3.944716443050253e-07,3.553489313379179e-05
6.76347025351454e-07,7.091835907792131e-07,3.95266809720841e-07,3.597734695443638e-05
6.79103924090383e-07,7.10807836964042e-07,3.9599441487807545e-07,3.637696431164093e-05
6.822391625478665e-07,7.123188899792545e-07,3.9665370476760025e-07,3.6731852528584726e-05
6.857562446162616e-07,7.137263970916385e-07,3.9724646645208073e-07,3.704031713135707e-05
6.896504233690978e-07,7.150420082990966e-07,3.9777683422405097e-07,3.730088690254411e-05
6.939088472262448e-07,7.162735603339733e-07,3.982519307948667e-07,3.751235355817076e-05
6.985117480492271e-07,7.174233470072434e-07,3.986847589035701e-07,3.767385904485164e-05
7.034334229430277e-07,7.18492624819474e-07,3.990944266774882e-07,3.778501300768699e-05
7.086421051941281e-07,7.194893170126339e-07,3.995011240013149e-07,3.7845939860542075e-05
7.140997541966834e-07,7.204308892852831e-07,3.999209196164109e-07,3.785718496354082e-05
7.197637736231621e-07,7.213385898134406e-07,4.0036493965419117e-07,3.781953924395478e-05
7.255896865362475e-07,7.22229497068675e-07,4.0084157334995904e-07,3.7733902009864946e-05
7.31532522192628e-07,7.23113137950674e-07,4.013588928451375e-07,3.760125870804006e-05
7.375463460010299e-07,7.239914363045319e-07,4.0192511757558644e-07,3.7422752678057984e-05
7.435827734714009e-07,7.248590886943114e-07,4.025466553522956e-07,3.7199761341224955e-05
7.495902385016106e-07,7.257045628679119e-07,4.032267985810623e-07,3.6933920050032485e-05
7.555155250677581e-07,7.26511413872599e-07,4.039662799276186e-07,3.6627078040498624e-05
7.613070934101413e-07,7.272594190372306e-07,4.04763754762854e-07,3.628121608612752e-05
7.669192813041567e-07,7.279265638063832e-07,4.0561582410295245e-07,3.5898489963911675e-05
7.723161566803726e-07,7.284906893429288e-07,4.0651667756242673e-07,3.548150388656799e-05
7.774712623259362e-07,7.289286618511056e-07,4.0745809912387143e-07,3.503356675866955e-05
7.82362290766217e-07,7.292151217593732e-07,4.08431817827931e-07,3.4558616298991424e-05
7.869668370085404e-07,7.293234616768877e-07,4.094327861902986e-07,3.406087949041551e-05
7.912633548183251e-07,7.292279709186866e-07,4.104595078104082e-07,3.3544617402378947e-05
7.952330421508987e-07,7.28905186405629e-07,4.1151120387212855e-07,3.3014139447244577e-05
7.988590859949691e-07,7.283337707997371e-07,4.12585502403494e-07,3.2473911321773835e-05
8.021266519115682e-07,7.274930446098478e-07,4.136802069354377e-07,3.192852858890921e-05
8.050247779324165e-07,7.263618914697082e-07,4.147976649538875e-07,3.13825792632518e-05
8.075461030719956e-07,7.249207536987399e-07,4.1594610383080355e-07,3.0840502255904336e-05
8.096847722435332e-07,7.231562961416344e-07,4.1713784502068746e-07,3.0306455005173432e-05
8.114355625825535e-07,7.210642833939624e-07,4.183879474352638e-07,2.978419801870633e-05
8.127933103760662e-07,7.186482773773789e-07,4.197118338687429e-07,2.9277027074695653e-05
