3.4824764542865674e-07,7.798924407648631e-07,9.783120137113574e-07,2.496477859902815e-05
3.4529335892112323e-07,7.89449405082037e-07,9.620066774556542e-07,2.4784938335092307e-05
3.42292863990786e-07,7.987526470829122e-07,9.456634183164265e-07,2.4597144050921438e-05
3.39263504178654e-07,8.078020484106436e-07,9.293070044173521e-07,2.4400970001581275e-05
3.3622258095397336e-07,8.165995331054228e-07,9.129588786484104e-07,2.41960367898282e-05
3.3318653029373286e-07,8.25143671231378e-07,8.966361198374017e-07,2.3982094400870003e-05
3.3017184018327236e-07,8.33429410708766e-07,8.80351328131036e-07,2.3759112621446068e-05
3.271962451501032e-07,8.414485930352938e-07,8.641134135726173e-07,2.3527350851752348e-05
3.242782772058581e-07,8.49188043021968e-07,8.479284796986416e-07,2.3287435112837578e-05
3.214358701412028e-07,8.566289615360341e-07,8.318007633118928e-07,2.304045087905774e-05
3.18686366422313e-07,8.637499983933224e-07,8.15734687304954e-07,2.278804940187672e-05
3.160479739546612e-07,8.705314511797774e-07,7.997370916835144e-07,2.2532534975789346e-05
3.1354060731969905e-07,8.769570325198452e-07,7.838179065587409e-07,2.227682829781323e-05
3.111859586941448e-07,8.83012944515137e-07,7.679896009144714e-07,2.202424157424686e-05
3.0900727652616443e-07,8.886877578778461e-07,7.522658735104871e-07,2.1778129242038133e-05
3.070273472656186e-07,8.939756612246729e-07,7.366595866468885e-07,2.1541555614022848e-05
3.0526497422934525e-07,8.988814358045599e-07,7.211809093972313e-07,2.1317097685614225e-05
3.0373307010791644e-07,9.034236529387659e-07,7.058371326516168e-07,2.11067958907668e-05
3.024393605794167e-07,9.076342225553257e-07,6.906349371620083e-07,2.091219081656901e-05
3.013877487228256e-07,9.115542030684109e-07,6.755831774284629e-07,2.073442836506298e-05
3.005791811865895e-07,9.15226490838946e-07,6.606928502277376e-07,2.0574456475955857e-05
3.000121271218648e-07,9.186880937400616e-07,6.459751264941583e-07,2.043319728354174e-05
2.99682456383292e-07,9.21967480717066e-07,6.314409817624381e-07,2.031151438237594e-05
2.9958310077379997e-07,9.250886164314386e-07,6.171026161175429e-07,2.0210031179745466e-05
2.997041638028173e-07,9.280746610470959e-07,6.029749308829109e-07,2.01289945537322e-05
3.000342418422147e-07,9.30945731370418e-07,5.890760417680733e-07,2.0068294692287823e-05
3.0056326783920195e-07,9.337148894857208e-07,5.754267179270068e-07,2.002771848140407e-05
3.012841190540657e-07,9.3638793874708e-07,5.620518727972893e-07,2.0007393723234547e-05
3.021912391282421e-07,9.389664620407706e-07,5.489858108334683e-07,2.000815018624828e-05
3.032784787252213e-07,9.41450298701988e-07,5.362750043337025e-07,2.0031579306842424e-05
3.045377702810463e-07,9.438364378635004e-07,5.239740069490534e-07,2.0079866422827803e-05
3.059595198380446e-07,9.461160518683077e-07,5.121397101985859e-07,2.0155551561883795e-05
3.075346971438469e-07,9.482752128937788e-07,5.008302268441402e-07,2.026127820925499e-05
3.092556144547372e-07,9.50299587839608e-07,4.901089046709172e-07,2.0399561385044044e-05
3.1111404665886643e-07,9.521774683326113e-07,4.800479014175787e-07,2.057260982181321e-05
3.130992478385637e-07,9.538994182313163e-07,4.7072442159120705e-07,2.0782220658396627e-05
3.1519779486734126e-07,9.554569479184448e-07,4.622101272645064e-07,2.1029744601253798e-05
3.173944261483029e-07,9.56840655566558e-07,4.545619080800442e-07,2.1316081129875862e-05
3.1967210725439785e-07,9.580393862899156e-07,4.47820258429574e-07,2.1641640451458765e-05
3.220112033372965e-07,9.590432518767976e-07,4.4201452931798717e-07,2.2006252772606478e-05
3.2438921494400537e-07,9.59847431228389e-07,4.371692494650797e-07,2.240906577739254e-05
3.2678196308253197e-07,9.604514993296005e-07,4.3330566696896277e-07,2.2848489386979277e-05
3.291661549439708e-07,9.60855693606433e-07,4.3044113712616003e-07,2.3322241151488397e-05
3.315220628476668e-07,9.610585098772914e-07,4.285938737046258e-07,2.3827498884420263e-05
3.338338355554136e-07,9.6105597917716e-07,4.277916023340128e-07,2.436109650521516e-05
3.3608728160856e-07,9.608406118250863e-07,4.2807586409259794e-07,2.491969179241771e-05
3.382679934189336e-07,9.604000579547483e-07,4.294978983526394e-07,2.5499892789282964e-05
3.403610758810105e-07,9.59717096457111e-07,4.3210802546661775e-07,2.609837453385741e-05
3.423519224236622e-07,9.587707896902745e-07,4.3594485652460394e-07,2.671199607851403e-05
3.442275207695767e-07,9.57537926210757e-07,4.4103062516441366e-07,2.733787382355393e-05
3.459768130063991e-07,9.559964924580062e-07,4.4737188888581105e-07,2.797336441259035e-05
3.475894715075426e-07,9.54132613996313e-07,4.549613387342332e-07,2.8615984493756428e-05
3.490546694353756e-07,9.519475442040977e-07,4.637795090802553e-07,2.926334283333838e-05
3.503611437227753e-07,9.49459319941585e-07,4.7379555458109953e-07,2.991309109757655e-05
3.514986197106525e-07,9.466978627376447e-07,4.849664887768636e-07,3.056286776211487e-05
3.524596170060811e-07,9.436974587540108e-07,4.97235974651865e-07,3.121028336830262e-05
3.5323984855256706e-07,9.404913379740721e-07,5.105335680568641e-07,3.185295354759306e-05
3.5383714197656546e-07,9.371088455255969e-07,5.247757227576715e-07,3.248849459312757e-05
3.5425065684099115e-07,9.335733750103869e-07,5.398696781998635e-07,3.3114463421167985e-05
3.544811407096242e-07,9.299030865669314e-07,5.557187301086816e-07,3.372829192082761e-05
3.545313935777734e-07,9.261155359854212e-07,5.722258363297204e-07,3.432725157850904e-05
3.544055831007225e-07,9.222304917307392e-07,5.89294216491837e-07,3.490847239858259e-05
3.5410745740721313e-07,9.182671436362871e-07,6.068253814320003e-07,3.5469001838476456e-05
3.536397261572524e-07,9.142394833540149e-07,6.247164678417356e-07,3.600588333336336e-05
3.530064045387033e-07,9.101539214701614e-07,6.428599103029751e-07,3.6516260003313205e-05
3.522160143946369e-07,9.060092877194548e-07,6.611464646032586e-07,3.6997485611422295e-05
3.5128128334787045e-07,9.017982277784813e-07,6.794713621729905e-07,3.7447231610176224e-05
3.5021567549662236e-07,8.975093934063661e-07,6.977407202463688e-07,3.786356035623139e-05
3.490313493306007e-07,8.931308720035431e-07,7.158710242097182e-07,3.824487048495929e-05
3.477409110896692e-07,8.886556883946767e-07,7.337822366997371e-07,3.85897449398261e-05
3.46362998217263e-07,8.840877049797951e-07,7.513944488043438e-07,3.889689225187252e-05
3.449289830441165e-07,8.794452363892711e-07,7.68630093384199e-07,3.916523640375308e-05
3.434837355953059e-07,8.747622750246009e-07,7.854165021647966e-07,3.939402222729224e-05
3.420772989571476e-07,8.700876008811438e-07,8.016899946368395e-07,3.958285380292567e-05
3.407548481352435e-07,8.654789088774192e-07,8.174017993340186e-07,3.973167898862046e-05
3.395525586545352e-07,8.609916494017608e-07,8.325184852540305e-07,3.984073964043495e-05
3.3849812085889525e-07,8.566700548787592e-07,8.470156078408398e-07,3.991054641334344e-05
3.376119436955991e-07,8.525459895131613e-07,8.608709016742752e-07,3.994192528186312e-05
3.369078685252486e-07,8.486419738069059e-07,8.740600452396684e-07,3.993603891012327e-05
3.3639363685782623e-07,8.449731003303275e-07,8.865550917067316e-07,3.9894284495316575e-05
3.36072130657423e-07,8.415473553590006e-07,8.983252728856733e-07,3.981812842989528e-05
3.359441423849929e-07,8.383656205190457e-07,9.093384807270912e-07,3.970898670049251e-05
3.3601107196154817e-07,8.354226906966048e-07,9.19561548038013e-07,3.9568258410006566e-05
3.362754643631315e-07,8.327115931360319e-07,9.289595372337885e-07,3.939755622225932e-05
3.367403477233046e-07,8.302305989191676e-07,9.374959098340866e-07,3.919893519222184e-05
3.374092434807435e-07,8.279870805667399e-07,9.45133752414764e-07,3.897488200588655e-05
3.3828762033105546e-07,8.259939296193991e-07,9.518372296399714e-07,3.872813321612365e-05
3.393856756212318e-07,8.24264544703351e-07,9.575737844257462e-07,3.8461516948935607e-05
3.4071916808204906e-07,8.228165570722937e-07,9.623167948526452e-07,3.817785845080381e-05
3.423066941528624e-07,8.216825703627737e-07,9.660467059729966e-07,3.7879902782467795e-05
3.441670317245725e-07,8.209163743247276e-07,9.687493151224621e-07,3.7570224080786933e-05
3.4631704677572603e-07,8.205891566342049e-07,9.704131620045557e-07,3.7251131266826334e-05
3.487684494065105e-07,8.207797294504244e-07,9.710299520367027e-07,3.692461210174096e-05
3.5152555870459785e-07,8.215642534523193e-07,9.70597448458828e-07,3.6592322905860983e-05
3.545852432950137e-07,8.230075232704818e-07,9.69120153444182e-07,3.625557729489373e-05
3.579375284018629e-07,8.251564096482645e-07,9.666069586142308e-07,3.5915315352976965e-05
3.615661839033485e-07,8.280374309186073e-07,9.63068677396399e-07,3.557210026866688e-05
3.654494692624846e-07,8.316598319230291e-07,9.58517058762678e-07,3.5226177097469425e-05
3.695610022617778e-07,8.360216002648051e-07,9.52966495985556e-07,3.4877561261482364e-05
3.738703663895295e-07,8.411137167874691e-07,9.464384261169592e-07,3.452611103489065e-05
3.7834344720039116e-07,8.469201691131312e-07,9.38963867754962e-07,3.4171588059162294e-05
3.829428213864877e-07,8.534151245101582e-07,9.305813226246536e-07,3.381372045842255e-05
3.876283067816323e-07,8.605603544259909e-07,9.213347477779849e-07,3.34522552267885e-05
3.9235757831707636e-07,8.683042844920252e-07,9.112754224328913e-07,3.3086993694962125e-05
3.9708774912143065e-07,8.76583975488876e-07,9.004641677557146e-07,3.2717799253258905e-05
4.0177980740864393e-07,8.853323164865702e-07,8.88969019831251e-07,3.234455427506535e-05
4.064037916807705e-07,8.944876748164057e-07,8.768597087028518e-07,3.1967093939581395e-05
4.109392679908617e-07,9.039989635338804e-07,8.64204937955002e-07,3.158519095733758e-05
4.153712613608632e-07,9.138240582997343e-07,8.510736875709287e-07,3.1198600415050986e-05
4.196866503758493e-07,9.239264211318356e-07,8.37536856464876e-07,3.080709098631162e-05
4.2387298285024645e-07,9.342746649051682e-07,8.236689302461602e-07,3.0410441300230518e-05
4.27918199955545e-07,9.448436302165155e-07,8.095498752285115e-07,3.0008433402425044e-05
4.318100830528262e-07,9.556120794675578e-07,7.95264361461117e-07,2.960083769521056e-05
4.355361495772519e-07,9.665568535758694e-07,7.808983000712573e-07,2.9187400591648256e-05
4.39085122111776e-07,9.77651017800815e-07,7.665356884407004e-07,2.8767861024449395e-05
4.424487042828851e-07,9.888715487612788e-07,7.522568433534256e-07,2.834196827432458e-05
4.456215619441858e-07,1.000209737646942e-06,7.381365906528577e-07,2.79094883421484e-05
4.4860037256957207e-07,1.0116734634143124e-06,7.24242446640155e-07,2.747025220146704e-05
4.513830709162758e-07,1.023280440898967e-06,7.106366816672328e-07,2.7024267898495777e-05
4.539672441659107e-07,1.0350485294587505e-06,6.973816450459903e-07,2.657184262318263e-05
4.563485952391269e-07,1.0469878750593284e-06,6.845403702935462e-07,2.611367172558397e-05
4.585214089378075e-07,1.059098566260314e-06,6.721706909607674e-07,2.5650907321330552e-05
4.604796992809291e-07,1.0713728436053629e-06,6.603196393252859e-07,2.518523895514002e-05
4.622172860556618e-07,1.0837954718714977e-06,6.49021842105313e-07,2.4718948627932594e-05
4.6372748538733977e-07,1.0963414051783523e-06,6.383019739938874e-07,2.4254805162717168e-05
4.650031436724429e-07,1.108974616234238e-06,6.281817808651521e-07,2.379576004566067e-05
4.6603643777582855e-07,1.121648346001358e-06,6.186896486508309e-07,2.334464437083237e-05
4.668187318158554e-07,1.1343059774216035e-06,6.09868008704201e-07,2.2904088779543416e-05
4.6734180729328716e-07,1.1468841669972976e-06,6.017760209996388e-07,2.247663255586783e-05
4.67599296811542e-07,1.1593182002828762e-06,5.944880294921726e-07,2.206480867940397e-05
4.6758601026173e-07,1.171544095633504e-06,5.880887430397849e-07,2.167108275057876e-05
4.6729633333704176e-07,1.1834950579761351e-06,5.826652447557679e-07,2.12977079865114e-05
4.6672414538427353e-07,1.1950991234741774e-06,5.782959023725411e-07,2.094666359907557e-05
4.6586427287548473e-07,1.2062822963231858e-06,5.750393955773276e-07,2.061972857180561e-05
4.647143503938839e-07,1.2169721237814431e-06,5.729290469812635e-07,2.031849911563632e-05
4.632762031072029e-07,1.2270974242072495e-06,5.719735116591307e-07,2.004423550378426e-05
4.6155537607621975e-07,1.2365875943063378e-06,5.721622782151609e-07,1.979772497854585e-05
4.595587315513935e-07,1.2453764896230128e-06,5.734753567306904e-07,1.9579336959183368e-05
4.572927048132623e-07,1.2534086439860519e-06,5.758930464073818e-07,1.9389270773993712e-05
4.5476337729365864e-07,1.2606402128458564e-06,5.793995119299489e-07,1.9227947753207705e-05
4.5197720345254347e-07,1.2670347792047992e-06,5.839798785322368e-07,1.9096377313195327e-05
4.489415395769335e-07,1.272562832785352e-06,5.896162396493191e-07,1.899623507790468e-05
4.456650870758536e-07,1.2772062108462515e-06,5.96287962376247e-07,1.892961291135878e-05
4.4215905257714436e-07,1.2809588948826023e-06,6.03977206057643e-07,1.889864375584502e-05
4.3843808233031683e-07,1.2838204102404276e-06,6.126750518334375e-07,1.890517336831485e-05
4.3451937854543773e-07,1.2857883122082786e-06,6.223830630267454e-07,1.8950518023329466e-05
4.304215011620739e-07,1.2868562142093951e-06,6.331087316332279e-07,1.9035304475960225e-05
4.261643112349926e-07,1.2870163075764386e-06,6.448563339431811e-07,1.9159406534477984e-05
4.217685448128954e-07,1.2862612571673346e-06,6.576165448907214e-07,1.932197001516271e-05
4.1725466311926296e-07,1.2845828436245831e-06,6.713602899072496e-07,1.9521487827186512e-05
4.126426079538953e-07,1.2819709867470623e-06,6.860419532191754e-07,1.9755913906251762e-05
4.0795294710465753e-07,1.2784188079849831e-06,7.016102664107718e-07,2.0022816099530147e-05
4.0320869204596905e-07,1.2739324642538954e-06,7.180186281742912e-07,2.0319539181628798e-05
3.984358400564768e-07,1.2685366891945146e-06,7.352299264904701e-07,2.0643352604044062e-05
3.936619621992149e-07,1.2622704986887656e-06,7.532181456854942e-07,2.099159395544593e-05
3.889153592534717e-07,1.2551783193666792e-06,7.71967716547129e-07,2.1361830337363128e-05
3.8422596435813714e-07,1.2473049629766077e-06,7.914674654481232e-07,2.1752014298047258e-05
3.7962627072421993e-07,1.2386977918104477e-06,8.117002161429288e-07,2.2160556761148183e-05
3.751503380398896e-07,1.229413873697766e-06,8.326342974400776e-07,2.2586283133628962e-05
3.708308424411076e-07,1.2195257672598732e-06,8.542210942076562e-07,2.302834282595457e-05
3.666962093321138e-07,1.2091198190479382e-06,8.763980060748673e-07,2.3486138868122413e-05
3.627698407813988e-07,1.1982880444514422e-06,8.990922041610378e-07,2.395924708075466e-05
3.5907184006417117e-07,1.187119395848857e-06,9.222202857142076e-07,2.4447265458948668e-05
3.556220447911501e-07,1.1756937395474027e-06,9.45685513620994e-07,2.4949601936055058e-05
3.5244354522062063e-07,1.1640804463435509e-06,9.693778496848306e-07,2.546528280200725e-05
3.4956469402402397e-07,1.1523407447488527e-06,9.931764170856738e-07,2.599288704238517e-05
3.470163993668441e-07,1.1405285159192344e-06,1.0169519594573794e-06,2.653064756266259e-05
3.4482686712627923e-07,1.1286885233041228e-06,1.040570312966842e-06,2.707662027749964e-05
3.430190350240602e-07,1.1168561306953988e-06,1.0638966488684144e-06,2.7628782775662872e-05
3.416113243603449e-07,1.105059640636875e-06,1.0867989365267135e-06,2.8185062683633537e-05
3.4061878513197544e-07,1.0933238794298805e-06,1.1091515570993259e-06,2.8743388125526722e-05
3.4005245680927354e-07,1.0816731467166805e-06,1.1308389490053577e-06,2.9301791085294727e-05
3.399172249188931e-07,1.07013203187731e-06,1.1517573441013055e-06,2.9858498682131208e-05
3.40210022980338e-07,1.058724551418275e-06,1.1718144303359174e-06,3.0411919515133507e-05
3.4091985655624327e-07,1.0474731315031486e-06,1.1909272931560344e-06,3.0960521392270906e-05
3.4202962967076426e-07,1.0364001361321342e-06,1.209018692460194e-06,3.150269190048359e-05
3.435186515174729e-07,1.025532739662388e-06,1.2260136545902521e-06,3.2036639981083335e-05
3.453652400971778e-07,1.0149070015977877e-06,1.2418389141851684e-06,3.2560346502104414e-05
3.475486577750145e-07,1.0045683270956638e-06,1.256425608797336e-06,3.3071603804616965e-05
3.5004869337877996e-07,9.945698813825244e-07,1.269714075497517e-06,3.3568171173390804e-05
3.528439788941422e-07,9.84969126221082e-07,1.2816597716703186e-06,3.4047945987417226e-05
3.5591210935620297e-07,9.758218810028514e-07,1.2922389976036984e-06,3.4508996202982745e-05
3.59230652407271e-07,9.671775351364002e-07,1.3014508880546742e-06,3.494944811996331e-05
3.6277675319615033e-07,9.590776799139277e-07,1.3093133910205627e-06,3.536736859886443e-05
3.665264413882672e-07,9.515546900265725e-07,1.3158562372723634e-06,3.5760725371510324e-05
3.7045441492476655e-07,9.446286529096372e-07,1.3211143671528705e-06,3.6127394967822914e-05
3.745338244866638e-07,9.383054943540823e-07,1.325122526609029e-06,3.6465190043556105e-05
3.7873651813866727e-07,9.325779358096011e-07,1.3279123386174943e-06,3.6771945937199146e-05
3.8303307976996397e-07,9.274274126062021e-07,1.3295129215780088e-06,3.7045747289720645e-05
3.873921217563971e-07,9.228255999022381e-07,1.3299528977257813e-06,3.728526376403492e-05
3.917802188507603e-07,9.187390078791342e-07,1.3292615561874063e-06,3.748996035897937e-05
3.96162745543532e-07,9.151387566543724e-07,1.3274703387248086e-06,3.766002249190919e-05
4.005043831539583e-07,9.120091994668268e-07,1.3246142315041272e-06,3.7796115158784054e-05
4.047691995742919e-07,9.093480458938284e-07,1.3207301278842995e-06,3.789914115939053e-05
4.089212187666739e-07,9.071589693819608e-07,1.3158563934477156e-06,3.797007350034126e-05
4.1292572278880046e-07,9.054430622633608e-07,1.3100406882876231e-06,3.800996929251369e-05
4.167511341623634e-07,9.041932284935171e-07,1.3033522401457137e-06,3.802018357025871e-05
4.2037145197484563e-07,9.033919653943376e-07,1.2958893107661846e-06,3.8002555334041576e-05
4.237687189637564e-07,9.030130791174136e-07,1.2877779876139738e-06,3.7959383079336854e-05
4.2693430106986863e-07,9.030271306903765e-07,1.2791639266549805e-06,3.789327907524489e-05
4.298676838541444e-07,9.034055379608358e-07,1.2702012841506096e-06,3.780704866348325e-05
4.325733430254782e-07,9.041189528064035e-07,1.2610418807817379e-06,3.770360478392033e-05
4.3505804067501783e-07,9.051337565385595e-07,1.25182513850682e-06,3.758585363652533e-05
4.3732891041433705e-07,9.064116999221155e-07,1.2426702837124592e-06,3.745654189007191e-05
4.393917290523207e-07,9.079108414587109e-07,1.2336739536482165e-06,3.7318128581638844e-05
4.4125102022781905e-07,9.095850529251145e-07,1.2249123090903841e-06,3.7172740645292894e-05
4.429120492705942e-07,9.113837815526672e-07,1.2164424426680616e-06,3.702219511981648e-05
4.443820486792406e-07,9.132542222985482e-07,1.2083023545478664e-06,3.686801037230568e-05
4.45669822168192e-07,9.151461129758864e-07,1.2005124197090869e-06,3.6711373326554717e-05
4.4678462587404396e-07,9.170164891709387e-07,1.193078711185487e-06,3.655310236309489e-05
4.4773540126318246e-07,9.188295253715628e-07,1.1859987406354209e-06,3.639364022876106e-05
4.4853192700320846e-07,9.205513380211176e-07,1.1792692917328925e-06,3.623306885115392e-05
4.4918759988683035e-07,9.221456524273941e-07,1.172892146509879e-06,3.60711355634228e-05
4.497214606632565e-07,9.235744566776192e-07,1.1668751560017058e-06,3.5907310798971615e-05
4.5015958856906674e-07,9.248020436050621e-07,1.1612298099303793e-06,3.5740889961034026e-05
4.505386526719714e-07,9.257982258480343e-07,1.1559676589125848e-06,3.557110966940064e-05
4.5090980009830206e-07,9.26538439432946e-07,1.1510982876567128e-06,3.539723402330149e-05
4.513350898484994e-07,9.270012768147842e-07,1.1466294475051105e-06,3.5218589011740614e-05
4.5187602646382887e-07,9.27165304978387e-07,1.1425678963959823e-06,3.5034556931931986e-05
4.5258459279228077e-07,9.270072227927645e-07,1.138919128859215e-06,3.4844558531198546e-05
4.535012517126381e-07,9.265016622215252e-07,1.1356843995365886e-06,3.4648029729936e-05
4.546549709419531e-07,9.256212841945116e-07,1.1328569619054814e-06,3.4444384037485106e-05
4.560631068277726e-07,9.243375643100887e-07,1.1304211201230783e-06,3.423297846142523e-05
4.5773225754186184e-07,9.226239343527307e-07,1.128353796085832e-06,3.401310296233747e-05
4.59659815662596e-07,9.204597768382492e-07,1.126627392055175e-06,3.378397705659798e-05
4.61836429933006e-07,9.17831658572341e-07,1.125213735742995e-06,3.354474891973368e-05
4.642494353807068e-07,9.147316788803419e-07,1.12408650230724e-06,3.32945189658436e-05
4.668853709548232e-07,9.11156009499332e-07,1.1232208461327215e-06,3.303238482422938e-05
4.697300942834688e-07,9.071041323881859e-07,1.122592529998888e-06,3.2757497522155586e-05
4.727671755229325e-07,9.025773207349035e-07,1.122176369220205e-06,3.246915180491028e-05
4.7597728985078257e-07,8.975783548054528e-07,1.1219426309290173e-06,3.2166909457571755e-05
4.793405653258964e-07,8.921138154692388e-07,1.1218537749782301e-06,3.1850701484148426e-05
4.828406735389322e-07,8.861951892783691e-07,1.1218638925656138e-06,3.1520894326304896e-05
4.864677448313583e-07,8.798375174276341e-07,1.1219198267528542e-06,3.1178359179214364e-05
4.902175002376742e-07,8.730589617667538e-07,1.1219623237859492e-06,3.082454018825311e-05
4.940880106731382e-07,8.658823654857834e-07,1.1219273838475443e-06,3.0461459157343452e-05
4.980778327899157e-07,8.583381764246728e-07,1.1217486516181714e-06,3.0091613196301563e-05
5.021845400289028e-07,8.504680791000999e-07,1.1213602187300694e-06,2.971777893546825e-05
5.064017503456246e-07,8.423254885785357e-07,1.1206986880750615e-06,2.934275253100716e-05
5.107172991791679e-07,8.339697887891459e-07,1.119704346733277e-06,2.8969078314944414e-05
5.151152415172362e-07,8.254579851179066e-07,1.118321966170871e-06,2.859888586240204e-05
5.195805368121629e-07,8.16840304141965e-07,1.1165019460078512e-06,2.8233906450070398e-05
5.241021793037696e-07,8.081613448711691e-07,1.1142010479135409e-06,2.7875587404478692e-05
5.286714772014567e-07,7.994622975525619e-07,1.1113816423170315e-06,2.752516734821958e-05
5.332775344935671e-07,7.907801648915411e-07,1.108012889935099e-06,2.718367527621421e-05
5.379048846892216e-07,7.821452104547141e-07,1.1040773166315133e-06,2.685196122710797e-05
5.42534587537085e-07,7.735802258763788e-07,1.0995771581813705e-06,2.65307800790913e-05
5.471461952546924e-07,7.651033886237326e-07,1.0945327909735591e-06,2.622077094075557e-05
5.51718782989776e-07,7.567339187073937e-07,1.0889753767218935e-06,2.5922331560986332e-05
5.562308752486663e-07,7.484961917710458e-07,1.0829401767670445e-06,2.5635577697261746e-05
5.606597343729153e-07,7.404181159673079e-07,1.0764620179680964e-06,2.536048719214442e-05
5.649811842586189e-07,7.325283056444148e-07,1.0695720432463909e-06,2.5097216038584944e-05
5.691704168397453e-07,7.248598682075046e-07,1.0622965905433768e-06,2.484645855146485e-05
5.732037476799146e-07,7.174592159844075e-07,1.054658074731422e-06,2.4609622403081007e-05
5.770620630104541e-07,7.103915542093486e-07,1.0466750835176608e-06,2.4388736999695072e-05
5.807348570023863e-07,7.03738132993704e-07,1.0383608807544028e-06,2.418623254652933e-05
5.842220009435214e-07,6.975871191717283e-07,1.0297228959977822e-06,2.4004730192521718e-05
5.875331817293032e-07,6.920233586774501e-07,1.0207641728776776e-06,2.3846870104304628e-05
5.906857805829088e-07,6.871227373970117e-07,1.0114855748690248e-06,2.37151442765434e-05
5.937006323751837e-07,6.829539914525558e-07,1.0018883048779215e-06,2.361172888687299e-05
5.965983370688816e-07,6.795840557064078e-07,9.919778139781135e-07,2.353835625529753e-05
5.993990309452189e-07,6.770809505246882e-07,9.817706079270099e-07,2.349624391940136e-05
6.021231422621172e-07,6.75512120511126e-07,9.713026095173493e-07,2.348604778939379e-05
6.047897543556213e-07,6.749387285915507e-07,9.606339469264843e-07,2.35078297997628e-05
6.074127700810069e-07,6.754081888958277e-07,9.49846079501388e-07,2.356109417999517e-05
6.099978093175938e-07,6.769495638004364e-07,9.390323284328916e-07,2.364490839399764e-05
6.125421805008853e-07,6.795741115326498e-07,9.282857645322712e-07,2.3758052558625158e-05
6.150366579920571e-07,6.832771089885275e-07,9.176885908323124e-07,2.3899179908901385e-05
6.174669608439075e-07,6.880378673320577e-07,9.07307737023543e-07,2.4066994013336692e-05
6.198159421254922e-07,6.938203811773468e-07,8.971985121741102e-07,2.4260371794113198e-05
6.220677316699909e-07,7.005754727419026e-07,8.87410900330718e-07,2.447834968252081e-05
6.242111323916094e-07,7.082419581423618e-07,8.779918848562567e-07,2.472000998225744e-05
6.262394784454927e-07,7.16747074379146e-07,8.689851777904577e-07,2.498438700392185e-05
6.281492071857468e-07,7.26007783870661e-07,8.604335113618945e-07,2.5270442669817174e-05
6.299397324795558e-07,7.359325194686189e-07,8.523829080581841e-07,2.557707103757566e-05
6.316128203774418e-07,7.464235674500254e-07,8.448836682258142e-07,2.590309406316384e-05
6.331695390855094e-07,7.573810021638703e-07,8.379860422250551e-07,2.6247237522305733e-05
6.346063890956653e-07,7.68706137268974e-07,8.317347389718561e-07,2.660807210681301e-05
6.359138352751303e-07,7.803015494083566e-07,8.261664669495171e-07,2.698390937492959e-05
6.370782908562161e-07,7.920689277570075e-07,8.21310281117098e-07,2.737269337692105e-05
6.38085517103419e-07,8.039084841419102e-07,8.171905852871525e-07,2.777196821617477e-05
6.389230699425243e-07,8.157216322000369e-07,8.138322427629384e-07,2.8178955246417408e-05
6.395807557805243e-07,8.274147111091133e-07,8.112611216807663e-07,2.8590696519248964e-05
6.400494471536499e-07,8.388993491509494e-07,8.094964358083784e-07,2.900420307326377e-05
6.403195986587724e-07,8.500896614146629e-07,8.085438593190166e-07,2.9416549653542625e-05
6.403813945504885e-07,8.609010629988598e-07,8.083983711216449e-07,2.982487272561255e-05
6.402278404161931e-07,8.712524088834593e-07,8.09053685614927e-07,3.022633276022617e-05
6.398586122039539e-07,8.81068497473472e-07,8.105096647788835e-07,3.0618136108962165e-05
6.392813680290202e-07,8.902799056627229e-07,8.127744265904345e-07,3.0997600948962076e-05
6.385099698634992e-07,8.988214452233532e-07,8.158636905850201e-07,3.1362211591221726e-05
6.375602782267383e-07,9.06632333796398e-07,8.197989747839361e-07,3.170962452922316e-05
6.364458510170665e-07,9.136581111957729e-07,8.246042087782848e-07,3.203760812192939e-05
6.35176373293955e-07,9.198538009212959e-07,8.303015931336285e-07,3.234397618061319e-05
6.337582153123217e-07,9.251882463669978e-07,8.369070643068614e-07,3.2626616744340584e-05
6.32195417744199e-07,9.296469583405913e-07,8.44424471207354e-07,3.288364998703247e-05
6.304904780149494e-07,9.332317233075727e-07,8.52840346133858e-07,3.311366094690137e-05
6.286444494458901e-07,9.359579036053446e-07,8.621220278871973e-07,3.331590706369044e-05
6.266565521206968e-07,9.37849336239055e-07,8.72218407464628e-07,3.3490395890559965e-05
6.245235825261774e-07,9.389321495153835e-07,8.830620657279674e-07,3.3637786800401154e-05
6.222400303938647e-07,9.392308753029414e-07,8.945732423011677e-07,3.375916363355188e-05
6.198004929992207e-07,9.38768289013059e-07,9.066647372013543e-07,3.385576047158129e-05
6.172035596281412e-07,9.375694431838423e-07,9.192459496389604e-07,3.39287383014185e-05
6.144554890853383e-07,9.356680834084223e-07,9.322270964634291e-07,3.3979119795680904e-05
6.115727732275302e-07,9.331104212144716e-07,9.455242976132841e-07,3.400784606775145e-05
6.085813374903307e-07,9.29954077268376e-07,9.590613852401527e-07,3.401577129232215e-05
6.055118056901038e-07,9.262642286427193e-07,9.72766001846367e-07,3.4003562745670666e-05
6.023943029508533e-07,9.221082836433757e-07,9.865644275570697e-07,3.397165984301856e-05
5.992557942692835e-07,9.17549763999902e-07,1.0003797263917065e-06,3.3920329748253477e-05
5.961195589162682e-07,9.126447510614376e-07,1.0141331058357942e-06,3.38497247281992e-05
5.93005528074231e-07,9.074431551531601e-07,1.0277467720657348e-06,3.3759913153053335e-05
5.899317030535082e-07,9.019917119839935e-07,1.0411468603491157e-06,3.365092242626078e-05
5.869167187156623e-07,8.963346158634462e-07,1.0542657646810652e-06,3.352279971864447e-05
5.839815269204267e-07,8.905117746667944e-07,1.0670439446450557e-06,3.337566012414365e-05
5.811483295778085e-07,8.845574955249428e-07,1.079429167044859e-06,3.32097197034679e-05
5.784379917821784e-07,8.78500700212048e-07,1.0913720262962299e-06,3.302532764555283e-05
5.758684345339025e-07,8.723650865639393e-07,1.1028220776046218e-06,3.282296936278975e-05
5.73454300370286e-07,8.661685693224091e-07,1.113727708192552e-06,3.2603209731544766e-05
5.712067229123558e-07,8.599249537624779e-07,1.1240369316949871e-06,3.23666056959515e-05
5.691329042171159e-07,8.536510785961985e-07,1.1336967022285891e-06,3.2113657234105364e-05
5.67235591243841e-07,8.473752844977556e-07,1.142653090424263e-06,3.184483341481397e-05
5.655138121026584e-07,8.411377898737358e-07,1.150854307241819e-06,3.1560631438742144e-05
5.63966733084921e-07,8.349815690386778e-07,1.158253283308718e-06,3.126160432881587e-05
5.625969788517514e-07,8.289437167913544e-07,1.1648069057265508e-06,3.0948348593305306e-05
5.614088644301299e-07,8.230563342761981e-07,1.1704743542557705e-06,3.062148597672352e-05
5.604065826399736e-07,8.173549002144561e-07,1.1752177452590158e-06,3.0281667940536736e-05
5.595974729188019e-07,8.118854208714111e-07,1.1790055696789541e-06,2.9929596472025987e-05
5.589938646617203e-07,8.067048983039031e-07,1.1818166681361366e-06,2.9566038646215386e-05
5.586089639468892e-07,8.018748501696508e-07,1.183642095875119e-06,2.919183401963294e-05
5.584525917918524e-07,7.974508376937784e-07,1.184485429338648e-06,2.880790280001501e-05
5.585294431500467e-07,7.934741691349281e-07,1.184362290158953e-06,2.8415253997141155e-05
5.588376622209968e-07,7.899711547302042e-07,1.1832971537860217e-06,2.801497602081328e-05
5.593681034745763e-07,7.869578533743369e-07,1.1813175905813895e-06,2.760818430780377e-05
5.601046892746494e-07,7.844431775041141e-07,1.178449337823037e-06,2.719593428715261e-05
5.610256240881518e-07,7.824277765537656e-07,1.1747140696920209e-06,2.677915384696236e-05
5.621062517742174e-07,7.809024329312913e-07,1.17012935180144e-06,2.6358649782934985e-05
5.633226602480154e-07,7.798497251876035e-07,1.1647100613009352e-06,2.5935157340693146e-05
5.646531956240435e-07,7.792479045131479e-07,1.158470844739705e-06,2.5509358345137657e-05
5.660776304947454e-07,7.790720865824479e-07,1.151428271088515e-06,2.508190396189617e-05
5.67577662326853e-07,7.792922632878727e-07,1.1436016964208794e-06,2.4653511677255053e-05
5.691397440303508e-07,7.798743483178498e-07,1.1350148589975694e-06,2.4225093793890978e-05
5.707566522508185e-07,7.807868428847049e-07,1.1257002491848364e-06,2.3797849522273653e-05
5.724270241113823e-07,7.820076544284185e-07,1.1157051856255944e-06,2.337325680080512e-05
5.741540135046198e-07,7.835255237661948e-07,1.1050969085483251e-06,2.2952898494271866e-05
5.75941920438725e-07,7.853355484023905e-07,1.0939635411225015e-06,2.253822562193854e-05
5.777927566724422e-07,7.874315551020415e-07,1.0824085299772957e-06,2.213045209141484e-05
5.797061305654639e-07,7.898007865302654e-07,1.0705396935590568e-06,2.1730578273864784e-05
5.816806086533121e-07,7.924252788113626e-07,1.0584577199149556e-06,2.1339408309294585e-05
5.837144703263939e-07,7.952872869301974e-07,1.0462492099009279e-06,2.095753479163373e-05
5.858061386539146e-07,7.98373350028407e-07,1.0339867495993498e-06,2.058534972768719e-05
5.879533277308239e-07,8.016743523457612e-07,1.0217346027829844e-06,2.0223083811206306e-05
5.901516484270393e-07,8.051822679401847e-07,1.0095559057139635e-06,1.9870849811077066e-05
5.923953745461225e-07,8.088880754675736e-07,9.975168662525015e-07,1.952870096425313e-05
5.946786709790833e-07,8.127818221560381e-07,9.85684391181297e-07,1.9196687060956326e-05
5.969939030538694e-07,8.168502545166429e-07,9.741190575245145e-07,1.8874865825521802e-05
5.993291779755532e-07,8.210727189449577e-07,9.628704417661199e-07,1.856327047634804e-05
6.016688052793254e-07,8.254201547556195e-07,9.519783329756624e-07,1.8261865151616444e-05
6.039953138775335e-07,8.298577758568055e-07,9.414781561960949e-07,1.797055541902268e-05
6.062900534882562e-07,8.343484257593102e-07,9.314067906996305e-07,1.768929199957313e-05
6.085331043019972e-07,8.388538321173655e-07,9.218050947014364e-07,1.7418171349893918e-05
6.107035277679443e-07,8.433353865980963e-07,9.127167790562962e-07,1.7157480231647622e-05
6.127789226925443e-07,8.477573238209535e-07,9.041847305879135e-07,1.6907725462213512e-05
6.147351337401202e-07,8.520893109699869e-07,8.962447806210092e-07,1.6669593292147282e-05
6.165473481767748e-07,8.563049799279236e-07,8.889195192121334e-07,1.6443803725548038e-05
6.181918174834608e-07,8.603786030852975e-07,8.822166426633184e-07,1.6230942706233712e-05
6.196482136477589e-07,8.642825187605854e-07,8.761314354328587e-07,1.603134946957378e-05
6.209017753252297e-07,8.67986104509696e-07,8.706492603797259e-07,1.5845094828050114e-05
6.219427583035551e-07,8.714574216178714e-07,8.65747528430298e-07,1.567202352911762e-05
6.227648006404349e-07,8.74666091876825e-07,8.61400320838756e-07,1.5511791079002067e-05
6.233657902822824e-07,8.775837418665966e-07,8.575848737974056e-07,1.536387778094775e-05
6.237496781770422e-07,8.801819421414792e-07,8.542848722889931e-07,1.5227625022365219e-05
6.239265276715e-07,8.824305914362156e-07,8.514893615254185e-07,1.5102315885667127e-05
6.239119728587036e-07,8.842980418213346e-07,8.491892466978241e-07,1.498724981176192e-05
6.237261614144788e-07,8.857518403633401e-07,8.473721799717437e-07,1.4881746962098114e-05
6.23390078145092e-07,8.867588463051335e-07,8.460175635272456e-07,1.4785088166655881e-05
6.229217524995172e-07,8.872854976029741e-07,8.450941570601759e-07,1.4696460933034421e-05
6.223365062837961e-07,8.87299332254169e-07,8.445605991508419e-07,1.4614968759997055e-05
6.216485948924256e-07,8.867707405435147e-07,8.443675777645736e-07,1.4539698303585004e-05
6.208700060041221e-07,8.856734929016235e-07,8.444606885644556e-07,1.4469788308422718e-05
6.200084906956465e-07,8.839839874972212e-07,8.447830444593253e-07,1.4404455150011816e-05
6.190690991585369e-07,8.816801334633116e-07,8.452770207951084e-07,1.4342983525948596e-05
6.180590148961885e-07,8.787419124312549e-07,8.458855768014164e-07,1.4284704179199896e-05
6.169907949792561e-07,8.751548759743227e-07,8.465538203371178e-07,1.4228966365661764e-05
6.158812280438237e-07,8.709143174174549e-07,8.472310436071771e-07,1.4175123732700747e-05
6.147486753959728e-07,8.660278386203607e-07,8.47871504843949e-07,1.4122555750123987e-05
6.136106785311527e-07,8.605165276140267e-07,8.484318275796769e-07,1.4070709883425674e-05
6.124810688172101e-07,8.544134751427636e-07,8.488673777731414e-07,1.401911335802523e-05
6.113677205178127e-07,8.477591341004016e-07,8.491314934640784e-07,1.396734291293107e-05
6.102722089394637e-07,8.405986836728663e-07,8.49177388354505e-07,1.3915002462192637e-05
6.091918091002377e-07,8.329836189849631e-07,8.489615028312532e-07,1.3861731032019736e-05
6.081237073275168e-07,8.249723330913898e-07,8.484482739835627e-07,1.3807223664608364e-05
6.070690319961348e-07,8.166295124557926e-07,8.476138517565813e-07,1.3751262475328775e-05
6.060346886568547e-07,8.080299321858977e-07,8.464446219779873e-07,1.3693738930498215e-05
6.050329646763394e-07,7.992654207334229e-07,8.449316768925632e-07,1.3634630702748425e-05
6.040786523970158e-07,7.904480909901512e-07,8.430686942661533e-07,1.357394073328858e-05
6.031851873403629e-07,7.817065568973505e-07,8.408567485873233e-07,1.3511638646688886e-05
6.023633960767735e-07,7.731767623266564e-07,8.383100629283819e-07,1.3447646448223841e-05
6.016229454438335e-07,7.649897335526751e-07,8.354555396558444e-07,1.3381887367199175e-05
6.009724802034338e-07,7.572594559575871e-07,8.323253385687612e-07,1.3314350015263902e-05
6.0041734870268e-07,7.500762932379505e-07,8.289479784790739e-07,1.3245121514899604e-05
5.999584350720364e-07,7.435077951218001e-07,8.253437890434359e-07,1.3174409207773813e-05
5.995926841568563e-07,7.376024759110383e-07,8.215248149131505e-07,1.3102554729629505e-05
5.993127256477832e-07,7.323933762889188e-07,8.174964042028284e-07,1.3030019177191768e-05
5.991067910831506e-07,7.279023401805143e-07,8.132600051496124e-07,1.2957348099429698e-05
5.989611486789025e-07,7.241430540157706e-07,8.088172290310216e-07,1.2885133608995649e-05
5.988628599476586e-07,7.211195763249163e-07,8.041727434281846e-07,1.281398712254087e-05
5.988001134210858e-07,7.188238766779346e-07,7.993341991997088e-07,1.2744520167025212e-05
5.987611788507499e-07,7.172375421984549e-07,7.943105908371211e-07,1.2677308070363935e-05
5.987344018108159e-07,7.163370800295901e-07,7.891098987542461e-07,1.261283520410417e-05
5.987097129555008e-07,7.161000548393367e-07,7.83736403007653e-07,1.2551449922196285e-05
5.986792029226603e-07,7.165096828306716e-07,7.781902579359419e-07,1.2493345572678655e-05
5.986347508957385e-07,7.175556397174612e-07,7.724712645987035e-07,1.243856938900845e-05
5.985652590695614e-07,7.19231231899324e-07,7.665844506294805e-07,1.2387052507637524e-05
5.984559757352443e-07,7.215287367813741e-07,7.605418114366377e-07,1.2338675283988285e-05
5.982885960068314e-07,7.24434447514143e-07,7.543586905100431e-07,1.2293394979966105e-05
5.980418381670153e-07,7.279259409270646e-07,7.480504358575608e-07,1.2251371213195066e-05
5.976944090286567e-07,7.319735953734011e-07,7.416325909625487e-07,1.2213022030821572e-05
5.972294712178085e-07,7.365454384534826e-07,7.351208846294464e-07,1.2179040893963227e-05
5.966359715927327e-07,7.41612678131427e-07,7.285290169235723e-07,1.2150360423723208e-05
5.95905579586989e-07,7.471537569585081e-07,7.218669813347671e-07,1.2128034511605016e-05
5.950302555710047e-07,7.531564449073894e-07,7.151408721138184e-07,1.2113094068271816e-05
5.940030760634868e-07,7.596175566829535e-07,7.083531192016352e-07,1.2106438800560985e-05
5.928188736078596e-07,7.665387636368644e-07,7.015034568902475e-07,1.2108789566285596e-05
5.9147280548246e-07,7.739187339925529e-07,6.945908749517869e-07,1.2120678231085476e-05
5.89959077025706e-07,7.817466656060571e-07,6.876162339561905e-07,1.2142426775759074e-05
5.882710807526725e-07,7.900024827490457e-07,6.805846319521577e-07,1.2174110998408306e-05
5.864021453757644e-07,7.986618104094662e-07,6.735055168425745e-07,1.2215552431201489e-05
5.84346418479431e-07,8.077007841528599e-07,6.663906628386142e-07,1.2266364594538914e-05
5.82099572677964e-07,8.170992622142402e-07,6.592531289691793e-07,1.2326028171784524e-05
5.796586189046845e-07,8.268415322952535e-07,6.521086040702345e-07,1.2393962943501387e-05
5.770209333094882e-07,8.369124573736231e-07,6.449774125451169e-07,1.2469596712510789e-05
5.741835890260167e-07,8.472908218473953e-07,6.378844400069339e-07,1.2552416606716768e-05
5.711433066981811e-07,8.5794513826789e-07,6.308553742426075e-07,1.2641949909811681e-05
5.678962687386981e-07,8.688341461878185e-07,6.239119373787002e-07,1.2737681546125506e-05
5.644380833049911e-07,8.799106385281189e-07,6.170702158779278e-07,1.2838998359012348e-05
5.607652453379242e-07,8.911268916999592e-07,6.103421934040797e-07,1.294520900848054e-05
5.568776578044722e-07,9.024403751587221e-07,6.037375585299652e-07,1.3055600976040147e-05
5.527795919029638e-07,9.13817722212078e-07,5.972638379530747e-07,1.316947858427162e-05
5.48478446272513e-07,9.252329778798924e-07,5.909274380156501e-07,1.328616756156892e-05
5.439839010041533e-07,9.366601084605749e-07,5.847381646597662e-07,1.3405014262614733e-05
5.393081334221213e-07,9.480679118121435e-07,5.787120283700717e-07,1.352540612578936e-05
5.344658913903839e-07,9.5942224633656e-07,5.728671129662924e-07,1.364680510128776e-05
5.294746138060464e-07,9.7069117442778e-07,5.672176222026908e-07,1.3768761893550073e-05
5.243536298013621e-07,9.818492031680549e-07,5.617727479023078e-07,1.389089497842902e-05
5.191219053019365e-07,9.928805249408843e-07,5.565380991415439e-07,1.4012864975632328e-05
5.137967092597507e-07,1.0037792207496788e-06,5.515154001492149e-07,1.4134381266573675e-05
5.08393948937145e-07,1.014543602465002e-06,5.467021372476482e-07,1.4255207794601004e-05
5.02929434045895e-07,1.025166878841584e-06,5.420938318685292e-07,1.4375111282055355e-05
4.974217606982584e-07,1.035630608596757e-06,5.376867780967363e-07,1.449378586169817e-05
4.918960420800645e-07,1.0459038171794136e-06,5.334785509051833e-07,1.4610827716161966e-05
4.863850828339461e-07,1.055944904140848e-06,5.294679567909712e-07,1.4725750783113546e-05
4.809263680840551e-07,1.065704357241898e-06,5.256559393625469e-07,1.4837997804097202e-05
4.7555824959584597e-07,1.0751289181274954e-06,5.220455909694439e-07,1.4946980898753268e-05
4.7031810593401317e-07,1.0841663724077298e-06,5.186405416005079e-07,1.5052231252368958e-05
4.6523990294900943e-07,1.0927686757879229e-06,5.154437761347509e-07,1.5153624369981287e-05
4.603512128906251e-07,1.1008922078868743e-06,5.124598045990785e-07,1.5251516182525785e-05
4.5567353663960646e-07,1.1084960474673737e-06,5.097000860121244e-07,1.534669665446235e-05
4.512242638570964e-07,1.1155406204822253e-06,5.071867819891608e-07,1.5440232453291517e-05
4.4701663410189114e-07,1.1219870905245495e-06,5.04952294950562e-07,1.553329212127976e-05
4.4305988730504686e-07,1.127796015129469e-06,5.030360474326751e-07,1.562698419325666e-05
4.39361870986876e-07,1.1329263105651464e-06,5.014785761753378e-07,1.5722241364732745e-05
4.3593109103593426e-07,1.1373361857008518e-06,5.0031458071032e-07,1.5819814841080093e-05
4.3277570302254285e-07,1.140985591501253e-06,4.995696605692305e-07,1.5920352087491398e-05
4.299011367019393e-07,1.143838555043341e-06,4.992615468550701e-07,1.602441797137433e-05
4.2730865947308673e-07,1.1458637137137122e-06,4.994020118584689e-07,1.6132421454985725e-05
4.249957012296371e-07,1.1470355701118713e-06,4.999983205000097e-07,1.6244563089910852e-05
4.2295911021976754e-07,1.1473400107199078e-06,5.010552528117782e-07,1.6360886359821398e-05
4.212007004404755e-07,1.1467798463436336e-06,5.025753339984196e-07,1.6481379512399446e-05
4.197290234393197e-07,1.1453740496496487e-06,5.045554193272039e-07,1.6606027451204968e-05
4.185553412284879e-07,1.1431512975715056e-06,5.069829339568892e-07,1.673483947702833e-05
4.1769076799786723e-07,1.1401425822994594e-06,5.098349349131746e-07,1.6867988586283726e-05
4.1714684401338475e-07,1.1363775180803693e-06,5.130792570639968e-07,1.700605622194828e-05
4.16935015614266e-07,1.1318849997859051e-06,5.166761491861525e-07,1.7150161451575986e-05
4.170641848772176e-07,1.1266933904773123e-06,5.205806549711207e-07,1.7301845706856995e-05
4.175395156978446e-07,1.1208280377307843e-06,5.2474728585478e-07,1.746283299604966e-05
4.1836357676726976e-07,1.11430953557032e-06,5.291350492546073e-07,1.7634796561802387e-05
4.1953692845199535e-07,1.1071541669556784e-06,5.337080198796584e-07,1.7819175804190806e-05
4.2105710295579617e-07,1.0993749220782882e-06,5.384323105608286e-07,1.8017130007026622e-05
4.2291767360742396e-07,1.0909824923536645e-06,5.432740335890578e-07,1.8229667256664314e-05
4.2510826901469935e-07,1.081986789567983e-06,5.481992245888967e-07,1.845778371618725e-05
4.2761785935349674e-07,1.0724000666901577e-06,5.531750753237274e-07,1.8702446070648397e-05
4.304423085400778e-07,1.062241448871048e-06,5.581719633769493e-07,1.896446314862596e-05
4.335900925396204e-07,1.0515410960050382e-06,5.631650915523478e-07,1.9244387922833407e-05
4.3707868864460907e-07,1.040343814607199e-06,5.681352171069192e-07,1.9542508776012467e-05
4.4092402740103294e-07,1.0287108337001771e-06,5.730677561009354e-07,1.9858863547201945e-05
4.4513312363893793e-07,1.016715211818861e-06,5.779493533439961e-07,2.0193183717611468e-05
4.4970545093406106e-07,1.004431126927511e-06,5.827646264848168e-07,2.0544785717718937e-05
4.5464100666491096e-07,9.919245852660705e-07,5.874968200738799e-07,2.091250844701593e-05
4.599477174446376e-07,9.792508161942437e-07,5.921303216514193e-07,2.129475093353289e-05
4.656403360643112e-07,9.664562363850318e-07,5.966508991021832e-07,2.1689584925588696e-05
4.717325261655521e-07,9.535810248455973e-07,6.010443426660268e-07,2.209488012561242e-05
4.782320135779109e-07,9.406606104545052e-07,6.052958081625639e-07,2.2508381194146976e-05
4.85142749442201e-07,9.277257500829851e-07,6.093902651471323e-07,2.2927725441518616e-05
4.924687609300458e-07,9.148028958846348e-07,6.133142289687975e-07,2.335043972243931e-05
5.002140540233288e-07,9.019162750031592e-07,6.170571912005184e-07,2.377393948508325e-05
5.083776462071007e-07,8.890907892473452e-07,6.206099803813282e-07,2.4195531992955576e-05
5.169483482674967e-07,8.763562337331702e-07,6.239611560933487e-07,2.4612437391220388e-05
5.259052327639224e-07,8.637519434084841e-07,6.27095179113665e-07,2.502183340642541e-05
5.352227757405992e-07,8.513268664833502e-07,6.299936933186384e-07,2.5420908853707212e-05
5.448753558942658e-07,8.391343171689869e-07,6.326377581626718e-07,2.580691355513799e-05
5.548397849239478e-07,8.272259724708444e-07,6.350084028713707e-07,2.617720353821965e-05
5.650975835873273e-07,8.156474055997948e-07,6.370861141737935e-07,2.652929140989649e-05
5.75636234265539e-07,8.044361150262075e-07,6.388519132615512e-07,2.686091678437192e-05
5.864469904888572e-07,7.936227348383661e-07,6.402902921804963e-07,2.717013321536259e-05
5.975219219718493e-07,7.832335119143547e-07,6.413913224872493e-07,2.7455379385535226e-05
6.088545854499003e-07,7.73292159465331e-07,6.421501768803929e-07,2.771547556897433e-05
6.204407951090863e-07,7.638193556434375e-07,6.4256547013149e-07,2.794950703592837e-05
6.32274834622103e-07,7.548291927136224e-07,6.426384179967287e-07,2.815666267418845e-05
6.443455134027365e-07,7.463263644548284e-07,6.423728708353313e-07,2.8336156414161077e-05
6.566371620296778e-07,7.383072213684108e-07,6.417753259434935e-07,2.8487280696469567e-05
6.69133396824893e-07,7.30762811701578e-07,6.408546083789665e-07,2.8609528982461438e-05
6.818206606179469e-07,7.236808987017854e-07,6.396217213007002e-07,2.8702672070027967e-05
6.946902833152017e-07,7.170459122984498e-07,6.380900170063915e-07,2.876672313579819e-05
7.077368470349556e-07,7.108384001726577e-07,6.362746294538753e-07,2.880182985716957e-05
7.209525181416432e-07,7.050359986543538e-07,6.341918066178414e-07,2.8808180556624383e-05
7.343214847332166e-07,6.996152310502804e-07,6.318608301955486e-07,2.878599653216241e-05
7.478206573726141e-07,6.945524349910222e-07,6.293069582380606e-07,2.8735636964914345e-05
7.614263710377594e-07,6.898233649505836e-07,6.265605584193483e-07,2.8657767176902826e-05
7.751178229815713e-07,6.854026769960597e-07,6.236536153062343e-07,2.8553469964103345e-05
7.88873025218108e-07,6.812654577969855e-07,6.20619053337056e-07,2.8424211154645727e-05
8.026635055145038e-07,6.773908722909608e-07,6.174932757274144e-07,2.8271689367320875e-05
8.164521845034873e-07,6.737657815871788e-07,6.143173386068135e-07,2.809766119264743e-05
8.301933239396019e-07,6.703861694166046e-07,6.111332616921056e-07,2.7903815631837115e-05
8.438340093219923e-07,6.672552457814416e-07,6.0797736017803e-07,2.7691720215364208e-05
8.573187263634275e-07,6.643792945877079e-07,6.048760325494328e-07,2.7462816484697658e-05
8.705972812351909e-07,6.617646568994868e-07,6.018460378201822e-07,2.7218494209891932e-05
8.836310169192056e-07,6.594186776761879e-07,5.988970065393814e-07,2.696035698021977e-05
8.963907377600206e-07,6.573522877299957e-07,5.960355905185163e-07,2.6690672481042013e-05
9.088488456940941e-07,6.555794695350775e-07,5.93271403423899e-07,2.641273278868635e-05
9.209758601800135e-07,6.541146062300206e-07,5.906197292205468e-07,2.613086148199285e-05
9.3274525913519e-07,6.529720639617082e-07,5.880975774286076e-07,2.585011728227428e-05
9.441398093506329e-07,6.521680660895256e-07,5.857188672502178e-07,2.557588645809544e-05
9.55152148333704e-07,6.517208892064457e-07,5.834942779359023e-07,2.53134518999078e-05
9.657825035013123e-07,6.516465897334369e-07,5.814347493332713e-07,2.506761304322268e-05
9.760399957578772e-07,6.519526738123684e-07,5.795556687848618e-07,2.484250786033792e-05
9.859451162917543e-07,6.526351035219538e-07,5.77879175583779e-07,2.464163843872356e-05
9.955288090738607e-07,6.536813434150923e-07,5.764341855260373e-07,2.446791574141623e-05
1.0048292257995709e-06,6.550773919490284e-07,5.752563874569444e-07,2.4323665752541628e-05
1.0138858922232792e-06,6.568136117209557e-07,5.743892860631346e-07,2.4210667358358327e-05
1.0227306528696536e-06,6.588852689089295e-07,5.738835379426789e-07,2.413022586873352e-05
1.0313814161272444e-06,6.612883632962076e-07,5.737909123329407e-07,2.4083250598476692e-05
1.0398445858480066e-06,6.640149098826366e-07,5.74155367195949e-07,2.407032045085021e-05
1.0481230773227436e-06,6.670518637071655e-07,5.750100791134122e-07,2.409173352515977e-05
1.056222883281571e-06,6.70384529917986e-07,5.763829355952797e-07,2.414755774584484e-05
1.0641559992180069e-06,6.740011539947818e-07,5.783007910031786e-07,2.4237684281824663e-05
1.0719402476802941e-06,6.778958851013372e-07,5.807852753467036e-07,2.436185522007269e-05
1.079593986369723e-06,6.820714397807758e-07,5.838465929877594e-07,2.451965199815131e-05
1.0871270782600752e-06,6.865430613489649e-07,5.874845471144543e-07,2.471045476417901e-05
1.0945352448168032e-06,6.913409267549964e-07,5.916949912903866e-07,2.493338975889857e-05
1.1018006952199974e-06,6.96506227067039e-07,5.964728134119067e-07,2.518727898950236e-05
1.1088961738744e-06,7.020811393233379e-07,6.018092774617675e-07,2.547058626892288e-05
1.1157892320263479e-06,7.080986913051679e-07,6.076890705216358e-07,2.5781366466078023e-05
1.122444065980132e-06,7.145770734841817e-07,6.140892714698136e-07,2.6117264802807778e-05
1.1288211605406728e-06,7.215176989543145e-07,6.209783309932026e-07,2.647557573523883e-05
1.1348772003320988e-06,7.289053293083089e-07,6.283158862642644e-07,2.6853300489910557e-05
1.1405655808276547e-06,7.367104346894687e-07,6.360567392863986e-07,2.724716936524431e-05
1.1458370965752849e-06,7.448928408736003e-07,6.441577543987204e-07,2.7653659031982182e-05
1.1506405586720558e-06,7.534041889217056e-07,6.525819080662361e-07,2.806903419746749e-05
1.154922760904691e-06,7.621895963945087e-07,6.612973556012741e-07,2.848940844164348e-05
1.1586285384955208e-06,7.711919589524136e-07,6.702728945821699e-07,2.8910817432964368e-05
1.1617018997788771e-06,7.803600934648341e-07,6.794717300415989e-07,2.9329334594904802e-05
1.1640878595907743e-06,7.896572416836223e-07,6.888474139954435e-07,2.9741225856581696e-05
1.1657341064283865e-06,7.990649139288032e-07,6.983440316406124e-07,3.0143053345584412e-05
1.1665935673576284e-06,8.085806057776348e-07,7.078987677386988e-07,3.0531680947384305e-05
1.1666292594838342e-06,8.182117233657011e-07,7.174447350732304e-07,3.090423817833175e-05
1.1658173741013802e-06,8.279669652215599e-07,7.269133364070018e-07,3.1258087379443265e-05
1.1641441212817605e-06,8.378475349104987e-07,7.362370719053368e-07,3.159078005962377e-05
1.1616001136809799e-06,8.47844618910577e-07,7.453550176089063e-07,3.189999383146177e-05
1.158177781312275e-06,8.579440318972841e-07,7.542214958274471e-07,3.218348724170184e-05
1.1538713675262415e-06,8.681306557234001e-07,7.628129118915162e-07,3.243910686174702e-05
1.1486773977613951e-06,8.78388795400601e-07,7.711254983984608e-07,3.266483582535245e-05
1.1425957484906406e-06,8.887011251009691e-07,7.791644671418945e-07,3.2858861842180205e-05
1.1356315553517929e-06,8.990481452828756e-07,7.86933441149537e-07,3.3019666526187735e-05
1.127796836492216e-06,9.094075827372312e-07,7.944309854401945e-07,3.314614975538822e-05
1.1191101713032134e-06,9.197540564959635e-07,8.016540645040206e-07,3.3237739843727915e-05
1.109594040780396e-06,9.300606497843841e-07,8.086039794632936e-07,3.329436891947271e-05
1.09927223822407e-06,9.403021710520041e-07,8.152901151703953e-07,3.331629202193022e-05
1.0881696752478664e-06,9.504568765432516e-07,8.217311752095704e-07,3.3303898584351455e-05
1.076313762121797e-06,9.605039230673128e-07,8.27955900707063e-07,3.325764451007885e-05
1.063734963538337e-06,9.704179030213352e-07,8.340014889937715e-07,3.317806716871318e-05
1.0504654359274162e-06,9.80164522883111e-07,8.399071344362239e-07,3.3065784358113286e-05
1.036537641952779e-06,9.89700150319518e-07,8.457050563145255e-07,3.292149285884749e-05
1.0219850421833986e-06,9.98975427257084e-07,8.514146114818817e-07,3.27461024099037e-05
1.0068443924720776e-06,1.0079409349855495e-06,8.570425638501128e-07,3.254105339513936e-05
9.911582808074477e-07,1.0165507578545526e-06,8.625866800117688e-07,3.230860796302165e-05
9.749773933078391e-07,1.0247609792971005e-06,8.680376072908562e-07,3.205186195912604e-05
9.583623627749122e-07,1.0325256862269363e-06,8.733786759022482e-07,3.1774512209612206e-05
9.413832293724579e-07,1.0397958258921415e-06,8.785876080799173e-07,3.1480571023173526e-05
9.241147979560041e-07,1.046521541566458e-06,8.836407615136221e-07,3.117408588030415e-05
9.066309456015759e-07,1.0526545099808963e-06,8.885163358361208e-07,3.08588802882685e-05
8.890022704916025e-07,1.0581506145612465e-06,8.931950526741508e-07,3.053845145013831e-05
8.712962856195309e-07,1.0629748946560872e-06,8.976593663522538e-07,3.0216053492159704e-05
8.535763462103151e-07,1.0671043572193957e-06,9.018922425622806e-07,2.9894773673743017e-05
8.358990520822248e-07,1.0705242578869057e-06,9.058757003527763e-07,2.957751656157749e-05
8.183126115052613e-07,1.0732215439527406e-06,9.095892222846304e-07,2.9266980206419952e-05
8.008572983045735e-07,1.0751812267406674e-06,9.130099281084776e-07,2.8965647501368672e-05
7.835674048516019e-07,1.0763871253243642e-06,9.16115907681114e-07,2.867577473365708e-05
7.664731302617263e-07,1.0768264325641432e-06,9.188901500049843e-07,2.8399399159174298e-05
7.496022842613359e-07,1.0764970651391485e-06,9.213205541856471e-07,2.813838257536783e-05
7.329830462829609e-07,1.0754123296219679e-06,9.233954179090138e-07,2.789448104121104e-05
7.166464559765793e-07,1.0735977660525257e-06,9.250993033343414e-07,2.7669415419882422e-05
7.006266012295118e-07,1.0710839433265084e-06,9.264125381829478e-07,2.7464900246158693e-05
6.849596577412407e-07,1.0679015309023728e-06,9.273126031076487e-07,2.7282601559553588e-05
6.696828643586193e-07,1.0640806687602249e-06,9.277757142279421e-07,2.7124027151282558e-05
6.548322349602967e-07,1.0596532784378522e-06,9.277779521394487e-07,2.699036003129289e-05
6.404397772571264e-07,1.0546551023262964e-06,9.272956303299707e-07,2.688229332479873e-05
6.265320771879574e-07,1.0491273930568471e-06,9.263062499003864e-07,2.679998310808307e-05
6.131293514926821e-07,1.043119559593392e-06,9.247913091482002e-07,2.674315017098082e-05
6.002445353082665e-07,1.036689598228957e-06,9.227406500073288e-07,2.671123783843061e-05
5.878840362258438e-07,1.0299000099786043e-06,9.201546434036384e-07,2.670355685542128e-05
5.760503636564951e-07,1.022812596235662e-06,9.170401169920002e-07,2.6719408570463943e-05
5.647442081535606e-07,1.0154862609607623e-06,9.134040248821344e-07,2.675816386891133e-05
5.539643859063261e-07,1.007977579484148e-06,9.09251940666227e-07,2.681927109184753e-05
5.437076674955691e-07,1.0003414785604174e-06,9.045907060094431e-07,2.6902199716820045e-05
5.3396947197037e-07,9.926317093106506e-07,8.994305240462943e-07,2.7006348420710505e-05
5.247430224710092e-07,9.84901325576164e-07,8.937849233504822e-07,2.7130937311700985e-05
5.160169782297308e-07,9.772006835461418e-07,8.876700211745981e-07,2.727489882395383e-05
5.07774637526434e-07,9.695732038061578e-07,8.811057413556843e-07,2.7436820243478946e-05
4.999961128904626e-07,9.620554203259206e-07,8.741192030607599e-07,2.761495878537456e-05
4.92661790465239e-07,9.546844134921192e-07,8.667465836910284e-07,2.780726332288633e-05
4.857553315069447e-07,9.475061361559765e-07,8.590320678490465e-07,2.801139361265398e-05
4.792684903631758e-07,9.405790017279049e-07,8.510254752675957e-07,2.8224801251845678e-05
4.7320712613557386e-07,9.339743160150223e-07,8.427784849950303e-07,2.844486874461565e-05
4.67589851605211e-07,9.277736355686918e-07,8.343401055868144e-07,2.8669014591220172e-05
4.6243878322046826e-07,9.220599783413796e-07,8.257537676531692e-07,2.889469367915052e-05
4.577730840966485e-07,9.169061933732012e-07,8.17057240327362e-07,2.911933967917564e-05
4.536083492382086e-07,9.123675170740313e-07,8.082855943056515e-07,2.9340341515790552e-05
4.499563215035202e-07,9.084790921482941e-07,7.994761783722265e-07,2.955509244599396e-05
4.4682331300269433e-07,9.052558663178177e-07,7.906726589430329e-07,2.9761116096177985e-05
4.4420946736916523e-07,9.026948580276443e-07,7.819259384418999e-07,2.9956244401009948e-05
4.4210963147626324e-07,9.007806968400827e-07,7.732922053073194e-07,3.0138754527371283e-05
4.4051498745706825e-07,8.994931331315972e-07,7.648287653360934e-07,3.030734496385826e-05
4.3941346056556643e-07,8.988121142635189e-07,7.565887511848525e-07,3.0460951698967097e-05
4.3878917721256097e-07,8.987176416505388e-07,7.48616854431412e-07,3.0598563178457707e-05
4.386259376417629e-07,8.99187546470735e-07,7.40947819542462e-07,3.0719167175456795e-05
4.3891363978348025e-07,9.001958873169214e-07,7.336089748624415e-07,3.0821801752210326e-05
4.39648343084216e-07,9.0171056712252e-07,7.266249068082298e-07,3.0905607834914254e-05
4.408259537001772e-07,9.036908452983387e-07,7.200189930204959e-07,3.0969825202925524e-05
4.424375406526597e-07,9.060876406663956e-07,7.138108117842914e-07,3.101377184825969e-05
4.4446829552669326e-07,9.088467765077408e-07,7.080141046192126e-07,3.103693252175561e-05
4.469004960521469e-07,9.119124240281027e-07,7.026381701450564e-07,3.1039124529423305e-05
4.497198310875309e-07,9.152280603116491e-07,6.976908017457705e-07,3.1020498389980244e-05
4.529181147306635e-07,9.187354515661316e-07,6.931808970445706e-07,3.0981342681362704e-05
4.5648860701576864e-07,9.223747161703701e-07,6.891206921293085e-07,3.092192497243864e-05
4.604198461122887e-07,9.260856129426808e-07,6.855255665456483e-07,3.0842508173644035e-05
4.6469361115470896e-07,9.298075297695849e-07,6.824098446429624e-07,3.0743563152806045e-05
4.692854174284442e-07,9.334790549366186e-07,6.797819624707572e-07,3.062610477585666e-05
4.741648126387071e-07,9.370386183949764e-07,6.776428466335206e-07,3.049190596784315e-05
4.792976077861625e-07,9.404249649345283e-07,6.759862325559183e-07,3.0343412671392467e-05
4.846524068009163e-07,9.435773667846443e-07,6.747978963644936e-07,3.0183455980383892e-05
4.902063506732898e-07,9.464360743452228e-07,6.740560123145483e-07,3.0014921833230163e-05
4.959450626411827e-07,9.48943375510587e-07,6.737373789733197e-07,2.984045963300598e-05
5.018608383708958e-07,9.510456194369051e-07,6.738276565920922e-07,2.9662289679101905e-05
5.079522022510459e-07,9.526940805079217e-07,6.743269763686617e-07,2.9482128904454168e-05
5.14223686575953e-07,9.538435539325013e-07,6.752457699680297e-07,2.930119836307741e-05
5.206863062348361e-07,9.544513073632986e-07,6.7659667410739e-07,2.91202725879698e-05
5.273573174266443e-07,9.544780655576457e-07,6.783929496319777e-07,2.893975033325737e-05
5.342573566226089e-07,9.538897878030908e-07,6.806559552230646e-07,2.8759732012533675e-05
5.414066563501161e-07,9.526591178841032e-07,6.834253479384033e-07,2.858009522587295e-05
5.488224666114051e-07,9.507678483052037e-07,6.867646745352466e-07,2.8400560783590374e-05
5.565174590345085e-07,9.482101896414905e-07,6.907585191668724e-07,2.8220745974074823e-05
5.64497836826969e-07,9.449922581768837e-07,6.95502360856054e-07,2.8040232118729988e-05
5.727624761664228e-07,9.411275375404469e-07,7.01089329242162e-07,2.785866296633665e-05
5.813040190533222e-07,9.366335064032913e-07,7.075970584308302e-07,2.767583016981509e-05
5.901091856265028e-07,9.31529626077908e-07,7.150773615411172e-07,2.749170374543213e-05
5.991578395390829e-07,9.258350693863993e-07,7.23551635171933e-07,2.730642621375608e-05
6.084226871081298e-07,9.195689089928949e-07,7.330119972702432e-07,2.712029137728469e-05
6.178692488024462e-07,9.127532564132239e-07,7.434252091382668e-07,2.693369730350212e-05
6.274559232790223e-07,9.05416107228718e-07,7.547371651774351e-07,2.674707982143938e-05
6.371350889603307e-07,8.975922632428585e-07,7.668776902462884e-07,2.6560840480416685e-05
6.468545737168486e-07,8.89322286449408e-07,7.797665076568374e-07,2.637526438890541e-05
6.565590745896411e-07,8.806498468165251e-07,7.933211930174262e-07,2.619045591862151e-05
6.661930859606071e-07,8.716194878725874e-07,8.074650485848485e-07,2.6006364421070866e-05
6.757042936024031e-07,8.622758712449524e-07,8.221305941458392e-07,2.5822899036660488e-05
6.850437844400744e-07,8.526627009667459e-07,8.372570949687456e-07,2.564002163099682e-05
6.941637459438744e-07,8.428229603070964e-07,8.52784348671552e-07,2.5457751086612586e-05
7.030170417923097e-07,8.32804426174202e-07,8.686465439310402e-07,2.5276114969391666e-05
7.115592237659026e-07,8.226667687571106e-07,8.847689974604122e-07,2.5095099888711773e-05
7.197495535648641e-07,8.124830336552889e-07,9.01067548332267e-07,2.491463042140281e-05
7.275502456125233e-07,8.02335389382303e-07,9.174493076303215e-07,2.4734590191677608e-05
7.349256081288782e-07,7.923099606203685e-07,9.338145572182895e-07,2.4554881301940258e-05
7.418417310941606e-07,7.824933821018682e-07,9.500599621014799e-07,2.4375470626056978e-05
7.482683569513498e-07,7.729701726780284e-07,9.660824260046446e-07,2.419637711605983e-05
7.541848057026775e-07,7.638199569451563e-07,9.817817620783798e-07,2.4017643403746995e-05
7.595864533061573e-07,7.551149547300703e-07,9.970610135220769e-07,2.383931691982673e-05
7.644847185419381e-07,7.469183009040465e-07,1.0118262023670674e-06,2.366140267227945e-05
7.689004517232688e-07,7.392833762414084e-07,1.0259872793585132e-06,2.348380611455357e-05
7.728571618961569e-07,7.322532675978932e-07,1.0394589675161413e-06,2.330633340477161e-05
7.763764221643352e-07,7.258597898276844e-07,1.0521610219438541e-06,2.3128772740397572e-05
7.794749764242276e-07,7.201232344674262e-07,1.0640182067587972e-06,2.295102564396268e-05
7.821646483415872e-07,7.150539745262473e-07,1.0749591323026784e-06,2.277322186804296e-05
7.844547109732454e-07,7.106558915444211e-07,1.0849154277670152e-06,2.259574259782277e-05
7.863564784052832e-07,7.069300220246192e-07,1.0938235017070104e-06,2.2419138927386525e-05
7.878896120909138e-07,7.038759044941084e-07,1.1016282394795723e-06,2.224399900875752e-05
7.890849431654543e-07,7.014896268230137e-07,1.1082865236422504e-06,2.2070848026418328e-05
7.899809286783901e-07,6.997601969527344e-07,1.1137691332748194e-06,2.1900173126508216e-05
7.906184276771008e-07,6.986671117691035e-07,1.1180600059058996e-06,2.1732510318463605e-05
7.910366801130862e-07,6.981801459828857e-07,1.121153382960141e-06,2.1568434066820574e-05
7.912692746940376e-07,6.98260327659535e-07,1.1230526605521212e-06,2.1408498505839536e-05
7.913416666341439e-07,6.988616886709272e-07,1.1237733501471106e-06,2.1253244948360987e-05
7.912719064632516e-07,6.999333156200914e-07,1.1233466335083413e-06,2.1103227495661938e-05
7.910727382408051e-07,7.014208490644831e-07,1.1218184667546973e-06,2.0958996646150667e-05
7.907531895923113e-07,7.032677853397039e-07,1.1192440537171483e-06,2.0821050292239417e-05
7.903197740067542e-07,7.054166075057321e-07,1.1156824990196458e-06,2.068977421805504e-05
7.897791631670116e-07,7.078088313076174e-07,1.111195490375065e-06,2.0565390582623418e-05
7.891432021339768e-07,7.10384074349797e-07,1.105847347121678e-06,2.0447923690765988e-05
7.884347644295794e-07,7.130796748516124e-07,1.0997018216573956e-06,2.0337180894611585e-05
7.876916619355445e-07,7.158324333583791e-07,1.0928183725389544e-06,2.0232747818732488e-05
7.869643922571654e-07,7.185818640954505e-07,1.0852530771798212e-06,2.0134005835365696e-05
7.863077736422279e-07,7.212721114434709e-07,1.077061759158675e-06,2.0040169522583746e-05
7.85773193975143e-07,7.238516022928045e-07,1.0683009465555834e-06,1.995034867440257e-05
7.854049458701146e-07,7.262731947684695e-07,1.0590276951878066e-06,1.9863665489075647e-05
7.852383749177499e-07,7.284957896346135e-07,1.049300137955425e-06,1.977941633137324e-05
7.852988221257788e-07,7.304847549729661e-07,1.0391780941089872e-06,1.969718864851192e-05
7.85602766910226e-07,7.322107255108147e-07,1.0287224250336455e-06,1.961686549555324e-05
7.861605792746919e-07,7.336484807337303e-07,1.0179934807073044e-06,1.9538552643356785e-05
7.869774210860959e-07,7.347765443394215e-07,1.0070506648321921e-06,1.9462499318727666e-05
7.880519537741782e-07,7.355773329056763e-07,9.959520959591041e-07,1.938903794029053e-05
7.893757738603594e-07,7.360361370833382e-07,9.847520058482293e-07,1.9318519810773252e-05
7.909337083379998e-07,7.361381792718704e-07,9.734994354006318e-07,1.925123214595574e-05
7.927040986050786e-07,7.35866289215575e-07,9.62242945556987e-07,1.9187348907256e-05
7.946595665419812e-07,7.352009306090757e-07,9.510382128604773e-07,1.9126976416633307e-05
7.967677740130105e-07,7.341219052400406e-07,9.399495903403324e-07,1.9070264125606808e-05
7.989923691086187e-07,7.326103946493473e-07,9.290417625336136e-07,1.901749821923638e-05
8.012960042975698e-07,7.306495288096376e-07,9.18369592218782e-07,1.8969130958618465e-05
8.036446094874363e-07,7.282236335960534e-07,9.079753233395807e-07,1.8925745510613088e-05
8.06008990494206e-07,7.253184356679335e-07,8.978912743528558e-07,1.888797100919526e-05
8.083623702971038e-07,7.219223259926263e-07,8.881429130649055e-07,1.885635882739624e-05
8.10676540653519e-07,7.1802794027851e-07,8.787518098068232e-07,1.883125059768192e-05
8.129196312057259e-07,7.136338882739394e-07,8.697386070608317e-07,1.8812697708073464e-05
8.150565128059015e-07,7.087444051411287e-07,8.611249100018186e-07,1.880045967082128e-05
8.170502964119851e-07,7.033673313956586e-07,8.529328951105506e-07,1.8794054925310824e-05
8.18863099866815e-07,6.975158137376955e-07,8.451822227839929e-07,1.8792844334501853e-05
8.20456712096629e-07,6.912141304776748e-07,8.378864890343501e-07,1.879614655596356e-05
8.217937465680194e-07,6.845002974928887e-07,8.310530707054171e-07,1.880337439082869e-05
8.228381702288059e-07,6.774220647433479e-07,8.246874218113809e-07,1.881415861616608e-05
8.235555977476621e-07,6.700309859596086e-07,8.187986313670659e-07,1.8828402875006813e-05
8.239149283303616e-07,6.623782433054197e-07,8.134028133184685e-07,1.8846217431631387e-05
8.238901068232644e-07,6.545128766851811e-07,8.08522413424467e-07,1.886776039746237e-05
8.234601481337663e-07,6.464844933756953e-07,8.04180077711087e-07,1.8893136864687928e-05
8.226085077852226e-07,6.383499221832452e-07,8.003899277832781e-07,1.8922437041536485e-05
8.213233051668165e-07,6.301778983470498e-07,7.971528418250952e-07,1.8955793726647488e-05
8.195984913159409e-07,6.220470314645205e-07,7.944578594566992e-07,1.8993355421054746e-05
8.174339094368109e-07,6.140381403827289e-07,7.922855597130285e-07,1.9035200575704496e-05
8.148331137517348e-07,6.062269303987222e-07,7.906097936699483e-07,1.9081243378991682e-05
8.118020838033737e-07,5.986828008942951e-07,7.893990500825183e-07,1.913117510039595e-05
8.083491339264323e-07,5.914736610273701e-07,7.886211628665399e-07,1.918446766433135e-05
8.044836083113811e-07,5.846719755058652e-07,7.882514197752702e-07,1.924041398236909e-05
8.002145025855782e-07,5.783576273237341e-07,7.882775456597776e-07,1.929815795576805e-05
7.955497080010807e-07,5.726158315774069e-07,7.886961381930141e-07,1.9356724595941542e-05
7.904953623507152e-07,5.675314958335286e-07,7.895044935506047e-07,1.9415123206863345e-05
7.850559751789376e-07,5.631829744547161e-07,7.906954873307166e-07,1.947256597220376e-05
7.792355041807179e-07,5.596363599079997e-07,7.922580937376239e-07,1.9528718564761268e-05
7.730386551245551e-07,5.569404201715578e-07,7.941807390644061e-07,1.9583789849357355e-05
7.664711520680096e-07,5.55124695290919e-07,7.964532967794306e-07,1.9638380663585997e-05
7.59539039223871e-07,5.542040376460825e-07,7.990656960444511e-07,1.969328789463809e-05
7.522489111615288e-07,5.541889182630431e-07,8.020045846234974e-07,1.9749471712219744e-05
7.446099196204545e-07,5.550961441630662e-07,8.052504595327998e-07,1.980812406971037e-05
7.366370960767749e-07,5.569545126769374e-07,8.087757154939503e-07,1.9870689893511213e-05
7.283539429907523e-07,5.598020157551455e-07,8.125438882366898e-07,1.993880188218649e-05
7.197912237410381e-07,5.636758209196802e-07,8.165115208245396e-07,2.0014135694656376e-05
7.109846169077609e-07,5.686071942211111e-07,8.206316128567743e-07,2.009822509287746e-05
7.019768678653336e-07,5.74631322481594e-07,8.248561948012711e-07,2.019231954914678e-05
6.928203685920498e-07,5.818019821471851e-07,8.291398653366896e-07,2.029732006828855e-05
6.835729062254633e-07,5.90195892031007e-07,8.334448959681475e-07,2.0413747748544533e-05
6.742899613843093e-07,5.999045344595299e-07,8.377424791939399e-07,2.0541708069102752e-05
6.650196482017775e-07,6.110196775080278e-07,8.420092257049785e-07,2.0680869665373317e-05
6.558007140417607e-07,6.236191557583329e-07,8.462232142670536e-07,2.0830478835493038e-05
6.466627787061385e-07,6.377557816187565e-07,8.503602992647023e-07,2.0989411555438768e-05
6.376279254061365e-07,6.534497375581621e-07,8.543914250610738e-07,2.115626154808601e-05
6.287122735751427e-07,6.706857190369707e-07,8.582829095190576e-07,2.1329441986898187e-05
6.199270966478e-07,6.89415098072665e-07,8.619980586682598e-07,2.1507256744566185e-05
6.112798892977856e-07,7.09560683559127e-07,8.654991903599548e-07,2.168793176517245e-05
6.027755433793727e-07,7.310215213005507e-07,8.687517371187155e-07,2.1869641952655818e-05
5.944168985977588e-07,7.536773788218505e-07,8.717288870976232e-07,2.2050563260304278e-05
5.862045940475517e-07,7.773937054921518e-07,8.744126518346901e-07,2.222895026890572e-05
5.781373874616845e-07,8.020268900443785e-07,8.767902258877281e-07,2.240321604009487e-05
5.702138921819129e-07,8.274296170995763e-07,8.788493286782318e-07,2.257199388848876e-05
5.624353799667186e-07,8.534563226737829e-07,8.805764409691656e-07,2.273417107399436e-05
5.548078622823957e-07,8.79968304101417e-07,8.819570146377979e-07,2.2888866414218258e-05
5.473413387588742e-07,9.068374427671068e-07,8.829759795800823e-07,2.303533717629295e-05
5.40046108336205e-07,9.339469398930937e-07,8.836195330758737e-07,2.317287265376325e-05
5.329290872817918e-07,9.611893233340608e-07,8.838779450946665e-07,2.330073407128564e-05
5.259925307070509e-07,9.884631645062722e-07,8.837477757696213e-07,2.341813259114449e-05
5.192344839165199e-07,1.0156688149216382e-06,8.832328729927177e-07,2.352425971185877e-05
5.126499999001229e-07,1.0427034391071468e-06,8.823443579415795e-07,2.361840718575525e-05
5.062345949177419e-07,1.0694567127588615e-06,8.811010054650579e-07,2.3700097569030387e-05
4.999911689104196e-07,1.0958093215283696e-06,8.795310702976212e-07,2.3769082399405616e-05
4.93935683168331e-07,1.1216346570306724e-06,8.77674908502212e-07,2.382519633084412e-05
4.880957428861722e-07,1.1468019003792178e-06,8.755878736802788e-07,2.3868208712200784e-05
4.825064343139877e-07,1.1711802066015396e-06,8.733420371813609e-07,2.3897804547164816e-05
4.772109302038136e-07,1.194645033739148e-06,8.710228631070524e-07,2.3913694775313026e-05
4.722618155813984e-07,1.2170846594716922e-06,8.687196938949281e-07,2.391574522539641e-05
4.677154051231512e-07,1.23840214602871e-06,8.665158623241154e-07,2.390401239281932e-05
4.636221955195362e-07,1.2585116283602979e-06,8.64485467354257e-07,2.387867856581115e-05
4.600220966224211e-07,1.277333985181012e-06,8.626960756519095e-07,2.38399551497065e-05
4.5694577587906895e-07,1.2947956782746994e-06,8.612109253886027e-07,2.3788010985734474e-05
4.544169681002944e-07,1.3108289575190418e-06,8.600892217829601e-07,2.372298383950329e-05
4.5245335776748655e-07,1.3253714264674006e-06,8.593875311354364e-07,2.3645097374702165e-05
4.5106720557896634e-07,1.3383661446712206e-06,8.5916128817731e-07,2.355477956504744e-05
4.5026564943384314e-07,1.3497631953885622e-06,8.59464471076581e-07,2.345266717522253e-05
4.500500174836774e-07,1.3595203207309211e-06,8.603479924267048e-07,2.3339523488992885e-05
4.5041478694680863e-07,1.3676011074127995e-06,8.618558707684946e-07,2.3216160819820012e-05
4.513468137539939e-07,1.373973099033128e-06,8.640193381224213e-07,2.3083404775215908e-05
4.528250302180884e-07,1.3786077497840608e-06,8.668523939348576e-07,2.294209516722031e-05
4.548209354986268e-07,1.3814820781613964e-06,8.70351291960416e-07,2.2793119605996626e-05
4.573007008474993e-07,1.3825816858246804e-06,8.744976615414472e-07,2.263748766015876e-05
4.602287996066806e-07,1.3819046056704536e-06,8.792625284793152e-07,2.247646655460206e-05
4.635699318066638e-07,1.3794646442037194e-06,8.846079780763716e-07,2.2311752690738893e-05
4.672872210646616e-07,1.3752922589570677e-06,8.904861484189695e-07,2.2145527957804183e-05
4.7133979739935045e-07,1.3694324814048171e-06,8.968383100692235e-07,2.198028169636985e-05
4.7568250339331123e-07,1.3619413443764783e-06,9.035959297587713e-07,2.1818519524083875e-05
4.80266793562544e-07,1.3528816826913551e-06,9.106827324704495e-07,2.1662547164448763e-05
4.850428973543106e-07,1.342319347251652e-06,9.180169114731217e-07,2.1514377480608428e-05
4.899648193618318e-07,1.3303212193179495e-06,9.255136166940372e-07,2.137579560302749e-05
4.949944033067977e-07,1.3169541885828034e-06,9.330866670679716e-07,2.124858882777977e-05
5.000988355659091e-07,1.3022839541747594e-06,9.406499656528536e-07,2.1134747663656336e-05
5.052448164502703e-07,1.2863743798179386e-06,9.481218186996209e-07,2.1036466058361567e-05
5.103957493289297e-07,1.2692882100544952e-06,9.554302450392959e-07,2.095602144202244e-05
5.155131121602167e-07,1.2510883655282521e-06,9.62512640385148e-07,2.08956628149196e-05
5.20561551035079e-07,1.2318381937452164e-06,9.6931010649529e-07,2.085752111334665e-05
5.255146222936828e-07,1.21160062386996e-06,9.757625586737956e-07,2.0843512721678008e-05
5.303551504517198e-07,1.1904381622261409e-06,9.818070467268341e-07,2.0855223283843562e-05
5.350700610295948e-07,1.168414286983495e-06,9.873786614420613e-07,2.0893790180906985e-05
5.396461724112913e-07,1.1455944330490592e-06,9.92413488407997e-07,2.0959819972297588e-05
5.440699484492407e-07,1.122046065465635e-06,9.968516587740893e-07,2.105336394016525e-05
5.48327700751517e-07,1.0978383728681969e-06,1.0006379982459644e-06,2.1173943030293813e-05
5.524038929347622e-07,1.0730416884929094e-06,1.0037206769938907e-06,2.132059831994884e-05
5.56279792308179e-07,1.0477278223333626e-06,1.006050612426533e-06,2.149196077537992e-05
5.599345543333704e-07,1.0219707649980726e-06,1.0075829020834092e-06,2.1686331617841947e-05
5.6334804618015e-07,9.95845617363168e-07,1.0082782981276e-06,2.190173405635156e-05
5.665033831079296e-07,9.694263656122265e-07,1.0081033244813971e-06,2.213591809544285e-05
5.693873817559253e-07,9.427840056777886e-07,1.0070308206642342e-06,2.238636185231633e-05
5.719884831589085e-07,9.159856698109108e-07,1.0050409434906393e-06,2.2650304914950824e-05
5.742940586362117e-07,8.890949140991537e-07,1.002120780673534e-06,2.2924802444224193e-05
5.762902788369165e-07,8.621720361673025e-07,9.982639875998249e-07,2.3206798689678065e-05
5.779646349749512e-07,8.352743063710671e-07,9.934720814033638e-07,2.349321684047995e-05
5.793071117245257e-07,8.084575504935869e-07,9.877549419371014e-07,2.3781021213440992e-05
5.803084400050193e-07,7.817780474984173e-07,9.811285139497645e-07,2.4067239582567068e-05
5.809588340708011e-07,7.55292064792929e-07,9.736120146670688e-07,2.434901179335718e-05
5.812491070001195e-07,7.290541072435695e-07,9.6522731020723e-07,2.4623711125332527e-05
5.811724293057411e-07,7.031172658099739e-07,9.560010161443322e-07,2.488908729067573e-05
5.80725861616173e-07,6.775356438284545e-07,9.45968096325094e-07,2.514333048021921e-05
5.799121599003265e-07,6.523657210246145e-07,9.351745741028879e-07,2.538500244298293e-05
5.787414252055056e-07,6.276643818917481e-07,9.236790406783001e-07,2.5612885769530482e-05
5.772312465103743e-07,6.034853415835122e-07,9.115524621018023e-07,2.582585467857593e-05
5.754041779288847e-07,5.798778305911227e-07,8.988734160014544e-07,2.602282299849376e-05
5.732838520463313e-07,5.568872170609667e-07,8.857204339376488e-07,2.6202745949946345e-05
5.708930649658869e-07,5.34554885289085e-07,8.721676042600313e-07,2.6364632440245983e-05
5.682547667833254e-07,5.129174759453132e-07,8.5828475011832e-07,2.650758673280647e-05
5.653944610097491e-07,4.920062748885941e-07,8.441384367961726e-07,2.6630916359062823e-05
5.623426480963483e-07,4.7184720733575175e-07,8.297918283505485e-07,2.673428106760333e-05
5.591351136291202e-07,4.524618147184625e-07,8.153037259313744e-07,2.681783487365099e-05
5.55809609998099e-07,4.3386944307931135e-07,8.007272666725588e-07,2.6882350011870677e-05
5.524017627476763e-07,4.1609212807196287e-07,7.86109696994891e-07,2.692932047503472e-05
5.489439154271216e-07,3.991608560846905e-07,7.71494656765192e-07,2.6960979304005896e-05
5.454658249948016e-07,3.831166781307247e-07,7.569252140490124e-07,2.698015744679809e-05
5.419938583536423e-07,3.68004169253525e-07,7.424461412827603e-07,2.6990013944533226e-05
5.385491414941922e-07,3.538648732547732e-07,7.281099595235523e-07,2.6993721656184867e-05
5.351478670392057e-07,3.407374254752592e-07,7.139889355845904e-07,2.699419640160343e-05
5.318044138608207e-07,3.286607199856896e-07,7.001842786078726e-07,2.6993944492694704e-05
5.285347562236579e-07,3.1767659005717694e-07,6.868227121038159e-07,2.699502638415729e-05
5.253588748657665e-07,3.078338810527849e-07,6.740405412340392e-07,2.6999101374561266e-05
5.223029315850057e-07,2.991904357462288e-07,6.619657482772188e-07,2.7007588655770403e-05
5.193994251276365e-07,2.91807278482117e-07,6.507110728782816e-07,2.702194939866981e-05
5.166834880241189e-07,2.857395230261525e-07,6.403780677311595e-07,2.704389276563878e-05
5.141905915891998e-07,2.810318285137539e-07,6.310603758495177e-07,2.7075292394345536e-05
5.119610728669018e-07,2.7771817323398943e-07,6.228423101680908e-07,2.711788764821886e-05
5.100470145967179e-07,2.758216815074883e-07,6.15796128121571e-07,2.7173007826059925e-05
5.085135079819643e-07,2.7535253416238153e-07,6.099775621641982e-07,2.7241502887611882e-05
5.07431473055431e-07,2.7630502393783977e-07,6.054216507875495e-07,2.732399442191165e-05
5.068662846342813e-07,2.7865601919604376e-07,6.021445354716241e-07,2.742134319429201e-05
5.068715232941021e-07,2.823657450198813e-07,6.001491229157073e-07,2.753498408099458e-05
5.074910761435947e-07,2.87380624850006e-07,5.99427374454761e-07,2.7666928884526123e-05
5.087622148856616e-07,2.936384242116716e-07,5.999601380196504e-07,2.7819558161920613e-05
5.107156683116125e-07,3.010756540327228e-07,6.017212042139253e-07,2.7995366284110687e-05
5.133758708116553e-07,3.096336023154061e-07,6.046847508506935e-07,2.8196737850002033e-05
5.167622984150573e-07,3.19258242459314e-07,6.088292667615465e-07,2.842580471759948e-05
5.208930986158202e-07,3.298960835856367e-07,6.141345197770178e-07,2.8684384080401667e-05
5.25790212326811e-07,3.4149151920260237e-07,6.20573667278604e-07,2.8973958480421806e-05
5.314775034026838e-07,3.539864978388573e-07,6.28107701074761e-07,2.9295668391742652e-05
5.37971539766641e-07,3.673213420566481e-07,6.36687263886681e-07,2.965028945178081e-05
5.452771444496361e-07,3.814365755413578e-07,6.462577842203567e-07,3.0038158330598387e-05
5.53391615991024e-07,3.962751281728794e-07,6.56763709145208e-07,3.045904493578382e-05
5.623084510247475e-07,4.1178438217315017e-07,6.681523617324554e-07,3.0912031183636875e-05
5.720148012543902e-07,4.2791648610238717e-07,6.803748166938549e-07,3.139546077642368e-05
5.824872372901828e-07,4.4462383227666933e-07,6.933802163347694e-07,3.190697390631202e-05
5.936902187836034e-07,4.6185190831767617e-07,7.07107626881857e-07,3.2443628498288665e-05
6.055763324441789e-07,4.795380434150218e-07,7.214827598876836e-07,3.300209233557499e-05
6.180879677831513e-07,4.976180818343257e-07,7.364209391263591e-07,3.3578840005371274e-05
6.311612596004426e-07,5.160322894171915e-07,7.518320146141472e-07,3.417030648006909e-05
6.4473100090827e-07,5.347255560910895e-07,7.676234446115553e-07,3.47729914695264e-05
6.58734595303845e-07,5.536464322798857e-07,7.837032084032919e-07,3.538350588905526e-05
6.731137161642068e-07,5.72746357945969e-07,7.999849150841887e-07,3.599856757754512e-05
6.878124838702077e-07,5.9197645798571e-07,8.163907065422438e-07,3.661498841820268e-05
7.027753059864681e-07,6.112848082651589e-07,8.328488227061e-07,3.722968965018888e-05
7.179496636087814e-07,6.306168061549328e-07,8.492896898361044e-07,3.7839718678001795e-05
7.332899994487402e-07,6.499158102499173e-07,8.656423129877856e-07,3.8442191981372825e-05
7.487575885330127e-07,6.691222198470678e-07,8.81830739447171e-07,3.903417116279255e-05
7.643225365512335e-07,6.881721734833481e-07,8.977735142526064e-07,3.9612589000142536e-05
7.799693116423136e-07,7.069981586164613e-07,9.133873780600989e-07,4.017427461665299e-05
7.956944644339318e-07,7.255328837487981e-07,9.285912415660359e-07,4.071600340584361e-05
8.114935617589792e-07,7.437139825463756e-07,9.43306278333206e-07,4.12345183934949e-05
8.273492752873615e-07,7.614867056736755e-07,9.574535177295755e-07,4.172653938047473e-05
8.432295325378719e-07,7.78805499095077e-07,9.709530973505822e-07,4.218878199712713e-05
8.59092161373568e-07,7.956338511615383e-07,9.837271552243042e-07,4.2617995164819564e-05
8.748885901462662e-07,8.119398987914593e-07,9.957050959548442e-07,4.301101086231989e-05
8.905642284334215e-07,8.276915200060653e-07,1.0068263614567787e-06,4.3364789730696663e-05
9.060581443756133e-07,8.428564223374326e-07,1.0170379245976424e-06,4.367647675192229e-05
9.213050910079089e-07,8.574055835138405e-07,1.0262906464606906e-06,4.3943514631621785e-05
9.362410096089331e-07,8.713155397405466e-07,1.0345396342976575e-06,4.416382641613335e-05
9.508120594947836e-07,8.845676615891121e-07,1.0417483087799914e-06,4.433596495020627e-05
9.649819927356957e-07,8.971450547367729e-07,1.047891388459321e-06,4.445908077232324e-05
9.78728757928785e-07,9.090303053523165e-07,1.0529534966156477e-06,4.453272915460941e-05
9.920322183215663e-07,9.202061449691929e-07,1.0569249729693442e-06,4.4556710869584116e-05
1.004865054715138e-06,9.306561659734104e-07,1.05979931803609e-06,4.453105719409637e-05
1.017191640311395e-06,9.403637954268488e-07,1.0615745811242724e-06,4.445608776413501e-05
1.0289713591938685e-06,9.49311541410844e-07,1.0622555267823662e-06,4.433244118773073e-05
1.0401625639624093e-06,9.574806922358824e-07,1.0618528481623743e-06,4.4161035591546745e-05
1.0507238011088742e-06,9.648509139659257e-07,1.0603802944509279e-06,4.394300025362525e-05
1.0606121241854252e-06,9.714007075976178e-07,1.0578527939654543e-06,4.367973234498406e-05
1.069782261947798e-06,9.771098309775559e-07,1.0542866629321163e-06,4.3373084028606345e-05
1.0781884674066354e-06,9.8196451532091e-07,1.0497009462147863e-06,4.302542717972563e-05
1.0857875235800041e-06,9.85962146920084e-07,1.0441199245013359e-06,4.2639503465141826e-05
1.092542372568918e-06,9.891106094794755e-07,1.0375771402154728e-06,4.221822099418214e-05
1.098426806471103e-06,9.914240029594706e-07,1.0301192627914145e-06,4.176450226575213e-05
1.1034282770353669e-06,9.929190544932577e-07,1.0218061519212077e-06,4.128123617402014e-05
1.1075469801185932e-06,9.936147081958595e-07,1.0127045905517289e-06,4.077141561696947e-05
1.1107934954587959e-06,9.935356136293194e-07,1.0028795201785857e-06,4.0238367159834704e-05
1.1131848932849192e-06,9.92714322658858e-07,9.923894910717457e-07,3.968582102062661e-05
1.1147391698339554e-06,9.911877665746685e-07,9.812867658946042e-07,3.911778059432968e-05
1.1154713822171595e-06,9.889927043304608e-07,9.696183551990775e-07,3.853835963027005e-05
1.11539363638254e-06,9.86163415371771e-07,9.574268746999872e-07,3.79516730916976e-05
1.1145185181610302e-06,9.827293751785567e-07,9.447517183489269e-07,3.736176392543923e-05
1.1128641187779591e-06,9.787137353635963e-07,9.31630813775547e-07,3.6772530476564056e-05
1.1104565747869531e-06,9.741344760590941e-07,9.181034539876007e-07,3.618763717982552e-05
1.1073269535137666e-06,9.690064034079321e-07,9.042132841597164e-07,3.561043571571632e-05
1.1035055528196938e-06,9.633422355812128e-07,8.900104238468323e-07,3.504391662664165e-05
1.0990188087132911e-06,9.571531650370346e-07,8.755538541023506e-07,3.4490647291061805e-05
1.0938890812546273e-06,9.504497210674476e-07,8.609135568184496e-07,3.395267418149554e-05
1.0881354965153042e-06,9.432430734788708e-07,8.461694021536515e-07,3.3431459113561356e-05
1.081776130181852e-06,9.355459055303616e-07,8.314051597117327e-07,3.2927901696315025e-05
1.0748322110697444e-06,9.273727033821078e-07,8.167001625867066e-07,3.2442422968739594e-05
1.0673346565836104e-06,9.187395692631088e-07,8.021245222729428e-07,3.197510060891818e-05
1.0593303009276101e-06,9.09663275420912e-07,7.877391808847397e-07,3.1525865143738286e-05
1.0508807255189144e-06,9.001614389217314e-07,7.735961141622299e-07,3.109469950045826e-05
1.0420547649552592e-06,8.902554692300142e-07,7.597372493262213e-07,3.068176987852311e-05
1.032925288124372e-06,8.799734385767916e-07,7.461952707194187e-07,3.028749088464121e-05
1.0235711833382721e-06,8.693487469136628e-07,7.329977727861667e-07,2.9912547468420367e-05
1.0140760281338378e-06,8.584156687459336e-07,7.201717560827635e-07,2.9557857909475646e-05
1.004523279210742e-06,8.472069006733735e-07,7.077455054654819e-07,2.9224459947773736e-05
9.949963854427038e-07,8.357543809508527e-07,6.957487143404317e-07,2.8913337854760467e-05
9.855824365209902e-07,8.240899805952888e-07,6.842111381099807e-07,2.862524484846955e-05
9.763678542015752e-07,8.122452092366756e-07,6.731596797187752e-07,2.836060613596681e-05
9.674276170657115e-07,8.002517494086535e-07,6.6261753505344e-07,2.81195638186464e-05
9.588203035515742e-07,7.881414512001045e-07,6.526060180189411e-07,2.7902094068988342e-05
9.5059047466208e-07,7.759444798210524e-07,6.431441808752752e-07,2.7708068212555683e-05
9.427727245000893e-07,7.636887173820371e-07,6.342460427230095e-07,2.753725450263661e-05
9.353958968372795e-07,7.51402209492786e-07,6.259197307342035e-07,2.738933480651751e-05
9.284859993902664e-07,7.391153146539878e-07,6.18168273344939e-07,2.7263951966992777e-05
9.22064760961844e-07,7.268590575811235e-07,6.109898614818503e-07,2.716073708755716e-05
9.161455402419745e-07,7.146613964568949e-07,6.043790611593753e-07,2.7079270550237947e-05
9.107318339350607e-07,7.025456188458764e-07,5.983299180129124e-07,2.701901135085337e-05
9.058207204435123e-07,6.905317557626229e-07,5.928382392172236e-07,2.6979245911819266e-05
9.014080605208124e-07,6.786394364677787e-07,5.87900739269691e-07,2.695905966602992e-05
8.974890147812237e-07,6.668906137987101e-07,5.835120438226521e-07,2.6957360895005523e-05
8.940534397179605e-07,6.553100289019535e-07,5.796627553299993e-07,2.6972976306283704e-05
8.910838545574715e-07,6.439225037102718e-07,5.76339911831286e-07,2.700477029305964e-05
8.88558672114776e-07,6.327494460446629e-07,5.735280853244217e-07,2.705173595298589e-05
8.864544363211857e-07,6.218075578886098e-07,5.712111761404061e-07,2.711300656392193e-05
8.847439103299587e-07,6.111099028184502e-07,5.693754358871279e-07,2.718776128700761e-05
8.833934674268251e-07,6.006670113181095e-07,5.680114843584056e-07,2.7275083136770284e-05
8.823623287642694e-07,5.904869850225642e-07,5.671147269939596e-07,2.7373851210151088e-05
8.816039911554684e-07,5.805757294574435e-07,5.666845653271936e-07,2.7482702339072905e-05
8.810708551092131e-07,5.709371643157252e-07,5.667214128204868e-07,2.7600060627249403e-05
8.807218472034287e-07,5.615733706394532e-07,5.672223795138944e-07,2.772424187439787e-05
8.805284182764146e-07,5.524871118687279e-07,5.681781829250826e-07,2.785366329875652e-05
8.80473342669778e-07,5.436868102150073e-07,5.695739332875205e-07,2.7987084181077123e-05
8.805433522729679e-07,5.351901551302532e-07,5.713937751252493e-07,2.812367065466e-05
8.807233931831562e-07,5.270246596760336e-07,5.736240536935754e-07,2.826281926828925e-05
8.80997877895248e-07,5.192259287730549e-07,5.762510030561906e-07,2.840393973582059e-05
8.813556220037248e-07,5.118336174234104e-07,5.792560581029271e-07,2.8546461135916088e-05
8.817916267519282e-07,5.048863860467718e-07,5.826143110211242e-07,2.8690077702836463e-05
8.823035875530451e-07,4.984181907683506e-07,5.862969222453872e-07,2.8834958681763147e-05
8.82887326969048e-07,4.92458035693441e-07,5.902746334505984e-07,2.8981761881624432e-05
8.835350627891571e-07,4.870342543841903e-07,5.945241171580572e-07,2.913153461682365e-05
8.842349464537041e-07,4.821788330513226e-07,5.990382779318201e-07,2.9285575538113307e-05
8.84970109110401e-07,4.779253553953232e-07,6.038321263815925e-07,2.9445287955006787e-05
8.857182734527441e-07,4.743020249350722e-07,6.089386166809989e-07,2.9612044034894397e-05
8.864525290179023e-07,4.7132760711477823e-07,6.14399398536521e-07,2.978703754769391e-05
8.871435601931338e-07,4.6901467483121593e-07,6.202561554045957e-07,2.997111757107933e-05
8.877620415384704e-07,4.673762885120495e-07,6.265435738464366e-07,3.0164645254356688e-05
8.882785509766941e-07,4.66428477914084e-07,6.332833789603695e-07,3.036742422734483e-05
8.886622648215769e-07,4.661885662019697e-07,6.404805293016313e-07,3.057872299732793e-05
8.888817904007984e-07,4.6667757101871776e-07,6.481225112265179e-07,3.079737788487586e-05
8.889090340247996e-07,4.6792671562692077e-07,6.561804746070815e-07,3.1021940774492346e-05
8.887233415247233e-07,4.6997758337645246e-07,6.646113311110518e-07,3.1250819905736906e-05
8.883107079287572e-07,4.728723200782459e-07,6.733617336655402e-07,3.148240836237335e-05
8.876583943911451e-07,4.7664203853634517e-07,6.823745144417322e-07,3.171522774231153e-05
8.867506712988815e-07,4.813006844603665e-07,6.915948259476761e-07,3.1948053709953165e-05
8.855675320631754e-07,4.868445543004172e-07,7.009724018621239e-07,3.217997158452384e-05
8.840851411512336e-07,4.932568208052026e-07,7.104612554003316e-07,3.241036018941825e-05
8.822773831212307e-07,5.005161460605248e-07,7.20020573303037e-07,3.2638822490786736e-05
