4.97036834835881e-07,1.2515953072100703e-06,1.5908632701321526e-06,2.5946634364657048e-05
5.017031033145995e-07,1.2471603053769724e-06,1.5860877955262699e-06,2.5956564520913692e-05
5.066335440839733e-07,1.2418275170060308e-06,1.580015277611529e-06,2.595959794043064e-05
5.11797373438501e-07,1.2356001174630271e-06,1.5726622006428596e-06,2.5955654588555043e-05
5.171579115389413e-07,1.228483924696348e-06,1.5640524306377898e-06,2.594488126414816e-05
5.226732391926465e-07,1.2204892195167174e-06,1.5542203640762252e-06,2.592793142672349e-05
5.282980216685805e-07,1.2116339469809108e-06,1.5432122267424314e-06,2.5906044779345653e-05
5.33985969210925e-07,1.2019465069367969e-06,1.5310834625669026e-06,2.5880925970804142e-05
5.396916532655239e-07,1.1914665622005397e-06,1.5178929293523303e-06,2.5854572750775352e-05
5.453702950396955e-07,1.1802427028725706e-06,1.5036981243685337e-06,2.5829111701630397e-05
5.509761715768131e-07,1.1683288303181628e-06,1.488556084627281e-06,2.580663224463476e-05
5.564620310536058e-07,1.1557825754748691e-06,1.4725297540054858e-06,2.5789028614744346e-05
5.617801600041669e-07,1.1426647580899157e-06,1.4556921762296229e-06,2.577786949316513e-05
5.668837906078181e-07,1.1290386648590428e-06,1.4381245681039022e-06,2.577430840399828e-05
5.717279078456547e-07,1.114969228554826e-06,1.4199116986812815e-06,2.5779037914841397e-05
5.762694599067641e-07,1.1005223826112115e-06,1.4011363437948663e-06,2.579228812863761e-05
5.804671574100304e-07,1.0857667641345005e-06,1.3818742584439713e-06,2.5813864201046504e-05
5.842812729664807e-07,1.0707775600244658e-06,1.362192638047327e-06,2.5843193005659438e-05
5.876744806235587e-07,1.0556387419298712e-06,1.3421528468529136e-06,2.587936129445597e-05
5.906142353424294e-07,1.0404414674026498e-06,1.3218158805605287e-06,2.592117866255808e-05
5.93074536913906e-07,1.0252784463016559e-06,1.3012470407550328e-06,2.596729684483796e-05
5.95034766636726e-07,1.010236142328713e-06,1.2805157489693098e-06,2.601635873563737e-05
5.964781390128614e-07,9.95389863465182e-07,1.2596899384833711e-06,2.6067115297318506e-05
5.973931563563365e-07,9.808043872599302e-07,1.2388305992784784e-06,2.6118483420930483e-05
5.977757907734381e-07,9.665376734517296e-07,1.2179928990097817e-06,2.616957559470141e-05
5.976296476842701e-07,9.526443018801909e-07,1.1972332356776769e-06,2.6219722876317068e-05
5.969655964185661e-07,9.391755994253484e-07,1.176615708640641e-06,2.626847278405969e-05
5.958011769601897e-07,9.261762414127794e-07,1.1562117621198672e-06,2.631555468246033e-05
5.941592209561637e-07,9.136814317259224e-07,1.1360929131262348e-06,2.636082933113692e-05
5.92066713564901e-07,9.017184570601785e-07,1.11632427107015e-06,2.6404230257184328e-05
5.895525327544871e-07,8.90311607395702e-07,1.096965800025008e-06,2.644569494387186e-05
5.866438892004861e-07,8.794846579351111e-07,1.0780799037629958e-06,2.6485086924429543e-05
5.833651417958622e-07,8.692579099229952e-07,1.0597389907037228e-06,2.652212620871413e-05
5.797401396411477e-07,8.596438714096605e-07,1.0420270638394992e-06,2.655638140809156e-05
5.75796571178271e-07,8.506457381677149e-07,1.02503276909789e-06,2.658732507173963e-05
5.715693616056129e-07,8.422582907481409e-07,1.0088391938211251e-06,2.6614360114664254e-05
5.670989037895631e-07,8.34469146116333e-07,9.935211142831155e-07,2.663678625467821e-05
5.624257851344106e-07,8.272601165167788e-07,9.791509614427329e-07,2.6653765178304504e-05
5.575889716370492e-07,8.206097199981945e-07,9.658016895107802e-07,2.6664340451563504e-05
5.526289053678185e-07,8.14495333044496e-07,9.53540011217724e-07,2.6667535014178946e-05
5.47590784028929e-07,8.088921547463052e-07,9.424171389161757e-07,2.6662459871917693e-05
5.425242731111459e-07,8.037703658928205e-07,9.324650183721865e-07,2.664832975614931e-05
5.374795822106489e-07,7.990944628349707e-07,9.236972314808977e-07,2.6624395141440108e-05
5.325036264720322e-07,7.948253269565005e-07,9.161099438870315e-07,2.658989193675096e-05
5.276394621478815e-07,7.909223633690951e-07,9.096824936811028e-07,2.654406802484664e-05
5.229278987865764e-07,7.873444591604998e-07,9.043796737018299e-07,2.648628279152834e-05
5.184089882385487e-07,7.840508209689313e-07,9.001555629307678e-07,2.64161384042236e-05
5.141212491315583e-07,7.810020215780112e-07,8.969574515227917e-07,2.633354813069949e-05
5.1009833611397e-07,7.781610326031027e-07,8.947288135178133e-07,2.6238668067155065e-05
5.063668832961828e-07,7.754950220626116e-07,8.934105859384815e-07,2.6131739209644885e-05
5.029482889874264e-07,7.729778948557698e-07,8.929413711205351e-07,2.601295959973244e-05
4.9986224465753e-07,7.705922651051341e-07,8.93259602552896e-07,2.5882449128417112e-05
4.971284544780594e-07,7.683291234712396e-07,8.94308970446022e-07,2.5740263438381485e-05
4.947656031222822e-07,7.66184209667896e-07,8.9604378654485e-07,2.5586402650099788e-05
4.92789057532133e-07,7.641528734316774e-07,8.984300447057577e-07,2.542085646836928e-05
4.912107103787783e-07,7.622261401180393e-07,9.014401762700904e-07,2.5243773993684274e-05
4.900427641243417e-07,7.603888030321503e-07,9.050442886529621e-07,2.5055701206443685e-05
4.893005084991685e-07,7.586192932793744e-07,9.092046333102495e-07,2.4857663915275705e-05
4.88999625042519e-07,7.568913922139035e-07,9.138756853085888e-07,2.465099564473342e-05
4.891528190676128e-07,7.551778514168838e-07,9.190067663854494e-07,2.4437060995193952e-05
4.89770088665556e-07,7.534547345273714e-07,9.24545908900322e-07,2.421706723341061e-05
4.908587429718818e-07,7.517046996593302e-07,9.304437851054588e-07,2.3992070264779848e-05
4.924213816038525e-07,7.49918850255448e-07,9.36654516383938e-07,2.376321748766246e-05
4.944544110478461e-07,7.48097182129125e-07,9.431330807715073e-07,2.3532094233830155e-05
4.969473436292468e-07,7.462461590677658e-07,9.498331082148953e-07,2.3300883920761208e-05
4.998842670972848e-07,7.443729372960245e-07,9.5671003355672e-07,2.307224214765809e-05
5.032485909395667e-07,7.424796937577881e-07,9.637293331001512e-07,2.2849050144265314e-05
5.070258982606505e-07,7.405617576774433e-07,9.708728845146254e-07,2.2634198549114067e-05
5.112016081014547e-07,7.386086898831942e-07,9.781390184320835e-07,2.243042429770402e-05
5.157577350906602e-07,7.366057480299853e-07,9.855375763580436e-07,2.224017788442429e-05
5.206719610622536e-07,7.345362072155056e-07,9.930832796218406e-07,2.206551846508745e-05
5.259178199628701e-07,7.323851832853144e-07,1.0007905198688246e-06,2.1908048635522666e-05
5.314661971916127e-07,7.301424367408832e-07,1.0086707486056978e-06,2.176890573682702e-05
5.372884685418212e-07,7.278029381572742e-07,1.0167312582958955e-06,2.1648809990891088e-05
5.43357555879295e-07,7.253659797350368e-07,1.0249729639440167e-06,2.1548110378146728e-05
5.496454246310405e-07,7.228321209483002e-07,1.0333866838296586e-06,2.1466780260887108e-05
5.561210212503361e-07,7.201996015040705e-07,1.0419506693658691e-06,2.1404415322279413e-05
5.627499289041532e-07,7.174649739266459e-07,1.0506322737304522e-06,2.1360300610292483e-05
5.694937626192774e-07,7.146279346740738e-07,1.0593938995053868e-06,2.1333529328491585e-05
5.763096176170333e-07,7.116939010618346e-07,1.0682011848845769e-06,2.1323123885005318e-05
5.831502705068361e-07,7.086708746200002e-07,1.0770300100590071e-06,2.1328129104562368e-05
5.899660892434494e-07,7.055651426676146e-07,1.0858678354745218e-06,2.134766126791483e-05
5.967112117170975e-07,7.02380020721399e-07,1.094707672957609e-06,2.138092900916309e-05
6.03352725747951e-07,6.991160443066409e-07,1.1035384257437109e-06,2.1427253691846163e-05
6.098762916871675e-07,6.957711437474065e-07,1.1123381087036748e-06,2.148606763709633e-05
6.162835273113183e-07,6.92343049221428e-07,1.1210737796371617e-06,2.155685917881547e-05
6.225827595760531e-07,6.888350463922623e-07,1.1297051245311268e-06,2.1639096303644896e-05
6.287790247621818e-07,6.852617157233266e-07,1.1381864100752769e-06,2.1732156640515657e-05
6.348687631270727e-07,6.816500070422328e-07,1.1464673851026287e-06,2.1835244374124205e-05
6.408402811887552e-07,6.780335646513321e-07,1.1544966385510223e-06,2.1947327667777787e-05
6.46677469076956e-07,6.744448322781795e-07,1.1622249267893314e-06,2.206715396248604e-05
6.523637048586243e-07,6.709128983589195e-07,1.1696035014737014e-06,2.219330843278132e-05
6.578839609262993e-07,6.674667513879841e-07,1.1765804951046378e-06,2.232426129485643e-05
6.632251657006259e-07,6.64137677099041e-07,1.183101506246449e-06,2.2458423660652625e-05
6.683763573586398e-07,6.60959281241915e-07,1.1891130921746358e-06,2.259423705100278e-05
6.733288301507072e-07,6.579656887497564e-07,1.194566530553226e-06,2.2730235293584286e-05
6.78075215356089e-07,6.551874753739021e-07,1.1994232820649794e-06,2.286500350450303e-05
6.826088914918213e-07,6.526481405705559e-07,1.2036587274312936e-06,2.2997081383730186e-05
6.869253273282147e-07,6.503631488233759e-07,1.2072581838343492e-06,2.3124917845619947e-05
6.9102363370037e-07,6.483390903078015e-07,1.2102097762200534e-06,2.32469062545142e-05
6.949072406966182e-07,6.465733561512318e-07,1.2125031824171474e-06,2.3361472567402967e-05
6.985833312889722e-07,6.450581306521103e-07,1.214134404033183e-06,2.3467200319648968e-05
7.020600270682221e-07,6.437879081803199e-07,1.2151117366576887e-06,2.356295523776655e-05
7.053440064664217e-07,6.427638524097505e-07,1.2154590838426377e-06,2.3647906644847485e-05
7.084404397696514e-07,6.419907133987679e-07,1.2152139425706622e-06,2.3721405379274266e-05
7.113524463195981e-07,6.414708496754725e-07,1.2144212052714388e-06,2.3782852705296828e-05
7.140794934512509e-07,6.412018746552575e-07,1.2131261545319556e-06,2.383167161044637e-05
7.166163687804474e-07,6.411775717982322e-07,1.2113684225277936e-06,2.3867321118059105e-05
7.189528289081106e-07,6.413885278781165e-07,1.2091781656981026e-06,2.3889296762244743e-05
7.210742792629447e-07,6.418227507247906e-07,1.206576195929e-06,2.389713421714389e-05
7.22965462229308e-07,6.424687096755925e-07,1.2035782931289029e-06,2.389042173101156e-05
7.24618038583965e-07,6.433200229482581e-07,1.2001997487195449e-06,2.3868875281138024e-05
7.260379242996745e-07,6.443770990643344e-07,1.1964551553927558e-06,2.383253662238881e-05
7.272459410337423e-07,6.456426973998721e-07,1.1923547348850922e-06,2.3781952856282685e-05
7.282710456099326e-07,6.471153290105282e-07,1.1879025484367713e-06,2.371814025147279e-05
7.291422442677998e-07,6.487869470268989e-07,1.1830978022013342e-06,2.364237983554379e-05
7.298842083640434e-07,6.506462539667248e-07,1.177937934576554e-06,2.3556001610205505e-05
7.305167417943531e-07,6.526830916640937e-07,1.172424817953823e-06,2.3460243067767678e-05
7.31056067109177e-07,6.548890937576365e-07,1.1665748663080903e-06,2.335628743893685e-05
7.315156211108437e-07,6.572556279420973e-07,1.1604290630137823e-06,2.324549301740917e-05
7.319052959430924e-07,6.597727350952423e-07,1.1540577351032931e-06,2.3129581786883936e-05
7.322296977100796e-07,6.624288836603485e-07,1.1475588138575142e-06,2.3010602936405106e-05
7.324870671542616e-07,6.652097934051079e-07,1.1410503771908556e-06,2.289075807424776e-05
7.326701226376926e-07,6.680979390551482e-07,1.134658015294591e-06,2.277223851418725e-05
7.327684635539283e-07,6.710751743831057e-07,1.1285026819524851e-06,2.2657112000338518e-05
7.327714511589668e-07,6.741261692515506e-07,1.1226992556217593e-06,2.254723986757585e-05
7.326706098772826e-07,6.772381355978075e-07,1.1173657275676952e-06,2.2444218127387698e-05
7.324608013318436e-07,6.803971596637914e-07,1.1126300764592964e-06,2.234933722340505e-05
7.321404802468039e-07,6.83586598797481e-07,1.108626555628919e-06,2.2263551336336327e-05
7.317135913882447e-07,6.867905583539394e-07,1.1054851549822986e-06,2.218746377275536e-05
7.311919662434666e-07,6.899981314736053e-07,1.1033202087214395e-06,2.212132834980896e-05
7.305919475675666e-07,6.932036827559195e-07,1.1022204457282835e-06,2.20650516262746e-05
7.299273625781194e-07,6.964039477395524e-07,1.1022429299920376e-06,2.201820875357932e-05
7.292073281528776e-07,6.995938635363035e-07,1.1034133588760524e-06,2.1980102530634132e-05
7.284379548454365e-07,7.027633046448141e-07,1.1057322506816379e-06,2.1949856853581838e-05
7.276225533286152e-07,7.058979371859187e-07,1.1091843986508492e-06,2.1926508967961083e-05
7.26760557209115e-07,7.08982581519647e-07,1.1137468889344794e-06,2.1909077082936398e-05
7.258467620575263e-07,7.120020759960056e-07,1.119392109442104e-06,2.1896599850310426e-05
7.248713761573691e-07,7.149394976200456e-07,1.1260861264667069e-06,2.1888166618635733e-05
7.238220625196316e-07,7.17774690194093e-07,1.13378418701427e-06,2.1882947710342533e-05
7.226888987472233e-07,7.204836079956633e-07,1.142427693223927e-06,2.1880200558422765e-05
7.214715277968944e-07,7.23038211406248e-07,1.1519492587554156e-06,2.187924442674603e-05
7.201841872760101e-07,7.254076489297888e-07,1.1622860204626972e-06,2.1879427966848624e-05
7.188533077545681e-07,7.275599175415365e-07,1.1733925950744114e-06,2.188009192047325e-05
7.17509234807519e-07,7.294622141833057e-07,1.1852451103613786e-06,2.1880528706630333e-05
7.161791263639553e-07,7.310819633029429e-07,1.1978338520278015e-06,2.188000259234876e-05
7.148843580184444e-07,7.323919596019133e-07,1.2111482096306804e-06,2.187785251632861e-05
7.136408456538292e-07,7.333768456130228e-07,1.2251623348218963e-06,2.187357065726655e-05
7.124598752407298e-07,7.340357402748662e-07,1.2398304779649991e-06,2.1866789816144267e-05
7.113478245128649e-07,7.343810105287953e-07,1.2550939500075269e-06,2.185724267179032e-05
7.103046509290546e-07,7.344340961338248e-07,1.2708914077380614e-06,2.1844753172869625e-05
7.093228208218635e-07,7.342196685550049e-07,1.2871636909669249e-06,2.182923711283317e-05
7.083885010686861e-07,7.337639012497014e-07,1.3038538950084115e-06,2.181065432642562e-05
7.074841599673769e-07,7.330992704665769e-07,1.3209063128100377e-06,2.178892125413569e-05
7.065908300611272e-07,7.322703171970532e-07,1.338263468865889e-06,2.1763859268026918e-05
7.056900014971124e-07,7.313346143527267e-07,1.355861804546585e-06,2.173521071342049e-05
7.047646585678848e-07,7.303578947371498e-07,1.3736291250730049e-06,2.1702701825347986e-05
7.037996790307197e-07,7.294058691381673e-07,1.3914837272432063e-06,2.166615378673975e-05
7.02783432643806e-07,7.285365953815555e-07,1.409335269567461e-06,2.162563576368942e-05
7.017089613150318e-07,7.277961633797617e-07,1.4270891593555804e-06,2.158156491595716e-05
7.005718747585344e-07,7.272172827012588e-07,1.4446524847156085e-06,2.1534651263001238e-05
6.993670317924779e-07,7.268188509278858e-07,1.461937843669617e-06,2.1485711760781453e-05
6.98087207811951e-07,7.266065454834519e-07,1.478864295529669e-06,2.143545719229397e-05
6.967240727120652e-07,7.265750709441189e-07,1.4953557948601715e-06,2.1384343483383663e-05
6.952705698254496e-07,7.267109910429937e-07,1.511336825792951e-06,2.133252964053275e-05
6.937225716700622e-07,7.269945814726641e-07,1.5267277872190368e-06,2.1279909396323542e-05
6.920774214052421e-07,7.274006670647718e-07,1.5414447630831069e-06,2.1226172032207307e-05
6.903305229823312e-07,7.279007178006471e-07,1.555402543319086e-06,2.117093909519256e-05
6.884734829118491e-07,7.284682898916964e-07,1.5685170599854966e-06,2.1114034118921336e-05
6.864946362527553e-07,7.290856388284437e-07,1.5807088736231755e-06,2.1055738252135697e-05
6.843815835965232e-07,7.297463349604691e-07,1.5919085613420548e-06,2.099680687240248e-05
6.821263652093084e-07,7.304527718569355e-07,1.6020589436384468e-06,2.093829194789145e-05
6.797299238607651e-07,7.312125962855848e-07,1.6111116036660084e-06,2.088136302981586e-05
6.772000215172348e-07,7.320357514027884e-07,1.6190229490681775e-06,2.082718219992153e-05
6.745443473220931e-07,7.329306182732488e-07,1.6257565585029666e-06,2.0776862507912035e-05
6.717658581350437e-07,7.338999891457005e-07,1.631291017311054e-06,2.0731568896185543e-05
6.68862776689921e-07,7.349387904881016e-07,1.6356257299255109e-06,2.069266213354544e-05
6.658314465888799e-07,7.360337795352689e-07,1.6387797966837655e-06,2.0661723218279058e-05
6.626693919959007e-07,7.371644393799094e-07,1.640784388970289e-06,2.0640474171510865e-05
6.593760442674621e-07,7.383047952933151e-07,1.641672674619421e-06,2.06306947695899e-05
6.55951390395031e-07,7.394266274234322e-07,1.6414750494244326e-06,2.0634149921357453e-05
6.523952682549294e-07,7.405027517093103e-07,1.6402243913605926e-06,2.0652510958102585e-05
6.487082108586636e-07,7.41508195548853e-07,1.637966372772144e-06,2.0687291441890258e-05
6.448921775956728e-07,7.424192331287938e-07,1.6347650976895832e-06,2.073981348712264e-05
6.409498349490214e-07,7.432114111289636e-07,1.6306983913825373e-06,2.0811195046390525e-05
6.368835651282287e-07,7.43858093350213e-07,1.6258457392370085e-06,2.090234720487139e-05
6.326977856308931e-07,7.443302654474119e-07,1.6202775177647272e-06,2.1013950729974382e-05
6.284041545489304e-07,7.445977480251466e-07,1.6140523818113687e-06,2.1146385967814814e-05
6.240228193724084e-07,7.446318383530046e-07,1.6072224676847185e-06,2.1299651484313237e-05
6.195788694541453e-07,7.444068390923906e-07,1.5998393436831048e-06,2.147331680266997e-05
6.151005070690172e-07,7.438990025018094e-07,1.5919544979258176e-06,2.16665081327034e-05
6.106178490418647e-07,7.430853209658906e-07,1.5836150448722514e-06,2.1877920556636986e-05
6.061590002716101e-07,7.419433454410441e-07,1.5748598747897431e-06,2.21058802056394e-05
6.017484010112548e-07,7.404519902897021e-07,1.5657200489579466e-06,2.2348465034885237e-05
5.974089945862979e-07,7.385940405672802e-07,1.5562229232029638e-06,2.260364356897465e-05
5.931630130680809e-07,7.363592496699596e-07,1.5463960950626102e-06,2.2869390096198515e-05
5.890297271495045e-07,7.33745316918428e-07,1.5362678069483897e-06,2.3143756347209413e-05
5.850228235764382e-07,7.307551879084804e-07,1.5258643735414998e-06,2.3424889515004102e-05
5.811501359254971e-07,7.273926605120759e-07,1.5152070931302126e-06,2.3711026542284406e-05
5.774157245076175e-07,7.23660309050894e-07,1.5043103013639503e-06,2.4000507163165184e-05
5.738227483354646e-07,7.19560640907228e-07,1.4931815175501974e-06,2.4291772536307903e-05
5.703763458120807e-07,7.150981540631816e-07,1.4818226861740872e-06,2.4583283948274146e-05
5.67085788350114e-07,7.102802141389477e-07,1.4702300081473572e-06,2.4873396431674384e-05
5.639661251448609e-07,7.051165112956662e-07,1.4583929164914058e-06,2.516028344086677e-05
5.610402012323456e-07,6.996183832018922e-07,1.4462953388327876e-06,2.544194395975668e-05
5.583397068830229e-07,6.937986627013086e-07,1.4339207426257848e-06,2.571627836950828e-05
5.559031156830812e-07,6.876713777294202e-07,1.421260084227356e-06,2.5981213175907432e-05
5.537704890625006e-07,6.812517312214382e-07,1.4083185034044597e-06,2.6234813157990453e-05
5.519771747884789e-07,6.745571251944347e-07,1.3951161240606487e-06,2.6475299722432244e-05
5.505491349776128e-07,6.676075284510364e-07,1.3816831612820216e-06,2.6700974589391423e-05
5.495009292859853e-07,6.604244845132551e-07,1.3680529505676837e-06,2.6910153321157323e-05
5.488357365626079e-07,6.530311588114383e-07,1.3542563997689954e-06,2.7101193280102813e-05
5.485473029897946e-07,6.454542933002372e-07,1.3403195729579226e-06,2.7272599719990837e-05
5.486229876407819e-07,6.377266024814179e-07,1.3262642914532106e-06,2.742317108383291e-05
5.490458951863388e-07,6.29887618871273e-07,1.312109573325968e-06,2.7552165267433856e-05
5.497958216989292e-07,6.219808064684468e-07,1.2978708107971572e-06,2.7659411566091853e-05
5.508511836185112e-07,6.140496958224292e-07,1.283557642280947e-06,2.7745258920272595e-05
5.521926132998982e-07,6.061409664697295e-07,1.269173466085887e-06,2.781036729764969e-05
5.53804481192849e-07,5.983139178274465e-07,1.2547159968930292e-06,2.7855457754298784e-05
5.556714960072553e-07,5.90644381552204e-07,1.2401775785532783e-06,2.7881119805043605e-05
5.577753266399039e-07,5.832167775207111e-07,1.2255462015389384e-06,2.788772686181728e-05
5.600980522957525e-07,5.761111550399625e-07,1.2108082300245336e-06,2.7875454837563666e-05
5.62628646104317e-07,5.693952152041399e-07,1.195952401189158e-06,2.7844351206383928e-05
5.653625052101977e-07,5.631249318288169e-07,1.1809735124686822e-06,2.779446571902719e-05
5.682947077959906e-07,5.573503141874114e-07,1.1658741659577504e-06,2.7726101930289172e-05
5.714161981906165e-07,5.521204654720738e-07,1.150665529199983e-06,2.7640047138450647e-05
5.747142850752286e-07,5.474838990478743e-07,1.1353694782139288e-06,2.753753502710592e-05
5.78172631047959e-07,5.434843068315369e-07,1.1200204798794605e-06,2.742000004722976e-05
5.817709978924807e-07,5.401555294519239e-07,1.1046635450013849e-06,2.728886029989238e-05
5.854866892672238e-07,5.375193283806094e-07,1.0893480822848341e-06,2.7145417968125275e-05
5.89295522577371e-07,5.355860739432999e-07,1.0741201651444462e-06,2.699093456092067e-05
5.931709552737985e-07,5.34356341578578e-07,1.059016597617152e-06,2.6826919073653548e-05
5.970827822398933e-07,5.33823461482492e-07,1.0440636219028231e-06,2.6655420466215368e-05
6.009967461894907e-07,5.339773998800117e-07,1.0292811316606216e-06,2.647905620556828e-05
6.048758338264114e-07,5.348078322456011e-07,1.0146898565359743e-06,2.630081229915465e-05
6.086831059974422e-07,5.36304401847929e-07,1.0003145362954516e-06,2.61238224055927e-05
6.123861695369548e-07,5.384544570780571e-07,9.861801934151442e-07,2.5951218084505068e-05
6.159623015827876e-07,5.412402613598946e-07,9.7230979511787e-07,2.578602059464519e-05
6.193999726356294e-07,5.446377672475667e-07,9.587313906836839e-07,2.5631014353189043e-05
6.226950512240207e-07,5.486165861108542e-07,9.454903269519369e-07,2.54885929967743e-05
6.258452292964879e-07,5.531390854630624e-07,9.326551076506636e-07,2.536064295802555e-05
6.288458198601402e-07,5.581593687873371e-07,9.203135329056446e-07,2.5248503579911765e-05
6.316880570746327e-07,5.636241581735569e-07,9.085676411869728e-07,2.515296124291065e-05
6.343617572259046e-07,5.694743902828303e-07,8.975331530362366e-07,2.5074247531237533e-05
6.368616328592141e-07,5.756460662506282e-07,8.873375648390493e-07,2.5012066184848377e-05
6.391915562602567e-07,5.820719752736967e-07,8.781104734387904e-07,2.496565560809336e-05
6.413639319181328e-07,5.886872297219419e-07,8.699700534202803e-07,2.493387676505627e-05
6.433969006305917e-07,5.954395191046636e-07,8.630176909169884e-07,2.491533662039039e-05
6.453111748263271e-07,6.022995824996796e-07,8.573478074284734e-07,2.490853241193464e-05
6.471262563400046e-07,6.092647278124776e-07,8.530657743874723e-07,2.491196016853425e-05
6.488569140165712e-07,6.163528320393527e-07,8.503007587152973e-07,2.492416250819872e-05
6.505118044693509e-07,6.235900062225809e-07,8.492031047930594e-07,2.494374265867313e-05
6.520946933805454e-07,6.309984824089961e-07,8.499228982211194e-07,2.4969352426801e-05
6.536079504788804e-07,6.385904798009205e-07,8.525825768588297e-07,2.4999641503520652e-05
6.550568163884535e-07,6.463680673823309e-07,8.572643923917486e-07,2.503319417558619e-05
6.564504911452809e-07,6.543257938102295e-07,8.640173554667076e-07,2.506849025169306e-05
6.577996632660225e-07,6.624527438150315e-07,8.728710694217937e-07,2.5103912347071802e-05
6.591139539065929e-07,6.707317019532118e-07,8.838447329652534e-07,2.5137839607097548e-05
6.603995827097565e-07,6.791370663555204e-07,8.969484902288677e-07,2.5168804989664652e-05
6.616572569596282e-07,6.87634278429986e-07,9.121788561067358e-07,2.5195581198432085e-05
6.628832326804033e-07,6.96181297952388e-07,9.295102742825828e-07,2.521712897426994e-05
6.640738885601198e-07,7.047316302893031e-07,9.488871177021843e-07,2.523248931175512e-05
6.652298210425661e-07,7.132373619602885e-07,9.70222626863687e-07,2.524070924964335e-05
6.663558940631361e-07,7.216514010712949e-07,9.934073412964424e-07,2.5240821974857244e-05
6.674576679199756e-07,7.299302458778404e-07,1.018322756625155e-06,2.5231861461453e-05
6.685375286124378e-07,7.380371218193673e-07,1.0448525421738918e-06,2.521290581113167e-05
6.695928825947859e-07,7.459433942979145e-07,1.0728868891454564e-06,2.518314340712717e-05
6.70616279452215e-07,7.536283587604996e-07,1.102321787827137e-06,2.51419345361199e-05
6.715965199011041e-07,7.610794313086665e-07,1.1330553533249923e-06,2.5088906226488905e-05
6.725201924383694e-07,7.682918486781103e-07,1.1649810074864543e-06,2.502413309752777e-05
6.733731703013689e-07,7.7526493207312e-07,1.1979797068849956e-06,2.4948298880734685e-05
6.741422264756121e-07,7.819969865183241e-07,1.231914894666377e-06,2.4862666220476142e-05
6.74817133379809e-07,7.884839973802274e-07,1.2666311686167258e-06,2.47688489358754e-05
6.753923261378778e-07,7.947225726193668e-07,1.3019552577167476e-06,2.4668519292747385e-05
6.758668297254715e-07,8.007138514005273e-07,1.3376979216074549e-06,2.456316479978913e-05
6.762423529749892e-07,8.064640643666716e-07,1.3736568075679381e-06,2.445396388437265e-05
6.765209087450369e-07,8.119797145804747e-07,1.4096211022496972e-06,2.434178808438032e-05
6.767033045512149e-07,8.172626869027501e-07,1.4453778583893439e-06,2.422726947772948e-05
6.767884700191153e-07,8.223101252250149e-07,1.4807171277362023e-06,2.4110860779935738e-05
6.76773804757268e-07,8.271155413582577e-07,1.5154332546431109e-06,2.3992878084254545e-05
6.766559344685211e-07,8.316687647982873e-07,1.5493246927430774e-06,2.387361964246457e-05
6.76430003296651e-07,8.359577137864263e-07,1.582195984790343e-06,2.37535571705896e-05
6.760888586407947e-07,8.399717758058748e-07,1.6138628427387413e-06,2.363338398793937e-05
6.756238807042277e-07,8.437034006070332e-07,1.6441593851112057e-06,2.351383909748467e-05
6.750262147168168e-07,8.471468100350574e-07,1.672942575303609e-06,2.339552023398768e-05
6.742877729992437e-07,8.502950057083134e-07,1.7000888808361604e-06,2.3278921168385e-05
6.734025757013118e-07,8.531372693188819e-07,1.7254864378833957e-06,2.3164710344246122e-05
6.723690930877333e-07,8.556594173355902e-07,1.7490294624802453e-06,2.3053994992025066e-05
6.71192605453307e-07,8.578473396950588e-07,1.7706169202319718e-06,2.2948327668061332e-05
6.698851199209418e-07,8.596908209636828e-07,1.7901535782114804e-06,2.284951905462621e-05
6.684624538383402e-07,8.611833158526218e-07,1.807551137735852e-06,2.275943775807869e-05
6.669406791605854e-07,8.623181169689198e-07,1.8227293338190262e-06,2.26798713401133e-05
6.653342271411045e-07,8.630852017860857e-07,1.8356180500776959e-06,2.2612448940477522e-05
6.636564614021927e-07,8.634703132820198e-07,1.84615942874148e-06,2.255858018227333e-05
6.619215016457903e-07,8.634551549277029e-07,1.854308870995279e-06,2.2519371875982565e-05
6.60144484078057e-07,8.630181805168306e-07,1.8600366739080646e-06,2.2495559474386772e-05
6.583403252010157e-07,8.621363419801857e-07,1.8633315545196629e-06,2.248750744295776e-05
6.565232124898753e-07,8.607882955625662e-07,1.864202500665126e-06,2.249526164044153e-05
6.547055322932209e-07,8.589577722613536e-07,1.862674579685439e-06,2.2518579153750562e-05
6.528957328947298e-07,8.566342271218247e-07,1.8587821162593327e-06,2.255690168539569e-05
6.510979424646478e-07,8.538103176517604e-07,1.8525675313215438e-06,2.2609340798181508e-05
6.493132311371429e-07,8.504791036220472e-07,1.844086790472218e-06,2.2674747841660485e-05
6.475396064394022e-07,8.466337785977679e-07,1.8334143918331542e-06,2.275184240783543e-05
6.457711942618464e-07,8.422708591620651e-07,1.8206432609723248e-06,2.2839335683776372e-05
6.440007003208895e-07,8.373960175537217e-07,1.8058806808072609e-06,2.293601289907239e-05
6.422253289197168e-07,8.320291172866661e-07,1.7892418789639373e-06,2.304076830622684e-05
6.404502600928522e-07,8.262041388136048e-07,1.7708427296805215e-06,2.3152614202153894e-05
6.386869749829741e-07,8.199635312644364e-07,1.7507952102775185e-06,2.327068758530985e-05
6.369495416062714e-07,8.133514841573019e-07,1.7292072494148975e-06,2.339425123732783e-05
6.352508692094816e-07,8.064120928154104e-07,1.7061842174276209e-06,2.352265826796431e-05
6.336002877140109e-07,7.99193684495582e-07,1.6818290931236085e-06,2.365527292108769e-05
6.320034193772515e-07,7.917533526378833e-07,1.6562409533276469e-06,2.379138074747605e-05
6.304619683343373e-07,7.841564091205259e-07,1.6295141494185503e-06,2.3930116279010573e-05
6.28972942694736e-07,7.764719380129746e-07,1.6017396797611297e-06,2.4070456768996492e-05
6.275294136605526e-07,7.68767328332977e-07,1.5730067703121945e-06,2.421130927000065e-05
6.261219749134728e-07,7.611035782114894e-07,1.5434042528563248e-06,2.435159043463583e-05
6.247397093781622e-07,7.535323665283299e-07,1.51302397913778e-06,2.449020125644052e-05
6.233723601161507e-07,7.460951304733895e-07,1.4819646176768406e-06,2.4625951314655373e-05
6.2201413779687e-07,7.388258688593175e-07,1.450331563538832e-06,2.475752206066296e-05
6.206660818316894e-07,7.317577523828213e-07,1.4182334895710487e-06,2.488348669451002e-05
6.193348702832552e-07,7.249282175693095e-07,1.3857801319956516e-06,2.5002363350129426e-05
6.180297625207071e-07,7.183777261028578e-07,1.3530830646184533e-06,2.511266519044373e-05
6.167605978648461e-07,7.121433129878203e-07,1.32025750816076e-06,2.521291505743584e-05
6.155385167923787e-07,7.062522244238906e-07,1.2874231311955074e-06,2.530163314102368e-05
6.143789544542155e-07,7.007208017222064e-07,1.2547026750966269e-06,2.53773531551499e-05
6.133034002888775e-07,6.955597200788567e-07,1.2222192815506969e-06,2.543870471654549e-05
6.123362722045468e-07,6.907828956808211e-07,1.1900945092138878e-06,2.548455096228973e-05
6.114985671486273e-07,6.864162720700716e-07,1.1584478048074964e-06,2.551412292843349e-05
6.108030127216557e-07,6.825016064900142e-07,1.1273982611348978e-06,2.552705242548692e-05
6.102527197473342e-07,6.790911988503525e-07,1.0970666712471953e-06,2.552326761954449e-05
6.098424814387975e-07,6.762364278148392e-07,1.0675725680327801e-06,2.5502828248459184e-05
6.095606964714038e-07,6.73978630938646e-07,1.0390284613676785e-06,2.546581834882937e-05
6.093908281021057e-07,6.723471170453274e-07,1.0115409592055357e-06,2.5412359973006085e-05
6.093135126357426e-07,6.713620868461993e-07,9.85219715819957e-07,2.534269679229163e-05
6.093104078882248e-07,6.710373375889176e-07,9.601828183425258e-07,2.525724109687865e-05
6.093680879711865e-07,6.713807266649307e-07,9.365510454353693e-07,2.515654748577503e-05
6.094782115718363e-07,6.723955481047753e-07,9.144368804111963e-07,2.504131653142511e-05
6.09634384209885e-07,6.740842295987653e-07,8.939385961848386e-07,2.49125132311786e-05
6.098304227131125e-07,6.764504349184813e-07,8.751438383445898e-07,2.477146421425125e-05
6.100613253969961e-07,6.7949598284607e-07,8.58138213193427e-07,2.4619777549877843e-05
6.103257223700482e-07,6.832138234715328e-07,8.430098045551128e-07,2.445914270359609e-05
6.106285631448178e-07,6.875828917161322e-07,8.29845614899566e-07,2.429114210311057e-05
6.10980576904253e-07,6.925704975437188e-07,8.187224661937141e-07,2.411717712989109e-05
6.113930883791997e-07,6.981417134360943e-07,8.0969656094742e-07,2.3938606654571105e-05
6.118724907960061e-07,7.042690080491536e-07,8.027956422628615e-07,2.375702126835567e-05
6.124184009081577e-07,7.109361290876567e-07,7.980168184032156e-07,2.357438718323056e-05
6.130242660277441e-07,7.181366745357926e-07,7.953312655475121e-07,2.3392962104747768e-05
6.136776610387678e-07,7.258713030932977e-07,7.946921856073731e-07,2.3215121711004496e-05
6.143604616584751e-07,7.341446023157077e-07,7.960395950209448e-07,2.304320450054152e-05
6.150498282823725e-07,7.429595546611218e-07,7.993020443459197e-07,2.2879389330155065e-05
6.157195242998146e-07,7.523097731594116e-07,8.044003560889901e-07,2.272560970694241e-05
6.163411185291513e-07,7.621739811263226e-07,8.112529021600997e-07,2.2583516118550384e-05
6.168845620093453e-07,7.725158278071262e-07,8.197778238390643e-07,2.2454481846411867e-05
6.173182242595342e-07,7.832859432728592e-07,8.298907011095896e-07,2.2339623370101253e-05
6.176100703125306e-07,7.944228112580834e-07,8.415007251110821e-07,2.2239802323288832e-05
6.177309934560849e-07,8.058540844457042e-07,8.545096825228095e-07,2.2155599271585928e-05
6.176594305541664e-07,8.175004681363141e-07,8.688123841082031e-07,2.2087270629795314e-05
6.173853749561723e-07,8.292812235562008e-07,8.842944818634042e-07,2.203471099906181e-05
6.16911398327546e-07,8.411189409898973e-07,9.008299199831387e-07,2.1997469751678084e-05
6.162491245012995e-07,8.529419987283115e-07,9.182813071940414e-07,2.197485226860544e-05
6.154128951770735e-07,8.646845780746149e-07,9.365018839990897e-07,2.1966052863392333e-05
6.144146717054216e-07,8.762857241859608e-07,9.55339113009532e-07,2.1970250958826248e-05
6.13261935215178e-07,8.876897741303785e-07,9.746415720960355e-07,2.198668016951094e-05
6.119575363558074e-07,8.988486749972801e-07,9.942655101262771e-07,2.201470114559085e-05
6.105001772983323e-07,9.097261226060938e-07,1.014074917435638e-06,2.2053841790277472e-05
6.088850915843974e-07,9.203022509088884e-07,1.0339363279706664e-06,2.2103757303379645e-05
6.071054500281662e-07,9.305737324383693e-07,1.0537154476374213e-06,2.216414317805775e-05
6.051541086204867e-07,9.405469714035371e-07,1.0732777890737844e-06,2.2234678793900504e-05
6.030242072509944e-07,9.502283268747457e-07,1.092490090412115e-06,2.23150024992392e-05
6.007094322810985e-07,9.596166865388566e-07,1.111223072519128e-06,2.240464528135616e-05
5.982070866188135e-07,9.68702250413212e-07,1.1293586421353519e-06,2.250293578624241e-05
5.955230604036293e-07,9.774709251601357e-07,1.1467980300562326e-06,2.260896108624711e-05
5.926726946729746e-07,9.859087577026018e-07,1.163463965509725e-06,2.2721581542535235e-05
5.89677262208958e-07,9.94002473686702e-07,1.1792970673119406e-06,2.2839455254825706e-05
5.865624958000851e-07,1.0017379724535118e-06,1.19425143437868e-06,2.2961085999203905e-05
5.833595305684918e-07,1.0090988349367236e-06,1.208290340315303e-06,2.30849247485085e-05
5.801035925300244e-07,1.0160643470128506e-06,1.2213822814207385e-06,2.3209487994343784e-05
5.768305153337424e-07,1.0226079972122542e-06,1.2335021897283146e-06,2.33333920925182e-05
5.735742265992321e-07,1.0286975206630308e-06,1.244637182504151e-06,2.345527642536188e-05
5.70366041670951e-07,1.0342961950988285e-06,1.2547878369438856e-06,2.3573717255655788e-05
5.672349927087454e-07,1.039366432510138e-06,1.2639623400633475e-06,2.3687207723438418e-05
5.642081519908175e-07,1.0438754070727484e-06,1.2721699639106977e-06,2.37941993486828e-05
5.613091118058928e-07,1.0477988817669066e-06,1.2794183067203824e-06,2.3893217203049075e-05
5.585547160842264e-07,1.0511213986691369e-06,1.2857136580980123e-06,2.398302708976464e-05
5.559536709452146e-07,1.053834420683203e-06,1.2910626899798222e-06,2.406272201368629e-05
5.53509147084044e-07,1.055933785209163e-06,1.2954737669098996e-06,2.4131638565294856e-05
5.512217441476154e-07,1.0574187033133992e-06,1.2989575799885704e-06,2.418921132523045e-05
5.490892079489541e-07,1.0582928495215407e-06,1.3015290408059663e-06,2.423492858257902e-05
5.47105664751324e-07,1.0585634105422806e-06,1.3032088539772254e-06,2.426839158219173e-05
5.452627461609714e-07,1.0582370982505555e-06,1.3040202117266032e-06,2.4289359578765147e-05
5.435498376235121e-07,1.0573175700498852e-06,1.3039826362807466e-06,2.429770695059954e-05
5.419529675934963e-07,1.0558055765018122e-06,1.3031092139854971e-06,2.429334120931155e-05
5.404558350853621e-07,1.053699693030236e-06,1.3014087487689623e-06,2.4276251479016565e-05
5.390434141427887e-07,1.0509984634805112e-06,1.2988921592659023e-06,2.424677050777637e-05
5.377044331371138e-07,1.0477057644020799e-06,1.2955809878255118e-06,2.420582313546615e-05
5.364304419952311e-07,1.043837509528269e-06,1.29151056828898e-06,2.415489603257972e-05
5.352133734119985e-07,1.03942659302752e-06,1.2867250115499813e-06,2.409579771180868e-05
5.340441873921077e-07,1.034523607897525e-06,1.281273302592785e-06,2.403042174928305e-05
5.329119907534055e-07,1.0291906296643978e-06,1.275213735798352e-06,2.396058910732335e-05
5.31802854021989e-07,1.0234907982046185e-06,1.2686211616373449e-06,2.38880087379732e-05
5.307004936872692e-07,1.01748264840142e-06,1.2615893998133275e-06,2.381438655585036e-05
5.295898897898858e-07,1.0112204982604209e-06,1.254227279173893e-06,2.374155252424812e-05
5.284611900812292e-07,1.0047538429712662e-06,1.2466494546499045e-06,2.3671454758435933e-05
5.273116584746161e-07,9.98126139815005e-07,1.2389657559257817e-06,2.360605446965122e-05
5.261454798772578e-07,9.91378579893631e-07,1.2312741033057725e-06,2.354721417999875e-05
5.249706206088413e-07,9.84556642180139e-07,1.2236579706295393e-06,2.3496603830194084e-05
5.237944934249513e-07,9.777135519916228e-07,1.216186754272025e-06,2.34556342002422e-05
5.22623407822771e-07,9.709101744117395e-07,1.2089184230565945e-06,2.3425442434239998e-05
5.214655002853935e-07,9.642127475411859e-07,1.2019024693178693e-06,2.340693385879003e-05
5.20331884681607e-07,9.576876007043844e-07,1.1951797436399005e-06,2.340083732608129e-05
5.192345272949456e-07,9.513943986692519e-07,1.1887810585363803e-06,2.340772511381169e-05
5.181835678699138e-07,9.453817215668732e-07,1.18273108412403e-06,2.342799086501153e-05
5.17186146498103e-07,9.396853291172682e-07,1.1770568531429434e-06,2.346180570392966e-05
5.162463692839457e-07,9.343278513703957e-07,1.1717925398871174e-06,2.3509064671441933e-05
5.153651254082493e-07,9.293203145374763e-07,1.166977510167866e-06,2.3569332240382545e-05
5.145397787729518e-07,9.246650606408821e-07,1.1626507872320622e-06,2.364182063878765e-05
5.137642855998581e-07,9.203580854303965e-07,1.1588440010057288e-06,2.3725444072345e-05
5.130297464482825e-07,9.163904030470106e-07,1.1555745407374692e-06,2.3818932094419397e-05
5.123260657440711e-07,9.127493700056463e-07,1.1528425189224895e-06,2.3920936132068115e-05
5.116442863298295e-07,9.094208095643923e-07,1.1506352153639165e-06,2.403011576937929e-05
5.10977667075292e-07,9.063948424368929e-07,1.1489383715038106e-06,2.414523098607418e-05
5.10321269046076e-07,9.036761864124165e-07,1.1477481450566569e-06,2.426521518399508e-05
5.096706340035525e-07,9.012908167804918e-07,1.1470764382271584e-06,2.4389178864938214e-05
5.090198967968282e-07,8.992806547918112e-07,1.1469471507777009e-06,2.451633480395856e-05
5.083606092345592e-07,8.976900076644544e-07,1.1473875323164277e-06,2.464587272393807e-05
5.07682537798611e-07,8.965544157962338e-07,1.1484204458464542e-06,2.4776845828303385e-05
5.069761950756572e-07,8.958975209761013e-07,1.1500625729866093e-06,2.490815651822434e-05
5.0623530636209e-07,8.957339012348685e-07,1.1523314886395008e-06,2.503865094696649e-05
5.054581638842102e-07,8.960732529550421e-07,1.1552555959225537e-06,2.5167215477974515e-05
5.046479620715745e-07,8.969231010527132e-07,1.1588757370335976e-06,2.529279792046376e-05
5.038115717596977e-07,8.982886640857245e-07,1.1632353470230845e-06,2.541438680328791e-05
5.029585540431728e-07,9.001705818741119e-07,1.1683668558454474e-06,2.5531009479870637e-05
5.021026879220228e-07,9.02563304913747e-07,1.1742850632746452e-06,2.564175281680009e-05
5.012623827442936e-07,9.054548403853584e-07,1.1809907570178123e-06,2.5745752083182558e-05
5.004566524637064e-07,9.08825895254311e-07,1.1884770983439014e-06,2.5842152990221648e-05
4.997003896984304e-07,9.126480816202608e-07,1.1967296820522312e-06,2.5930152344970387e-05
4.990030200578059e-07,9.168837170904074e-07,1.2057205552578623e-06,2.600913294088328e-05
4.983705089821343e-07,9.214882037991388e-07,1.2154053648122856e-06,2.6078758071161217e-05
4.978090591230807e-07,9.264127215442549e-07,1.2257285005823436e-06,2.6138948853018037e-05
4.973263909984597e-07,9.316064546928543e-07,1.2366294051144272e-06,2.618979006550485e-05
4.969291262198022e-07,9.370196077509277e-07,1.248042301125689e-06,2.623142045374715e-05
4.966215245126602e-07,9.426055732282205e-07,1.25989167452594e-06,2.626393863009477e-05
4.964060328287814e-07,9.483198842328684e-07,1.2720913296670978e-06,2.6287341262555826e-05
4.962816430817096e-07,9.54119285717976e-07,1.2845490663613725e-06,2.6301512914538863e-05
4.96242410736464e-07,9.599652304536982e-07,1.297170975177633e-06,2.630626558675126e-05
4.96278851222808e-07,9.658296981327344e-07,1.3098608247464384e-06,2.630136929118685e-05
4.963798058631747e-07,9.716995840726508e-07,1.3225172387454372e-06,2.6286547903190203e-05
4.965326903057508e-07,9.775767087292468e-07,1.3350325100854429e-06,2.62614814054668e-05
4.967229121073536e-07,9.834705598412395e-07,1.3472937427293824e-06,2.622587707910852e-05
4.969340433586539e-07,9.893889450079346e-07,1.3591857014429158e-06,2.617966590044056e-05
4.971490401230425e-07,9.953364701487402e-07,1.3705938929038554e-06,2.6123184279400425e-05
4.973509934391722e-07,1.0013208602721766e-06,1.3814064507298408e-06,2.605709611255429e-05
4.975223077778728e-07,1.0073577324688237e-06,1.3915155666376655e-06,2.5982170747248097e-05
4.976436895321024e-07,1.0134666056123614e-06,1.4008207490503821e-06,2.5899197821315163e-05
4.976944155865071e-07,1.0196617473725416e-06,1.4092345670038734e-06,2.580899795832617e-05
4.976534749746135e-07,1.0259480263147646e-06,1.4166878312560938e-06,2.5712388413063086e-05
4.975010790087672e-07,1.0323230646119676e-06,1.4231299819910264e-06,2.561011174272509e-05
4.972217576344474e-07,1.0387781199515422e-06,1.4285233300468137e-06,2.550276046729916e-05
4.968094446487614e-07,1.045297036359876e-06,1.432835329350743e-06,2.5390717403796165e-05
4.962698636089864e-07,1.0518612355145589e-06,1.4360355713068685e-06,2.5274136645448644e-05
4.956158426646844e-07,1.0584625617654058e-06,1.4380979897818428e-06,2.515297034095898e-05
4.948598360380968e-07,1.0651138490325558e-06,1.4390031939729475e-06,2.5027009492492946e-05
4.940109421194629e-07,1.0718485212663228e-06,1.4387396304004127e-06,2.489590250790084e-05
4.930764552117247e-07,1.078710805017797e-06,1.437306088474591e-06,2.475916696183838e-05
4.92063338838764e-07,1.0857422025441787e-06,1.4347143168143117e-06,2.4616226448777328e-05
4.909784514711917e-07,1.0929714336821965e-06,1.4309870296648169e-06,2.4466481178902284e-05
4.898281929163293e-07,1.1004140646244355e-06,1.4261510188578282e-06,2.430940491435924e-05
4.886173988716661e-07,1.1080795134328173e-06,1.420231474369392e-06,2.4144615884979942e-05
4.873493409950503e-07,1.1159788521820534e-06,1.4132524001376225e-06,2.397186795426511e-05
4.860277021811547e-07,1.1241306491955321e-06,1.4052414198203852e-06,2.379099815798084e-05
4.84657886633549e-07,1.1325632215497395e-06,1.3962338110771522e-06,2.3601900294768406e-05
4.832466890352821e-07,1.14131062625851e-06,1.3862722160959836e-06,2.3404533989425562e-05
4.818012564065242e-07,1.150403230973965e-06,1.3754020453592353e-06,2.319893759272585e-05
4.803276229959518e-07,1.1598582779287935e-06,1.3636662056646817e-06,2.298521605637982e-05
4.788308107821118e-07,1.1696749660889408e-06,1.3511031121202886e-06,2.2763498333164134e-05
4.773183698810119e-07,1.1798340401915162e-06,1.3377471478889888e-06,2.253389526845184e-05
4.7580403745133493e-07,1.190299173218559e-06,1.3236288375710777e-06,2.2296499153996007e-05
4.743062255935337e-07,1.2010182977011065e-06,1.3087751486113483e-06,2.205142489272936e-05
4.7284267856484394e-07,1.2119249930765535e-06,1.2932112308804093e-06,2.17988486593478e-05
4.714281111335807e-07,1.2229408203053455e-06,1.2769641624167532e-06,2.153900863241478e-05
4.700759294267485e-07,1.2339791053771313e-06,1.260067789699749e-06,2.127217064226291e-05
4.6879893251257315e-07,1.2449493576968309e-06,1.2425651425445335e-06,2.099859883656404e-05
4.6760752395194216e-07,1.25576032192362e-06,1.2245060420531765e-06,2.0718585414270652e-05
4.6650841319360095e-07,1.266320598657488e-06,1.2059433154176813e-06,2.0432510582146505e-05
4.655052715820647e-07,1.2765380821999578e-06,1.1869340173022765e-06,2.0140839556628642e-05
4.6459954517578534e-07,1.2863196927825123e-06,1.167546463242453e-06,1.984408726311178e-05
4.6379019050969837e-07,1.2955723527800814e-06,1.1478674347754058e-06,1.9542834344195465e-05
4.63074002948769e-07,1.3042057840653583e-06,1.1280046804365346e-06,1.923773162394838e-05
4.6244638272323857e-07,1.3121353762348027e-06,1.1080830324917728e-06,1.8929433569231988e-05
4.6190032805260403e-07,1.3192832545699535e-06,1.088234736346051e-06,1.8618559705437783e-05
4.614249185091153e-07,1.3255784042247e-06,1.0685872685101652e-06,1.8305754835096584e-05
4.610053129154171e-07,1.3309566831177864e-06,1.049253090034534e-06,1.7991755125689623e-05
4.606238458458148e-07,1.3353601201274574e-06,1.0303244860634402e-06,1.7677387000332507e-05
4.6026219899437856e-07,1.3387357733280688e-06,1.0118735777911565e-06,1.7363551635497968e-05
4.59904100208901e-07,1.3410351734516678e-06,9.939557897126215e-07,1.7051206176700322e-05
4.595363818307022e-07,1.3422140012065798e-06,9.766167282790355e-07,1.6741289668737416e-05
4.5914758345929784e-07,1.3422317325183788e-06,9.599010886341008e-07,1.643462351383359e-05
4.5872563002329977e-07,1.3410524121481443e-06,9.438576789410131e-07,1.613186278143115e-05
4.5825711227977936e-07,1.3386461197261299e-06,9.285369846149408e-07,1.583351745489758e-05
4.577292459967229e-07,1.3349891115202975e-06,9.139865996967111e-07,1.5540030250214233e-05
4.571324804743992e-07,1.3300630256941086e-06,9.00253970106973e-07,1.525187447541307e-05
4.5646130597201035e-07,1.3238554511670002e-06,8.873970976067676e-07,1.4969586122276028e-05
4.557132259302637e-07,1.3163622600248557e-06,8.754926116404703e-07,1.4693693855218698e-05
4.548878176647297e-07,1.307590212095447e-06,8.646337434845599e-07,1.4424641955926032e-05
4.5398884274329776e-07,1.2975587195658487e-06,8.549206809466213e-07,1.416281999404734e-05
4.5302868758659724e-07,1.2862996069284056e-06,8.464488266697911e-07,1.3908670297577764e-05
4.520283153230654e-07,1.2738550430653576e-06,8.392987915379845e-07,1.3662745567742305e-05
4.510107727670465e-07,1.2602769672531828e-06,8.335295243559741e-07,1.3425698516845171e-05
4.499958766884531e-07,1.2456288675530456e-06,8.291753473454912e-07,1.319827209148156e-05
4.490006293938922e-07,1.229985828693676e-06,8.262475078044839e-07,1.2981280494441252e-05
4.4804137099116066e-07,1.2134306391639834e-06,8.247379692707026e-07,1.2775552344238298e-05
4.471340410016856e-07,1.196048628208048e-06,8.246223198071565e-07,1.2581859278216694e-05
4.462935156062729e-07,1.1779244220240255e-06,8.25861244207184e-07,1.2400852013910092e-05
4.4553262303760565e-07,1.1591411416809608e-06,8.284014515637832e-07,1.2233018346539184e-05
4.448602702588639e-07,1.1397807076100328e-06,8.321763954895402e-07,1.2078680990478702e-05
4.442801610075072e-07,1.1199234853815528e-06,8.371067861660552e-07,1.1938022791173693e-05
4.437911255324497e-07,1.0996463670594462e-06,8.431025664070775e-07,1.181110345425896e-05
4.4338771537105504e-07,1.0790205643290727e-06,8.500677349928824e-07,1.1697855660096859e-05
4.4306044790499544e-07,1.0581111954150552e-06,8.579062165553501e-07,1.1598072463724835e-05
4.4279628558675787e-07,1.0369785703235011e-06,8.665265778366415e-07,1.151139821118578e-05
4.4257955354451323e-07,1.0156797766700808e-06,8.758442946535714e-07,1.1437323647713409e-05
4.423927491134903e-07,9.942702727937602e-07,8.857804259178053e-07,1.1375181576665787e-05
4.422170129641776e-07,9.728060612023732e-07,8.962572933176062e-07,1.13241639562578e-05
4.4203395979055635e-07,9.513463995128908e-07,9.071932845464493e-07,1.1283403916409578e-05
4.418292804035032e-07,9.299553537553701e-07,9.18499050929995e-07,1.1252121382184482e-05
4.4159405343711126e-07,9.087010393432524e-07,9.300764964315319e-07,1.1229760773744498e-05
4.4132151189306973e-07,8.876531755806809e-07,9.418201749952127e-07,1.1216060961064627e-05
4.4100341505317497e-07,8.668793552136295e-07,9.5362061857918e-07,1.1211055568952238e-05
4.406307089925806e-07,8.464414060434944e-07,9.653693743473968e-07,1.1215022705178456e-05
4.401982732704317e-07,8.263939884160854e-07,9.769630313268696e-07,1.1228409659201262e-05
4.397088789090309e-07,8.067842547268285e-07,9.883033533954457e-07,1.1251767536134707e-05
4.3917239903544436e-07,7.876504929269548e-07,9.99295509577773e-07,1.1285713044737766e-05
4.386020638392626e-07,7.69021315292771e-07,1.0098477951688828e-06,1.1330907050003878e-05
4.380110349605834e-07,7.509171576306733e-07,1.0198740496118472e-06,1.1388021602558831e-05
4.3741004855204384e-07,7.333526932628035e-07,1.029299513752733e-06,1.1457655942433364e-05
4.368065070173667e-07,7.16338172336353e-07,1.0380672724509736e-06,1.154021048536512e-05
4.362061387098177e-07,6.998801329108533e-07,1.0461401095402814e-06,1.163580477616828e-05
4.356164716425148e-07,6.839832811843463e-07,1.0534984896966243e-06,1.1744298991099082e-05
4.3504891114446707e-07,6.686522923369093e-07,1.060138946849736e-06,1.1865378616623675e-05
4.3451824791120427e-07,6.538906498324597e-07,1.0660733988209343e-06,1.1998618183877812e-05
4.3404181206038847e-07,6.396981390597183e-07,1.0713274752019147e-06,1.214349516328215e-05
4.336392596274066e-07,6.260708359669522e-07,1.0759372155330272e-06,1.2299415164808168e-05
4.3333094320696976e-07,6.130044568037916e-07,1.0799436206853001e-06,1.2465797130396696e-05
4.3313438176919e-07,6.004991214250471e-07,1.0833863459740506e-06,1.2642182460377479e-05
4.3306149006648244e-07,5.885610110182711e-07,1.0863048651817994e-06,1.2828329582790316e-05
4.331182428024815e-07,5.771982445108497e-07,1.0887532846059602e-06,1.3024279975899753e-05
4.333069171505079e-07,5.664153743143051e-07,1.0908179944501631e-06,1.3230353380232046e-05
4.3363002325786963e-07,5.562111737465241e-07,1.0926207104079544e-06,1.3447047055125665e-05
4.3409312051959657e-07,5.465789489035768e-07,1.0943048057582554e-06,1.3674871299157155e-05
4.347046415015968e-07,5.375077362626078e-07,1.0960173936836795e-06,1.3914161993979934e-05
4.354735614361311e-07,5.289838876140343e-07,1.0978967204571524e-06,1.4164939545139396e-05
4.364070746031168e-07,5.209936246263771e-07,1.1000647062555244e-06,1.4426919363949191e-05
4.3751018142488186e-07,5.135263429339484e-07,1.1026222761106438e-06,1.4699663931016433e-05
4.3878647239107187e-07,5.065750695891952e-07,1.105647539996689e-06,1.4982711490054416e-05
4.402379299763272e-07,5.00134530567871e-07,1.1091959926985432e-06,1.5275569485145668e-05
4.418641816480443e-07,4.942022355988441e-07,1.1133005487061414e-06,1.5577639022155663e-05
4.4366233561073674e-07,4.887813113124603e-07,1.1179713188245636e-06,1.5888188738352496e-05
4.456268108451542e-07,4.838802298749441e-07,1.1231969404717086e-06,1.620638517053728e-05
4.477496645445198e-07,4.795103820896795e-07,1.1289491893604368e-06,1.653131172218009e-05
4.5002149604593145e-07,4.756833949829242e-07,1.1351911984662116e-06,1.6861972431437305e-05
4.5243150402451524e-07,4.7240778243512753e-07,1.141885992868466e-06,1.7197340440423642e-05
4.5496890206824904e-07,4.696859755750592e-07,1.149000985077298e-06,1.753649498744993e-05
4.5762758466764966e-07,4.675133467104723e-07,1.156508483019478e-06,1.7878772785656736e-05
4.6040830182431013e-07,4.6587850658534976e-07,1.1643844235815484e-06,1.8223759594762e-05
4.633141886288818e-07,4.6476371824761656e-07,1.1726051986036184e-06,1.8571101671595604e-05
4.6634527208317185e-07,4.6414667482590396e-07,1.181142735087943e-06,1.892029487795445e-05
4.6949679131184494e-07,4.6400345548310785e-07,1.1899614647015517e-06,1.9270569608526552e-05
4.727599456675785e-07,4.643091507492243e-07,1.199019490616254e-06,1.962096819259162e-05
4.761245509198901e-07,4.650364000778266e-07,1.2082705597858644e-06,1.997067084547027e-05
4.795826211209089e-07,4.6615527670244294e-07,1.217663831124802e-06,2.0319365932641312e-05
4.831289648211069e-07,4.676343384284928e-07,1.2271424624271455e-06,2.0667362275426485e-05
4.867583268405633e-07,4.694424491558511e-07,1.236641970673668e-06,2.101544315216704e-05
4.904623821072092e-07,4.715515453451733e-07,1.2460900840452742e-06,2.136465819414886e-05
4.94228063440013e-07,4.73937333504024e-07,1.255410907823983e-06,2.171613254563396e-05
4.980371937351856e-07,4.765781988689429e-07,1.264532898151653e-06,2.207088560416481e-05
5.018686235274456e-07,4.794567842862192e-07,1.273396372469441e-06,2.2429682877227108e-05
5.057026073066569e-07,4.82563767011422e-07,1.281954788465856e-06,2.2792948987244657e-05
5.095230150405837e-07,4.858991634610467e-07,1.290168643653835e-06,2.316072180012313e-05
5.13315391225659e-07,4.894696867262964e-07,1.2980010793664069e-06,2.353261617968057e-05
5.170651616843971e-07,4.932839895803525e-07,1.30542329075923e-06,2.390781625992449e-05
5.207580103297324e-07,4.97346926913744e-07,1.3124240747233022e-06,2.4285138099125087e-05
5.243797505236968e-07,5.016553433334323e-07,1.3190137434402953e-06,2.466316006649263e-05
5.279155854057211e-07,5.061994630799193e-07,1.3252197311513802e-06,2.5040368605954998e-05
5.313498131368197e-07,5.109681548623464e-07,1.3310758035182078e-06,2.5415275768971728e-05
5.346655574684957e-07,5.159526456891655e-07,1.336611480530023e-06,2.578650611216217e-05
5.37846892661276e-07,5.211474170192979e-07,1.3418507215508802e-06,2.615285093637984e-05
5.408833275289392e-07,5.265484927206333e-07,1.346820357336601e-06,2.6513264617374303e-05
5.437698258647118e-07,5.321493407587474e-07,1.3515600751314405e-06,2.6866809645958052e-05
5.465010223795026e-07,5.379372427654601e-07,1.3561267558552424e-06,2.7212597715599576e-05
5.490667362839591e-07,5.438920023501594e-07,1.3605903791811063e-06,2.7549733162111103e-05
5.514520603974538e-07,5.499861824928574e-07,1.365023993763829e-06,2.78772317210842e-05
5.536403158078115e-07,5.561859251244241e-07,1.3694941765162882e-06,2.819394088966432e-05
5.556170827653923e-07,5.624525212975769e-07,1.3740562619024638e-06,2.8498511895203692e-05
5.573728055194766e-07,5.687460849820713e-07,1.3787532720727438e-06,2.8789431201786603e-05
5.589026963456092e-07,5.750299469000704e-07,1.3836143256562112e-06,2.9065111913763176e-05
5.602048400357148e-07,5.812710888110291e-07,1.3886513112474501e-06,2.932402047863333e-05
5.6127725670199e-07,5.874368429990545e-07,1.3938570576056644e-06,2.956473646518008e-05
5.621154372582675e-07,5.934932722709367e-07,1.3992063200893558e-06,2.978589641338165e-05
5.627120915113496e-07,5.994071326059114e-07,1.4046581768919748e-06,2.9986115033018664e-05
5.630583417976375e-07,6.051494437608029e-07,1.4101596136388056e-06,3.0163975142206982e-05
5.631446257974064e-07,6.106983008957076e-07,1.4156509407534868e-06,3.0318078932215087e-05
5.629613881511318e-07,6.160381259987499e-07,1.4210725743963982e-06,3.0447104892675426e-05
5.625004260351866e-07,6.21155756682962e-07,1.426371160420105e-06,3.054987027421269e-05
5.617566967274074e-07,6.260378567206121e-07,1.4315036386791053e-06,3.062546822155372e-05
5.60729784992405e-07,6.306705687398571e-07,1.4364395563278162e-06,3.067346215853301e-05
5.594238807176552e-07,6.350388887634315e-07,1.441160884035587e-06,3.069399068185823e-05
5.578456420637433e-07,6.391268696114064e-07,1.4456580595832917e-06,3.0687694014857627e-05
5.560016616088371e-07,6.429203071663794e-07,1.4499242358427713e-06,3.0655533344632785e-05
5.538976852665637e-07,6.464094272328469e-07,1.4539515774462432e-06,3.0598610958049364e-05
5.515393985007933e-07,6.495901031497396e-07,1.4577301194469138e-06,3.05180228454404e-05
5.489335846395368e-07,6.524653359887753e-07,1.4612460262219126e-06,3.0414751512400647e-05
5.460900089114953e-07,6.550462687062372e-07,1.4644788956789637e-06,3.028964366875492e-05
5.430236752965628e-07,6.573506463646462e-07,1.4674015614438302e-06,3.0143481508662982e-05
5.397540832194312e-07,6.594009223628508e-07,1.469982099740907e-06,2.9977070366933496e-05
5.363010674463362e-07,6.612254393136823e-07,1.4721851739008091e-06,2.9791285498125317e-05
5.326813208079645e-07,6.628625129833626e-07,1.4739741658644981e-06,2.958707832016117e-05
5.289073433734385e-07,6.643634655693001e-07,1.4753159353116458e-06,2.9365446016408533e-05
5.249876478373988e-07,6.657892818682702e-07,1.4761855287792328e-06,2.9127439345761104e-05
5.20927291676668e-07,6.67200781681918e-07,1.4765673886730757e-06,2.8874281107503826e-05
5.167286778212775e-07,6.686495609752358e-07,1.4764522874269497e-06,2.8607456705558174e-05
5.123932909791944e-07,6.701753468345063e-07,1.4758315845831988e-06,2.8328648878938232e-05
5.079240652562486e-07,6.718068432765835e-07,1.474691756636704e-06,2.803964044815977e-05
5.033265721541363e-07,6.735612412790679e-07,1.4730118428038627e-06,2.7742274706113898e-05
4.986081708386037e-07,6.754432619673626e-07,1.470764013694652e-06,2.743841024473407e-05
4.937764045214171e-07,6.774457716054853e-07,1.4679153381118616e-06,2.7129856309422344e-05
4.888381553686544e-07,6.795514855703179e-07,1.4644292618717875e-06,2.681831706048153e-05
4.837997911510571e-07,6.817356177394961e-07,1.4602666480327498e-06,2.6505347541816626e-05
4.786682545678207e-07,6.839688686822104e-07,1.4553871887452924e-06,2.619232301829671e-05
4.734537555145606e-07,6.862187312267618e-07,1.4497522535867139e-06,2.5880435352796852e-05
4.681725119183881e-07,6.884490247327542e-07,1.4433287974884487e-06,2.5570733523068648e-05
4.628459561770721e-07,6.906200693610375e-07,1.436093025261326e-06,2.5264194660126208e-05
4.574984913005444e-07,6.926920580402507e-07,1.4280320509341002e-06,2.496179019243439e-05
4.521583064855754e-07,6.946315509712411e-07,1.4191415968211597e-06,2.466454269907826e-05
4.4685838529593524e-07,6.964156797820522e-07,1.4094223475506854e-06,2.437358849983334e-05
4.4163353453234223e-07,6.980297604633062e-07,1.3988791880241103e-06,2.409022796055341e-05
4.365154410758579e-07,6.994630596598068e-07,1.387521638514803e-06,2.381591146601211e-05
4.315297637836093e-07,7.007083350961634e-07,1.3753637335714794e-06,2.3552125604553093e-05
4.26696897420143e-07,7.017634382771817e-07,1.3624247036256158e-06,2.3300224840382573e-05
4.2203455531459654e-07,7.0263139486478e-07,1.3487293126033794e-06,2.3061309297198545e-05
4.1755855681293176e-07,7.033176830835546e-07,1.3343063023901257e-06,2.2836174457100814e-05
4.1328097826137574e-07,7.038266098405786e-07,1.3191861747460792e-06,2.2625283978134188e-05
4.0920842554532855e-07,7.041614923094705e-07,1.303400225079953e-06,2.2428773571026503e-05
4.0534239958006354e-07,7.043285438148182e-07,1.2869815220451604e-06,2.224652627318097e-05
4.016808173535817e-07,7.043390882990868e-07,1.2699664140423756e-06,2.207829775352402e-05
3.9821960336476094e-07,7.042096936283737e-07,1.2523945228906195e-06,2.1923855965848528e-05
3.94954744928012e-07,7.039620623189655e-07,1.2343081585997132e-06,2.178311175782437e-05
3.918846578842874e-07,7.03619871735336e-07,1.2157537226030425e-06,2.1656187132820708e-05
3.890105922084651e-07,7.032028886907543e-07,1.1967841535387548e-06,2.154339444599927e-05
3.8633425574571756e-07,7.027234234261032e-07,1.1774599571620038e-06,2.1445176364255094e-05
3.838561678434581e-07,7.021868206833434e-07,1.1578481656319089e-06,2.136204423586324e-05
3.8157668246703537e-07,7.01594650196876e-07,1.1380187018374758e-06,2.1294483347404594e-05
3.794966188249602e-07,7.00948326429356e-07,1.118039878546178e-06,2.124280618445929e-05
3.77615646595042e-07,7.002517584107195e-07,1.097976460676535e-06,2.120702748808361e-05
3.759317543625453e-07,6.995144691448209e-07,1.0778901386414668e-06,2.1186869430777288e-05
3.744447946623923e-07,6.987535691138521e-07,1.057842019329383e-06,2.11818902032847e-05
3.7316001729110897e-07,6.979902402308833e-07,1.0378977209612353e-06,2.1191584830577284e-05
3.720868374418342e-07,6.972436704955718e-07,1.0181312457539864e-06,2.1215355811558584e-05
3.7123587080846953e-07,6.965296368915761e-07,9.986238816688938e-07,2.125244326033177e-05
3.706172804400622e-07,6.958638545684967e-07,9.79458808993376e-07,2.1301918084843085e-05
3.702385740234227e-07,6.952644937131315e-07,9.60713471625962e-07,2.1362691735592705e-05
3.701020942978854e-07,6.947509480135586e-07,9.424533703962059e-07,2.143349563271517e-05
3.702042848050408e-07,6.943411651953531e-07,9.247302486250393e-07,2.1512865998585454e-05
3.7053627276795116e-07,6.940505005764732e-07,9.075832516995672e-07,2.159916218468478e-05
3.7108476763766826e-07,6.938915182598467e-07,8.910414947207298e-07,2.1690648572142936e-05
3.718335986500064e-07,6.938743930617196e-07,8.751291811041809e-07,2.1785647524724428e-05
3.727653749589609e-07,6.940086630065398e-07,8.598723369538072e-07,2.188266223362786e-05
3.738616051156858e-07,6.943044724517167e-07,8.453044817669373e-07,2.1980370954750898e-05
3.751014418170504e-07,6.947730721939168e-07,8.314704546165705e-07,2.207753236493661e-05
3.7646081837919153e-07,6.95428229729522e-07,8.184255800974194e-07,2.2172899419455835e-05
3.7791360638249713e-07,6.962871602957738e-07,8.062285882786959e-07,2.2265179934341008e-05
3.79436418180668e-07,6.973689595861544e-07,7.949369364569446e-07,2.2353023397136195e-05
3.810152915861996e-07,6.98691587827703e-07,7.846130713088757e-07,2.243502119774032e-05
3.826486540705247e-07,7.00273292365809e-07,7.753352346249112e-07,2.250975351300632e-05
3.8434529490033864e-07,7.021412866528854e-07,7.672002311405024e-07,2.2575934886684648e-05
3.86120664567655e-07,7.043379545111526e-07,7.603152071165704e-07,2.263261784858628e-05
3.879923021560915e-07,7.069153398523398e-07,7.547844302722105e-07,2.267926989267396e-05
3.899747882869615e-07,7.099230057955601e-07,7.506967263260922e-07,2.27156251916885e-05
3.920766963412188e-07,7.133999758208498e-07,7.481157487593512e-07,2.274146009259497e-05
3.94300000828006e-07,7.173752211067917e-07,7.470743512396212e-07,2.275647918620299e-05
3.96640541914395e-07,7.218723904768662e-07,7.475737636475531e-07,2.276038728624698e-05
3.990889125427088e-07,7.269106958832347e-07,7.495863925764661e-07,2.275316382076757e-05
4.016316506354109e-07,7.324996604159869e-07,7.530603094420076e-07,2.273541708000079e-05
4.04253007093655e-07,7.386339262857698e-07,7.579241894649207e-07,2.2708547309115075e-05
4.0693668953705814e-07,7.452947274468803e-07,7.640920751687451e-07,2.267461295256321e-05
4.096659720256924e-07,7.524586978144067e-07,7.714664411648364e-07,2.2636071479593184e-05
4.1242303848194633e-07,7.601091054162876e-07,7.799388273658862e-07,2.2595563047541398e-05
4.1518991396520024e-07,7.682416311604502e-07,7.893919928516281e-07,2.255575754075289e-05
4.1795081461668884e-07,7.768597915844469e-07,7.997079107860083e-07,2.2519233310805302e-05
4.206943103810618e-07,7.859639076062987e-07,8.107790249596094e-07,2.2488363365606856e-05
4.2341405623580005e-07,7.955440177903374e-07,8.225157253580879e-07,2.2465191637211944e-05
4.261071357656169e-07,8.055823288519225e-07,8.348452043244956e-07,2.2451322701782863e-05
4.2877133931620506e-07,8.160595128967016e-07,8.477032631602308e-07,2.2447871889975173e-05
4.314045774461712e-07,8.269577332102076e-07,8.61026644464624e-07,2.245546423127868e-05
4.340060729682953e-07,8.382604153750367e-07,8.747493981468054e-07,2.2474246248333155e-05
4.365763506812253e-07,8.4994986982316e-07,8.888002224299083e-07,2.2503919247760327e-05
4.3911672845407437e-07,8.620021534357374e-07,9.03101811789748e-07,2.2543806693899147e-05
4.416303353090498e-07,8.74382539114584e-07,9.175735838603535e-07,2.25929658811416e-05
4.441237750124172e-07,8.870452120266131e-07,9.321329807922872e-07,2.265036155817508e-05
4.466076053930323e-07,8.999351708465464e-07,9.466946980786327e-07,2.271505518514035e-05
4.490950582745904e-07,9.129894263922232e-07,9.611727455911885e-07,2.2786318535286928e-05
4.5160021346804476e-07,9.26136988751371e-07,9.754848218325662e-07,2.2863643746833195e-05
4.5413694046246605e-07,9.392988982743534e-07,9.895552254020433e-07,2.294669615425352e-05
4.567190205001136e-07,9.523899438953144e-07,1.003317363893551e-06,2.303525802614789e-05
4.5936141393406256e-07,9.653215242378564e-07,1.016715937839934e-06,2.312916715330755e-05
4.620812721763155e-07,9.780034857570002e-07,1.0297052268584808e-06,2.322823711205757e-05
4.648965906656265e-07,9.903446301354016e-07,1.042246008089934e-06,2.333216480479996e-05
4.6782214723360996e-07,1.0022543161612744e-06,1.0543056394440871e-06,2.344044687032212e-05
4.708654920431664e-07,1.013645774931705e-06,1.0658578759345749e-06,2.3552336084528447e-05
4.7402660159985684e-07,1.0244381698144336e-06,1.0768793734141598e-06,2.3666846949906736e-05
4.773011985010904e-07,1.0345561298797206e-06,1.0873470517629908e-06,2.3782780800748584e-05
4.806839426240045e-07,1.0439297040704709e-06,1.0972391792394e-06,2.3898753084901863e-05
4.841687610961661e-07,1.0524967953880906e-06,1.1065382393486299e-06,2.4013233509573262e-05
4.877472859089332e-07,1.06020644438938e-06,1.1152346317062115e-06,2.4124595151054322e-05
4.9140719241661e-07,1.06702158315485e-06,1.1233309190779215e-06,2.4231172968616903e-05
4.951312528156043e-07,1.0729200784022736e-06,1.1308439602018156e-06,2.433138189079677e-05
4.988976028409099e-07,1.0778913613454128e-06,1.1378031652030044e-06,2.442388523415201e-05
5.026816674589716e-07,1.0819302204342e-06,1.1442477044577756e-06,2.450768171283272e-05
5.064593607240211e-07,1.0850352371378193e-06,1.1502269113597755e-06,2.4582068840980648e-05
5.102093663232746e-07,1.087215148747795e-06,1.1558034100882662e-06,2.4646568984399568e-05
5.139139024598402e-07,1.0884966309201125e-06,1.1610537653863771e-06,2.4700831353372602e-05
5.175588158610974e-07,1.0889257266568438e-06,1.1660615003348095e-06,2.474450306978341e-05
5.211314685528472e-07,1.0885617503352688e-06,1.1709037065160472e-06,2.4777158984443645e-05
5.246174806368361e-07,1.0874672441018885e-06,1.1756401556494889e-06,2.4798358440643186e-05
5.280009458277695e-07,1.0857002366787394e-06,1.1803109034117038e-06,2.4807790920873003e-05
5.312683655800017e-07,1.0833144674996058e-06,1.1849390571760357e-06,2.480541800577595e-05
5.3441228951864e-07,1.080365814206253e-06,1.1895345436372162e-06,2.479151420110099e-05
5.374316831637412e-07,1.0769179555847166e-06,1.19409974390473e-06,2.476656900265245e-05
5.403296063782751e-07,1.0730427046671658e-06,1.198637588676073e-06,2.473111251176348e-05
5.431120095109011e-07,1.0688144850102751e-06,1.2031587344546034e-06,2.468557975898478e-05
5.45787715705266e-07,1.0643031824374201e-06,1.2076845538852065e-06,2.463032084290977e-05
5.483656809686229e-07,1.0595710145382379e-06,1.2122464702632814e-06,2.456572212902944e-05
5.508510589178244e-07,1.0546725256420946e-06,1.2168826866781088e-06,2.449224339733001e-05
5.53244860898741e-07,1.0496535163363234e-06,1.2216312056262348e-06,2.441031723304683e-05
5.555488126729888e-07,1.044549973600804e-06,1.2265203272841948e-06,2.432025090958272e-05
5.577719686154085e-07,1.0393905837506865e-06,1.2315615079668104e-06,2.422219872095089e-05
5.599320597683033e-07,1.034201617536384e-06,1.2367478545696941e-06,2.4116179923018037e-05
5.620501140136267e-07,1.0290093915950977e-06,1.2420572307835355e-06,2.400211336938684e-05
5.641438237336919e-07,1.0238384344139172e-06,1.2474568423139357e-06,2.387985427804963e-05
5.662240882983695e-07,1.0187079950402345e-06,1.2529064919113978e-06,2.3749242874856426e-05
5.682953466316942e-07,1.0136319878941977e-06,1.2583594592670848e-06,2.3610158787705138e-05
5.7035784765442e-07,1.0086245408970475e-06,1.2637625976346621e-06,2.3462551850434368e-05
5.724104062609123e-07,1.0037059846692966e-06,1.2690572289542198e-06,2.3306440944458786e-05
5.744537552616074e-07,9.989053640515443e-07,1.2741798492999234e-06,2.314188748888772e-05
5.764929279126986e-07,9.942612927797941e-07,1.2790619018334594e-06,2.2968942304313308e-05
5.785356386260144e-07,9.89819103103351e-07,1.2836298491709508e-06,2.2787595411613626e-05
5.805881793370404e-07,9.85621868801595e-07,1.2878066030638795e-06,2.259778243551164e-05
5.826536621942555e-07,9.817019221953138e-07,1.29151422926259e-06,2.239945198597924e-05
5.847329711462675e-07,9.780778819332591e-07,1.2946763761412965e-06,2.219264574607565e-05
5.86825092909197e-07,9.747544558990768e-07,1.2972186028130434e-06,2.1977546582758583e-05
5.889256984752607e-07,9.717242613436398e-07,1.2990684449832588e-06,2.1754501731837967e-05
5.910255294410431e-07,9.689722608929628e-07,1.3001587038658664e-06,2.1524046379733647e-05
5.93110837118199e-07,9.664796274180661e-07,1.3004322221641834e-06,2.1286907755058244e-05
5.95166267205398e-07,9.642240244184867e-07,1.2998432450195386e-06,2.1043969235193672e-05
5.971765465277923e-07,9.621782332327382e-07,1.2983545674831914e-06,2.0796211728371884e-05
5.991251753025939e-07,9.603120246694592e-07,1.295935346612967e-06,2.054465603874241e-05
6.009937271684255e-07,9.585977591916031e-07,1.292565111683467e-06,2.029031613103364e-05
6.027633193133955e-07,9.570153076125677e-07,1.288240938598567e-06,2.0034147225909346e-05
6.044164152873655e-07,9.555528137081956e-07,1.2829780195742818e-06,1.977697688923223e-05
6.059383409923702e-07,9.542029655289343e-07,1.2768020401004983e-06,1.9519449248732362e-05
6.073190625190706e-07,9.529580277129902e-07,1.2697424985392128e-06,1.926201723092821e-05
6.0855505317234e-07,9.518074608405552e-07,1.2618331342622535e-06,1.9004978504546022e-05
6.096503096551397e-07,9.507376658302237e-07,1.253115490896938e-06,1.874853052777512e-05
6.106159955296586e-07,9.497314569865361e-07,1.2436396659852364e-06,1.8492837846872626e-05
6.114673927948376e-07,9.487677316159948e-07,1.233462785599816e-06,1.8238100268617493e-05
6.122185655722296e-07,9.478231394173824e-07,1.222648516248831e-06,1.7984569508153424e-05
6.128800136184578e-07,9.468760587882469e-07,1.2112665567409408e-06,1.7732500498341802e-05
6.13461952248246e-07,9.459121395072094e-07,1.199390004983087e-06,1.7482115015859077e-05
6.139783449440654e-07,9.449300237302456e-07,1.1870932846894304e-06,1.7233632102249885e-05
6.144462065553515e-07,9.439447153312609e-07,1.1744539611250764e-06,1.698732145320809e-05
6.148812305504468e-07,9.429862719090208e-07,1.1615577246270928e-06,1.6743499366896177e-05
6.152951365689159e-07,9.420948585753643e-07,1.1485020605639956e-06,1.650246067622646e-05
6.156959369589363e-07,9.41315662242987e-07,1.1353947648560397e-06,1.6264440251245526e-05
6.160876669276654e-07,9.40694628954612e-07,1.122349517095456e-06,1.6029666063279626e-05
6.164692170220022e-07,9.402728355040094e-07,1.1094810011388136e-06,1.579846856282781e-05
6.168348002191353e-07,9.400802735207994e-07,1.096897693848597e-06,1.5571388096552332e-05
6.171755717827591e-07,9.401349898001381e-07,1.0846934322108215e-06,1.5349249644917912e-05
6.174801302601172e-07,9.404494294869673e-07,1.0729419343919486e-06,1.5133216106666376e-05
6.177338887842988e-07,9.410367738267742e-07,1.0616955467831123e-06,1.492480521046964e-05
6.179195493280313e-07,9.419109667685396e-07,1.0509875962026764e-06,1.472578835744556e-05
6.180198778416595e-07,9.430824087125929e-07,1.0408379299143084e-06,1.4537960094383166e-05
6.180200717019093e-07,9.44555155587401e-07,1.0312604504557205e-06,1.4362891333268494e-05
6.17907373953944e-07,9.463285157187994e-07,1.0222691868158744e-06,1.4201781282284783e-05
6.176697587722821e-07,9.484001718474718e-07,1.0138793077151217e-06,1.4055431968649717e-05
6.172948465430996e-07,9.50766568546192e-07,1.0061044565851535e-06,1.3924285165432355e-05
6.167688446766094e-07,9.534213261333124e-07,9.989560092834304e-07,1.3808465523917214e-05
6.160767148106361e-07,9.563551430531669e-07,9.92446781051827e-07,1.3707858494776488e-05
6.152032189798428e-07,9.595564048978515e-07,9.865957789597378e-07,1.3622281704036167e-05
6.141333416525087e-07,9.630092335188251e-07,9.814293557736281e-07,1.3551671171580818e-05
6.128522712872028e-07,9.666900794109496e-07,9.769773552026942e-07,1.3496099860113633e-05
6.113451829294484e-07,9.705660747526765e-07,9.732669616049913e-07,1.3455616760169796e-05
6.095972041109081e-07,9.745953667149105e-07,9.703184639109109e-07,1.343007977997785e-05
6.075950574404143e-07,9.787288733397645e-07,9.681442567802043e-07,1.3419122849047991e-05
6.053304360010286e-07,9.829134764314114e-07,9.667486259658207e-07,1.3422334944209386e-05
6.028020281448246e-07,9.87095736134125e-07,9.66125713704783e-07,1.3439611855986376e-05
6.0001335803174e-07,9.912254318513303e-07,9.66257024756345e-07,1.3471421238862922e-05
5.969690949967302e-07,9.952579039975957e-07,9.671124340455842e-07,1.3518772695547827e-05
5.936748472500984e-07,9.99152664877347e-07,9.686542833642022e-07,1.3582997873208102e-05
5.901393510261734e-07,1.002868908147822e-06,9.708390823219686e-07,1.366553510620127e-05
5.86374509257675e-07,1.0063626580750485e-06,9.73615374147061e-07,1.376777939449512e-05
5.823933891980079e-07,1.0095873778252709e-06,9.769222620310516e-07,1.3890985689240876e-05
5.782086741139886e-07,1.0124958765320251e-06,9.80690654546795e-07,1.4036212365721646e-05
5.738322453138764e-07,1.0150415632417192e-06,9.848451918592544e-07,1.4204297409711072e-05
5.692754717422325e-07,1.0171783263236313e-06,9.893058741105424e-07,1.4395850826957833e-05
5.64548973230666e-07,1.018859917814952e-06,9.939901781025656e-07,1.4611232494447513e-05
5.596619945697764e-07,1.0200399780587364e-06,9.98815261562736e-07,1.4850494876408853e-05
5.546234624337458e-07,1.0206725388750515e-06,1.0037004698777262e-06,1.5113299930231693e-05
5.494441703605599e-07,1.0207136202435972e-06,1.0085718089034184e-06,1.53988518331443e-05
5.441370960376912e-07,1.0201249343460822e-06,1.0133658301515935e-06,1.5705889840073746e-05
5.387157976364522e-07,1.0188787733826807e-06,1.01802810666286e-06,1.6032744832089497e-05
5.331935770625411e-07,1.016962218273468e-06,1.0225072216616522e-06,1.6377433237490922e-05
5.275860650952209e-07,1.014378710950247e-06,1.0267500178028287e-06,1.6737767757137473e-05
5.219168993040789e-07,1.0111452305119775e-06,1.0307012365595372e-06,1.7111466219415615e-05
5.162196471994252e-07,1.0072855099784278e-06,1.034306580672323e-06,1.7496247680595973e-05
5.105318694201779e-07,1.002823137581622e-06,1.037518203778147e-06,1.7889918121013587e-05
5.048880097060515e-07,9.977783791436687e-07,1.0402999696459486e-06,1.8290424321421705e-05
4.99317483535522e-07,9.921681624335823e-07,1.0426272793323496e-06,1.869585066901965e-05
4.938467357850783e-07,9.860068107912451e-07,1.0444808813908764e-06,1.9104383834401958e-05
4.885011669805632e-07,9.793068019014568e-07,1.0458403708590442e-06,1.9514280632133468e-05
4.833044492662532e-07,9.720791704559905e-07,1.0466814414647987e-06,1.9923823881566786e-05
4.78277079630214e-07,9.643339942623366e-07,1.046976559805948e-06,2.033125221431454e-05
4.734373631928343e-07,9.560821444810957e-07,1.046697790298413e-06,2.0734727721396908e-05
4.688039517419779e-07,9.473370594922242e-07,1.0458194565851336e-06,2.1132388990626694e-05
4.643962029560235e-07,9.381156395064924e-07,1.044319228686775e-06,2.152242686974704e-05
4.602308978534136e-07,9.284402374345215e-07,1.0421785616926017e-06,2.1903124657110308e-05
4.563183287758685e-07,9.183415292768484e-07,1.039381804638928e-06,2.227287513483316e-05
4.5266156458526545e-07,9.078592387076599e-07,1.0359142789866109e-06,2.263017726241266e-05
4.492600454065292e-07,8.970393773415573e-07,1.0317632666948287e-06,2.297360194140288e-05
4.461153087046846e-07,8.859295064087696e-07,1.0269234124110963e-06,2.330178104217691e-05
4.4323335382759626e-07,8.745749507262558e-07,1.0214029334071673e-06,2.361349481792049e-05
4.406211019276748e-07,8.630173569014649e-07,1.0152256598133766e-06,2.39078504538458e-05
4.3828168796161004e-07,8.512953387185194e-07,1.008426466725117e-06,2.418445635644998e-05
4.3621337749847966e-07,8.394475141419924e-07,1.001042859029616e-06,2.444345747733349e-05
4.34411316218233e-07,8.275174187596342e-07,9.931089021542193e-07,2.468539684243586e-05
4.3286891788770797e-07,8.155575966893681e-07,9.846548152808924e-07,2.49110153001884e-05
4.315774641425587e-07,8.036290745357145e-07,9.757103054038334e-07,2.512107972848972e-05
4.305250673387253e-07,7.917948760480581e-07,9.663080810620623e-07,2.531624391484372e-05
4.2969711723610574e-07,7.801118529782722e-07,9.564853822081609e-07,2.5496940654051502e-05
4.290787319670779e-07,7.686267701645337e-07,9.462825531818545e-07,2.5663330288478047e-05
4.2865700776756884e-07,7.573786177379701e-07,9.357394771526394e-07,2.581531747751487e-05
4.2842112056157756e-07,7.464048243150246e-07,9.248935073252479e-07,2.595260761242471e-05
4.28360914778056e-07,7.357475407297829e-07,9.137803892134469e-07,2.6074782400869808e-05
4.284654859772102e-07,7.254567727466579e-07,9.024348890009956e-07,2.6181436532506265e-05
4.287221430250672e-07,7.155872310545819e-07,8.908907292159841e-07,2.6272431835744242e-05
4.2911621672930046e-07,7.061894162733168e-07,8.791843049859136e-07,2.634816226058489e-05
4.2963370463448465e-07,6.973024790290335e-07,8.673613890025752e-07,2.6409573537416006e-05
4.3026530291105117e-07,6.889543255135961e-07,8.554786704748148e-07,2.6457914858027246e-05
4.3100652980763967e-07,6.811653529900886e-07,8.43597455001938e-07,2.6494548785408254e-05
4.318539826286457e-07,6.739500237636289e-07,8.317781342737416e-07,2.6521008772522228e-05
4.328022930526222e-07,6.673156831871181e-07,8.200815354437987e-07,2.6539088425386467e-05
4.33842956214483e-07,6.612621727967107e-07,8.085705238054726e-07,2.655075912451024e-05
4.349639883630456e-07,6.557832718738383e-07,7.973057738071572e-07,2.655801098288784e-05
4.361500818259947e-07,6.508676933330185e-07,7.863420666843484e-07,2.6562740084318584e-05
4.3738314642381637e-07,6.465005635551411e-07,7.757319258451595e-07,2.6566661917980414e-05
4.386432020877244e-07,6.426670320974911e-07,7.655319849944448e-07,2.6571233040902595e-05
4.399093766213224e-07,6.393558686953812e-07,7.558037413264919e-07,2.657761203355716e-05
4.411611371810467e-07,6.36561861759513e-07,7.466080537254055e-07,2.658665079929899e-05
4.423799076267165e-07,6.34287422566909e-07,7.379986575960567e-07,2.6598892798082017e-05
4.435495407742506e-07,6.325423973019015e-07,7.300174542552858e-07,2.6614606559105646e-05
4.4465497157082136e-07,6.313404220252764e-07,7.226919675506738e-07,2.6633877366895722e-05
4.4568139477349797e-07,6.306921667929445e-07,7.160353115361022e-07,2.66567186658881e-05
4.46615590978868e-07,6.306002226041814e-07,7.10047702393873e-07,2.6683144010386178e-05
4.474477367125613e-07,6.310589497550231e-07,7.047193708515519e-07,2.6713166625523102e-05
4.481711158346053e-07,6.320554977209992e-07,7.000351496459725e-07,2.6746722624664748e-05
4.487800931948257e-07,6.335688194487762e-07,6.959793527483975e-07,2.678354833903989e-05
4.492696728118721e-07,6.355693547217925e-07,6.925397796375483e-07,2.682308527084679e-05
4.496378622627439e-07,6.380213175210282e-07,6.897092134508574e-07,2.6864466203502678e-05
4.4988802013934357e-07,6.408857636136953e-07,6.874820936361567e-07,2.6906564568461388e-05
4.5002860074908583e-07,6.441230962896426e-07,6.858476964749298e-07,2.6948073278777083e-05
4.50071043235005e-07,6.47694482556208e-07,6.84784869736537e-07,2.698759134134328e-05
4.5002993854286003e-07,6.515607520290935e-07,6.842614690078842e-07,2.7023694246704665e-05
4.499278623581929e-07,6.556795564742895e-07,6.842381372992456e-07,2.705498679133928e-05
4.4979828503660457e-07,6.600036695638122e-07,6.846744732187265e-07,2.7080142174850392e-05
4.496802581180288e-07,6.644818187519558e-07,6.855340102678509e-07,2.709790789306764e-05
4.4961114982752207e-07,6.690628302304181e-07,6.867849954353498e-07,2.710708015927456e-05
4.4962402689417707e-07,6.737007778483296e-07,6.883985771559737e-07,2.710648177737452e-05
4.497462725516737e-07,6.783556233970761e-07,6.903486858740103e-07,2.709497723931709e-05
4.4999771394941996e-07,6.82990438993341e-07,6.926154891566884e-07,2.7071542674425462e-05
4.503915200839781e-07,6.87570038697355e-07,6.951913606455621e-07,2.7035344916102066e-05
4.509365142370141e-07,6.920612046985993e-07,6.980860840049669e-07,2.698573732419927e-05
4.516370314265643e-07,6.96434006827798e-07,7.013273823645636e-07,2.692218140406021e-05
4.5249158565481976e-07,7.006624034362221e-07,7.049559325347361e-07,2.684420620178087e-05
4.534935695048933e-07,7.047215318369486e-07,7.090162014131978e-07,2.6751426054201808e-05
4.5463375110489893e-07,7.085843679974184e-07,7.135455495650733e-07,2.66435367865513e-05
4.5590259441629646e-07,7.122210404432995e-07,7.185666541224848e-07,2.6520297563723075e-05
4.572915862077404e-07,7.155999651687106e-07,7.240858568888489e-07,2.638158897122291e-05
4.587943115514954e-07,7.186897166331688e-07,7.30094590996056e-07,2.622753076352849e-05
4.6040839680879204e-07,7.214620631634685e-07,7.365712542106702e-07,2.605853436755348e-05
4.621380968696449e-07,7.238945628829474e-07,7.434826165204836e-07,2.587525393844505e-05
4.6399554178706243e-07,7.259697650213511e-07,7.507850656487165e-07,2.5678504881034424e-05
4.659978466668496e-07,7.27672347969404e-07,7.58428542473283e-07,2.5469191673775423e-05
4.6816088131214456e-07,7.28987742642464e-07,7.663634643151216e-07,2.524824375596254e-05
4.70495328942958e-07,7.299039287615609e-07,7.745464700130487e-07,2.5016555928457188e-05
4.730065597665615e-07,7.304163297845698e-07,7.829438554977136e-07,2.477495124232496e-05
4.756945730867651e-07,7.305314685891352e-07,7.915345490848107e-07,2.452419439619505e-05
4.785536874390957e-07,7.30264442183841e-07,8.003113153806144e-07,2.426502880618947e-05
4.815732658277485e-07,7.296329789593091e-07,8.092789354406291e-07,2.3998170318019626e-05
4.847385259290139e-07,7.286548567785284e-07,8.18451419572941e-07,2.372426427531424e-05
4.880312972556369e-07,7.273499926988697e-07,8.278488702588243e-07,2.344390632428666e-05
4.91431263258226e-07,7.257422042678552e-07,8.374920541332968e-07,2.3157801910436057e-05
4.9491754271671e-07,7.238568199718649e-07,8.473942452898658e-07,2.286694482881689e-05
4.984713007523979e-07,7.217167577150868e-07,8.575539733022955e-07,2.257260818414031e-05
5.020795102091223e-07,7.193415296615594e-07,8.679536716501549e-07,2.2276233498052807e-05
5.057360988167396e-07,7.167488742587937e-07,8.78564095371809e-07,2.197941587884704e-05
5.094386927197417e-07,7.139559098500976e-07,8.893496316486725e-07,2.1683908862427577e-05
5.131865654433037e-07,7.109795708119667e-07,9.002708577799818e-07,2.139155921458127e-05
5.169824195297952e-07,7.078382689915005e-07,9.112842954816952e-07,2.1104226823797686e-05
5.208322831342927e-07,7.045544725771276e-07,9.223416299164585e-07,2.082370753958738e-05
5.247414216412114e-07,7.0115495395597e-07,9.333897491817308e-07,2.055165554316352e-05
5.287117868896104e-07,6.976674943391555e-07,9.44371345257835e-07,2.028953209727003e-05
5.327431279192958e-07,6.941188828602732e-07,9.55225972033538e-07,2.003859578471181e-05
5.368336062621304e-07,6.905372304989604e-07,9.658911523810806e-07,1.979990248483227e-05
5.409778435988466e-07,6.869540083275998e-07,9.763026273881395e-07,1.9574273919962307e-05
5.451649804897512e-07,6.834032726692242e-07,9.863936504002053e-07,1.936225653758793e-05
5.493787642058325e-07,6.799206908849283e-07,9.960943819056188e-07,1.9164118139824127e-05
5.53598062566511e-07,6.765424137652365e-07,1.0053325389269505e-06,1.897989554388954e-05
5.57796638099409e-07,6.733017967306479e-07,1.0140360396228027e-06,1.8809493449040084e-05
5.619446329168518e-07,6.702253688391768e-07,1.022137397662263e-06,1.865280194291756e-05
5.66013055581e-07,6.673315398800361e-07,1.0295767853384515e-06,1.8509766846096915e-05
5.699775062305843e-07,6.646320491448354e-07,1.0363008709678983e-06,1.8380390522354723e-05
5.738174247378554e-07,6.621329383225518e-07,1.0422596456182991e-06,1.8264689680268963e-05
5.775127368812445e-07,6.598348850807479e-07,1.047404689645418e-06,1.8162644887351558e-05
5.810418731465758e-07,6.577365157140025e-07,1.0516890799198792e-06,1.807415443508993e-05
5.843819158213134e-07,6.558407861691971e-07,1.0550687243867621e-06,1.7998987128906413e-05
5.875091395434474e-07,6.541584772585328e-07,1.057504898261554e-06,1.7936771646512064e-05
5.903991280015339e-07,6.527055978438874e-07,1.0589659297989174e-06,1.7887098908767058e-05
5.930268233870279e-07,6.515003131432881e-07,1.0594277746499501e-06,1.7849727795287383e-05
5.953663807913847e-07,6.505657358120675e-07,1.0588753077604342e-06,1.7824726908611714e-05
5.973910116044265e-07,6.499362952445305e-07,1.0573041660255091e-06,1.781239950514964e-05
5.990737014127937e-07,6.496617053131758e-07,1.0547238794503201e-06,1.7813048970099996e-05
6.003893886548936e-07,6.498070357135538e-07,1.0511632166160354e-06,1.782677133197115e-05
6.013182461132361e-07,6.504495638136479e-07,1.0466725878754484e-06,1.7853452905084004e-05
6.018478535014293e-07,6.51671846557769e-07,1.0413184016084505e-06,1.7893077367596975e-05
6.019722155601604e-07,6.535511765278467e-07,1.0351734805773328e-06,1.794617444142943e-05
6.016893989517872e-07,6.561486333430857e-07,1.028312676554105e-06,1.8013982296244486e-05
6.010007555174555e-07,6.595030335971495e-07,1.0208157883617556e-06,1.8098145697930607e-05
5.999108828693076e-07,6.636324911372701e-07,1.0127709363416142e-06,1.820024187553846e-05
5.984266800427748e-07,6.685403788529193e-07,1.0042755640497494e-06,1.8321448859691253e-05
5.965571562097876e-07,6.742198089271954e-07,9.954385750865205e-07,1.846240018877576e-05
5.943146606780582e-07,6.806556682591465e-07,9.863821053062274e-07,1.862317331172799e-05
5.917154611649431e-07,6.87827512384821e-07,9.772380302837156e-07,1.8803370260340525e-05
5.887797053692487e-07,6.95712201349776e-07,9.681398763906756e-07,1.900220273998173e-05
5.855315350962117e-07,7.042826607535491e-07,9.592143176156276e-07,1.9218518916269056e-05
5.819978178230674e-07,7.135051519882604e-07,9.505744703603884e-07,1.9450825686645072e-05
5.782060134935365e-07,7.233415239707602e-07,9.423146768000879e-07,1.969738562585797e-05
5.741845527233319e-07,7.337586517737431e-07,9.345069818484644e-07,1.995636802617957e-05
5.699654485724723e-07,7.447406078687338e-07,9.272009906381106e-07,2.0225961861105484e-05
5.655845416069822e-07,7.562978533185985e-07,9.204265513870041e-07,2.0504401402491167e-05
5.610777570568533e-07,7.684713825657142e-07,9.141978017520435e-07,2.0789940801299912e-05
5.564768943182358e-07,7.813308414047357e-07,9.08518880657308e-07,2.1080839814630342e-05
5.518082452317409e-07,7.949620390538581e-07,9.03389436050428e-07,2.1375370355592075e-05
5.470940056727696e-07,8.094438609550815e-07,8.988073350033714e-07,2.1671829816102662e-05
5.4235548589072e-07,8.248282753452406e-07,8.947694889476013e-07,2.1968569715492546e-05
5.376172172727693e-07,8.411358360898132e-07,8.912717613190066e-07,2.2264010168875408e-05
5.329089070914073e-07,8.583631774132736e-07,8.883077251741501e-07,2.2556590641855648e-05
5.282631713945436e-07,8.764929080714695e-07,8.858666194039622e-07,2.284468568481956e-05
5.237120063496034e-07,8.955005038039253e-07,8.839307401351177e-07,2.3126560930164183e-05
5.192855077923581e-07,9.153568352428263e-07,8.824734682755104e-07,2.340040396980761e-05
5.150133517266039e-07,9.360276899572069e-07,8.814590091765164e-07,2.3664423036501322e-05
5.10926677153444e-07,9.574716798406393e-07,8.808428168555563e-07,2.3916979638137666e-05
5.070574902531279e-07,9.796366368335978e-07,8.805722783292109e-07,2.4156671290300918e-05
5.034381996605742e-07,1.0024553587598764e-06,8.805888028406572e-07,2.4382303431726707e-05
5.001035889815051e-07,1.0258426252621985e-06,8.808313846700052e-07,2.459281174517641e-05
4.970898177214366e-07,1.0496950214747079e-06,8.812390730455635e-07,2.4787221063936225e-05
4.94429199242057e-07,1.0738954277557597e-06,8.817504207497792e-07,2.4964648223004865e-05
4.921473477562143e-07,1.0983227335490477e-06,8.823020826105969e-07,2.512432020646773e-05
4.902638190825107e-07,1.1228606616717058e-06,8.828292866219328e-07,2.5265563742396405e-05
4.887929297042177e-07,1.1473978950950772e-06,8.83268285833601e-07,2.538774371670941e-05
4.877454446431597e-07,1.171821343272853e-06,8.835592022798104e-07,2.549020685661269e-05
4.871309292061996e-07,1.1960108379227063e-06,8.836473463580219e-07,2.5572279327398222e-05
4.869571288313884e-07,1.2198390542914356e-06,8.834841478955027e-07,2.563329661725097e-05
4.872264843165762e-07,1.2431749211793812e-06,8.830299871790977e-07,2.567266906794562e-05
4.879337175725632e-07,1.2658885994716034e-06,8.822569587299466e-07,2.568998378645657e-05
4.890660425661282e-07,1.2878565704026922e-06,8.811500994218576e-07,2.5685057389180246e-05
4.906045813587268e-07,1.308963952507967e-06,8.797084117489547e-07,2.5657890225978863e-05
4.925255240563332e-07,1.3291027078570318e-06,8.77943113041453e-07,2.560858098277227e-05
4.948011030063382e-07,1.3481687567847451e-06,8.758708959607193e-07,2.5537275980057454e-05
4.974006008381834e-07,1.3660619076432742e-06,8.735075031618119e-07,2.544417385045849e-05
5.002901441424383e-07,1.3826889706517386e-06,8.708662396946536e-07,2.532953765860785e-05
5.034320319518279e-07,1.3979675742543705e-06,8.6795991994256e-07,2.5193665551994367e-05
5.067878083759018e-07,1.4118278838591699e-06,8.648050620753203e-07,2.503686077543161e-05
5.103251517422415e-07,1.4242106542107337e-06,8.614273284137483e-07,2.4859524022927647e-05
5.140217130208128e-07,1.4350640866231818e-06,8.578649650734564e-07,2.466242354813089e-05
5.178634824769507e-07,1.4443432935411837e-06,8.541681674184357e-07,2.4446947061800008e-05
5.218431372073965e-07,1.4520108658129557e-06,8.503931320491847e-07,2.4215055400493483e-05
5.259601479906365e-07,1.4580365648173962e-06,8.465926296796004e-07,2.396895988976571e-05
5.3022006444743e-07,1.4623986248337782e-06,8.428094274666644e-07,2.3710808228958398e-05
5.346322654129712e-07,1.4650866390375734e-06,8.390747936135382e-07,2.3442625300206725e-05
5.392063467835744e-07,1.4661029600102836e-06,8.354100100045997e-07,2.316654660376846e-05
5.439485673878052e-07,1.4654626378659011e-06,8.318304723591873e-07,2.288509785712638e-05
5.488592573352304e-07,1.4631939333453302e-06,8.283503749002702e-07,2.2601234447749466e-05
5.539303279252793e-07,1.4593389835448406e-06,8.249848531912479e-07,2.2318145958886665e-05
5.591443499615369e-07,1.453951915065972e-06,8.217514034658763e-07,2.203899591932436e-05
5.644761436667885e-07,1.4470946949546757e-06,8.186732155030977e-07,2.1766712799545708e-05
5.698949006950715e-07,1.438833389854784e-06,8.157810985443759e-07,2.150388490961523e-05
5.753665122433697e-07,1.4292356612527115e-06,8.13109726561633e-07,2.12527352981908e-05
5.808569998474787e-07,1.4183707732279243e-06,8.106894982799802e-07,2.101511041659953e-05
5.863366366530578e-07,1.4063126684797605e-06,8.085401255183871e-07,2.07924577661178e-05
5.917827235383026e-07,1.3931431261939337e-06,8.066712427029408e-07,2.0585803655929145e-05
5.971779204988797e-07,1.3789523488621728e-06,8.050867442689094e-07,2.0395751194782817e-05
6.025048183083432e-07,1.363836001666298e-06,8.037859660890578e-07,2.0222537323459154e-05
6.077419780247768e-07,1.3478892504483557e-06,8.027635698593139e-07,2.006615362293084e-05
6.128644495420734e-07,1.3312013068226584e-06,8.020134010682137e-07,1.9926458275586027e-05
