3.262559162054836e-07,6.467731986809257e-07,1.2188074271012658e-06,3.692313782719963e-05
3.2679995156686375e-07,6.371488158433364e-07,1.1949267622257644e-06,3.692448365084176e-05
3.2737614325254033e-07,6.287493717057929e-07,1.1723692833734613e-06,3.688720835878793e-05
3.279797103734093e-07,6.21614428216884e-07,1.1513071262992952e-06,3.681160746303296e-05
3.286073421619616e-07,6.157646378935712e-07,1.1319090116000907e-06,3.669800532732191e-05
3.292573421979602e-07,6.112104438259874e-07,1.114333505904614e-06,3.654680086272471e-05
3.2992812845326737e-07,6.079580823224329e-07,1.098718436176157e-06,3.635851422642293e-05
3.306168508260163e-07,6.06008048064515e-07,1.0851743632747176e-06,3.613383687005256e-05
3.313189492202421e-07,6.053521675626125e-07,1.0737907372868995e-06,3.5873655380288105e-05
3.320280765883448e-07,6.059768396124835e-07,1.064649469845418e-06,3.5579010258478114e-05
3.3273689649869125e-07,6.078697927348188e-07,1.057835381959818e-06,3.5251008927607275e-05
3.334392244588016e-07,6.11022493010402e-07,1.0534396101341677e-06,3.489076099070105e-05
3.3413119021691144e-07,6.154270559371014e-07,1.05155580044822e-06,3.449936746452932e-05
3.3480957298563517e-07,6.210729744135456e-07,1.0522692629172898e-06,3.407793539975278e-05
3.354698091910716e-07,6.279456962540756e-07,1.055642307532604e-06,3.36275877559652e-05
3.3610624162228645e-07,6.360256715973576e-07,1.0617031094083852e-06,3.3149466043253905e-05
3.367133633455192e-07,6.452868974832954e-07,1.0704426715687323e-06,3.264472630313902e-05
3.372862592341877e-07,6.556930078020736e-07,1.0818164281026962e-06,3.2114528187991165e-05
3.3782035817026317e-07,6.67191852760577e-07,1.0957449127747036e-06,3.1560028484724795e-05
3.383114232918919e-07,6.797136194700373e-07,1.112114008888917e-06,3.098238518695509e-05
3.387567810558908e-07,6.931737891450686e-07,1.1307805545725392e-06,3.038277133197248e-05
3.3915709488069e-07,7.074786592697858e-07,1.1515842323945792e-06,2.9762409485666838e-05
3.3951627512754696e-07,7.225332002028249e-07,1.1743566381293578e-06,2.9122630773543562e-05
3.3983919831498107e-07,7.382500579865931e-07,1.198922354096391e-06,2.8464929545073964e-05
3.4012993180232525e-07,7.545537113998916e-07,1.225102284164635e-06,2.779097922933108e-05
3.403922128601738e-07,7.713750256047481e-07,1.2527274023835615e-06,2.710261260991529e-05
3.406303468193481e-07,7.886409079895784e-07,1.2816544409884763e-06,2.6401785963910545e-05
3.4084848765921827e-07,8.062683795071006e-07,1.3117702782049765e-06,2.5690516410441105e-05
3.410492202216073e-07,8.241649381789864e-07,1.3429795056174514e-06,2.4970804688978435e-05
3.4123285913162377e-07,8.422305432571444e-07,1.3751841448830071e-06,2.424461585710902e-05
3.41397260045804e-07,8.603593180079607e-07,1.4082729429873628e-06,2.351392230391523e-05
3.415376627985839e-07,8.784422635535475e-07,1.4421225499892998e-06,2.2780724668437205e-05
3.416468995827099e-07,8.963713674314654e-07,1.4765975959935964e-06,2.2047042913388084e-05
3.4171636940398345e-07,9.140440141598921e-07,1.5115468924201081e-06,2.1314930153662802e-05
3.417373745816718e-07,9.313650555672442e-07,1.5468051157520937e-06,2.058650932830661e-05
3.417027110271903e-07,9.482448474756307e-07,1.582202554900308e-06,1.9864024362683672e-05
3.416088637558389e-07,9.645959061552362e-07,1.6175738185739037e-06,1.914989413141696e-05
3.414570691864332e-07,9.80332334202058e-07,1.6527569474256028e-06,1.8446708475576504e-05
3.412513213364023e-07,9.95372589136945e-07,1.6875865610494697e-06,1.7757130307130652e-05
3.409951528079551e-07,1.0096430033677411e-06,1.7218903883901595e-06,1.708374446335372e-05
3.406899496047503e-07,1.0230802177257928e-06,1.7554902110482675e-06,1.6428910554132185e-05
3.403357816641733e-07,1.0356318800866859e-06,1.7882035262705639e-06,1.5794681363524326e-05
3.3993467336101885e-07,1.0472560432029622e-06,1.8198470078153538e-06,1.5182862715196393e-05
3.3949421336017213e-07,1.057920781652591e-06,1.8502424108745808e-06,1.4595193624791824e-05
3.390291870546062e-07,1.0676026954373094e-06,1.8792215932990787e-06,1.403349587776369e-05
3.3856083276364825e-07,1.0762825308191365e-06,1.906632479798003e-06,1.3499677373871655e-05
3.381136537241324e-07,1.083940859187165e-06,1.932351603717379e-06,1.2995603058916769e-05
3.377110479525974e-07,1.0905568449922554e-06,1.9562990637390747e-06,1.2522935540454599e-05
3.373725358098484e-07,1.0961099020297837e-06,1.978442888330763e-06,1.2083052766601672e-05
3.371132629444256e-07,1.1005822906329005e-06,1.9987863072278144e-06,1.1677063244406745e-05
3.36944438886533e-07,1.103959892904474e-06,2.0173458205356703e-06,1.1305862015944408e-05
3.3687456358984103e-07,1.1062308221869231e-06,2.0341346923141186e-06,1.0970205496095534e-05
3.369111410751163e-07,1.1073840339592174e-06,2.0491600972742013e-06,1.0670853762355341e-05
3.370608248732553e-07,1.107409223459373e-06,2.062428923943082e-06,1.0408739961794716e-05
3.373284399800309e-07,1.106298089745013e-06,2.0739510511974467e-06,1.0184993575977534e-05
3.37717249276471e-07,1.1040475383880637e-06,2.0837371850518792e-06,1.0000774224463189e-05
3.382292649993976e-07,1.100666560102787e-06,2.0917963587070084e-06,9.85706187916902e-06
3.3886409744934695e-07,1.0961844345767166e-06,2.09813573480231e-06,9.754506150960317e-06
3.396187140557206e-07,1.090653273057364e-06,2.1027620940371013e-06,9.693385843115047e-06
3.404895592625647e-07,1.084143333442057e-06,2.105683588764592e-06,9.673767660662257e-06
3.4147405088022497e-07,1.0767345534108693e-06,2.106909506594141e-06,9.695797856377574e-06
3.4256916404542306e-07,1.068507700551614e-06,2.106447671003539e-06,9.759872980774367e-06
3.437700542673412e-07,1.0595401084244395e-06,2.1043018438407293e-06,9.866589241237365e-06
3.450709048367744e-07,1.0499066507089116e-06,2.100473104154599e-06,1.001658023848705e-05
3.4646577704839177e-07,1.0396817672947431e-06,2.0949679269893368e-06,1.0210345023705776e-05
3.47949028353726e-07,1.0289419902700202e-06,2.0878075736161525e-06,1.0448116720984785e-05
3.4951580040148e-07,1.01776722502012e-06,2.079030368563892e-06,1.0729788756421717e-05
3.51160829522453e-07,1.0062366877328434e-06,2.0686869360375856e-06,1.1054885935191203e-05
3.528761252077737e-07,9.944226331285046e-07,2.0568331232293697e-06,1.1422566003353895e-05
3.546498147600222e-07,9.823872289651762e-07,2.0435258993889665e-06,1.1831636355678801e-05
3.564663563797827e-07,9.701822991146574e-07,2.028828186383918e-06,1.228056360816152e-05
3.583074522438882e-07,9.578508033381556e-07,2.0128206935774067e-06,1.2767470531537727e-05
3.601531692513518e-07,9.454311406132522e-07,1.995608983347264e-06,1.3290136056542231e-05
3.619825021153904e-07,9.329633189793827e-07,1.9773164608566088e-06,1.3846000326146546e-05
3.637732643690416e-07,9.204920663128456e-07,1.9580682932659785e-06,1.443216268003674e-05
3.6550224911401703e-07,9.080648319736874e-07,1.937981882957317e-06,1.5045386667686136e-05
3.671458195604223e-07,8.957281371081307e-07,1.917170559047064e-06,1.5682158543990985e-05
3.686803636031144e-07,8.835241705078873e-07,1.8957511063869283e-06,1.6338810381752522e-05
3.7008291328533297e-07,8.714877125988432e-07,1.8738467051610744e-06,1.7011652339129543e-05
3.713324752625633e-07,8.596446778496368e-07,1.8515868243946613e-06,1.769706318510965e-05
3.724116705374546e-07,8.480126397547746e-07,1.8291051617917939e-06,1.8391522980894546e-05
3.7330725216038535e-07,8.366034472255185e-07,1.8065328979660104e-06,1.9091596327209926e-05
3.7400926854281507e-07,8.254278737761595e-07,1.783989161457061e-06,1.9793905611940437e-05
3.745099592918769e-07,8.1450040549953e-07,1.7615748034868874e-06,2.0495124952882503e-05
3.7480308747511097e-07,8.038418553450725e-07,1.7393731304671401e-06,2.1191986341765053e-05
3.748851628458747e-07,7.934780421813205e-07,1.7174557271978683e-06,2.188126865555977e-05
3.7475757642070924e-07,7.834361025876816e-07,1.6958877570207198e-06,2.255975995485069e-05
3.744260385629793e-07,7.737429437359091e-07,1.6747333273586989e-06,2.322423713817449e-05
3.7389817495099954e-07,7.644262228501067e-07,1.6540638340632347e-06,2.3871496382855025e-05
3.7318197859874407e-07,7.555157948720552e-07,1.6339598394187513e-06,2.4498394859926706e-05
3.722847965718542e-07,7.470457207682317e-07,1.6145002450489669e-06,2.510186871542008e-05
3.7121269047475404e-07,7.390547531754432e-07,1.5957550096147939e-06,2.5678948877599012e-05
3.6997060366632407e-07,7.315822601177594e-07,1.577796417593001e-06,2.622679465047397e-05
3.685636442762769e-07,7.246623080789899e-07,1.5607172529634926e-06,2.674273303870487e-05
3.670002955597426e-07,7.183210409824161e-07,1.5446363670500094e-06,2.7224290136076265e-05
3.6529558301989753e-07,7.125779260743901e-07,1.5296895462477052e-06,2.7669233464729573e-05
3.634710603086157e-07,7.07448406414178e-07,1.5160130461838708e-06,2.807564572946864e-05
3.615525750709352e-07,7.029457541138618e-07,1.5037243709181678e-06,2.844200770433534e-05
3.5956721478032385e-07,6.990812254501116e-07,1.4929073742570948e-06,2.8767284387006654e-05
3.5753970638624576e-07,6.958634662367775e-07,1.48360965015837e-06,2.905100790248311e-05
3.5549038753006246e-07,6.932970071916817e-07,1.475856694923095e-06,2.9293264354838105e-05
3.5343550318593274e-07,6.913790092104197e-07,1.4696829238828015e-06,2.949453006983715e-05
3.513885754607623e-07,6.900962828397488e-07,1.465164054590294e-06,2.9655453127259974e-05
3.493622069272875e-07,6.894248408158239e-07,1.4624262072985728e-06,2.977671176930371e-05
3.473697159849336e-07,6.893320921864609e-07,1.461624126699281e-06,2.985899105316972e-05
3.4542572514102643e-07,6.897809911611979e-07,1.4629081492111268e-06,2.9903020053004858e-05
3.435446432209615e-07,6.907337746424854e-07,1.4664104856130675e-06,2.9909591998440474e-05
3.417375876890394e-07,6.921525482206256e-07,1.4722567621543797e-06,2.9879567479130188e-05
3.400106150063599e-07,6.939976389781006e-07,1.4805800639815916e-06,2.9813964384931786e-05
3.383656300598732e-07,6.962266811301022e-07,1.4915237265029325e-06,2.971416738323969e-05
3.368025489074177e-07,6.987956039488364e-07,1.5052374290352753e-06,2.9582072389246336e-05
3.353206991249063e-07,7.016611151713703e-07,1.521871541744754e-06,2.942000670150352e-05
3.339186071228393e-07,7.047832180077841e-07,1.541570192488732e-06,2.9230498152173134e-05
3.325930413016545e-07,7.081251061394959e-07,1.5644600864146142e-06,2.9016039748499232e-05
3.313383626898018e-07,7.116499593966251e-07,1.5906328656719552e-06,2.877898387028618e-05
3.3014667014294016e-07,7.15318155985527e-07,1.6201276739349447e-06,2.852169438252101e-05
3.290091491021833e-07,7.190888507466753e-07,1.6529309425247317e-06,2.8246863315094946e-05
3.279177481501479e-07,7.229257663726897e-07,1.6890084516832982e-06,2.7957672215965644e-05
3.268657646733716e-07,7.268010665239127e-07,1.7283599194689357e-06,2.765767631391633e-05
3.258476216610186e-07,7.306921722892705e-07,1.771054580860677e-06,2.735058298084177e-05
3.2485876936208074e-07,7.345751887284678e-07,1.817211273182801e-06,2.704006486679317e-05
3.238957987584405e-07,7.384210909876926e-07,1.8669449927542687e-06,2.6729617787199687e-05
3.229560390340207e-07,7.421954610417492e-07,1.9203473780130724e-06,2.6422451925177028e-05
3.220369632556612e-07,7.458606888718371e-07,1.977524508217449e-06,2.612142422624133e-05
3.211369505528066e-07,7.493799992093059e-07,2.03864175456982e-06,2.5829019667590452e-05
3.202563133717415e-07,7.52720256892399e-07,2.1039298526672923e-06,2.554737159394033e-05
3.1939668997722405e-07,7.558506876326089e-07,2.173656378821658e-06,2.527829047576244e-05
3.185597128758828e-07,7.587406673927371e-07,2.2480857292173033e-06,2.502326723758715e-05
3.17745675052721e-07,7.613628578649806e-07,2.327442500535775e-06,2.4783443377673595e-05
3.1695218537904987e-07,7.637008979245805e-07,2.4118852874839017e-06,2.4559560275443037e-05
3.1617373466124897e-07,7.657542220115141e-07,2.5014926698037535e-06,2.435191836979253e-05
3.154026760981823e-07,7.675371133382219e-07,2.596253588727174e-06,2.4160394469767332e-05
3.1463147408456513e-07,7.690738526733191e-07,2.6960538178972925e-06,2.3984531946643468e-05
3.138558685129074e-07,7.703911579174924e-07,2.8006663182255646e-06,2.382365831345114e-05
3.130769422132952e-07,7.715109516108683e-07,2.9097585293871164e-06,2.3676969589899165e-05
3.122996419937355e-07,7.724477610012162e-07,3e-07,2.354357198052952e-05
3.115291083893929e-07,7.732118032066392e-07,3e-07,2.342251856146569e-05
3.10768138523633e-07,7.738142417655582e-07,3e-07,2.331285151603329e-05
3.100162740766133e-07,7.742692034255736e-07,3e-07,2.321362841524017e-05
3.092702200991715e-07,7.745912849644399e-07,3e-07,2.312393471469119e-05
3.085269862056027e-07,7.747923246326096e-07,3e-07,2.304288507464122e-05
3.077887194718937e-07,7.748809749630702e-07,3e-07,2.2969591103686648e-05
3.07064163706415e-07,7.74864037614413e-07,3e-07,2.2903116462603688e-05
3.063655720959919e-07,7.747453737718104e-07,3e-07,2.2842466996538542e-05
3.0570624144079534e-07,7.745226895264746e-07,3e-07,2.2786602836108592e-05
3.051003844012681e-07,7.741869766499197e-07,3e-07,2.273445238461892e-05
3.045624485430013e-07,7.737249228601006e-07,3e-07,2.268495161579926e-05
3.041058918166388e-07,7.731206656350841e-07,3e-07,2.2637110048326897e-05
3.037432705416421e-07,7.72355842769193e-07,3e-07,2.2590045403169602e-05
3.0348683198932217e-07,7.714090428585278e-07,3e-07,2.254293802942167e-05
3.033474309882162e-07,7.702558896605998e-07,3e-07,2.249497553798116e-05
3.0333269413372346e-07,7.688707635167569e-07,3e-07,2.2445390784479188e-05
3.0344720824042894e-07,7.672296017519551e-07,3e-07,2.239356282823569e-05
3.0369437754330613e-07,7.653122774018077e-07,3e-07,2.233909999778583e-05
3.0407763585873985e-07,7.631041014727144e-07,3e-07,2.2281898060404127e-05
3.0459972573306013e-07,7.605967672661905e-07,3e-07,2.2222187375287407e-05
3.052607154942668e-07,7.577883763892255e-07,3e-07,2.21605247693743e-05
3.0605772679308784e-07,7.546820586754393e-07,3e-07,2.2097678933623208e-05
3.0698789126807544e-07,7.512846043820724e-07,3e-07,2.2034441242569893e-05
3.080507081729852e-07,7.476064141676506e-07,3e-07,2.197144624550155e-05
3.0924626537469894e-07,7.436613677434962e-07,3e-07,2.1909070386972197e-05
3.1057252687076375e-07,7.39466025413177e-07,3e-07,2.1847419346493507e-05
3.1202520219526575e-07,7.350391069508451e-07,3e-07,2.1786353420460386e-05
3.1359838436933343e-07,7.304001706741456e-07,3e-07,2.172554407029611e-05
3.152846204503673e-07,7.255666601496829e-07,3e-07,2.166465173086648e-05
3.1707591169224e-07,7.205516287333575e-07,3e-07,2.160363139500308e-05
3.1896500982730725e-07,7.153641990905024e-07,3e-07,2.1542941620025304e-05
3.209445302339634e-07,7.100115172037369e-07,3e-07,2.1483458138248286e-05
3.2300491344619906e-07,7.045005119214058e-07,3e-07,2.1426200556664522e-05
3.2513503923974644e-07,6.988412282651777e-07,3e-07,2.1372087608623604e-05
3.2732541400891253e-07,6.93053258118639e-07,3e-07,2.1321827348870662e-05
3.29569411184892e-07,6.871707888799429e-07,3e-07,2.127601661276129e-05
3.318609425595449e-07,6.812416069328544e-07,3e-07,2.1235403713850946e-05
3.341915689884614e-07,6.753221670980235e-07,3e-07,2.120107998904021e-05
3.3654937999295677e-07,6.694724150593198e-07,3e-07,2.1174472572512868e-05
3.38919669276712e-07,6.637518395096146e-07,3e-07,2.115723833924498e-05
3.412865216172761e-07,6.582180072296068e-07,3e-07,2.115116111920004e-05
3.436340075084828e-07,6.529265202066667e-07,3e-07,2.1158051319606235e-05
3.4594612193296106e-07,6.479289710050908e-07,3e-07,2.117963223618797e-05
3.482062477029394e-07,6.4326859492313e-07,3e-07,2.1217441435088174e-05
3.503977995830958e-07,6.389776868042729e-07,3e-07,2.127277188032483e-05
3.525061274002593e-07,6.350800850302353e-07,3e-07,2.134664003108161e-05
3.5451958905465757e-07,6.315967556546937e-07,3e-07,2.143977163860396e-05
3.564285503952507e-07,6.285507605822357e-07,3e-07,2.1552597400717067e-05
3.5822425467851173e-07,6.259710258206639e-07,3e-07,2.1685226505535035e-05
3.598988955782457e-07,6.238932781775813e-07,3e-07,2.183738596687125e-05
3.6144544272880396e-07,6.223555762685508e-07,3e-07,2.2008360356867108e-05
3.628571015530968e-07,6.213915938427586e-07,3e-07,2.2196976385466014e-05
3.641280898129557e-07,6.210262699853207e-07,3e-07,2.240165579779755e-05
3.65256127788374e-07,6.212745623256892e-07,3e-07,2.262051630435296e-05
3.6624494470366787e-07,6.221427620613046e-07,3e-07,2.285147617958155e-05
3.671038676780746e-07,6.236303956788711e-07,3e-07,2.309235494379785e-05
3.678440411802637e-07,6.257306015838732e-07,3e-07,2.334098333331369e-05
3.684753994862118e-07,6.284293850535785e-07,3e-07,2.3595302155922367e-05
3.690073373638904e-07,6.317047152728176e-07,3e-07,2.3853412022945567e-05
3.694509551661177e-07,6.355264726592707e-07,3e-07,2.4113570572425767e-05
3.6982018250431387e-07,6.398574210205451e-07,3e-07,2.437416541368929e-05
3.7013137729400356e-07,6.446536491086291e-07,3e-07,2.4633661639242302e-05
3.7040154571792477e-07,6.498644640793628e-07,3e-07,2.489051164714832e-05
3.706460876287757e-07,6.554334012469478e-07,3e-07,2.514307340727615e-05
3.708775779569298e-07,6.613018226366857e-07,3e-07,2.538958853002417e-05
3.711053593574888e-07,6.674160412183337e-07,3e-07,2.562821544673493e-05
3.713351482267048e-07,6.737348923701978e-07,3e-07,2.5857085791925047e-05
3.715689694820492e-07,6.802325077665672e-07,3e-07,2.607434380955326e-05
3.7180585860825436e-07,6.868973843445446e-07,3e-07,2.627815420810281e-05
3.720435318152051e-07,6.937324457054963e-07,3e-07,2.646671734946484e-05
3.7228013212473396e-07,7.007550314796131e-07,2.9421639140969918e-06,2.663833212372612e-05
3.7251511496530105e-07,7.07991517531318e-07,2.817435893188097e-06,2.6791490507695308e-05
3.7275005525604746e-07,7.154665695468472e-07,2.694813824390112e-06,2.6924960287521405e-05
3.72988573998641e-07,7.231957941701218e-07,2.5745866595063744e-06,2.703784300421603e-05
3.7323387945776244e-07,7.311873636116208e-07,2.457066326477118e-06,2.712962926279659e-05
3.7348623524071114e-07,7.394458720602924e-07,2.3425886677275817e-06,2.720026665465139e-05
3.737430440633647e-07,7.479713346481547e-07,2.231501782260483e-06,2.725017752689161e-05
3.740005890158e-07,7.567551357718434e-07,2.1241489533935304e-06,2.728014020918768e-05
3.742555010865314e-07,7.65777516141699e-07,2.0208547240127284e-06,2.7291071409154614e-05
3.7450606309846223e-07,7.750083746368619e-07,1.921917936842913e-06,2.728383220322931e-05
3.7475299730878243e-07,7.844090384993227e-07,1.827606513876968e-06,2.725913309674821e-05
3.7499807672638006e-07,7.939325985792259e-07,1.7381484618203288e-06,2.721752960881163e-05
3.752418588183057e-07,8.035244271924047e-07,1.6537241694276206e-06,2.7159456783306172e-05
3.754828695196949e-07,8.13125014915272e-07,1.5744680253888947e-06,2.708526506451865e-05
3.757177661547879e-07,8.226750812709623e-07,1.5004765393990302e-06,2.6995272660729347e-05
3.759414818607096e-07,8.321208530069982e-07,1.4318143427898971e-06,2.6889899684717466e-05
3.7614726630777093e-07,8.414157948473052e-07,1.3685167176005922e-06,2.67698240852464e-05
3.763267368099522e-07,8.505172811570587e-07,1.310591169244943e-06,2.6635967907640726e-05
3.76469918504832e-07,8.593821066681226e-07,1.2580171053621944e-06,2.648931837665097e-05
3.765653933780128e-07,8.679653223954729e-07,1.2107451301366562e-06,2.633076082615941e-05
3.766009198269665e-07,8.762211410524612e-07,1.1686993495679282e-06,2.6161038055754612e-05
3.7656438442204343e-07,8.841026064752969e-07,1.1317803290015886e-06,2.598092973026592e-05
3.764444871168105e-07,8.915608787739952e-07,1.0998655575543944e-06,2.5791618346241243e-05
3.7623041467834384e-07,8.985465878679684e-07,1.0728098060965748e-06,2.5594946080991878e-05
3.759106622517912e-07,9.050129913628292e-07,1.0504506705634515e-06,2.539335110993501e-05
3.754726390765537e-07,9.109210647951479e-07,1.0326207820332821e-06,2.5189619812915906e-05
3.7490359067587755e-07,9.162464454676388e-07,1.0191617585358651e-06,2.4986665409236e-05
3.741919255868616e-07,9.209833209084049e-07,1.009933249310307e-06,2.4787375446450125e-05
3.7332870986418647e-07,9.251414669103943e-07,1.00481152788203e-06,2.4594474919802986e-05
3.7230826303814563e-07,9.287381683014624e-07,1.0036760334146904e-06,2.441037724616483e-05
3.71126666155095e-07,9.317891006372385e-07,1.0063930845992512e-06,2.423705633777695e-05
3.697799401256617e-07,9.343039652250805e-07,1.0128155167498527e-06,2.4075995833852082e-05
3.682635988451086e-07,9.362915154930186e-07,1.0228057721793134e-06,2.392822218203565e-05
3.665730898022907e-07,9.377711777060331e-07,1.0362638415310614e-06,2.379435037256105e-05
3.647045998067827e-07,9.387805055747818e-07,1.0531356552089122e-06,2.367459416527513e-05
3.626556832229182e-07,9.39370347190335e-07,1.0733970109377243e-06,2.3568792355343764e-05
3.604249736907961e-07,9.395932196122023e-07,1.0970247547911307e-06,2.347649252785658e-05
3.5801122944833996e-07,9.394962609222092e-07,1.1239690514588784e-06,2.339706272214448e-05
3.5541276616527657e-07,9.391211823064008e-07,1.1541391363449978e-06,2.332981393611291e-05
3.5262766750909143e-07,9.385066331154604e-07,1.187410960105233e-06,2.327412375629372e-05
3.496544264542004e-07,9.376894389712043e-07,1.2236486095314071e-06,2.3229508520195104e-05
3.4649281077679576e-07,9.367031454398187e-07,1.2627181939772126e-06,2.319561569595874e-05
3.431443906256087e-07,9.355744914498665e-07,1.3044841815933174e-06,2.3172178419046235e-05
3.396125827959575e-07,9.343213353898785e-07,1.3487955206945543e-06,2.3158972410802082e-05
3.3590321912556555e-07,9.329553833230983e-07,1.3954712659616442e-06,2.3155767927903824e-05
3.320251177845923e-07,9.314874938267685e-07,1.4442932649744568e-06,2.3162263327215803e-05
3.27989173804709e-07,9.299301003539496e-07,1.495008919984858e-06,2.317800506272461e-05
3.238072195238415e-07,9.282966909760528e-07,1.5473377042848724e-06,2.320232483426863e-05
3.1949270408149317e-07,9.266010173991095e-07,1.6009764091784814e-06,2.3234361992266245e-05
3.150621880900873e-07,9.248548455608204e-07,1.655605232375074e-06,2.3273168939572505e-05
3.105353246469112e-07,9.230643533439544e-07,1.7108945331929704e-06,2.33177824450328e-05
3.059334881212357e-07,9.212293055443077e-07,1.766508885092052e-06,2.3367217946159186e-05
3.0127879235544697e-07,9.193465173729321e-07,1.8221090681619664e-06,2.3420459348856986e-05
2.965935095246302e-07,9.174143413380621e-07,1.8773561418056148e-06,2.347648135046923e-05
2.918990671613397e-07,9.154355353087128e-07,1.931917013734815e-06,2.353427646947004e-05
2.8721483381793705e-07,9.134192762570194e-07,1.98546712902976e-06,2.3592864113157765e-05
2.82557386179903e-07,9.11382792752915e-07,2.037693915571308e-06,2.365131614017457e-05
2.7794091411840053e-07,9.093501931378912e-07,2.088309416568722e-06,2.3708804521455603e-05
2.7337816603913953e-07,9.073478760681585e-07,2.137069108911586e-06,2.376460028127155e-05
2.6888080539310515e-07,9.054019746320988e-07,2.1837851926996e-06,2.3818021069229906e-05
2.644599195940684e-07,9.035409481965247e-07,2.2283284452392687e-06,2.3868389558287086e-05
2.6012739222542e-07,9.017978728573864e-07,2.2706177194448633e-06,2.391501202701166e-05
2.5589654042170817e-07,9.002084977894432e-07,2.310598681025716e-06,2.3957156023456688e-05
2.517809392718185e-07,8.988067796478659e-07,2.3482225644370096e-06,2.399402463878808e-05
2.477937614359168e-07,8.976195862477949e-07,2.383440125251178e-06,2.402474993951624e-05
2.4394956889634327e-07,8.966635729038477e-07,2.4162140457030842e-06,2.404843510303444e-05
2.402656835720343e-07,8.959475846564863e-07,2.446537310544474e-06,2.406423018415832e-05
2.3676055848892245e-07,8.954784270852535e-07,2.474442786695984e-06,2.4071386964810462e-05
2.3345139081996464e-07,8.952636014244083e-07,2.499999017471936e-06,2.406927105762149e-05
2.3035347277192803e-07,8.953076648423764e-07,2.5232974404060287e-06,2.405733442184648e-05
2.274819123330743e-07,8.956066869557811e-07,2.544437805344498e-06,2.4035072986375383e-05
2.2485406765139194e-07,8.961469255351238e-07,2.5635133853538453e-06,2.400203124698465e-05
2.224889171855379e-07,8.969074094027084e-07,2.5805989933680104e-06,2.3957841023819862e-05
2.2040387659808998e-07,8.978623907096466e-07,2.5957486427982756e-06,2.390223129060681e-05
2.1861288342035235e-07,8.989813524621449e-07,2.609000703695248e-06,2.383500110636684e-05
2.171258746442237e-07,9.002277791870466e-07,2.6203804381024337e-06,2.375597181881941e-05
2.159484655507032e-07,9.015603736937142e-07,2.6298983259261752e-06,2.3664974994825946e-05
2.1508246543160372e-07,9.029379252440548e-07,2.6375499225816382e-06,2.3561893125291e-05
2.145269107599239e-07,9.043245360522644e-07,2.643317536705996e-06,2.34466744578629e-05
2.1427815020543648e-07,9.056919344945528e-07,2.64717120532371e-06,2.3319300274891684e-05
2.1432955772791605e-07,9.070175882995964e-07,2.649070314758492e-06,2.3179748206027912e-05
2.146729753473708e-07,9.082799071661634e-07,2.6489668711418337e-06,2.302797292821821e-05
2.153013226412672e-07,9.094556207023392e-07,2.646809775117477e-06,2.2863914551058946e-05
2.1620927822493058e-07,9.105209022302946e-07,2.642549564790705e-06,2.268753648605028e-05
2.1739140740575696e-07,9.114515908580099e-07,2.636140956032473e-06,2.2498870533479206e-05
2.188403093882824e-07,9.122223225474312e-07,2.627541982923603e-06,2.2298038485625767e-05
2.2054617034480748e-07,9.128090878935958e-07,2.61671302854323e-06,2.2085240170026403e-05
2.2249678824981237e-07,9.13195181690679e-07,2.6036177538497103e-06,2.186073147284252e-05
2.246772100523044e-07,9.13376750038897e-07,2.5882256124177573e-06,2.1624815278395072e-05
2.270693988674221e-07,9.133643643436901e-07,2.5705164580566123e-06,2.1377824509186812e-05
2.2965281555045925e-07,9.131789609747013e-07,2.550485097851014e-06,2.112008039782045e-05
2.3240539043886647e-07,9.128448109485432e-07,2.5281412643796327e-06,2.085185968241265e-05
2.3530384109971037e-07,9.12384116197402e-07,2.503506300506971e-06,2.057339553918669e-05
2.383235399375549e-07,9.118148445486576e-07,2.4766109829917663e-06,2.028489771396717e-05
2.414384688093667e-07,9.111499899057816e-07,2.4474943269571216e-06,1.998656862556048e-05
2.44621755090664e-07,9.103963387915785e-07,2.4162033564740947e-06,1.967860810596408e-05
2.478465379683775e-07,9.095542434585726e-07,2.3827957506391756e-06,1.9361231054841e-05
2.510863374875093e-07,9.0862037881749e-07,2.347342923968272e-06,1.90347231535964e-05
2.5431525756738096e-07,9.07590201811422e-07,2.3099290747695492e-06,1.8699516869000035e-05
2.575083473332929e-07,9.064563429867693e-07,2.27064651235824e-06,1.835623438652237e-05
2.606420009897792e-07,9.052055690232372e-07,2.229591742347779e-06,1.8005665907743668e-05
2.636945097929005e-07,9.038183647754076e-07,2.1868658745750742e-06,1.7648715770735587e-05
2.666463120833364e-07,9.02271547025416e-07,2.142578696980099e-06,1.728635179462464e-05
2.6947976783843234e-07,9.005433294904526e-07,2.0968516900384173e-06,1.691955463209751e-05
2.721785932744548e-07,8.986193748743349e-07,2.0498160184548827e-06,1.6549283971042245e-05
2.747270939494016e-07,8.964965736440218e-07,2.0016069469770284e-06,1.6176475026775818e-05
2.771100842784728e-07,8.941827095374456e-07,1.952358827786055e-06,1.5802031146088474e-05
2.7931352401593407e-07,8.916938148894899e-07,1.9022031705998298e-06,1.5426800545261067e-05
2.8132490936751685e-07,8.890521760871121e-07,1.8512695684816031e-06,1.5051569259307255e-05
2.8313312655159985e-07,8.862839432309536e-07,1.7996873375815224e-06,1.4677100813795692e-05
2.8472814027142574e-07,8.834140815973056e-07,1.7475875850168674e-06,1.4304237604617444e-05
2.86101012337116e-07,8.804619396345795e-07,1.6951076713015353e-06,1.3934024560211347e-05
2.872441819944665e-07,8.774401927569388e-07,1.6423951781294025e-06,1.3567752709655527e-05
2.8815146621467147e-07,8.743545543658209e-07,1.5896056261094278e-06,1.3206880341887852e-05
2.8881772382017286e-07,8.712033887734793e-07,1.5368992020719532e-06,1.2852897161854552e-05
2.892391011410237e-07,8.679789717866119e-07,1.4844454085485236e-06,1.250720354768326e-05
2.8941404879646e-07,8.646702111622208e-07,1.4324282906279068e-06,1.2171082343454962e-05
2.8934334405990876e-07,8.612652508049522e-07,1.381039902245949e-06,1.184582565006845e-05
2.8902867823515737e-07,8.577524756961424e-07,1.3304655836697744e-06,1.1532917274086728e-05
2.884723400459084e-07,8.541201874534453e-07,1.280873631481548e-06,1.1234081905551876e-05
2.8767945209768637e-07,8.503573917446644e-07,1.2324141295076497e-06,1.0951153578339869e-05
2.866601106671165e-07,8.464567661005064e-07,1.185222098091334e-06,1.068587019779716e-05
2.854286532767892e-07,8.424184213474042e-07,1.1394188949809613e-06,1.0439711478029198e-05
2.840016683490809e-07,8.382535396257125e-07,1.0951115030197081e-06,1.0213818288404879e-05
2.8239691493206337e-07,8.339874044187784e-07,1.0523951807680937e-06,1.0008967223841831e-05
2.806326295206473e-07,8.296590219365731e-07,1.0113618298057694e-06,9.825575390785333e-06
2.7872693923600924e-07,8.253158048810638e-07,9.721099356844394e-07,9.663761759547877e-06
2.766975170895121e-07,8.210083866387823e-07,9.347548795921913e-07,9.52353154405056e-06
2.745613801243473e-07,8.167891509505036e-07,8.994390757104601e-07,9.405020938983942e-06
2.7233567229466517e-07,8.127093111952186e-07,8.663308707441825e-07,9.30858256280496e-06
2.70038629584083e-07,8.088135289114545e-07,8.356091720803437e-07,9.234653404680897e-06
2.676884212425444e-07,8.051411617708097e-07,8.074568844903602e-07,9.183578933594943e-06
2.653008708918893e-07,8.017357780226774e-07,7.820764983030659e-07,9.15552090570635e-06
2.628889496884187e-07,7.986526689692255e-07,7.59706488503482e-07,9.15049270079032e-06
2.604641513861566e-07,7.959575437097213e-07,7.406195456548013e-07,9.168568671236407e-06
2.5803762206806625e-07,7.93717595026634e-07,7.251087041349629e-07,9.210157998745594e-06
2.556201707646684e-07,7.919902006280034e-07,7.134696226783201e-07,9.276099834820856e-06
2.5322199298697445e-07,7.908162529414312e-07,7.059776877823979e-07,9.367545192238037e-06
2.5085249485523164e-07,7.902217211350906e-07,7.028612725862717e-07,9.485791326561122e-06
2.485202885033889e-07,7.902242552707895e-07,7.042807418730109e-07,9.632144417300869e-06
2.462334419813683e-07,7.908389155219906e-07,7.103228154156355e-07,9.807784656875547e-06
2.439992279097044e-07,7.920804931820652e-07,7.210094812679369e-07,1.001363795275853e-05
2.418231655204495e-07,7.939630950216627e-07,7.363110557714494e-07,1.0250287407171235e-05
2.3970865962408644e-07,7.964976080596075e-07,7.561559012419252e-07,1.0517929209856442e-05
2.376578867887976e-07,7.996873563061048e-07,7.804370012216346e-07,1.081635396630176e-05
2.3567302089970335e-07,8.035237783303039e-07,8.09019011959212e-07,1.1144929315995556e-05
2.337570992495284e-07,8.079848985320581e-07,8.417493715118309e-07,1.1502572506883973e-05
2.319145703579896e-07,8.1303808785431e-07,8.784712023857439e-07,1.1887746486781805e-05
2.3015136821895303e-07,8.18647650282018e-07,9.190305834147881e-07,1.2298512260664407e-05
2.284742008062428e-07,8.247842137993727e-07,9.632763386594525e-07,1.2732618908124553e-05
2.268896202676959e-07,8.314291771967374e-07,1.0110588108612064e-06,1.318761417292112e-05
2.254041745225632e-07,8.385727017823693e-07,1.0622341855218242e-06,1.3660975415096394e-05
2.2402503017060961e-07,8.462096135775606e-07,1.1166717267190511e-06,1.41502279862681e-05
2.2275894047140746e-07,8.54334749879634e-07,1.174251209111279e-06,1.4653019326585928e-05
2.216103534824341e-07,8.629371429709913e-07,1.2348431909075121e-06,1.5167156329928238e-05
2.2058136647887877e-07,8.71994935479325e-07,1.2982831128933062e-06,1.5690604770968334e-05
2.196734917063471e-07,8.814728419002681e-07,1.3643577357439758e-06,1.6221450868134493e-05
2.1888906130828442e-07,8.913225416997051e-07,1.43281046606885e-06,1.675786499364249e-05
2.1823159581254958e-07,9.01486028256118e-07,1.5033578192667466e-06,1.7298086132834666e-05
2.177057804492725e-07,9.119007460635842e-07,1.5757089695959152e-06,1.7840387276724326e-05
2.1731651921697889e-07,9.225050994567837e-07,1.6495877375765812e-06,1.838299732023456e-05
2.1706724906244763e-07,9.332425170524204e-07,1.7247568082755085e-06,1.8924027983287522e-05
2.1695950954907389e-07,9.440616561794285e-07,1.8010365813615783e-06,1.946145737616826e-05
2.1699369862447738e-07,9.549129025594142e-07,1.8783076584605239e-06,1.9993151993201103e-05
2.171691102676339e-07,9.657438556028669e-07,1.956493307560292e-06,2.051690055029116e-05
2.1748320849088707e-07,9.764964953417678e-07,2.0355278414726972e-06,2.103047173223541e-05
2.1793159947092925e-07,9.871076772886735e-07,2.115322336901794e-06,2.1531694426993218e-05
2.1850911940104662e-07,9.975121286382664e-07,2.1957420273987976e-06,2.2018509267775284e-05
2.1921125602022534e-07,1.0076461229099642e-06,2.2766037524071675e-06,2.2488943418488068e-05
2.2003516733643452e-07,1.017451295162818e-06,2.3576887699523917e-06,2.294104670643884e-05
2.2097935572123908e-07,1.0268777911859266e-06,2.4387611645229e-06,2.337288202986205e-05
2.2204198952411107e-07,1.0358863577494142e-06,2.5195843329564657e-06,2.378259748519243e-05
2.2322016979077438e-07,1.044449635161221e-06,2.599929634901762e-06,2.416852589318948e-05
2.2451107901382256e-07,1.0525501705492625e-06,2.679574381759057e-06,2.4529286102087813e-05
2.2591324124446665e-07,1.0601735903899644e-06,2.758291908048805e-06,2.486389142010549e-05
2.2742739683394321e-07,1.0673017987596758e-06,2.8358406083038218e-06,2.517179628590329e-05
2.2905690564917842e-07,1.073910937134457e-06,2.9119582088673963e-06,2.5452806661069e-05
2.3080646081197572e-07,1.0799720457781367e-06,2.9863628360750414e-06,2.570689809560633e-05
2.3267948238792586e-07,1.085451404610998e-06,3e-07,2.5934047859255648e-05
2.34676151367034e-07,1.0903111986717415e-06,3e-07,2.613414554983836e-05
2.3679328603005943e-07,1.094511143176917e-06,3e-07,2.630698532385564e-05
2.3902509089328737e-07,1.0980107394396959e-06,3e-07,2.645231615624342e-05
2.413633992507022e-07,1.1007722404729707e-06,3e-07,2.656993073670597e-05
2.437979766654535e-07,1.1027638293324185e-06,3e-07,2.665981000856784e-05
2.463176871250729e-07,1.103961776710427e-06,3e-07,2.6722314909431752e-05
2.4891142252642764e-07,1.1043499028167154e-06,3e-07,2.675827829068019e-05
2.515676052710051e-07,1.1039167005672342e-06,3e-07,2.6768876028114638e-05
2.5427322201165353e-07,1.1026541083950414e-06,3e-07,2.6755378318229585e-05
2.5701392165158463e-07,1.1005589341850759e-06,3e-07,2.6718964549571484e-05
2.59775926787522e-07,1.0976328920401752e-06,3e-07,2.6660739931073205e-05
2.625490634682816e-07,1.0938801246137784e-06,3e-07,2.6582006089000666e-05
2.653280157448845e-07,1.0893052392594495e-06,3e-07,2.6484608051900266e-05
2.681101703711528e-07,1.0839136901592515e-06,3e-07,2.6371058971262906e-05
2.708922579716781e-07,1.0777129350657699e-06,3e-07,2.6244389251095167e-05
2.7366841732338947e-07,1.070712426025235e-06,3e-07,2.6107912058187424e-05
2.7642993411414666e-07,1.0629245180119455e-06,3e-07,2.5965041760038308e-05
2.7916568844118786e-07,1.0543676342371808e-06,3e-07,2.581917258185165e-05
2.818626229978117e-07,1.0450671763006244e-06,3e-07,2.567358374008688e-05
2.8450629405955356e-07,1.0350520415387217e-06,3e-07,2.5531338062944243e-05
2.8708198410838104e-07,1.0243518727724758e-06,3e-07,2.5395184257432364e-05
2.895768816066719e-07,1.0129993759088164e-06,3e-07,2.526750869813788e-05
2.9198345579060264e-07,1.001035392814447e-06,3e-07,2.515032233514449e-05
2.943021118288971e-07,9.885109298324185e-07,3e-07,2.5045215604691064e-05
2.965403151121703e-07,9.75484077517219e-07,3e-07,2.4953282187553506e-05
2.987086115588251e-07,9.620153236042242e-07,3e-07,2.487508493626085e-05
3.008168917319451e-07,9.481650292781557e-07,3e-07,2.481070966935645e-05
3.028731214178241e-07,9.339942024915272e-07,3e-07,2.475988529696319e-05
3.048833220999214e-07,9.195671735158949e-07,3e-07,2.472211735229985e-05
3.0685083845862927e-07,9.049541592199164e-07,3e-07,2.4696793255648897e-05
3.087760904964791e-07,8.902329016758532e-07,3e-07,2.468325850011397e-05
3.106582769105229e-07,8.75487669433811e-07,3e-07,2.468089144465739e-05
3.1249707282798036e-07,8.608050068158865e-07,3e-07,2.468917179276091e-05
3.1429237061749513e-07,8.462687551501219e-07,3e-07,2.470771453809997e-05
3.160433692663365e-07,8.319554097265762e-07,3e-07,2.4736281574449678e-05
3.1774866914538986e-07,8.17930863085142e-07,3e-07,2.477479253157561e-05
3.194065068380039e-07,8.04252165018727e-07,3e-07,2.4823303393124452e-05
3.210143784576697e-07,7.90972297611617e-07,3e-07,2.4881895602895425e-05
3.2256944494860374e-07,7.781405993293955e-07,3e-07,2.4950481134017254e-05
3.2407002678256533e-07,7.658000215392395e-07,2.9503917043270836e-06,2.502862767321367e-05
3.2551644730063173e-07,7.539878725220391e-07,2.885163459551349e-06,2.5115498982659563e-05
3.269105094697322e-07,7.427378747890926e-07,2.819239052393181e-06,2.5209890809939802e-05
3.28254231279748e-07,7.320793909174031e-07,2.7528662904151192e-06,2.5310297394569555e-05
3.295485697553532e-07,7.220376636475121e-07,2.6862827007447664e-06,2.541499117339545e-05
3.307931895544855e-07,7.126366373896741e-07,2.6197235319007827e-06,2.552210675922489e-05
3.3198733577814695e-07,7.03898664937134e-07,2.5534212589025003e-06,2.5629709163770945e-05
3.331298945569034e-07,6.958394333274806e-07,2.4875954262364186e-06,2.573588528291677e-05
3.342181672555537e-07,6.8846326910109e-07,2.422441159123966e-06,2.583889760231472e-05
3.352472838794951e-07,6.817623654628884e-07,2.358127382695871e-06,2.5937324111748747e-05
3.362107255643746e-07,6.757194234072206e-07,2.2948063074741387e-06,2.6030083906050205e-05
3.371009815602992e-07,6.703125553183875e-07,2.232622754256831e-06,2.611634072308384e-05
3.379100589600768e-07,6.655208662670123e-07,2.17171401416462e-06,2.619534658024764e-05
3.386300853332468e-07,6.613271440744468e-07,2.112206141891951e-06,2.626630532032399e-05
3.392540279286127e-07,6.577151980513424e-07,2.054215519157341e-06,2.632831737857153e-05
3.397755566874672e-07,6.546647296564406e-07,1.997851684143667e-06,2.638043582179481e-05
3.4018771100466947e-07,6.521484057224918e-07,1.943213480750086e-06,2.6421811612027757e-05
3.404820464168472e-07,6.501318463539431e-07,1.890382054314817e-06,2.645183083419754e-05
3.406496657213243e-07,6.48575249022262e-07,1.8394238512957997e-06,2.6470156196332604e-05
3.406833689023546e-07,6.474368476189118e-07,1.790410372733146e-06,2.6476687612406452e-05
3.405785747847461e-07,6.466778034844642e-07,1.7434449016788106e-06,2.647148898220864e-05
3.403323196656967e-07,6.462650253229852e-07,1.6986780178140517e-06,2.645473639336255e-05
3.399425459496444e-07,6.461690985880965e-07,1.6562995414880115e-06,2.642677874940513e-05
3.3940832815485664e-07,6.463610859653093e-07,1.6165095454569337e-06,2.6388236110227492e-05
3.387297117661248e-07,6.468137990351817e-07,1.5794851386760936e-06,2.6339961769521066e-05
3.379082098253173e-07,6.475045786498974e-07,1.5453601674014268e-06,2.6282960955015007e-05
3.3694894047990153e-07,6.484135922668785e-07,1.51422358804202e-06,2.621839763953118e-05
3.3586183904126124e-07,6.49520201633228e-07,1.48613132124058e-06,2.614757461656836e-05
3.346600604954144e-07,6.508016943044789e-07,1.4611215799304071e-06,2.6071825210663103e-05
3.333573057294239e-07,6.522329261403236e-07,1.4392237179101914e-06,2.599240207331429e-05
3.319662996839451e-07,6.537857501071489e-07,1.4204564769793237e-06,2.591040011191944e-05
3.304988809773779e-07,6.554291666309282e-07,1.404821579087808e-06,2.582670302470257e-05
3.28966615738793e-07,6.571300009206627e-07,1.3923004004488372e-06,2.574195028010065e-05
3.273808537553165e-07,6.588538314667121e-07,1.3828555146118624e-06,2.5656513607312052e-05
3.2575279505809586e-07,6.605672635622486e-07,1.3764373464552165e-06,2.5570477329377678e-05
3.2409470954891856e-07,6.622411344335386e-07,1.372994648660138e-06,2.548364119607991e-05
3.224211245214595e-07,6.638510826670019e-07,1.3724830683124772e-06,2.5395554557151576e-05
3.207474092568193e-07,6.653749146230238e-07,1.3748669316654509e-06,2.530556816071477e-05
3.1908690979189305e-07,6.667911017028743e-07,1.3801128119646582e-06,2.5212905073735466e-05
3.174497382027481e-07,6.68079298590754e-07,1.3881750519124948e-06,2.5116744895091245e-05
3.1584276926943296e-07,6.692194862802296e-07,1.398979504148419e-06,2.501626874679069e-05
3.1426966026248715e-07,6.701898169095304e-07,1.4124182447810801e-06,2.49106444936596e-05
3.12731746424832e-07,6.709660188422966e-07,1.428362368469544e-06,2.4799012332421265e-05
3.112299356406431e-07,6.715235939976109e-07,1.4466866790585282e-06,2.4680506826995734e-05
3.0976629265273857e-07,6.718425805734911e-07,1.4672934579402394e-06,2.455428546212695e-05
3.0834406530346146e-07,6.719126490008528e-07,1.4901255520513138e-06,2.441954651523924e-05
3.0696628237310373e-07,6.71736115090171e-07,1.5151660155796386e-06,2.427554397832193e-05
3.0563448533529946e-07,6.713289262887902e-07,1.5424270562283105e-06,2.412159926895668e-05
3.043484592492083e-07,6.707197000916547e-07,1.571931691654781e-06,2.3957115597265522e-05
3.031064192018744e-07,6.699455234775271e-07,1.603690191309629e-06,2.3781600524399923e-05
3.019051909088057e-07,6.690444002876939e-07,1.6376762841302817e-06,2.35946706289443e-05
3.0074084768601445e-07,6.680480676455152e-07,1.6738133744674025e-06,2.3396015010683083e-05
2.9960980760242016e-07,6.669795912790854e-07,1.711979133013509e-06,2.318534835202039e-05
2.985088680011094e-07,6.65855103332418e-07,1.752025551169674e-06,2.296240217468773e-05
2.974339951541197e-07,6.646865817585164e-07,1.7938015003346138e-06,2.272697318252685e-05
2.963799545376482e-07,6.634843235180276e-07,1.8371660802887096e-06,2.2479023112557084e-05
2.953414016321163e-07,6.622583372729931e-07,1.8819889987289767e-06,2.2218766603573813e-05
2.943140400266385e-07,6.610181097282465e-07,1.928139710512517e-06,2.1946649598449226e-05
2.9329507441007505e-07,6.597709541503078e-07,1.9754719384952187e-06,2.1663242916761873e-05
2.922831039335597e-07,6.585213159247289e-07,2.023812461371564e-06,2.1369164440857142e-05
2.912777865654773e-07,6.572747934267132e-07,2.072957414267727e-06,2.106505067933497e-05
2.9027946652710426e-07,6.560455864744608e-07,2.1226741410441767e-06,2.0751553142030005e-05
2.8928868729104107e-07,6.54860929709614e-07,2.1727062855389283e-06,2.0429359128262783e-05
2.8830606897199677e-07,6.537581441807581e-07,2.2227795206627757e-06,2.009921758992488e-05
2.873324519862254e-07,6.527760277007425e-07,2.272606486329249e-06,1.9761997914786066e-05
2.863684178714529e-07,6.519470863095979e-07,2.3218915390438717e-06,1.941880899722657e-05
2.8541414993277394e-07,6.512955753797299e-07,2.370334500820265e-06,1.9071070490828832e-05
2.844700701173047e-07,6.508408553397984e-07,2.417633527660951e-06,1.8720453664783986e-05
2.835365560918031e-07,6.506032975231156e-07,2.4634907474524827e-06,1.836876547504823e-05
2.826131217769016e-07,6.506093586148499e-07,2.5076197870758516e-06,1.80178534092323e-05
2.8169870029389405e-07,6.508913283224479e-07,2.549749391504776e-06,1.7669520208152542e-05
2.8079213131757877e-07,6.514804837199234e-07,2.589624429554905e-06,1.7325428325112155e-05
2.7989182127721264e-07,6.523987604517946e-07,2.6270113646093425e-06,1.6987044190850708e-05
2.789956930292553e-07,6.536551379466853e-07,2.661707808225486e-06,1.665564753140639e-05
2.781014751681617e-07,6.552475654202336e-07,2.693548227034756e-06,1.6332328378487233e-05
2.772061292218941e-07,6.57167034122159e-07,2.722401537716969e-06,1.6017945639266852e-05
2.763050506779337e-07,6.594005002673739e-07,2.7481628277373563e-06,1.5713117866242262e-05
2.75392623031895e-07,6.619312320273106e-07,2.7707429629341183e-06,1.541831353229919e-05
2.744642347806069e-07,6.647379540423015e-07,2.7900607353455862e-06,1.5134051648955637e-05
2.7351783084396853e-07,6.677945716803345e-07,2.806042316826355e-06,1.4861067118850354e-05
2.7255370169731587e-07,6.710700202953265e-07,2.8186274401842682e-06,1.4600301950420582e-05
2.715733311828431e-07,6.745286319347667e-07,2.827776239549766e-06,1.4352861089167242e-05
2.705780945102848e-07,6.781319590246587e-07,2.8334711776683907e-06,1.4120038724725314e-05
2.695684349299804e-07,6.818397791703384e-07,2.8357129758805394e-06,1.3903271904312949e-05
2.685436095457086e-07,6.856092048245385e-07,2.8345144245150523e-06,1.3703992557845265e-05
2.675013863421098e-07,6.893951289394888e-07,2.829898751123568e-06,1.3523499955347447e-05
2.664379434783745e-07,6.931526364720086e-07,2.8219063820614464e-06,1.336288732172235e-05
2.653483796992178e-07,6.968383233506662e-07,2.810605710490754e-06,1.3223003312080333e-05
2.6422752686289714e-07,7.004099641469032e-07,2.796098284095272e-06,1.3104431097257742e-05
2.630702149214399e-07,7.038265770735565e-07,2.77851318871822e-06,1.3007468507769487e-05
2.61870902771752e-07,7.070508065133588e-07,2.757993869866261e-06,1.2932115286765053e-05
2.606239112874704e-07,7.100526143774381e-07,2.734685647811852e-06,1.2878079110380921e-05
2.59324160759492e-07,7.128103826480652e-07,2.7087319385137755e-06,1.2844801926492306e-05
2.5796726062914064e-07,7.153092747336746e-07,2.680280373505041e-06,1.283150008755152e-05
2.565496219094941e-07,7.17539433154806e-07,2.649491974451283e-06,1.2837213871176958e-05
2.55069988413994e-07,7.194936337599446e-07,2.616546016468713e-06,1.2860862331755252e-05
2.535316917095383e-07,7.211660180460136e-07,2.5816382524460207e-06,1.2901272682665683e-05
2.519431720911665e-07,7.225554725050637e-07,2.5449733511686318e-06,1.2957162679325665e-05
2.503160311193743e-07,7.236704412762008e-07,2.50675283786573e-06,1.3027126071694646e-05
2.4866244927722604e-07,7.245286321941352e-07,2.467163356172624e-06,1.3109672072533314e-05
2.4699341483978373e-07,7.251513342392649e-07,2.4263724413012333e-06,1.3203295537623468e-05
2.4531808170016924e-07,7.255574830957142e-07,2.3845337598370447e-06,1.3306533510865053e-05
2.436443637468268e-07,7.257610420326199e-07,2.341797697540108e-06,1.3417989004756457e-05
2.41980121941487e-07,7.25771084942067e-07,2.2983200171071024e-06,1.3536339584244153e-05
2.403337923677253e-07,7.255927399450895e-07,2.254263478956059e-06,1.3660367752475219e-05
2.387142431722484e-07,7.252281822960628e-07,2.209794512066796e-06,1.3789011542930285e-05
2.371300960148089e-07,7.246769068228812e-07,2.1650779823374027e-06,1.3921387579904365e-05
2.3558868294774232e-07,7.239346181420705e-07,2.1202695600628125e-06,1.4056744395281033e-05
2.3409551673193694e-07,7.22992179946727e-07,2.0755087798852228e-06,1.419436528336745e-05
2.3265467682752533e-07,7.21836424156893e-07,2.0309209034384395e-06,1.4333485316204028e-05
2.3126952530281e-07,7.204517398794263e-07,1.986630068054948e-06,1.4473264046667222e-05
2.299429591162333e-07,7.188210962896435e-07,1.942775124644081e-06,1.4612829733994367e-05
2.286767997873601e-07,7.169286371259004e-07,1.8995175667049103e-06,1.4751354845271939e-05
2.2747165296074892e-07,7.147664493503118e-07,1.8570378552982746e-06,1.4888060564502246e-05
2.263284397516874e-07,7.123430547610855e-07,1.8155217882423146e-06,1.5022147633089001e-05
2.2525010730259e-07,7.096859243604481e-07,1.7751421457910397e-06,1.5152766356588147e-05
2.242416849660238e-07,7.068346682852554e-07,1.7360453691007026e-06,1.5279086916178895e-05
2.233088652424727e-07,7.038352038251895e-07,1.698350759565397e-06,1.540044760471629e-05
2.22456982310288e-07,7.007450937951104e-07,1.6621590504172953e-06,1.5516494471923637e-05
2.216917475018313e-07,6.976435761577319e-07,1.627561311404063e-06,1.5627193339890238e-05
2.2101997861872305e-07,6.946358243643203e-07,1.5946412511814012e-06,1.5732691612855264e-05
2.2044909072030358e-07,6.918499780763345e-07,1.563469520370419e-06,1.5833133309087296e-05
2.1998698248201057e-07,6.894290103970262e-07,1.534097926631833e-06,1.5928542878141794e-05
2.1964206155017533e-07,6.875187053501561e-07,1.506562478910303e-06,1.6018835558597197e-05
2.194223715874468e-07,6.862541004359015e-07,1.4808926152128756e-06,1.6103950441010394e-05
2.1933467114785828e-07,6.857518387787034e-07,1.4571164450849606e-06,1.6184022526640448e-05
2.1938379647920574e-07,6.861135622820524e-07,1.4352579713199052e-06,1.6259467377684953e-05
2.1957271267642078e-07,6.87433422934326e-07,1.4153379110842353e-06,1.6330939806395142e-05
2.1990380892232126e-07,6.898020209362328e-07,1.397388265286085e-06,1.6399226987827453e-05
2.203805196087152e-07,6.933056997282427e-07,1.381468826369044e-06,1.646514849577758e-05
2.2100778592130943e-07,6.9801997835636e-07,1.3676700073257036e-06,1.6529532423080708e-05
2.2179032772191548e-07,7.039991719271809e-07,1.3561003064342823e-06,1.6593280828394754e-05
2.2273022605633945e-07,7.112701780704616e-07,1.3468659139579323e-06,1.6657449280918113e-05
2.2382721484425692e-07,7.198343763137125e-07,1.340051868472628e-06,1.6723311031542334e-05
2.2508127771126775e-07,7.29674190188138e-07,1.3357093771903048e-06,1.6792461866705164e-05
2.2649320723370944e-07,7.407606806795318e-07,1.3338529847004513e-06,1.6866892142397773e-05
2.2806252351864729e-07,7.530611871116718e-07,1.3344717003775818e-06,1.6948841787297492e-05
2.2978725194049946e-07,7.665442241168332e-07,1.3375487170338565e-06,1.7040464770729287e-05
2.3166641566147212e-07,7.811780018321406e-07,1.3430766071124335e-06,1.7143516531902715e-05
2.337007949986525e-07,7.969252566067385e-07,1.3510592084027895e-06,1.7259236012571925e-05
2.358903593193079e-07,8.137392822471193e-07,1.361500933564964e-06,1.73885330073639e-05
2.3823127624454464e-07,8.31561483145053e-07,1.3743891267586064e-06,1.7532439936216215e-05
2.4071470625759284e-07,8.503208928611626e-07,1.3896770911858856e-06,1.7692529496276502e-05
2.4332765361071844e-07,8.699370203084762e-07,1.4072764302998508e-06,1.787101465654621e-05
2.460553785577518e-07,8.903244549708773e-07,1.4270613474193469e-06,1.807056527132575e-05
2.4888335727587857e-07,9.113960913298565e-07,1.4488789846057215e-06,1.8294033997537937e-05
2.5179750108786845e-07,9.330634259356924e-07,1.4725576731092183e-06,1.854419313690959e-05
2.547835555033184e-07,9.552362032369334e-07,1.4979101556173246e-06,1.8823509682117115e-05
2.5782632670916546e-07,9.778248906624347e-07,1.524734405290669e-06,1.9133976691279832e-05
2.60909779682088e-07,1.0007443962800987e-06,1.5528153415509736e-06,1.947701575473865e-05
2.640187948839345e-07,1.0239130980091758e-06,1.58192960981107e-06,1.9853451517137407e-05
2.671412652117847e-07,1.0472461005190993e-06,1.6118519655557232e-06,2.026352804896012e-05
2.70269221851694e-07,1.0706493100937294e-06,1.6423584649162902e-06,2.0706915805970444e-05
2.733983698527626e-07,1.0940195821894244e-06,1.6732265646473432e-06,2.11826892059686e-05
2.765262866062664e-07,1.1172495048545248e-06,1.7042389056680398e-06,2.1689302690222386e-05
2.7965063150041786e-07,1.1402332003724995e-06,1.7351925707591485e-06,2.2224603400866805e-05
2.8276810702533216e-07,1.1628707276819913e-06,1.7659063498219273e-06,2.2785922793922174e-05
2.858741381029014e-07,1.1850682980244681e-06,1.7962214675666145e-06,2.337026152645173e-05
2.8896281057599425e-07,1.2067338369615784e-06,1.8259980372494721e-06,2.397449778736283e-05
2.920267916477629e-07,1.2277741757757915e-06,1.8551087013239208e-06,2.4595526710454322e-05
2.950576202471477e-07,1.2480990115078372e-06,1.88343033581006e-06,2.523031946053773e-05
2.980458473273913e-07,1.2676279374547878e-06,1.910838498438324e-06,2.5875946637767084e-05
3.009811735756593e-07,1.2862950194994768e-06,1.937209040077682e-06,2.6529569223486177e-05
3.038539508032997e-07,1.304048082289023e-06,1.962424354147729e-06,2.7188368706263503e-05
3.066561875313229e-07,1.3208423848587622e-06,1.9863780069221358e-06,2.784944416767965e-05
3.093799641308393e-07,1.3366341351336833e-06,2.0089752008950245e-06,2.850974734353127e-05
3.12015851578229e-07,1.351378937202592e-06,2.030131246425919e-06,2.916607881835569e-05
3.145534171834004e-07,1.3650322852091908e-06,2.049770369064793e-06,2.981510299241389e-05
3.1698212593915017e-07,1.3775488541417604e-06,2.067825560788412e-06,3.0453362192820466e-05
3.192913559345925e-07,1.388882486390827e-06,2.0842397821699982e-06,3.107733144475075e-05
3.214705885103661e-07,1.3989879435699615e-06,2.0989653043852052e-06,3.1683513856826306e-05
3.23510587680844e-07,1.4078227971524309e-06,2.1119584990844345e-06,3.226850974968169e-05
3.254046050014105e-07,1.41534911538084e-06,2.1231766749852265e-06,3.282903293942874e-05
3.271483788574723e-07,1.421536148930216e-06,2.132582308168757e-06,3.336190350493989e-05
3.287388013744551e-07,1.4263629908367712e-06,2.1401478711599564e-06,3.386406304071205e-05
3.301722609225087e-07,1.4298185914541431e-06,2.1458547268936367e-06,3.4332652244356394e-05
3.314436967399965e-07,1.431899008048444e-06,2.149688341166845e-06,3.476511618789447e-05
3.3254669568482124e-07,1.4326039464489482e-06,2.1516350228667282e-06,3.515925449018821e-05
3.334745645244975e-07,1.4319348689974648e-06,2.151684974580588e-06,3.5513209273994845e-05
3.342211562230111e-07,1.4298958333795503e-06,2.1498408555378136e-06,3.582545955279148e-05
3.3478027967751057e-07,1.426495577272563e-06,2.146125615814432e-06,3.609485854916895e-05
3.3514507127520545e-07,1.4217477883188588e-06,2.1405869358126667e-06,3.632065533120271e-05
3.3530869014935066e-07,1.4156691400465234e-06,2.133295261808123e-06,3.650241941954753e-05
3.3526524288554103e-07,1.4082785677026657e-06,2.1243325039564264e-06,3.6639900341934713e-05
3.3501021574337503e-07,1.3995998204646358e-06,2.113781714427533e-06,3.673294737707152e-05
3.345409603657248e-07,1.3896648145854995e-06,2.101729003234267e-06,3.678154586953493e-05
3.338568298556276e-07,1.3785151839637229e-06,2.088271184594945e-06,3.678590019014809e-05
3.3295887794904397e-07,1.3662026520617657e-06,2.073517064568375e-06,3.674646839141126e-05
3.3185063795943515e-07,1.352788827891777e-06,2.057581060798185e-06,3.666391460805042e-05
3.3054017180017014e-07,1.3383426584282314e-06,2.0405766395201897e-06,3.65390465259211e-05
3.290415641507739e-07,1.3229352635666572e-06,2.022614246846937e-06,3.637289219362461e-05
3.273743098047474e-07,1.3066362546791592e-06,2.0038002509387366e-06,3.616691521905209e-05
3.2556052247383245e-07,1.2895158323548995e-06,1.98423351716015e-06,3.592311118518482e-05
3.236220065940646e-07,1.2716492852007565e-06,1.9640013737597597e-06,3.564385260906444e-05
3.2157926132742484e-07,1.2531163775624694e-06,1.9431770890959134e-06,3.5331650330238165e-05
3.1945134258951525e-07,1.2339966441989406e-06,1.92181940676423e-06,3.4989005432320284e-05
3.1725552749151336e-07,1.2143661974028515e-06,1.8999739859464096e-06,3.4618417923724706e-05
3.15008616119137e-07,1.1942961872904232e-06,1.877676205325404e-06,3.4222592878136205e-05
3.127288190655476e-07,1.1738527687146805e-06,1.8549543973389683e-06,3.3804716950034446e-05
3.10434742190502e-07,1.1531000780404226e-06,1.8318321898583408e-06,3.336853814335209e-05
3.081431231751791e-07,1.1321027463760548e-06,1.8083295713061786e-06,3.2918218740047274e-05
3.058683433613683e-07,1.1109241425924124e-06,1.7844625303780239e-06,3.2458137321123554e-05
3.0362272869596765e-07,1.0896241036259927e-06,1.7602424896624085e-06,3.199269773090853e-05
3.014167029055506e-07,1.0682610152044044e-06,1.7356800968285411e-06,3.1526126203180525e-05
2.992589054095382e-07,1.046895921295462e-06,1.710794094947759e-06,3.106230003383872e-05
2.97155760240985e-07,1.0255937129539866e-06,1.6856183989371609e-06,3.0604666412333635e-05
2.951117546758207e-07,1.0044209592704944e-06,1.660202551085251e-06,3.015625200628056e-05
2.9313179303474214e-07,9.834420775692655e-07,1.6346066860080094e-06,2.971969816239931e-05
2.912229193005031e-07,9.62715080927945e-07,1.6088931278065002e-06,2.9297250057447863e-05
2.893929132781359e-07,9.422892905823132e-07,1.5831190860818898e-06,2.8890696045903412e-05
2.8764801945511014e-07,9.22205361211927e-07,1.5573352191262819e-06,2.8501323676491548e-05
2.85992191114347e-07,9.024955176002608e-07,1.5315868106856269e-06,2.812993962641281e-05
2.844275357042813e-07,8.831837065609631e-07,1.5059123900478738e-06,2.7776945522851752e-05
2.829561239237859e-07,8.642866371612343e-07,1.4803433607668888e-06,2.744247578082016e-05
2.815836038787744e-07,8.458170199961103e-07,1.4549096326018758e-06,2.712659443874837e-05
2.8032340986822443e-07,8.27788856033266e-07,1.4296467627596908e-06,2.682946411388528e-05
2.791996809729691e-07,8.102206473246143e-07,1.404596364865969e-06,2.6551403956594893e-05
2.7824715400045326e-07,7.931334070752893e-07,1.379800146285403e-06,2.6292852980431782e-05
2.775072226210097e-07,7.765463728017119e-07,1.3552944128133831e-06,2.605429002135408e-05
2.770217581285871e-07,7.604745718140867e-07,1.331108101763858e-06,2.583613532804847e-05
2.7682789289190113e-07,7.449288889705475e-07,1.3072647167913605e-06,2.5638652943044282e-05
2.7695553383530213e-07,7.299180460873128e-07,1.2837870142645095e-06,2.546187118026655e-05
2.77426945588866e-07,7.154504790349851e-07,1.260700083318008e-06,2.530552814180009e-05
2.782576352874889e-07,7.015328840650984e-07,1.2380344817184253e-06,2.5169062613158567e-05
2.7945890841778306e-07,6.881664638409824e-07,1.2158343852761585e-06,2.505168096991356e-05
2.81041469969003e-07,6.753449817988331e-07,1.194164547659032e-06,2.495246551967473e-05
2.8301741555338684e-07,6.630564789661599e-07,1.1731060046684236e-06,2.4870433016998442e-05
2.853987787990044e-07,6.512887795930956e-07,1.1527435502745052e-06,2.480452089207918e-05
2.8819474461965965e-07,6.40037330886871e-07,1.1331588287730615e-06,2.4753555867295723e-05
2.9141189415836385e-07,6.293101412859135e-07,1.1144342897091822e-06,2.471624954734089e-05
2.950578240519785e-07,6.191249506313379e-07,1.0966575012523355e-06,2.469121144588799e-05
2.991450592227872e-07,6.095015015157207e-07,1.0799170830864654e-06,2.4676932520532292e-05
3.0369506815399827e-07,6.00455875493654e-07,1.0642935619686683e-06,2.467174903868823e-05
3.0874197318995e-07,5.919988606661135e-07,1.0498509141801842e-06,2.467386454354989e-05
3.143326697058096e-07,5.841367230167329e-07,1.036631331318537e-06,2.468144962768064e-05
3.205220577822847e-07,5.768728705978755e-07,1.0246536424118252e-06,2.4692756852373424e-05
3.273641101972559e-07,5.702093793619158e-07,1.0139142626218715e-06,2.470621918460467e-05
3.349019438386251e-07,5.641483476642096e-07,1.0043912725384182e-06,2.472053542372196e-05
3.431628102854537e-07,5.586914615933973e-07,9.960528752933946e-07,2.4734689752079496e-05
3.521587819491128e-07,5.538381346328845e-07,9.88866756326322e-07,2.474786145614264e-05
3.618877649297712e-07,5.495859143039066e-07,9.828045087823916e-07,2.47592857274005e-05
3.723333262821817e-07,5.459312467545045e-07,9.7783851482314e-07,2.476816392009138e-05
3.8346738633143465e-07,5.428678168598123e-07,9.739337984292307e-07,2.477366075124781e-05
3.9525661767134965e-07,5.403871733114397e-07,9.71041242512935e-07,2.477494987742784e-05
4.0766801769988326e-07,5.384844517124632e-07,9.690962896601308e-07,2.477125025021304e-05
4.20670152429915e-07,5.371629255886238e-07,9.68021136450947e-07,2.476184438790173e-05
4.3423104786027205e-07,5.364313131009435e-07,9.67727420030958e-07,2.474615858598388e-05
4.4831604422660294e-07,5.362961586875864e-07,9.681201937673358e-07,2.4723952409665385e-05
4.6288822366327894e-07,5.367555282300148e-07,9.69105144670979e-07,2.4695456915890435e-05
4.779109584221943e-07,5.377981112947298e-07,9.70597087884964e-07,2.4661298408738417e-05
4.933490684554251e-07,5.394061889431508e-07,9.725248044475758e-07,2.4622292873111355e-05
5.091673528773185e-07,5.415569302711424e-07,9.748304792163401e-07,2.457925147286467e-05
5.253282501021576e-07,5.442210083521355e-07,9.774652817525169e-07,2.4532867531842497e-05
5.417885496205227e-07,5.473621778298804e-07,9.803826273652285e-07,2.4483795648428187e-05
5.5849614197729e-07,5.509390462026511e-07,9.835328825678658e-07,2.443289694294081e-05
5.753900894861067e-07,5.549077320776538e-07,9.86863009488726e-07,2.4381390657810628e-05
5.924037005480874e-07,5.592249564993657e-07,9.903201941239055e-07,2.433079879154049e-05
6.094669481017505e-07,5.638508808572342e-07,9.93856848693067e-07,2.4282824190412342e-05
6.265063866917237e-07,5.687491934937854e-07,9.974324987798644e-07,2.4239253831199193e-05
6.434441045479539e-07,5.738851955032225e-07,1.0010107415354342e-06,2.420186540609571e-05
6.601979135925046e-07,5.792261817511932e-07,1.0045585316057017e-06,2.4172321198517983e-05
6.766831383475639e-07,5.847437157946483e-07,1.0080526584441334e-06,2.4152069590504724e-05
6.92814985834171e-07,5.904140259220581e-07,1.0114871335232269e-06,2.414229095302709e-05
7.085102507478462e-07,5.962163733492306e-07,1.0148748988295023e-06,2.4143902857972367e-05
7.236877186562061e-07,6.021309568566271e-07,1.0182447466404062e-06,2.4157583222256523e-05
7.38267932112352e-07,6.08136909976886e-07,1.021637299248608e-06,2.4183759649039983e-05
7.521737515055013e-07,6.142116218958002e-07,1.0251019851192328e-06,2.422256765390192e-05
7.653323146161086e-07,6.203327657367012e-07,1.028694743570289e-06,2.427380338352478e-05
7.776771371839487e-07,6.264831326651947e-07,1.0324762409535296e-06,2.433689323633233e-05
7.891486079403775e-07,6.326558516133541e-07,1.0365088324723202e-06,2.441092397255315e-05
7.996934962694077e-07,6.38855517762775e-07,1.040849398356886e-06,2.449475517408389e-05
8.09266024824048e-07,6.450932227885148e-07,1.0455440679588744e-06,2.458716188336665e-05
8.178308296617308e-07,6.51378021320144e-07,1.0506350229063637e-06,2.4686939141679527e-05
8.253641715215705e-07,6.577104302294985e-07,1.056175330727759e-06,2.4792960817525174e-05
8.31850913410581e-07,6.640821502080579e-07,1.0622389113164714e-06,2.4904223298956546e-05
8.372808551618283e-07,6.70479048394835e-07,1.0689212882339666e-06,2.5019879179580773e-05
8.416492387173919e-07,6.768818310156587e-07,1.0763337552448594e-06,2.513923762498533e-05
8.449602054944011e-07,6.832653782073525e-07,1.0845925310156105e-06,2.526171889032449e-05
8.47228842349426e-07,6.89601220119881e-07,1.0938036690845892e-06,2.538676875798852e-05
8.484803766665559e-07,6.958632114660906e-07,1.1040475129044113e-06,2.551375059480088e-05
8.487463861363186e-07,7.020330572998724e-07,1.115370237422395e-06,2.5641863574619838e-05
8.480595149752389e-07,7.081039008796816e-07,1.1277865188346286e-06,2.5770131053079998e-05
8.46450919351177e-07,7.140823527570288e-07,1.1412874814866429e-06,2.589742952823124e-05
8.439508582147921e-07,7.199890354406919e-07,1.1558451172990637e-06,2.602250353333291e-05
8.405895408978127e-07,7.258565278486287e-07,1.1714118474993058e-06,2.6143968994461585e-05
8.363974294115124e-07,7.317247869963933e-07,1.1879201674674179e-06,2.6260335672559802e-05
8.314048214427981e-07,7.37635675732163e-07,1.2052854171785989e-06,2.6370051993567936e-05
8.256407352556606e-07,7.436273142259141e-07,1.2234093032934958e-06,2.647157870773385e-05
8.191320336913039e-07,7.49729098223791e-07,1.2421810840018456e-06,2.656352755504726e-05
8.119033923526231e-07,7.55959049694883e-07,1.2614781376861294e-06,2.6644835081506408e-05
8.039780353747766e-07,7.62324576918693e-07,1.281168806782275e-06,2.6714859960547087e-05
7.953787082127827e-07,7.688260226275523e-07,1.3011163630825797e-06,2.6773354286873448e-05
7.861285372534464e-07,7.754590419302174e-07,1.32118123010497e-06,2.682034239066254e-05
7.762515401487848e-07,7.822130325791616e-07,1.3412209738543809e-06,2.6855952946832965e-05
7.657725280214377e-07,7.890688497737458e-07,1.3610901880570123e-06,2.6880261419203e-05
7.547167130233122e-07,7.960009453169198e-07,1.380641905007242e-06,2.6893202374735125e-05
7.431093658356165e-07,8.029858084264191e-07,1.3997300535764078e-06,2.689459905627296e-05
7.309760023889724e-07,8.100132904382164e-07,1.4182114483354488e-06,2.688430046386325e-05
7.183441585828659e-07,8.170947369934065e-07,1.4359464304310137e-06,2.6862311767543336e-05
7.052466127382041e-07,8.242648653202295e-07,1.4527989233031564e-06,2.682882044845228e-05
6.917233165328887e-07,8.315773197181949e-07,1.4686376917135857e-06,2.6784146723144573e-05
6.778197902506701e-07,8.390939618820112e-07,1.4833403218066264e-06,2.6728675592892084e-05
6.635839884690518e-07,8.468706723611832e-07,1.4967992355530732e-06,2.666282309278128e-05
6.490644277982061e-07,8.549462873853799e-07,1.5089261709857534e-06,2.658709702474826e-05
6.34309025220474e-07,8.63339287888413e-07,1.5196513257576383e-06,2.6502174912317528e-05
6.193636768935684e-07,8.720509861098328e-07,1.5289175423062348e-06,2.6408886675257558e-05
6.042715487101686e-07,8.810699269314329e-07,1.536674582231832e-06,2.630815424690271e-05
5.890739620692033e-07,8.903732515826954e-07,1.5428767388024402e-06,2.62009239456005e-05
5.738118236615412e-07,8.999264825321537e-07,1.5474823583756286e-06,2.608806333827575e-05
5.585258987769606e-07,9.096852201666405e-07,1.5504545813841268e-06,2.5970266289933098e-05
5.432557078339211e-07,9.19597729745129e-07,1.551764825717722e-06,2.5848003551657385e-05
5.280383830385708e-07,9.296057281755949e-07,1.551396908868867e-06,2.5721509176637868e-05
5.129088913132596e-07,9.396441800267868e-07,1.5493473161490831e-06,2.559079850374091e-05
4.979009793894147e-07,9.496434407703559e-07,1.5456248694396084e-06,2.545571484115253e-05
4.830473273271844e-07,9.595344115960305e-07,1.540256443211566e-06,2.5315992378134587e-05
4.6837955558494427e-07,9.692522006416277e-07,1.5332951979879882e-06,2.517131852152321e-05
4.539296389856634e-07,9.787353725717405e-07,1.5248234728572314e-06,2.502138980165617e-05
4.397315978345943e-07,9.879237441108773e-07,1.514948426313274e-06,2.486596414220916e-05
4.258207537677964e-07,9.967573337805737e-07,1.5037917173803326e-06,2.4704907183721813e-05
4.1223125535621476e-07,1.0051755553460692e-06,1.491476646394899e-06,2.4538231228501168e-05
3.989947078561914e-07,1.0131161596093936e-06,1.4781184367732524e-06,2.436610354657031e-05
3.8613986517324574e-07,1.0205150884426201e-06,1.4638198789782826e-06,2.418878129367364e-05
3.736921170065365e-07,1.027307451614913e-06,1.4486706161091787e-06,2.4006493129698165e-05
3.616732738096538e-07,1.0334286033879894e-06,1.4327506361981076e-06,2.381934714352837e-05
3.5010172620884837e-07,1.0388148808539783e-06,1.4161397064174584e-06,2.362730683009991e-05
3.38992293788592e-07,1.0434044728788909e-06,1.3989293525678056e-06,2.3430224608032668e-05
3.283570399862853e-07,1.0471398804189956e-06,1.38123197717846e-06,2.3227905535380746e-05
3.182081593428842e-07,1.0499722220163384e-06,1.3631850876161237e-06,2.302016454961877e-05
3.0856126291508657e-07,1.0518639644591594e-06,1.3449465823698858e-06,2.2806859264856226e-05
2.9943662782897503e-07,1.0527891714970191e-06,1.326680723152515e-06,2.2587927083012117e-05
2.908568821196731e-07,1.0527347025187429e-06,1.308553086340067e-06,2.2363456476703268e-05
2.82842343184318e-07,1.0517020666733619e-06,1.290748538060606e-06,2.2133757759506035e-05
2.7540798961857097e-07,1.04970842126749e-06,1.2734940144581826e-06,2.189937517244876e-05
2.685634950593524e-07,1.0467884167633535e-06,1.2570626271735001e-06,2.1661042056344465e-05
2.6231418249031074e-07,1.0429948789995836e-06,1.241759566546255e-06,2.1419608407878134e-05
2.566621024235757e-07,1.0383930995721432e-06,1.2279010259681645e-06,2.117595246814455e-05
2.51607317321766e-07,1.033050526727439e-06,1.2157930757377124e-06,2.0930917370297698e-05
2.4714761364477785e-07,1.0270299746714932e-06,1.2057137846890215e-06,2.0685297585226805e-05
2.432770053693202e-07,1.0203900403892335e-06,1.1978993875919994e-06,2.0439808152750604e-05
2.3998651162235647e-07,1.0131907948884524e-06,1.1925350687932057e-06,2.0195010800909828e-05
2.372666959922172e-07,1.005502718975806e-06,1.189753968894521e-06,1.9951283253766345e-05
2.3510789215135488e-07,9.974141317578646e-07,1.1896452384536723e-06,1.9708888694960542e-05
2.3349799875071613e-07,9.89029813094901e-07,1.1922640527454788e-06,1.9468115434589043e-05
2.324206541763428e-07,9.804601137174462e-07,1.1976360680497951e-06,1.922939889863443e-05
2.3185532809107624e-07,9.7180775350833e-07,1.2057546524742849e-06,1.899332377538172e-05
2.317798702291995e-07,9.631595285575898e-07,1.216575535155028e-06,1.8760501696944923e-05
2.321733385527884e-07,9.545841570564422e-07,1.2300165964962958e-06,1.853143721718487e-05
2.330157964876125e-07,9.461331208476156e-07,1.245965933973724e-06,1.8306485244383734e-05
2.342866416034154e-07,9.378429320265465e-07,1.2642952120895584e-06,1.808592180869901e-05
2.359644175067129e-07,9.297385591405672e-07,1.2848729320247486e-06,1.787009261391427e-05
2.380273348491257e-07,9.218362587729096e-07,1.3075731085025775e-06,1.7659545322173653e-05
2.40453592528074e-07,9.141447818197285e-07,1.3322787137753772e-06,1.7455039475553023e-05
2.432217059965925e-07,9.066657538475135e-07,1.35888255921874e-06,1.7257426952591643e-05
2.4631063155979005e-07,8.993946009985184e-07,1.3872885277666595e-06,1.7067478278198958e-05
2.496998648155355e-07,8.923233426149548e-07,1.4174129093434224e-06,1.6885745781350953e-05
2.53369193417271e-07,8.854452962135954e-07,1.4491812429752589e-06,1.6712537519144444e-05
2.572978764032722e-07,8.787602103306438e-07,1.4825167248263955e-06,1.6547972168277432e-05
2.6146454613712626e-07,8.722761452808972e-07,1.517325687420409e-06,1.6392025464371295e-05
2.658475959455311e-07,8.660045949587048e-07,1.553494361556544e-06,1.624459949892877e-05
2.704246729085919e-07,8.599529224060957e-07,1.5909011746169397e-06,1.6105694790317387e-05
2.751720667242577e-07,8.541212432068928e-07,1.6294305192517925e-06,1.5975572020628173e-05
2.800649088362073e-07,8.485035405644827e-07,1.6689747078517662e-06,1.5854725005646275e-05
2.850775714010132e-07,8.430893777990643e-07,1.7094257160018641e-06,1.574371684147325e-05
2.901839407518744e-07,8.37865181608502e-07,1.7506660515875618e-06,1.5643035915770472e-05
2.9535802622855623e-07,8.328165393469144e-07,1.792564327900274e-06,1.5553031827023396e-05
3.005744674338046e-07,8.279336365417193e-07,1.834976221811219e-06,1.547398905324391e-05
3.058078641667037e-07,8.232176604988648e-07,1.8777499694274932e-06,1.5406359746389732e-05
3.11032356072209e-07,8.186822179347394e-07,1.920731280037084e-06,1.5350981811280802e-05
3.162236236530061e-07,8.143480944728042e-07,1.9637622290802935e-06,1.5309097138785153e-05
3.213616924586257e-07,8.10235512802308e-07,2.0066771481827333e-06,1.5282217244526232e-05
3.264315979239741e-07,8.063583161494317e-07,2.0493015410324193e-06,1.5271973056654176e-05
3.3142167176827737e-07,8.027220590581338e-07,2.0914538409354666e-06,1.5279982141072064e-05
3.363209793631672e-07,7.993263125522539e-07,2.132945879594501e-06,1.5307715273971618e-05
3.4111758842816484e-07,7.961703393365874e-07,2.1735819385191352e-06,1.535638084619057e-05
3.4579829397770857e-07,7.932596519776144e-07,2.2131605504272782e-06,1.5426857991916854e-05
3.503488190654357e-07,7.906093710227757e-07,2.2514788573255874e-06,1.5519679826015538e-05
3.5475391514420967e-07,7.882414324922934e-07,2.2883346644309464e-06,1.5635040243578203e-05
3.589976122039011e-07,7.861784913211086e-07,2.3235258973122232e-06,1.5772781673533505e-05
3.6306350410208857e-07,7.844401482361261e-07,2.356851943017449e-06,1.5932362148415703e-05
3.669357553524328e-07,7.830411106367399e-07,2.3881201398371916e-06,1.6112851314360654e-05
3.7060129054968586e-07,7.819883543357769e-07,2.4171581922696062e-06,1.6312961270527095e-05
3.740511344840397e-07,7.812793657347495e-07,2.4438285707775833e-06,1.6531091003048113e-05
3.772800849081021e-07,7.809039549060629e-07,2.4680383097780704e-06,1.6765411126294012e-05
3.802866123162303e-07,7.808473178348462e-07,2.4897417842928367e-06,1.701398822149125e-05
3.830725872575085e-07,7.810919375062339e-07,2.508935168643428e-06,1.727488944696283e-05
3.8564130215793296e-07,7.816199643198616e-07,2.525642345872509e-06,1.7546256196914304e-05
3.8799589788711817e-07,7.824168150569753e-07,2.5398989603924342e-06,1.7826380175105605e-05
3.9014103630489366e-07,7.834741208413243e-07,2.551740900775046e-06,1.811375619845089e-05
3.9208610866498606e-07,7.847919550507504e-07,2.5611974483780518e-06,1.840704553759352e-05
3.93845247846361e-07,7.863806085659043e-07,2.5682903003069258e-06,1.87049604587012e-05
3.9543312226459524e-07,7.882593435535119e-07,2.573038787858383e-06,1.9006155387387345e-05
3.968605574469315e-07,7.90450328020389e-07,2.575465335916066e-06,1.9309173106836405e-05
3.981329717298089e-07,7.929714995284908e-07,2.575597228949052e-06,1.9612448692864308e-05
3.992510045657705e-07,7.958336036605433e-07,2.5734662497429083e-06,1.99143602520286e-05
4.0021199098253405e-07,7.990418960702283e-07,2.5691066299540538e-06,2.021328151769648e-05
4.01011740512549e-07,8.025999107034173e-07,2.5625513446184267e-06,2.0507603356783167e-05
4.0164733730493845e-07,8.065114682939213e-07,2.553828770963761e-06,2.079573984158064e-05
4.0212097322501757e-07,8.107774122558685e-07,2.542961192116166e-06,2.107613706604399e-05
4.0244156855701603e-07,8.153894509134952e-07,2.5299657893613153e-06,2.1347286094666272e-05
4.026223123057347e-07,8.203282146873786e-07,2.514858176198288e-06,2.1607759453236693e-05
4.0267723791712105e-07,8.255686259126909e-07,2.4976560780939228e-06,2.185632649047857e-05
4.0261974974217035e-07,8.310895188934728e-07,2.47838013361076e-06,2.209211892806468e-05
4.0246208245873436e-07,8.368822581485445e-07,2.4570525518050613e-06,2.2314708986001066e-05
4.0221403872936613e-07,8.429534441501478e-07,2.43369664090056e-06,2.252406829260246e-05
4.018819883920578e-07,8.493211514592121e-07,2.4083384954321917e-06,2.2720485934517332e-05
4.014695522646253e-07,8.560091618347184e-07,2.38101013091513e-06,2.2904472081726564e-05
4.0097901604054976e-07,8.63042883414348e-07,2.351751900521625e-06,2.307665396746873e-05
4.0041193650442687e-07,8.704475824876803e-07,2.320613202956057e-06,2.32376961924656e-05
3.997686403407584e-07,8.782466605150537e-07,2.2876552180889657e-06,2.3388238651035254e-05
3.9904796582308266e-07,8.864571019518425e-07,2.252958635813325e-06,2.352881020710926e-05
3.982498474162722e-07,8.950838433672479e-07,2.2166304992716925e-06,2.36597326863811e-05
3.973795054081293e-07,9.041172441083059e-07,2.1788014252323168e-06,2.378108432911145e-05
3.9644870212699436e-07,9.135350516345968e-07,2.139613861280588e-06,2.389273355637565e-05
3.954737666883856e-07,9.233069894529451e-07,2.099211802675608e-06,2.399438147964491e-05
3.9447231162851425e-07,9.333979398190615e-07,2.057739640945986e-06,2.40856106574126e-05
3.934593445602912e-07,9.437681022810841e-07,2.015346447215982e-06,2.4165994283403925e-05
3.9244485567996297e-07,9.543740712265038e-07,1.9721886984765562e-06,2.423522399049972e-05
3.914341148167917e-07,9.651745400199907e-07,1.92842983277822e-06,2.429320530292623e-05
3.9042937219041685e-07,9.761394612440731e-07,1.8842371802512265e-06,2.434014199236322e-05
3.894316600821292e-07,9.872588926310014e-07,1.8397770994194198e-06,2.437656180205713e-05
3.884414136918736e-07,9.985454317860258e-07,1.795210520081409e-06,2.440324944877521e-05
3.874575180496853e-07,1.0100251555765878e-06,1.7506898041644973e-06,2.442116157073396e-05
3.8647683752818975e-07,1.021721280621662e-06,1.7063563315985609e-06,2.443137356190542e-05
3.854961568896269e-07,1.0336411380992486e-06,1.6623386602280746e-06,2.4435039746291045e-05
3.845150943496975e-07,1.0457721635088971e-06,1.6187512581008853e-06,2.443333446360693e-05
3.835364413394188e-07,1.0580842640269977e-06,1.5756948766726298e-06,2.442736847436637e-05
3.8256410662721405e-07,1.0705333963701491e-06,1.5332595950742918e-06,2.441810395330673e-05
3.816026454496353e-07,1.0830640899412242e-06,1.491528035143373e-06,2.440628296283313e-05
3.8065839188362716e-07,1.0956123163143792e-06,1.4505769808952082e-06,2.4392378780188048e-05
3.797388968854082e-07,1.1081107578896188e-06,1.4104808573318372e-06,2.437659203387672e-05
3.788510033524441e-07,1.1204947991533282e-06,1.3713174149089256e-06,2.4358897442089707e-05
3.779996847048916e-07,1.1327063197746927e-06,1.3331696173126094e-06,2.4339125620166503e-05
3.7718787531053046e-07,1.144694227977734e-06,1.2961217076518715e-06,2.431705034027327e-05
3.7641715880322154e-07,1.1564119094628884e-06,1.2602526301526622e-06,2.4292420145696758e-05
3.756881762939649e-07,1.1678171308957523e-06,1.2256303826189779e-06,2.4264906997496646e-05
3.7499933747944975e-07,1.178880023353886e-06,1.1923122486091742e-06,2.423404070293589e-05
3.743458158639056e-07,1.1895930848679978e-06,1.1603510085788334e-06,2.4199191713222157e-05
3.737211491786418e-07,1.199972222263635e-06,1.129798529960887e-06,2.415958368438157e-05
3.731206237111419e-07,1.2100462030673254e-06,1.100701737503167e-06,2.411431242977232e-05
3.725443844396661e-07,1.2198426570533269e-06,1.0730958955143472e-06,2.406238365985078e-05
3.719985575480037e-07,1.2293818408421005e-06,1.0470024373510409e-06,2.4002771421232094e-05
3.7149387618404436e-07,1.238679707565376e-06,1.0224326331855231e-06,2.393447027000697e-05
3.7104226553354614e-07,1.2477512178235328e-06,9.993907140297138e-07,2.385653414119901e-05
3.70652851832524e-07,1.2566073885680875e-06,9.778715857814022e-07,2.376812516822681e-05
3.703297902419485e-07,1.2652493925325605e-06,9.578575730212014e-07,2.366856906950205e-05
3.700722961688833e-07,1.2736669566439631e-06,9.393202702643079e-07,2.355739425670044e-05
3.6987527388473923e-07,1.2818429520888371e-06,9.222251847457706e-07,2.34343475184036e-05
3.697300572570965e-07,1.289758667990397e-06,9.065335768024614e-07,2.329937427766111e-05
3.6962595581766854e-07,1.2973955765473145e-06,8.922031120658737e-07,2.3152544934281064e-05
3.6955258232977e-07,1.3047355477530085e-06,8.791913419958981e-07,2.2993975123625586e-05
3.6950115246224024e-07,1.311760062919656e-06,8.674589568101829e-07,2.282385264462723e-05
3.69463394676258e-07,1.318446422156585e-06,8.569700243391191e-07,2.2642562313426106e-05
3.6943007324896066e-07,1.3247632184568972e-06,8.476926337021685e-07,2.2450747195268e-05
3.6939205652654426e-07,1.3306693531573037e-06,8.396000316372876e-07,2.224922755015405e-05
3.6934399574079255e-07,1.3361169247942916e-06,8.326690485192997e-07,2.203887062377637e-05
3.692876924668115e-07,1.3410550626839e-06,8.268774327426902e-07,2.1820529393989533e-05
3.69231960754778e-07,1.3454323415507169e-06,8.222017304321166e-07,2.159504872442548e-05
3.6918933895310823e-07,1.3491980842762077e-06,8.186133930431034e-07,2.1363259983439235e-05
3.691729656016298e-07,1.3523042638998845e-06,8.160736340663282e-07,2.112594471162273e-05
3.6919492934908967e-07,1.3547091558339808e-06,8.145322764860924e-07,2.088379245160172e-05
3.692650421586898e-07,1.3563818842408864e-06,8.139321125463939e-07,2.0637384119436134e-05
3.6938966719459683e-07,1.35730524218505e-06,8.142133389302858e-07,2.038726160413197e-05
3.695708438483251e-07,1.3574759208829736e-06,8.153162312510341e-07,2.0134064236614624e-05
3.698060995512181e-07,1.3569023092855792e-06,8.171873885246424e-07,1.987858746636237e-05
3.700892095901194e-07,1.355598905432643e-06,8.197900802302792e-07,1.962170175083093e-05
3.704111303944844e-07,1.353578918146529e-06,8.231115877542166e-07,1.936424024098508e-05
3.7076045572477753e-07,1.3508494203062852e-06,8.271620988752458e-07,1.910695515477897e-05
3.7112368293759005e-07,1.347411476938782e-06,8.319647300773545e-07,1.885051823906593e-05
3.714855877558904e-07,1.343263160000042e-06,8.375404145312719e-07,1.8595501016651032e-05
3.718302559050375e-07,1.3384009293726052e-06,8.438954807634196e-07,1.834234100894672e-05
3.721432507503692e-07,1.332818505452497e-06,8.510175058587382e-07,1.8091381119423472e-05
3.7241333312056e-07,1.326506540682583e-06,8.588762149595845e-07,1.784305719812097e-05
3.7263172836568757e-07,1.319454560935631e-06,8.674242744811447e-07,1.7598128237932968e-05
3.727902136658743e-07,1.3116544611321665e-06,8.765984057755006e-07,1.7357721965681506e-05
3.7288040618841155e-07,1.3031054044213442e-06,8.86321930806034e-07,1.712317588411689e-05
3.728942013231818e-07,1.2938184166866067e-06,8.96507495982053e-07,1.6895854280315877e-05
3.7282445685451007e-07,1.2838166854098394e-06,9.070597555521992e-07,1.667703379010163e-05
3.72665369334169e-07,1.2731316330437815e-06,9.178786826199324e-07,1.6467910387705302e-05
3.7241192463326357e-07,1.261800415180403e-06,9.288624915472969e-07,1.6269809437043413e-05
3.7205948640638497e-07,1.2498656328792415e-06,9.399096426592516e-07,1.6084458939948403e-05
3.716057922283874e-07,1.2373722019027225e-06,9.509215476084292e-07,1.5914050869737026e-05
3.710541938145765e-07,1.2243619848099634e-06,9.618054113287465e-07,1.5761078513118953e-05
3.704138443550058e-07,1.2108720885936002e-06,9.724746660777492e-07,1.5628120558808752e-05
3.696958331837004e-07,1.1969387175722335e-06,9.828468429542273e-07,1.5517650305529045e-05
3.6890884352383045e-07,1.1826020215261162e-06,9.928405919540388e-07,1.5431889442573377e-05
3.6805732897725095e-07,1.1679063836521174e-06,1.0023739695993777e-06,1.5372712833534165e-05
3.6714209680939284e-07,1.1528965155736795e-06,1.0113657029340377e-06,1.5341571372154035e-05
3.6616189079182966e-07,1.1376139996570295e-06,1.0197396867392788e-06,1.5339412123732913e-05
3.6511531127414043e-07,1.1220969173920424e-06,1.0274319748689114e-06,1.5366624634590242e-05
3.640035872317914e-07,1.1063833179314492e-06,1.034396940401989e-06,1.542305002185069e-05
3.628332026954377e-07,1.0905171230316531e-06,1.0406067128943425e-06,1.5508038321786636e-05
3.616155111878111e-07,1.0745512710749355e-06,1.046043899454313e-06,1.5620510089413182e-05
3.6036414883368137e-07,1.0585463591991218e-06,1.0506973316165058e-06,1.5759021291675735e-05
3.5909355822670213e-07,1.0425697599421286e-06,1.0545672127621332e-06,1.5921857386085928e-05
3.578182136636233e-07,1.026696737830537e-06,1.057671798803837e-06,1.6107159093133158e-05
3.5655096532445285e-07,1.011007979229962e-06,1.0600448230170994e-06,1.6313059219018813e-05
3.5530165685174905e-07,9.955815170668131e-07,1.0617253411743321e-06,1.6537788989443912e-05
3.5407706964491867e-07,9.804858331297199e-07,1.0627492792067668e-06,1.6779729294172636e-05
3.528810840185723e-07,9.6577830470568e-07,1.0631460995186066e-06,1.7037431527765486e-05
3.517144005232699e-07,9.515045180129992e-07,1.0629377638711786e-06,1.730961238869535e-05
3.505745629982257e-07,9.376963196446944e-07,1.0621382562986499e-06,1.7595079284254e-05
3.4945655477843874e-07,9.243732864721778e-07,1.0607542956517656e-06,1.789258548108692e-05
3.483540441372819e-07,9.11551822612967e-07,1.0587872232243386e-06,1.8200692933009304e-05
3.4726099559008445e-07,8.992605872410807e-07,1.0562347787148298e-06,1.8517736334750984e-05
3.461724869068011e-07,8.875544539522721e-07,1.0530922943980614e-06,1.8841926220137562e-05
3.450850037882174e-07,8.765178578271797e-07,1.0493537050774092e-06,1.9171529491629693e-05
3.439970083511145e-07,8.662559544869053e-07,1.0450121886006011e-06,1.9504986478493905e-05
3.429085794493792e-07,8.568796496694875e-07,1.0400610076937677e-06,1.9840878232589875e-05
3.418198206180344e-07,8.484908949575708e-07,1.0344953611293362e-06,2.0177816475984343e-05
3.407300038387227e-07,8.411722253324703e-07,1.0283135227003009e-06,2.051437248229244e-05
3.396381557348109e-07,8.349823507576231e-07,1.0215155381421198e-06,2.084906533457628e-05
3.385436251457809e-07,8.299560519897036e-07,1.0141016295083371e-06,2.118036318042688e-05
3.374458222660961e-07,8.261059434892874e-07,1.0060734872625521e-06,2.150666633214053e-05
3.36344009531125e-07,8.234276414366214e-07,9.974377022114128e-07,2.1826302007514748e-05
3.352380609096789e-07,8.219087344350569e-07,9.882082891977504e-07,2.2137582825740132e-05
3.341298704201933e-07,8.21535658107172e-07,9.78407512033e-07,2.2438918831172e-05
3.330235351555667e-07,8.222949673086674e-07,9.680678250470323e-07,2.272892589555711e-05
3.3192330903159926e-07,8.241731252953255e-07,9.572363617856182e-07,2.300652739636769e-05
3.308315214325748e-07,8.271577351796224e-07,9.459752049023235e-07,2.327107130612187e-05
3.2974827259963376e-07,8.312387025614912e-07,9.343530876182008e-07,2.352238235534197e-05
3.286717436347302e-07,8.364077342030552e-07,9.224397196495806e-07,2.376065539911543e-05
3.2759850535251105e-07,8.426547567347441e-07,9.103128725633024e-07,2.398623956562736e-05
3.265245810891221e-07,8.499611536024631e-07,8.980700508165691e-07,2.4199428713979668e-05
3.2544622510451175e-07,8.582930365255002e-07,8.858308378744402e-07,2.440032631557987e-05
3.243596223456378e-07,8.675986375844227e-07,8.737259107265518e-07,2.4588801622870252e-05
3.2326180251966554e-07,8.778113872404459e-07,8.61880323356965e-07,2.4764508169790467e-05
3.221537171665965e-07,8.888572882625091e-07,8.504037496734341e-07,2.49269491044603e-05
3.210423575117867e-07,9.006633612884184e-07,8.393922924549262e-07,2.507565734250084e-05
3.199394564347191e-07,9.131619883195463e-07,8.28933584651238e-07,2.5210460915051376e-05
3.188582262043024e-07,9.262876130099436e-07,8.19107046778623e-07,2.5331589104902364e-05
3.178109130066242e-07,9.39970223886108e-07,8.099811695182098e-07,2.543950632761943e-05
3.168080817508416e-07,9.541328949889618e-07,8.016121124406426e-07,2.5534655088774675e-05
3.158586201923804e-07,9.686934056241363e-07,7.940428152430948e-07,2.56172995457362e-05
3.149694196681973e-07,9.835656791517827e-07,7.873014298947812e-07,2.568758353004761e-05
3.1414486084095626e-07,9.98659414113979e-07,7.814006576118714e-07,2.574585773318192e-05
3.133867234871776e-07,1.0138788872646844e-06,7.76338583293786e-07,2.5793083214706964e-05
3.126944602765203e-07,1.029123212430201e-06,7.721014785552776e-07,2.5830975717117143e-05
3.1206566712994647e-07,1.0442897343440664e-06,7.686716454232806e-07,2.586183909321201e-05
3.114968401925041e-07,1.0592788739638442e-06,7.660395354269478e-07,2.5888306717048566e-05
3.109844461168893e-07,1.0739968063461666e-06,7.642120601712007e-07,2.5913122371107057e-05
3.105264089949621e-07,1.088354317328698e-06,7.632113208874518e-07,2.593894887095291e-05
3.101232958219277e-07,1.1022633947811965e-06,7.630656349552906e-07,2.5968198219548325e-05
3.097783412376481e-07,1.115634933627023e-06,7.63799143818526e-07,2.6002914149212812e-05
3.0949645980346997e-07,1.1283792050837505e-06,7.654280885201794e-07,2.604472059151637e-05
3.092830601044565e-07,1.1404075975032208e-06,7.679662437514932e-07,2.6094814421682442e-05
3.0914442873604664e-07,1.1516347316121543e-06,7.714325697286066e-07,2.6153967813775625e-05
3.090901781765405e-07,1.1619812882959795e-06,7.758544166038953e-07,2.622251561819585e-05
3.0913546593786997e-07,1.171375874490593e-06,7.812660083851549e-07,2.630033842778619e-05
3.093005035876104e-07,1.179753972469505e-06,7.877042158995935e-07,2.638687448256277e-05
3.0960673722448247e-07,1.1870554568827892e-06,7.952038737271731e-07,2.6481175480444197e-05
3.100723201138628e-07,1.193223899628674e-06,8.037955332912306e-07,2.658201717872035e-05
3.107103307834176e-07,1.1982084153709157e-06,8.135061529937784e-07,2.668806925579872e-05
3.115295416332028e-07,1.2019654073015927e-06,8.243594941044168e-07,2.679805775220109e-05
3.12535483175422e-07,1.2044581660659345e-06,8.363734677838958e-07,2.691083868866124e-05
3.137306098737839e-07,1.2056561862490116e-06,8.495551162278629e-07,2.7025410962852327e-05
3.151137849300514e-07,1.2055358114439754e-06,8.638949196413694e-07,2.714093107470037e-05
3.1668022297448357e-07,1.2040801654167436e-06,8.793620371056766e-07,2.7256715341803846e-05
3.1842224699252373e-07,1.2012774862128334e-06,8.959045605934567e-07,2.7372212299616846e-05
3.203297119447705e-07,1.1971198465698706e-06,9.134580092575493e-07,2.7486968460612846e-05
3.223897744464961e-07,1.1916032509278914e-06,9.319586898564009e-07,2.7600575213198626e-05
3.245872708971312e-07,1.1847287095491172e-06,9.513551230698593e-07,2.7712571406775677e-05
3.269063299673857e-07,1.1765039840847744e-06,9.71613553139997e-07,2.782235950563589e-05
3.293331078019844e-07,1.166946608361897e-06,9.927174701730172e-07,2.7929206902353106e-05
3.318596712119366e-07,1.1560884725495992e-06,1.0146625137835113e-06,2.8032293877511104e-05
3.3448748480996817e-07,1.1439793498937514e-06,1.037449286641382e-06,2.8130736113133973e-05
3.372272303874229e-07,1.1306861116454232e-06,1.0610785944772137e-06,2.822359109114839e-05
3.400949559463614e-07,1.1162878939129567e-06,1.085549418581306e-06,2.830989752076516e-05
3.431079268196325e-07,1.100870657412005e-06,1.1108532067132618e-06,2.838872934469899e-05
3.462806313116181e-07,1.0845235672399945e-06,1.1369630678391183e-06,2.845918231526573e-05
3.496206555845476e-07,1.0673368934167945e-06,1.163825517297295e-06,2.8520292757150317e-05
3.531268730419164e-07,1.0494021280679155e-06,1.1913598514919426e-06,2.857099214660731e-05
3.5679040416993497e-07,1.0308148889618575e-06,1.2194643070081721e-06,2.8610143664974108e-05
3.60596256403104e-07,1.0116777332026262e-06,1.2480286652080095e-06,2.863661942208703e-05
3.645244908507854e-07,9.92100454874273e-07,1.2769510250215497e-06,2.8649407132564576e-05
3.6855132494130977e-07,9.72197247352008e-07,1.3061503198345402e-06,2.8647735902875694e-05
3.726513550860774e-07,9.520809166804029e-07,1.3355677379483816e-06,2.8631119485815472e-05
3.768002324998991e-07,9.318573218518456e-07,1.3651592063157177e-06,2.859925558852152e-05
3.809760834575104e-07,9.116240905098499e-07,1.3948860998266896e-06,2.8551892727289466e-05
