2.8640878463197215e-07,9.55123507757971e-07,1.236410076207002e-06,2.4154037269583388e-05
2.833818883078112e-07,9.520700677935551e-07,1.2435179368720574e-06,2.425355731621452e-05
2.8039013957684136e-07,9.500997521223095e-07,1.2498721835965957e-06,2.433634800574154e-05
2.774432256234993e-07,9.491942102913851e-07,1.2554328306171937e-06,2.440423812489797e-05
2.74549703751312e-07,9.493270329313367e-07,1.2601661464978796e-06,2.4459257586413605e-05
2.717166631216262e-07,9.504719909739424e-07,1.264041605302155e-06,2.450333480815331e-05
2.689496215087132e-07,9.526056029240095e-07,1.2670348386692535e-06,2.453810375881001e-05
2.662527043333329e-07,9.557023060973301e-07,1.269132411774125e-06,2.45649308532333e-05
2.636293899291696e-07,9.59727442933355e-07,1.2703341119497945e-06,2.4585201545660047e-05
2.6108298470602534e-07,9.64635421088943e-07,1.2706533970741294e-06,2.4600648986120786e-05
2.586162490409447e-07,9.703746009448765e-07,1.2701180137291388e-06,2.4613439290043648e-05
2.5623129030873687e-07,9.768923017309151e-07,1.2687683815976108e-06,2.4626023821319948e-05
2.53929899279614e-07,9.841354427951702e-07,1.2666510440360713e-06,2.4640938360978087e-05
2.517137564083348e-07,9.920482925813893e-07,1.2638106103715241e-06,2.466064022069469e-05
2.495853964290153e-07,1.0005683987961313e-06,1.2602851587920471e-06,2.468740399431741e-05
2.4754967247673004e-07,1.0096237821128313e-06,1.256105198844687e-06,2.47232571606018e-05
2.456135421341304e-07,1.019135547906337e-06,1.2512945232388395e-06,2.476991547824941e-05
2.437845663037191e-07,1.0290219193669813e-06,1.2458735090825442e-06,2.4828720982882903e-05
2.4207030098821997e-07,1.0391989756709102e-06,1.2398646656000314e-06,2.490061178396561e-05
2.404784675377605e-07,1.0495823059646021e-06,1.2332964437371182e-06,2.498612154170042e-05
2.390166681139445e-07,1.0600917621635936e-06,1.22620114055847e-06,2.5085381911713705e-05
2.376913921376957e-07,1.070654560556883e-06,1.2186090227313689e-06,2.519811264965383e-05
2.3650726407938532e-07,1.0812048338809865e-06,1.2105448768932094e-06,2.532361141815404e-05
2.354670749206141e-07,1.0916815073107834e-06,1.2020285541154137e-06,2.546078254342895e-05
2.3457152384612089e-07,1.1020260598847257e-06,1.1930767737868243e-06,2.560822959520857e-05
2.3381851709451538e-07,1.112180640542082e-06,1.1837050387836788e-06,2.5764383004963488e-05
2.3320383866712786e-07,1.1220859242262736e-06,1.173929070924085e-06,2.5927605760850044e-05
2.3272353389028048e-07,1.131680219574133e-06,1.163763921919081e-06,2.6096245048122143e-05
2.3237503691731247e-07,1.1409017830795698e-06,1.1532219993978936e-06,2.626865083308956e-05
2.3215563357012983e-07,1.1496921831615234e-06,1.1423135955114617e-06,2.644319769989643e-05
2.3206107994417878e-07,1.1579979911640696e-06,1.1310488188456058e-06,2.661830547979447e-05
2.320861521221795e-07,1.165769731672392e-06,1.1194376855440027e-06,2.6792434230245064e-05
2.3222587473140416e-07,1.1729583376870405e-06,1.1074897836692794e-06,2.6964057402169008e-05
2.3247561837529612e-07,1.1795122823023958e-06,1.0952165808357188e-06,2.713162900250172e-05
2.3282984993094602e-07,1.1853780987800874e-06,1.0826346218572913e-06,2.7293564725224318e-05
2.3328163161399012e-07,1.1905035537546845e-06,1.0697650737513751e-06,2.7448280906898974e-05
2.3382346648718692e-07,1.1948418605740478e-06,1.0566305253872229e-06,2.7594270349382936e-05
2.344476262084784e-07,1.1983556834633972e-06,1.043253310346608e-06,2.7730123755339313e-05
2.351455795785029e-07,1.2010189778733091e-06,1.029654765374456e-06,2.785450121918648e-05
2.3590732776416487e-07,1.2028149175491913e-06,1.0158537571414968e-06,2.7966124296382367e-05
2.367210742468543e-07,1.203732274352396e-06,1.001866565737476e-06,2.806379663031789e-05
2.3757399937192389e-07,1.2037652892941195e-06,9.877089735755597e-07,2.8146418668976198e-05
2.384543161256484e-07,1.2029151838618506e-06,9.73397840116452e-07,2.8212961622105004e-05
2.3935415970063117e-07,1.2011878624767737e-06,9.589505990910193e-07,2.8262418555155712e-05
2.402720383131216e-07,1.1985906470909386e-06,9.443847276261259e-07,2.8293803380131654e-05
2.4121197893953864e-07,1.195131581847998e-06,9.297188848036385e-07,2.8306213743684285e-05
2.421795959588151e-07,1.1908187864145685e-06,9.149747229762451e-07,2.8298919556936363e-05
2.4317952951649144e-07,1.1856592884904264e-06,9.001776196094178e-07,2.827148125235097e-05
2.442158459490193e-07,1.1796585048610822e-06,8.853548237972236e-07,2.822388933064737e-05
2.452924718766845e-07,1.172820396830113e-06,8.705319274853993e-07,2.8156615573442188e-05
2.464121670834629e-07,1.1651492104871537e-06,8.55731482091223e-07,2.8070484902612672e-05
2.475759291868821e-07,1.156653358202529e-06,8.409774296765713e-07,2.796643577057324e-05
2.487833751468019e-07,1.1473493494513055e-06,8.263051225199612e-07,2.7845332030766524e-05
2.5003243373052765e-07,1.1372621615481198e-06,8.117702931124219e-07,2.7707912827983887e-05
2.5131865044344417e-07,1.1264220808069617e-06,7.974504437337546e-07,2.755482668274891e-05
2.5263568456868837e-07,1.114863290996164e-06,7.834393240614428e-07,2.738665981032475e-05
2.539766590433672e-07,1.1026266380087076e-06,7.698388471794394e-07,2.720394972130517e-05
2.553355232898733e-07,1.0897616340776292e-06,7.567514591407503e-07,2.7007282463713e-05
2.567087689002207e-07,1.0763251617867372e-06,7.44273712994111e-07,2.679752359097067e-05
2.5809719238363646e-07,1.0623804881800743e-06,7.324913621366901e-07,2.657600040375469e-05
2.5950642508137284e-07,1.0479959511317666e-06,7.214782466044362e-07,2.634444002003556e-05
2.609455143807801e-07,1.0332400475275571e-06,7.113010857007284e-07,2.610474459666623e-05
2.6242360344258105e-07,1.01817607170734e-06,7.020252791571479e-07,2.585877927044116e-05
2.6394626493539747e-07,1.00286111249517e-06,6.937128124226703e-07,2.5608276929077207e-05
2.6551399164847585e-07,9.873492191249323e-07,6.864143064009445e-07,2.535496811252903e-05
2.671231266516309e-07,9.716946962390195e-07,6.801662088317535e-07,2.510087662698305e-05
2.6876725396398647e-07,9.55952233310133e-07,6.749954298063003e-07,2.484848828107969e-05
2.704381564367482e-07,9.401741842360701e-07,6.709229889306742e-07,2.460065538124812e-05
2.7212691858223465e-07,9.244069758396686e-07,6.679622044008622e-07,2.436037314128248e-05
2.738251298342065e-07,9.086889025919664e-07,6.661194576051773e-07,2.4130559142926825e-05
2.755256602803093e-07,8.930506426600275e-07,6.654043191329258e-07,2.391386446975271e-05
2.772223833693045e-07,8.775171362764442e-07,6.658421106329812e-07,2.371251491553068e-05
2.789086679178405e-07,8.62110048607294e-07,6.674793677745628e-07,2.352819583918812e-05
2.805762257676704e-07,8.468515462630943e-07,6.703798303492117e-07,2.3362008116777715e-05
2.822157801128989e-07,8.317671869902017e-07,6.746124211384545e-07,2.3214495135652868e-05
2.8381869958481304e-07,8.168847032159894e-07,6.802346503050675e-07,2.308570810572445e-05
2.85377993039734e-07,8.022296818164102e-07,6.872785806012375e-07,2.297527625644836e-05
2.8688825583781164e-07,7.878220810149187e-07,6.957465702366667e-07,2.288246543920424e-05
2.883453605412015e-07,7.736755941152577e-07,7.056171439875228e-07,2.2806223493864323e-05
2.897470084388061e-07,7.597984523928161e-07,7.168539498271452e-07,2.274522213886975e-05
2.9109421792522266e-07,7.461946713631055e-07,7.294100240704195e-07,2.2697922199158546e-05
2.9239202215961125e-07,7.328674389022251e-07,7.432274088516009e-07,2.266267443576649e-05
2.9364745244020033e-07,7.198242525736479e-07,7.5823680865156e-07,2.2637817580852866e-05
2.9486616485971944e-07,7.070788541807103e-07,7.743569785777927e-07,2.262173864697032e-05
2.960512063946453e-07,6.946477840937907e-07,7.914927175317656e-07,2.2612907358583342e-05
2.972038765534355e-07,6.825459070202785e-07,8.095349450777126e-07,2.260988754896892e-05
2.98324009488725e-07,6.707845609371409e-07,8.283651004973112e-07,2.2611312033523044e-05
2.994095464805964e-07,6.593714972428895e-07,8.478611667100292e-07,2.261584385005808e-05
3.004569558420395e-07,6.483108696381359e-07,8.67902096516696e-07,2.262215425787919e-05
3.014622825951624e-07,6.376027593849137e-07,8.88369680702244e-07,2.262890987438031e-05
3.024218448367836e-07,6.272430748449878e-07,9.091476118645004e-07,2.263477871360459e-05
3.033332143472125e-07,6.172250499059942e-07,9.301195513255913e-07,2.2638516456814762e-05
3.041979350412089e-07,6.075431408998455e-07,9.511686769669096e-07,2.2639114304610778e-05
3.0502491459042056e-07,5.981990502698823e-07,9.721781239153349e-07,2.2635865040743425e-05
3.058307742160073e-07,5.892061707699159e-07,9.930323227674087e-07,2.2628290287798486e-05
3.0663659343464e-07,5.80587737528087e-07,1.0136203508110686e-06,2.2616034099545306e-05
3.074643515075428e-07,5.723697881915119e-07,1.0338384756101486e-06,2.2598813267059524e-05
3.0833482014507215e-07,5.645752992500801e-07,1.0535888757365692e-06,2.2576398427894947e-05
3.0926636492745127e-07,5.572234977595745e-07,1.0727776672724531e-06,2.25485607182714e-05
3.102742122368626e-07,5.503324695002016e-07,1.0913155914605506e-06,2.251500044756916e-05
3.113700259969471e-07,5.439222054205304e-07,1.109117980312462e-06,2.2475339595389665e-05
3.125613062790276e-07,5.38017658443736e-07,1.1261014857071805e-06,2.2429210399973802e-05
3.1385104568083026e-07,5.326509213190078e-07,1.1421814282714222e-06,2.237639827718279e-05
3.152386024690189e-07,5.278615141122236e-07,1.1572726273959212e-06,2.23169841815612e-05
3.16720779940284e-07,5.236947508332525e-07,1.171292769470901e-06,2.2251444501636752e-05
3.182916998119582e-07,5.201973548914681e-07,1.1841667506034664e-06,2.2180649603178487e-05
3.199425086252157e-07,5.174106181448604e-07,1.195829938563553e-06,2.2105730730572906e-05
3.216624200080152e-07,5.15364166799691e-07,1.2062290231074878e-06,2.202787142625125e-05
3.234405079535789e-07,5.140739476876073e-07,1.2153226318137836e-06,2.194810593347691e-05
3.252665354922733e-07,5.135454838674002e-07,1.2230843717984422e-06,2.186719226002945e-05
3.2712982589346485e-07,5.137801070607065e-07,1.2295068965395766e-06,2.1785591949188528e-05
3.29017364834094e-07,5.147810224753441e-07,1.234604445861338e-06,2.170351223725053e-05
3.309132322400313e-07,5.165553296699019e-07,1.238412820312415e-06,2.162097841291272e-05
3.3279969014358056e-07,5.191098806396138e-07,1.2409858684485599e-06,2.153802057388442e-05
3.346589361956762e-07,5.224468720001527e-07,1.2423893289941105e-06,2.1454998100728245e-05
3.364740835968736e-07,5.265656034554993e-07,1.242694521646916e-06,2.137283540817245e-05
3.382288490530294e-07,5.31465834763177e-07,1.2419721227178776e-06,2.129296733156256e-05
3.399076513766771e-07,5.371457825926359e-07,1.240286011363919e-06,2.121709690148809e-05
3.4149684789216326e-07,5.435963988687807e-07,1.2376901847276536e-06,2.1146943190306626e-05
3.429854822536511e-07,5.507967339293218e-07,1.2342306901693466e-06,2.1084054928707165e-05
3.443647160718703e-07,5.587118650257329e-07,1.2299507472259694e-06,2.1029799772663987e-05
3.4562679786650373e-07,5.672927653776771e-07,1.2248962785688645e-06,2.0985570680762273e-05
3.467646336239759e-07,5.764775714086713e-07,1.2191203199681892e-06,2.09530001595774e-05
3.477716901380221e-07,5.861939341469662e-07,1.212686262667338e-06,2.09339825452722e-05
3.486412290056809e-07,5.963618584680347e-07,1.20567056723889e-06,2.093055450051322e-05
3.493658075333387e-07,6.068964417955004e-07,1.1981642766482841e-06,2.094475527468496e-05
3.499381860047446e-07,6.177100454373826e-07,1.190270531355779e-06,2.0978504197232167e-05
3.503519026021534e-07,6.287134196813621e-07,1.1820961338079368e-06,2.103349860339045e-05
3.506002052588227e-07,6.398162195675575e-07,1.1737404996538878e-06,2.1111151139625167e-05
3.5067544268639897e-07,6.509283325557651e-07,1.1652900971769474e-06,2.12125811365068e-05
3.505708847478027e-07,6.619619143676933e-07,1.1568220411435032e-06,2.133863245973475e-05
3.502831321750946e-07,6.728323040184646e-07,1.1484102392540312e-06,2.148986520348576e-05
3.4981206760811853e-07,6.834584643916511e-07,1.1401269451695856e-06,2.166649543837181e-05
3.491592153493293e-07,6.937651994121967e-07,1.1320405889243556e-06,2.186831786129577e-05
3.483272940541943e-07,7.036855272272587e-07,1.1242120970529534e-06,2.209466977544601e-05
3.473210245586442e-07,7.131601548871655e-07,1.1166893158409884e-06,2.2344431684075447e-05
3.4614837265994156e-07,7.221350083448545e-07,1.109502309381655e-06,2.2616030181915986e-05
3.4482129372052605e-07,7.305595151812434e-07,1.1026647103351696e-06,2.2907477686637275e-05
3.433542391926966e-07,7.38386777264275e-07,1.096181882490434e-06,2.3216488975724602e-05
3.417614992072421e-07,7.455752549799051e-07,1.0900600487366684e-06,2.3540628223409053e-05
3.400561773945993e-07,7.520903914681907e-07,1.0843089780065504e-06,2.387742713870665e-05
3.382505872618082e-07,7.57906237452382e-07,1.0789374105786335e-06,2.422447431660093e-05
3.363566657806911e-07,7.630091753643405e-07,1.0739474732550202e-06,2.4579488950743544e-05
3.3438635871259324e-07,7.674027732439771e-07,1.0693339156253201e-06,2.494036165606177e-05
3.323520939270542e-07,7.711098014490975e-07,1.0650878899713416e-06,2.5305144798098315e-05
3.3026726332567165e-07,7.741685303136781e-07,1.0612007992232859e-06,2.56720046326418e-05
3.281463997029828e-07,7.766233978647236e-07,1.057666811635749e-06,2.6039150391214397e-05
3.2600479042029197e-07,7.785153786510869e-07,1.0544861208819981e-06,2.640476248700367e-05
3.2385820316109697e-07,7.798778735487804e-07,1.0516677127427367e-06,2.676696938794997e-05
3.217227332041664e-07,7.807366288724343e-07,1.0492271643234248e-06,2.7123875201164804e-05
3.196144955243487e-07,7.811103871061264e-07,1.0471788340948357e-06,2.747358348011997e-05
3.175498339040605e-07,7.810135162097382e-07,1.045528329106327e-06,2.7814204968221803e-05
3.155449185049781e-07,7.804615693264195e-07,1.0442702151895822e-06,2.8143874261611244e-05
3.136139057575548e-07,7.794772877815361e-07,1.0433891368587047e-06,2.8460760913805724e-05
3.1176788608109324e-07,7.780939971545231e-07,1.042862694937271e-06,2.876303986194405e-05
3.100153591890064e-07,7.76355289537803e-07,1.042665740123407e-06,2.904885410785689e-05
3.083625528012503e-07,7.743115596193559e-07,1.0427718356956243e-06,2.931633718193255e-05
3.0681322869483536e-07,7.720142450105302e-07,1.0431527774731595e-06,2.956369578544025e-05
3.053691960595853e-07,7.695095863627768e-07,1.0437829367574853e-06,2.9789317839358533e-05
3.0403169581154233e-07,7.668349937627743e-07,1.0446466905103023e-06,2.9991905179984747e-05
3.028022402473401e-07,7.640193771450888e-07,1.0457405560984652e-06,3.017063361223772e-05
3.016822512000937e-07,7.610865372297676e-07,1.0470667129227844e-06,3.032526892857688e-05
3.0067187882654485e-07,7.580595062551851e-07,1.0486223604136596e-06,3.045613401792044e-05
2.997686251936626e-07,7.549618156150288e-07,1.0503925094287238e-06,3.0563916727007306e-05
2.98967782463937e-07,7.518144172268224e-07,1.052349673594422e-06,3.064940583030541e-05
2.9826586371653726e-07,7.486329199187395e-07,1.0544577704929435e-06,3.071327937281114e-05
2.97663501908226e-07,7.454294890611659e-07,1.0566767287167091e-06,3.075604056517965e-05
2.9716413523357824e-07,7.422176933069828e-07,1.0589662461522905e-06,3.077806876969759e-05
2.9677062399994337e-07,7.39014478135529e-07,1.061287060225934e-06,3.0779663786536985e-05
2.9648316159166733e-07,7.358383115454263e-07,1.0635992644290969e-06,3.076106417312641e-05
2.962986401020866e-07,7.327082465842878e-07,1.0658601170882938e-06,3.0722554407363986e-05
2.962109653794017e-07,7.296437697213179e-07,1.0680243283276928e-06,3.066464252738486e-05
2.96212026208797e-07,7.266617533003934e-07,1.0700466557406728e-06,3.0588110020286493e-05
2.9629278042106674e-07,7.237727803403475e-07,1.0718831734551774e-06,3.0493889934345177e-05
2.964437448537085e-07,7.209816687552304e-07,1.0734895236729789e-06,3.0382904168417656e-05
2.96654359166443e-07,7.182917679820755e-07,1.0748187603844131e-06,3.0255971507949226e-05
2.969121875269854e-07,7.15708466016374e-07,1.0758214463015795e-06,3.0113923980171503e-05
2.972033565903546e-07,7.132389812151289e-07,1.076447309502078e-06,2.9957955407814008e-05
2.975139289165115e-07,7.10889949464961e-07,1.0766465539417865e-06,2.978992171840829e-05
2.978309748209205e-07,7.086652996341579e-07,1.076370915717688e-06,2.9612350037859057e-05
2.981429974798543e-07,7.06565010260668e-07,1.0755745515362259e-06,2.9428243803710558e-05
2.9843998273153525e-07,7.045852127535807e-07,1.0742144037635063e-06,2.924085077171059e-05
2.987132306395377e-07,7.02718985434884e-07,1.072250674500213e-06,2.9053433637088976e-05
2.989555022994736e-07,7.009561068759219e-07,1.069647025371933e-06,2.8869037378925483e-05
2.991616766591485e-07,6.992824284885131e-07,1.0663707603010625e-06,2.869028338976557e-05
2.993289519076365e-07,6.976808644057699e-07,1.062395472955022e-06,2.8519250475461738e-05
2.9945576664996e-07,6.961342384614622e-07,1.0577056548689868e-06,2.8357466584038952e-05
2.99540835346216e-07,6.946275346179742e-07,1.052299068012603e-06,2.820595759793921e-05
2.9958527704227146e-07,6.931474757266225e-07,1.046184725381895e-06,2.8065280388375762e-05
2.995967264989849e-07,6.91681192678874e-07,1.0393775314999016e-06,2.793553723498134e-05
2.995901180117875e-07,6.902161513246015e-07,1.0318927608317328e-06,2.781642201403509e-05
2.995844921030141e-07,6.887408225622527e-07,1.023744371121335e-06,2.7707310465933148e-05
2.995995640614057e-07,6.872454805231056e-07,1.0149473849941987e-06,2.76073697711015e-05
2.996535481575056e-07,6.85723648765591e-07,1.0055203893528706e-06,2.751567293226625e-05
2.997629003643812e-07,6.841744429202025e-07,9.954857177109935e-07,2.7431298606735393e-05
2.9994370946259204e-07,6.826040960567304e-07,9.848691632902135e-07,2.735339102451977e-05
3.0021252469676105e-07,6.810243475519897e-07,9.737013524312746e-07,2.728119705627504e-05
3.0058649887569603e-07,6.79449834477091e-07,9.620197213295146e-07,2.72141208470481e-05
3.0108335134925606e-07,6.778985620491434e-07,9.498687999196541e-07,2.715177356166858e-05
3.0171983476550826e-07,6.763940871089776e-07,9.372973122698552e-07,2.709395131528384e-05
3.025090144362473e-07,6.749656747444635e-07,9.243533536143456e-07,2.7040531130142605e-05
3.034590112315487e-07,6.736451557941139e-07,9.110824997622492e-07,2.6991339333993108e-05
3.045743227081881e-07,6.724611459329651e-07,8.975306023288195e-07,2.69460483410538e-05
3.058574947455778e-07,6.7143431850551e-07,8.837456878282934e-07,2.690414324706235e-05
3.0730896054663547e-07,6.705767950755863e-07,8.697750480398277e-07,2.6864978168316283e-05
3.089260829631988e-07,6.698936625653833e-07,8.556615764468344e-07,2.6827877499714465e-05
3.107030689223713e-07,6.693840983790896e-07,8.414436442847636e-07,2.6792206981726128e-05
3.12631480775086e-07,6.690415330482686e-07,8.271571386444195e-07,2.6757399702999744e-05
3.147008093829418e-07,6.688532162753768e-07,8.128368414898315e-07,2.6722969102650456e-05
3.1689857176149076e-07,6.688010636206909e-07,7.985167213922736e-07,2.668850398244336e-05
3.192095976476631e-07,6.688649048441681e-07,7.842297870042348e-07,2.665362098221045e-05
3.2161555365283524e-07,6.690275832725475e-07,7.700085802289778e-07,2.6617938305510932e-05
3.2409538832957506e-07,6.692801703601488e-07,7.558882998021458e-07,2.6581129587182346e-05
3.2662638430955266e-07,6.696245053613975e-07,7.419120140120378e-07,2.654298101142749e-05
3.2918564165020845e-07,6.70073934947307e-07,7.2813351687136e-07,2.650339394830228e-05
3.31752143271834e-07,6.706536145816888e-07,7.146146979980718e-07,2.646236078381417e-05
3.343086313840432e-07,6.713960217779982e-07,7.014187258495168e-07,2.641992028988632e-05
3.3684166703939005e-07,6.723313198320528e-07,6.886029703062986e-07,2.6376085060553625e-05
3.393405570116805e-07,6.73480471361613e-07,6.762149090175515e-07,2.633075130926301e-05
3.4179694619372765e-07,6.748561469786364e-07,6.642911228488828e-07,2.6283627056528005e-05
3.442050361126255e-07,6.764672289314811e-07,6.528577414702379e-07,2.6234239279166024e-05
3.46562325115626e-07,6.783193209555625e-07,6.419313415845708e-07,2.618202536969191e-05
3.488707811579679e-07,6.804113314031753e-07,6.315199658607891e-07,2.612641636296257e-05
3.511364588718106e-07,6.827338688385136e-07,6.216243947077533e-07,2.6066834161076622e-05
3.5336611680434364e-07,6.852710816783603e-07,6.122395798965552e-07,2.600264190028001e-05
3.555631485313401e-07,6.880047556470182e-07,6.033555366779088e-07,2.593317213218925e-05
3.5772620162551604e-07,6.90918836969638e-07,5.949578130835406e-07,2.5857886485726595e-05
3.5985202362508847e-07,6.940003494584833e-07,5.870287039864983e-07,2.577651552539833e-05
3.619417260171085e-07,6.972361902066036e-07,5.795502613895547e-07,2.568903503953052e-05
3.640056459786716e-07,7.006129775407567e-07,5.72509366639326e-07,2.5595557092662587e-05
3.660633902524549e-07,7.041234337942002e-07,5.659031494808525e-07,2.549624596686234e-05
3.681414787273244e-07,7.077710877977013e-07,5.597406395884308e-07,2.539126978186491e-05
3.702693629361017e-07,7.115661382495534e-07,5.540383641055903e-07,2.528077252471958e-05
3.7247318033681396e-07,7.155161483000455e-07,5.488129215423131e-07,2.5164850337880284e-05
3.747710402589356e-07,7.196196252073995e-07,5.440752366427971e-07,2.5043520288277123e-05
3.7717266824903094e-07,7.238664396179971e-07,5.398287760720577e-07,2.491668738308676e-05
3.7968130528098935e-07,7.282416192654017e-07,5.360706380256853e-07,2.478413572656116e-05
3.822948249622182e-07,7.327268230070545e-07,5.327922375743459e-07,2.464556036825047e-05
3.850057388065414e-07,7.373004927933869e-07,5.299784986854748e-07,2.4500611105614818e-05
3.8780204084585706e-07,7.419406960693798e-07,5.276074128976978e-07,2.434890953290237e-05
3.9066958617206566e-07,7.46628363268948e-07,5.256510957735277e-07,2.4190044335893532e-05
3.935942487635643e-07,7.5134645627919e-07,5.240785648608357e-07,2.4023581429804527e-05
3.965618435591664e-07,7.560765379909128e-07,5.228597588610078e-07,2.3849108342644296e-05
3.995562006354349e-07,7.607983921858729e-07,5.219680843307201e-07,2.3666279014175588e-05
4.025581980164274e-07,7.654938923836681e-07,5.213796406056513e-07,2.3474807986010112e-05
4.055475317607247e-07,7.701506496828972e-07,5.210726320420182e-07,2.3274430110468838e-05
4.0850622783014456e-07,7.747636171094945e-07,5.210310378094446e-07,2.306489057660276e-05
4.114216340701128e-07,7.793340683165398e-07,5.21249282101414e-07,2.2845973436986704e-05
4.1428703192273076e-07,7.838644036626813e-07,5.217315257154397e-07,2.2617516907341807e-05
4.171000761666161e-07,7.883529872045598e-07,5.224851167605113e-07,2.237939328958869e-05
4.1986128664671935e-07,7.927940959388858e-07,5.235133313407385e-07,2.2131481205387883e-05
4.2257317445392287e-07,7.971820546674308e-07,5.248121496382799e-07,2.187366444074621e-05
4.2523885716033026e-07,8.015171086660509e-07,5.263711692854537e-07,2.160586759948335e-05
4.278611549017398e-07,8.058102931666919e-07,5.281750653572344e-07,2.1328108668794198e-05
4.304427431315561e-07,8.100846329024524e-07,5.302040703575481e-07,2.104054373885072e-05
4.3298499510426903e-07,8.143718222992778e-07,5.324348360635946e-07,2.0743488242943167e-05
4.354861294766312e-07,8.187040984952158e-07,5.34841345672496e-07,2.0437393985828792e-05
4.3794257385103034e-07,8.231048091905427e-07,5.373948695301363e-07,2.0122780171220983e-05
4.403520815740407e-07,8.275843007226431e-07,5.400638148805781e-07,1.9800177650639842e-05
4.4271361206945506e-07,8.321422415858564e-07,5.428155573913886e-07,1.9470156044771233e-05
4.450255495431781e-07,8.367715058052762e-07,5.456221497224646e-07,1.9133398686347755e-05
4.472867134521333e-07,8.414598218789906e-07,5.48466699837848e-07,1.87907250773068e-05
4.4949840993680155e-07,8.461900785510654e-07,5.513444957850663e-07,1.844305719889772e-05
4.516636303977143e-07,8.509414439608525e-07,5.542586150720225e-07,1.8091387784864732e-05
4.5378373819557296e-07,8.556901029849399e-07,5.572133277966856e-07,1.773674810494942e-05
4.55855589280236e-07,8.604086306063801e-07,5.602090131246978e-07,1.738017048801201e-05
4.5787110374322216e-07,8.650664434036152e-07,5.63241465026805e-07,1.702267326900154e-05
4.5981911598947066e-07,8.69631597232864e-07,5.66303501663139e-07,1.6665255808884916e-05
4.6168770816185036e-07,8.740711096457941e-07,5.693855618506674e-07,1.6308889780223026e-05
4.6346523432521113e-07,8.783515720426081e-07,5.724760107959753e-07,1.5954535309642445e-05
4.651400301068164e-07,8.824442560016407e-07,5.755624600134344e-07,1.5603183789694953e-05
4.667008449372346e-07,8.863317315208895e-07,5.78633368725784e-07,1.5255885540428414e-05
4.681388445869795e-07,8.900099475553306e-07,5.816801775840058e-07,1.49137291350679e-05
4.6944800695457154e-07,8.934845106064711e-07,5.847023178294858e-07,1.457778015214628e-05
4.7062228845002183e-07,8.96764132087294e-07,5.877145791529952e-07,1.4249008343840549e-05
4.716536684372974e-07,8.998583299552048e-07,5.907495462567246e-07,1.3928237929823983e-05
4.7253330394424896e-07,9.027833430293677e-07,5.938501883483732e-07,1.3616161609490215e-05
4.7325273028097775e-07,9.0556827214596e-07,5.970606817352531e-07,1.331340412185779e-05
4.7380343165401926e-07,9.082525669090521e-07,6.004244524508712e-07,1.302056293249799e-05
4.7417629896318466e-07,9.1087747685526e-07,6.039858064392093e-07,1.2738193055793845e-05
4.743615873694024e-07,9.134796944581663e-07,6.077883307218911e-07,1.2466759911682073e-05
4.743487109230035e-07,9.160919544178476e-07,6.118701227969613e-07,1.2206621372664185e-05
4.741260390875019e-07,9.187486078333505e-07,6.162597419630412e-07,1.1958117845890848e-05
4.7368110189387494e-07,9.2148994177064e-07,6.20974604644822e-07,1.1721716201928745e-05
4.730007431252838e-07,9.24360954071986e-07,6.26021187825457e-07,1.1498050880523289e-05
4.720711653192282e-07,9.274048840535969e-07,6.313967820756778e-07,1.1287855480900107e-05
4.708789509868741e-07,9.306555020546396e-07,6.370920136411773e-07,1.1091870629746436e-05
4.6941335948318854e-07,9.341322804567251e-07,6.430923042827064e-07,1.091074713983114e-05
4.676685106314225e-07,9.378390797873049e-07,6.493774854463106e-07,1.0744968861586197e-05
4.656438185303152e-07,9.417648117860819e-07,6.559215079757676e-07,1.0594830800182433e-05
4.6334235665170507e-07,9.458850939850719e-07,6.626955642603017e-07,1.04604456189575e-05
4.607692203903786e-07,9.501642318302092e-07,6.696743749926431e-07,1.0341736183699467e-05
4.579317945928117e-07,9.545569348750795e-07,6.768394633427372e-07,1.0238419032079144e-05
4.5484002161981756e-07,9.590104101208135e-07,6.84174560915184e-07,1.0150008942295288e-05
4.5150517388015565e-07,9.634678828828956e-07,6.916578656787954e-07,1.00758602086078e-05
4.479401836476721e-07,9.678737577774723e-07,6.992594783193344e-07,1.0015220373972127e-05
4.4416254824351256e-07,9.72179485352972e-07,7.069447168312734e-07,9.967257127465036e-06
4.401951937987073e-07,9.763478703325888e-07,7.146781777335703e-07,9.931066915666303e-06
4.360632811793574e-07,9.803534803630982e-07,7.224260120163023e-07,9.905703626374268e-06
4.3179084492007415e-07,9.841789610016537e-07,7.301571880798902e-07,9.890219676722197e-06
4.273996361714571e-07,9.878100289029808e-07,7.378440932474345e-07,9.883673443384613e-06
4.2290895641017797e-07,9.91231277635302e-07,7.45461999331903e-07,9.885099510342062e-06
4.183359581370795e-07,9.944228828799746e-07,7.529872968329988e-07,9.893481721085668e-06
4.136967202477921e-07,9.973597725481865e-07,7.603948450331797e-07,9.907746895773567e-06
4.090077852746224e-07,1.0000143878179206e-06,7.676555420494378e-07,9.926774659578198e-06
4.0428691170272383e-07,1.002360487428658e-06,7.747359340174287e-07,9.949419395308376e-06
3.995517816418093e-07,1.0043750654937445e-06,7.815998761017066e-07,9.974537418866207e-06
3.9481792358488786e-07,1.0060390187063762e-06,7.882105399206194e-07,1.0001015006555189e-05
3.900980038740168e-07,1.007338895319063e-06,7.945317779145598e-07,1.0027800326570287e-05
3.8540215198426866e-07,1.0082687628351232e-06,8.005277090263363e-07,1.0053943102426436e-05
3.807384588229594e-07,1.0088289189613772e-06,8.061608774401505e-07,1.0078625165242623e-05
3.761141197379485e-07,1.0090211800520071e-06,8.11391662949342e-07,1.0101145720586709e-05
3.715368964957867e-07,1.0088447772976521e-06,8.161794134648407e-07,1.012087045359738e-05
3.6701517980492026e-07,1.0082966694155106e-06,8.204842868306325e-07,1.0137201446324451e-05
3.625563617142096e-07,1.0073743988598646e-06,8.242699843948259e-07,1.0149585496910638e-05
3.581656404585983e-07,1.0060768189510371e-06,8.275063341284763e-07,1.0157544450614266e-05
3.5384646663070994e-07,1.0044033783367564e-06,8.30169355812668e-07,1.0160712657352533e-05
3.4960121348574906e-07,1.0023554761389604e-06,8.322390068615557e-07,1.01588478633005e-05
3.454313978646131e-07,9.999378498771629e-07,8.336973968135184e-07,1.0151808617353116e-05
3.413393791068223e-07,9.971566901318978e-07,8.345285708590174e-07,1.0139525443875693e-05
3.3733211338708374e-07,9.940184278630988e-07,8.347187976344685e-07,1.012197351814791e-05
3.334237024948309e-07,9.90535719206523e-07,8.342567038040352e-07,1.0099170354144924e-05
3.2963383636501605e-07,9.867382589105169e-07,8.331331166627103e-07,1.007122285906734e-05
3.259835570934743e-07,9.826783491393575e-07,8.313407232209073e-07,1.0038368704677244e-05
3.224914369980084e-07,9.78428104666646e-07,8.288740975999986e-07,1.0000939304158787e-05
3.19171862704113e-07,9.74073612748616e-07,8.257303470880605e-07,9.95927526087352e-06
3.160357839518072e-07,9.697065485919007e-07,8.219102866421475e-07,9.913694002792313e-06
3.130917815813159e-07,9.654124911533483e-07,8.174191580107128e-07,9.864553784042348e-06
3.103457579926288e-07,9.612641778255985e-07,8.122659161508845e-07,9.812391270822052e-06
3.078017793918309e-07,9.573245118607905e-07,8.064634851648503e-07,9.758073237807824e-06
3.0546483700600425e-07,9.536515612813459e-07,8.00031967790569e-07,9.702852357459571e-06
3.033414986531509e-07,9.502983561247152e-07,7.930007781899307e-07,9.648250572868911e-06
3.0143723209540857e-07,9.473078957522457e-07,7.854057393964993e-07,9.595824034143305e-06
2.997544205116391e-07,9.44707362041166e-07,7.7728407123245e-07,9.54694409099202e-06
2.9829353978252957e-07,9.425059261936443e-07,7.686730523894719e-07,9.502696080304455e-06
2.970554678862691e-07,9.406974854998122e-07,7.596144011182762e-07,9.463895823752164e-06
2.960422247864104e-07,9.392667359166099e-07,7.501603282967438e-07,9.431161884814122e-06
2.9525585243265045e-07,9.381962679519192e-07,7.403754451784559e-07,9.404992154551443e-06
2.946973598028526e-07,9.374723041807072e-07,7.303341514793204e-07,9.38583709513554e-06
2.9436763477691577e-07,9.37087434780328e-07,7.20116264208632e-07,9.37419250681402e-06
2.942689336215293e-07,9.370404573888408e-07,7.098013583987382e-07,9.370658973373973e-06
2.9440351574120177e-07,9.373352278751991e-07,6.994631777694568e-07,9.375868035648153e-06
2.9477022208444235e-07,9.379782381367956e-07,6.891679195749885e-07,9.390316344086383e-06
2.953630004654717e-07,9.3897236226407e-07,6.789774504402394e-07,9.414264389982257e-06
2.961720181917585e-07,9.403099679938179e-07,6.689525061764307e-07,9.447826445828796e-06
2.9718514825296576e-07,9.419724833502144e-07,6.591514588574076e-07,9.491272410735484e-06
2.983884997618655e-07,9.439356407603159e-07,6.496288054511714e-07,9.545359785691202e-06
2.9976655622442423e-07,9.461723578600588e-07,6.404365486676142e-07,9.611426329685466e-06
3.0130271713519576e-07,9.486503840215849e-07,6.316229492571076e-07,9.691197287999576e-06
3.029793075098347e-07,9.513304635608751e-07,6.23228275083625e-07,9.786489722108978e-06
3.047773087635338e-07,9.541695442640328e-07,6.152860952158009e-07,9.89897258276418e-06
3.0667849539565987e-07,9.571271511023864e-07,6.078337676591272e-07,1.0030002519776528e-05
3.086686085710485e-07,9.601711837140823e-07,6.009251749640035e-07,1.0180497812278611e-05
3.107369347244148e-07,9.632804977210635e-07,5.946344837431668e-07,1.0350871301125442e-05
3.128731071504696e-07,9.66443548902572e-07,5.890477979406617e-07,1.0541056050756084e-05
3.1506509478896515e-07,9.696537792332226e-07,5.842518643473957e-07,1.0750580132339329e-05
3.1729902717937133e-07,9.72902732480351e-07,5.803271998822845e-07,1.0978642540316923e-05
3.1955944154882305e-07,9.761738376343806e-07,5.773429687201376e-07,1.1224193036365726e-05
3.2182894835269336e-07,9.794402146013388e-07,5.753523516723701e-07,1.1486008128541126e-05
3.240880825855449e-07,9.8266646723825e-07,5.743924247662277e-07,1.1762738852720715e-05
3.263168240292871e-07,9.858120479718978e-07,5.744874717217554e-07,1.2052952425761431e-05
3.28496617771455e-07,9.888351064124873e-07,5.756496721518764e-07,1.2355218071211121e-05
3.306106327682784e-07,9.916973818007302e-07,5.778758454192455e-07,1.2668221608617995e-05
3.326428963079311e-07,9.943685457420456e-07,5.811458153036603e-07,1.2990835947421285e-05
3.34577677654348e-07,9.968263543889194e-07,5.854265748934639e-07,1.3322115132999076e-05
3.363987443142269e-07,9.990521197490731e-07,5.906782352276366e-07,1.3661245246701833e-05
3.380889482862166e-07,1.0010254116254379e-06,5.968570344272166e-07,1.4007490240163141e-05
3.396311074952388e-07,1.0027216635426433e-06,6.039176665379116e-07,1.4360122708311206e-05
3.410090262482871e-07,1.0041122402482996e-06,6.118173744364707e-07,1.4718324452005451e-05
3.422077904663613e-07,1.00516505879561e-06,6.205188981558598e-07,1.5081089124703296e-05
3.432149626554935e-07,1.005847525110448e-06,6.299878804563377e-07,1.544717416467097e-05
3.4402296487155125e-07,1.0061340711889697e-06,6.401854310251631e-07,1.581514790048548e-05
3.446300860468336e-07,1.0060144137664685e-06,6.510627418032798e-07,1.6183557625641867e-05
3.450389340033931e-07,1.0054969624505215e-06,6.625613746488961e-07,1.65511723444391e-05
3.4525416029910777e-07,1.0046071910839194e-06,6.746152805247426e-07,1.6917201960069122e-05
3.452815204666236e-07,1.0033833607982506e-06,6.871516294815707e-07,1.7281384580248787e-05
3.4512787097543787e-07,1.001871157050609e-06,7.000918833123188e-07,1.7643890625230622e-05
3.448012624478768e-07,1.000118216090873e-06,7.133528947636306e-07,1.800511598540129e-05
3.443115766026045e-07,9.981691089113077e-07,7.268473355956544e-07,1.8365458608645608e-05
3.436701076110264e-07,9.960617164096028e-07,7.404868589662107e-07,1.872514472353158e-05
3.4288697548837554e-07,9.938259759815649e-07,7.541895809833017e-07,1.9084179357423498e-05
3.4196916087472146e-07,9.9148555120708e-07,7.678869192893198e-07,1.9442394457929344e-05
3.409206994501606e-07,9.890619383461552e-07,7.815241445225856e-07,1.9799491696073002e-05
3.397441537092062e-07,9.865775851107844e-07,7.950550014966067e-07,2.015505637349185e-05
3.384428034988248e-07,9.840544468191386e-07,8.084352614865694e-07,2.0508560053708136e-05
3.370220652893348e-07,9.81509470936407e-07,8.216182432922223e-07,2.085935803509151e-05
3.3548909525121064e-07,9.789513915017334e-07,8.345530971187459e-07,2.1206696939303967e-05
3.338522453622653e-07,9.76380498967466e-07,8.471862776276316e-07,2.1549719990137185e-05
3.321209721614436e-07,9.737913460550837e-07,8.594639400730381e-07,2.188743675820698e-05
3.303046855956847e-07,9.711788909679787e-07,8.713325320385824e-07,2.221869431183368e-05
3.28411205395626e-07,9.685458555537528e-07,8.827391172665825e-07,2.2542280756575048e-05
3.2644663002094714e-07,9.659065558448998e-07,8.936327924889418e-07,2.2857208461560542e-05
3.244160026464773e-07,9.632859625492914e-07,9.039652453489772e-07,2.3162956481133882e-05
3.2232425968415426e-07,9.607165764865782e-07,9.136910228700687e-07,2.3459434149293346e-05
3.201787771803059e-07,9.582342160506392e-07,9.227695398988552e-07,2.374674960097572e-05
3.1799198300200106e-07,9.558722595268978e-07,9.311660792777279e-07,2.4025010284780922e-05
3.157803544205076e-07,9.536557519197092e-07,9.388489858890181e-07,2.429428554901646e-05
3.135605930621732e-07,9.515987985270399e-07,9.457859087763376e-07,2.455473176281846e-05
3.113467356541329e-07,9.497078310583536e-07,9.519424290080072e-07,2.4806709850757692e-05
3.091495762651853e-07,9.479889057545742e-07,9.572825560850895e-07,2.505075949907063e-05
3.069772693286844e-07,9.464537434122976e-07,9.61769799564439e-07,2.528750719058732e-05
3.048356642622797e-07,9.451213859393759e-07,9.653690240390029e-07,2.5517595314313856e-05
3.027280678131532e-07,9.440153315278624e-07,9.680493094798928e-07,2.5741623057437478e-05
3.006551136001193e-07,9.431566871536968e-07,9.697874306038214e-07,2.5960086039612398e-05
2.9861513199432465e-07,9.425568644180149e-07,9.705703744424762e-07,2.6173311326367692e-05
2.966045104115853e-07,9.422143881715168e-07,9.703944782423858e-07,2.6381379989372565e-05
2.946177009993853e-07,9.421154601538055e-07,9.69262598719357e-07,2.6584055563319948e-05
2.926483292359502e-07,9.422352206484205e-07,9.67183344520528e-07,2.6780762299116816e-05
2.906932746301605e-07,9.42538841387472e-07,9.641716089216779e-07,2.697062226542172e-05
2.887569385160716e-07,9.429840444087984e-07,9.602478418256241e-07,2.715251003976761e-05
2.868505424520712e-07,9.435257331879e-07,9.554382277247039e-07,2.732509667838731e-05
2.849880836365139e-07,9.441203377030472e-07,9.497762710739832e-07,2.748689895353269e-05
2.831841076008293e-07,9.447281107419802e-07,9.433008572383807e-07,2.763636488994495e-05
2.8145388832826173e-07,9.453139322046557e-07,9.360505987997528e-07,2.777200588111233e-05
2.798136371187498e-07,9.45846919034502e-07,9.280612046740599e-07,2.7892524290192976e-05
2.782790151090991e-07,9.462989867187092e-07,9.193691802414888e-07,2.799685572567429e-05
2.76862902571044e-07,9.466424927426646e-07,9.100177080796963e-07,2.8084120396465205e-05
2.755742247196556e-07,9.468475418304816e-07,9.000591715774656e-07,2.815353768184416e-05
2.7441815586768543e-07,9.46880850772344e-07,8.895544756283746e-07,2.8204342947610448e-05
2.7339811265186055e-07,9.46706712149514e-07,8.78572982684993e-07,2.823573782383781e-05
2.725184794766769e-07,9.462883698288405e-07,8.671925093840309e-07,2.824688755827089e-05
2.7178539703171085e-07,9.455886478126093e-07,8.554958049677164e-07,2.82369453592432e-05
2.7120571078911305e-07,9.445703884238322e-07,8.4356479177878e-07,2.8205080967339867e-05
2.7078609103867194e-07,9.431983241117912e-07,8.314772390455862e-07,2.8150519663287587e-05
2.7053305900453137e-07,9.414432034978249e-07,8.193067189917129e-07,2.807262667075293e-05
2.7045396825552865e-07,9.392857911261067e-07,8.071223760222639e-07,2.7971017232847985e-05
2.705579280754351e-07,9.367177498363036e-07,7.949876695253892e-07,2.7845589339459624e-05
2.708549103425964e-07,9.33739906942522e-07,7.82963129744963e-07,2.769645178071673e-05
2.713536414807e-07,9.303596309136698e-07,7.711145469708791e-07,2.752384923577429e-05
2.720599466062001e-07,9.265879776957908e-07,7.595189404463718e-07,2.732814850341337e-05
2.7297605684064477e-07,9.224370482961504e-07,7.482613530374043e-07,2.710987208635804e-05
2.7410119535192143e-07,9.179179224844842e-07,7.37425349659141e-07,2.686975776065064e-05
2.7543277291445716e-07,9.1303997598724e-07,7.270881410692488e-07,2.660877920379845e-05
2.769673037826205e-07,9.078117712841442e-07,7.173255712598845e-07,2.6328064920138705e-05
2.787018011645964e-07,9.022425427461557e-07,7.082204256251113e-07,2.602876676527088e-05
2.806360866242405e-07,8.96343995221242e-07,6.998685944147338e-07,2.5711983592553368e-05
2.827748633151335e-07,8.901309096412136e-07,6.923812425619061e-07,2.537880637329384e-05
2.851280424321382e-07,8.836186633362499e-07,6.858787312504945e-07,2.50304902315182e-05
2.877082687721556e-07,8.768201882097795e-07,6.804765456951035e-07,2.466865238258001e-05
2.905266280636945e-07,8.697457103415823e-07,6.762714237518985e-07,2.429534504236835e-05
2.935903203363569e-07,8.624049721364184e-07,6.733349521282161e-07,2.3912967895478562e-05
2.969037362745209e-07,8.548093576494909e-07,6.717132809497751e-07,2.3524093238770705e-05
3.004689409007169e-07,8.469709902210448e-07,6.714278330398707e-07,2.3131275523344173e-05
3.042839826493945e-07,8.388997871910616e-07,6.724780805629322e-07,2.273689692639204e-05
3.0834234349944053e-07,8.306034460437524e-07,6.748487459009868e-07,2.2343078804315947e-05
3.1263364012754695e-07,8.220915167498834e-07,6.785166904035345e-07,2.195168292728815e-05
3.171435682285257e-07,8.133785207101844e-07,6.834524536237255e-07,2.1564454654002105e-05
3.218546452066716e-07,8.04482695012878e-07,6.896177755372969e-07,2.1183303220946663e-05
3.26749709593613e-07,7.954228552669047e-07,6.96963456840276e-07,2.0810516067983705e-05
3.318163629985223e-07,7.862161286245401e-07,7.054304664013899e-07,2.044868201166832e-05
3.370489023067136e-07,7.768769560078593e-07,7.149534173914562e-07,2.0100401270521104e-05
3.4244717025976574e-07,7.674178899537909e-07,7.254636700262513e-07,1.9768010756231552e-05
3.4801350780338377e-07,7.57851798498837e-07,7.368916154626939e-07,1.945344026670826e-05
3.5374828847707366e-07,7.481942903305548e-07,7.491694618600656e-07,1.915831088782984e-05
3.596458364130757e-07,7.384667815791099e-07,7.622333027084043e-07,1.888430029889697e-05
3.6569282697526666e-07,7.28699278925639e-07,7.76021150241638e-07,1.8633493857835536e-05
3.7186874894536364e-07,7.189298567201608e-07,7.904689215168812e-07,1.8408452971394105e-05
3.7814702705418454e-07,7.092032353022311e-07,8.055103733227482e-07,1.8212077843168395e-05
3.8449627113784853e-07,6.995738421899183e-07,8.210817721037073e-07,1.8047430123441108e-05
3.908821040724435e-07,6.901093566401576e-07,8.371281853847559e-07,1.7917538235577365e-05
3.972701055735075e-07,6.808861250630236e-07,8.536067166590384e-07,1.7825177713625462e-05
4.0362841435554254e-07,6.719795582867548e-07,8.70481129237569e-07,1.7772664813362823e-05
4.099282951702232e-07,6.634602086036654e-07,8.877113359528038e-07,1.7761712557484315e-05
4.1614493294070745e-07,6.553956295606598e-07,9.05247623463714e-07,1.7793364170458035e-05
4.2226084352087567e-07,6.478495611658666e-07,9.230314837708755e-07,1.7867969485256923e-05
4.282685400483493e-07,6.408768753019006e-07,9.409988556285728e-07,1.7985170733032666e-05
4.3416850695568897e-07,6.34520421587024e-07,9.590822106772421e-07,1.8143927848937828e-05
4.3996433514435816e-07,6.288139671694325e-07,9.772094350341271e-07,1.834263876447128e-05
4.456586614069935e-07,6.237877469951504e-07,9.95301619142226e-07,1.857933455709878e-05
4.512510441746785e-07,6.194712241473254e-07,1.013273491742468e-06,1.8851862652424035e-05
4.567374599765506e-07,6.15894724840948e-07,1.0310365779295854e-06,1.9158005228721453e-05
4.62110010953312e-07,6.130927831271954e-07,1.0485033237909866e-06,1.9495545559332267e-05
4.673561033477351e-07,6.111056938825761e-07,1.0655916094912914e-06,1.9862304593502053e-05
4.724582890504859e-07,6.099760597745635e-07,1.0822288289664535e-06,2.0256157386537624e-05
4.773952415102847e-07,6.09744061115299e-07,1.0983536090272966e-06,2.067504875469898e-05
4.821435739418785e-07,6.104462982301141e-07,1.1139156819775057e-06,2.1117008961334887e-05
4.866803404551835e-07,6.121145483139599e-07,1.1288768129541986e-06,2.1580124683805164e-05
4.909850805656883e-07,6.147696946360388e-07,1.1432112425980112e-06,2.206243323765576e-05
4.950397467576648e-07,6.18416951206226e-07,1.156901272657303e-06,2.256177965760684e-05
4.988271296385788e-07,6.230482306244698e-07,1.1699300150919742e-06,2.307573902469576e-05
5.023312697357186e-07,6.286471486889731e-07,1.1822783572643332e-06,2.3601699710809892e-05
5.055405212565468e-07,6.351910641973508e-07,1.1939280081807914e-06,2.413706737163764e-05
5.084490139755952e-07,6.426489960531294e-07,1.2048648977127746e-06,2.4679413216715814e-05
5.110540911887312e-07,6.509779481557715e-07,1.2150784563019723e-06,2.522646831717998e-05
5.133525273678492e-07,6.601215320253715e-07,1.224558542743184e-06,2.5776035250564724e-05
5.153391663026659e-07,6.700115046701425e-07,1.2332934360429742e-06,2.632591994981493e-05
5.170081595052116e-07,6.805708910463311e-07,1.2412701292681169e-06,2.687391207798571e-05
5.18354164567749e-07,6.91717253002465e-07,1.248476242161821e-06,2.741776672197043e-05
5.193718256277864e-07,7.033644643138791e-07,1.2549017992726e-06,2.7955143657638458e-05
5.200548253988448e-07,7.154232280380921e-07,1.2605387529672858e-06,2.848354455851629e-05
5.203965517987971e-07,7.278019544583788e-07,1.2653776128149747e-06,2.900031328366915e-05
5.203932491612524e-07,7.40408556443842e-07,1.2694041617699538e-06,2.9502704525632508e-05
5.200487784507022e-07,7.531516817183505e-07,1.27260055424684e-06,2.998800328102167e-05
5.19377220072482e-07,7.659405163755215e-07,1.2749503059618634e-06,3.0453695110634283e-05
5.184003472031646e-07,7.786858384709537e-07,1.2764416319289826e-06,3.089764101765338e-05
5.171430419693016e-07,7.913047436270714e-07,1.2770661914013408e-06,3.131814178609356e-05
5.156310327921671e-07,8.037253741087724e-07,1.2768168915760546e-06,3.171383401902037e-05
5.138900566908407e-07,8.158854945668304e-07,1.2756883847189399e-06,3.208349835920516e-05
5.119448086832129e-07,8.27725745714284e-07,1.2736781766874678e-06,3.2425919519914945e-05
5.098186084427074e-07,8.391855469118498e-07,1.2707861147472247e-06,3.2739857250873606e-05
5.075332886725514e-07,8.502075142826576e-07,1.267014073535798e-06,3.302406376099737e-05
5.051088314231625e-07,8.60746969337571e-07,1.262367077220651e-06,3.327729094567335e-05
5.02563636508525e-07,8.70777540546479e-07,1.2568543635077958e-06,3.349834082525334e-05
4.99914367745586e-07,8.802890568205496e-07,1.250488819452741e-06,3.3686244186518576e-05
4.971746943489651e-07,8.892807566038466e-07,1.243286160254172e-06,3.384049318559239e-05
4.94354273528951e-07,8.977535590540043e-07,1.235267514267872e-06,3.3961095033301834e-05
4.914584140611239e-07,9.057040407143413e-07,1.226464894094056e-06,3.404837994812865e-05
4.88488750978425e-07,9.131215521692776e-07,1.2169239114100291e-06,3.4102749473763676e-05
4.854459594198314e-07,9.199881604579351e-07,1.2067010220745062e-06,3.412455216108367e-05
4.823333596080918e-07,9.262806230046128e-07,1.1958573164894226e-06,3.411419338343188e-05
4.791581961045002e-07,9.31974553335533e-07,1.184451250694295e-06,3.4072469469312216e-05
4.759297318333604e-07,9.370512484116512e-07,1.1725333413848741e-06,3.400088623799757e-05
4.7265629601034096e-07,9.41504324018469e-07,1.1601457276760882e-06,3.3901700345285745e-05
4.693437715315542e-07,9.453414504995121e-07,1.147325444753013e-06,3.377771564117265e-05
4.6599698059166535e-07,9.485818278977221e-07,1.1341071606392776e-06,3.363202804622002e-05
4.626219460399105e-07,9.512531129024432e-07,1.1205235915984604e-06,3.3467816040000015e-05
4.592259597697711e-07,9.533883601584364e-07,1.1066072648372965e-06,3.328818958246563e-05
4.5581650072398603e-07,9.550225311556921e-07,1.0923968007540064e-06,3.309608242117318e-05
4.524012285889304e-07,9.561890232702185e-07,1.077943367270787e-06,3.289416499126894e-05
4.489888078118163e-07,9.569166615688403e-07,1.0633099500034323e-06,3.268477989534908e-05
4.4558894215768994e-07,9.5722875035225e-07,1.0485636242411837e-06,3.246989875232227e-05
4.4221080556771096e-07,9.571468529352078e-07,1.0337710794845655e-06,3.225109004346202e-05
4.388612930040107e-07,9.566980666983455e-07,1.0190039735031842e-06,3.202953492502873e-05
4.355443533929386e-07,9.559181863489263e-07,1.0043463992749328e-06,3.180613198178697e-05
4.322608217112763e-07,9.548460221411043e-07,9.898957008148608e-07,3.1581645678708757e-05
4.290087907660555e-07,9.535146272864441e-07,9.75757499734745e-07,3.135682649788074e-05
4.2578514186658957e-07,9.519471710024795e-07,9.620370873387615e-07,3.113249910411138e-05
4.22587029788604e-07,9.50157510044154e-07,9.488288455990508e-07,3.090963736775547e-05
4.1941152336940657e-07,9.481521848823466e-07,9.362106649510777e-07,3.0689408309714826e-05
4.162547248764021e-07,9.459330017049549e-07,9.242477157196569e-07,3.047317360428001e-05
4.1311351573969547e-07,9.434991844770792e-07,9.129988748656703e-07,3.0262460797429964e-05
4.099887053519504e-07,9.408491877331577e-07,9.025177962534656e-07,3.0058898807145928e-05
4.068849417478004e-07,9.379841584320505e-07,8.928487903806787e-07,2.9864110423052643e-05
4.0380714504713895e-07,9.349103702022221e-07,8.840224890996346e-07,2.967958964887337e-05
4.0075741468709257e-07,9.316367626436369e-07,8.760564712717287e-07,2.9506593051004804e-05
3.977343867684552e-07,9.281716862017349e-07,8.689614056466421e-07,2.9346046459179413e-05
3.947342381547624e-07,9.245258640254776e-07,8.627467884488691e-07,2.919850338085091e-05
3.9175201011926826e-07,9.207199553138235e-07,8.574211937309428e-07,2.906421872942848e-05
3.887825542251188e-07,9.167885221714444e-07,8.529870095951813e-07,2.8943289223064546e-05
3.858206732015289e-07,9.127765298377541e-07,8.494340693176405e-07,2.883573716406719e-05
3.8286028745453843e-07,9.087317657071873e-07,8.46737894281074e-07,2.8741522953386725e-05
3.7989426698303903e-07,9.046998342510286e-07,8.448620370308057e-07,2.866056326860509e-05
3.7691659109385314e-07,9.007233962085163e-07,8.43760938003848e-07,2.8592785613452703e-05
3.73924880071339e-07,8.968404895193938e-07,8.43384180066157e-07,2.8538147964148878e-05
3.7092064011214227e-07,8.930811513527846e-07,8.43682130317348e-07,2.8496537094304713e-05
3.679080215252451e-07,8.89466432662113e-07,8.446087831309154e-07,2.846759666739388e-05
3.6489245762601643e-07,8.86009350911262e-07,8.461204997727698e-07,2.8450621331029e-05
3.6187923579479117e-07,8.827155427139966e-07,8.481734152925971e-07,2.8444560853175758e-05
3.588726523104432e-07,8.795849948017977e-07,8.507204550866788e-07,2.8448104016710494e-05
3.5587600623869526e-07,8.766156769901153e-07,8.537080413501644e-07,2.8459837096475317e-05
3.5289135258732445e-07,8.738059766106632e-07,8.570743151474105e-07,2.847843885725604e-05
3.4991897233272876e-07,8.711536822411169e-07,8.607495407988376e-07,2.8502787929518373e-05
3.4695785583778873e-07,8.686543998889536e-07,8.646579004357273e-07,2.853190525479873e-05
3.440072184435664e-07,8.663029062068536e-07,8.687203175744269e-07,2.8564798806683942e-05
3.410681751115164e-07,8.640954107002674e-07,8.728576424282244e-07,2.8600338334269977e-05
3.381453182559082e-07,8.620293540413843e-07,8.769930055362923e-07,2.8637226493342145e-05
3.352474194505787e-07,8.601030448519136e-07,8.810546238198801e-07,2.8674034292017878e-05
3.323860560775121e-07,8.583179208091435e-07,8.849801201217951e-07,2.870923693672204e-05
3.2957267320603945e-07,8.566791770644794e-07,8.887182814673486e-07,2.874125599880536e-05
3.2681689587539804e-07,8.551908323141629e-07,8.922261275485616e-07,2.876860672401108e-05
3.2412779737758106e-07,8.538503348744544e-07,8.954648513639585e-07,2.879013697008357e-05
3.21515609741565e-07,8.526479915023821e-07,8.983974400447086e-07,2.8805118133315565e-05
3.189912348812364e-07,8.515683568224076e-07,9.009884110261887e-07,2.8813081897078322e-05
3.1656471791480324e-07,8.505904183378725e-07,9.032053985659727e-07,2.8813602272247828e-05
3.142448493721182e-07,8.496875520979364e-07,9.050219591985144e-07,2.880619016685864e-05
3.1204080748587106e-07,8.488277378624307e-07,9.06420251078241e-07,2.8790345344851122e-05
3.099648348672086e-07,8.479742075767241e-07,9.073921194775695e-07,2.876580844324256e-05
3.080326756867552e-07,8.470873731350723e-07,9.079384081647821e-07,2.873287223781286e-05
3.062608749170896e-07,8.461271989151157e-07,9.080663190262049e-07,2.8692455966077533e-05
3.0466454090560457e-07,8.450541721147828e-07,9.077842724164465e-07,2.864590389165641e-05
3.032572372104281e-07,8.438291153624838e-07,9.0709648768384e-07,2.8594729483407106e-05
3.020520959993104e-07,8.424146165535177e-07,9.060008884159656e-07,2.8540432102963603e-05
3.0106450122357714e-07,8.40779722731742e-07,9.044904858380909e-07,2.848435831632519e-05
3.0031406978020227e-07,8.389052701709394e-07,9.025562482037642e-07,2.8427580552097333e-05
2.9982239678504443e-07,8.367852009947479e-07,9.001898056874468e-07,2.837081915153989e-05
2.9960876028144324e-07,8.344226906572618e-07,8.973844314194626e-07,2.8314426222814848e-05
2.996878366956933e-07,8.318241021687744e-07,8.941346308932987e-07,2.8258406356727062e-05
3.000693090845543e-07,8.289944657186819e-07,8.904360654196367e-07,2.820244789926983e-05
3.007578243357776e-07,8.259370446492159e-07,8.862855618956783e-07,2.8145970360959142e-05
3.017533078681219e-07,8.226551549321458e-07,8.816807948868593e-07,2.8088195096729438e-05
3.0305153599910497e-07,8.191515288630668e-07,8.766206693950086e-07,2.8028220818456544e-05
3.046448011282575e-07,8.154261460881782e-07,8.711053678494583e-07,2.7965096430799653e-05
3.065229184141427e-07,8.114770872489029e-07,8.651348620634011e-07,2.789790954230668e-05
3.086738049754366e-07,8.07303387145753e-07,8.587082881938874e-07,2.7825882524448437e-05
3.110841018577008e-07,8.029053981742268e-07,8.518263740139352e-07,2.7748430234772117e-05
3.137403970743635e-07,7.982827991389744e-07,8.444957821009345e-07,2.766516600946053e-05
3.166289923404491e-07,7.934336487429431e-07,8.367325779382725e-07,2.7575897454699683e-05
3.197349423319187e-07,7.883554118644374e-07,8.285630374128304e-07,2.748062487998403e-05
3.2304348315613215e-07,7.830469189865085e-07,8.200222332441211e-07,2.7379500560990705e-05
3.265429038995038e-07,7.775093180615111e-07,8.111518171569143e-07,2.727273635686134e-05
3.302258241144177e-07,7.717450813038687e-07,8.01998471356118e-07,2.716049621964739e-05
3.3408812981996806e-07,7.65758522401905e-07,7.926134212294802e-07,2.704281959269636e-05
3.381268995011779e-07,7.595594601103769e-07,7.830511695691037e-07,2.691964016469151e-05
3.423390217982347e-07,7.531649496995758e-07,7.733664363588084e-07,2.6790919190802452e-05
3.4672102096120856e-07,7.465958300846405e-07,7.636121359513112e-07,2.6656775565141087e-05
3.512696686414462e-07,7.398715946680451e-07,7.538412042943254e-07,2.6517492718579506e-05
3.5598269370123657e-07,7.330077551135761e-07,7.441091060489519e-07,2.637344376536992e-05
3.6085813680781853e-07,7.260157132390841e-07,7.344712794546699e-07,2.622503403015586e-05
3.65892030373414e-07,7.189029776908357e-07,7.249766943542673e-07,2.607267281622235e-05
3.710759651874273e-07,7.116731164748989e-07,7.156638428060785e-07,2.591674333231557e-05
3.763957209253872e-07,7.043265868504589e-07,7.065608293742979e-07,2.5757605091450315e-05
3.818317221826411e-07,6.96863127888216e-07,6.976873643608353e-07,2.559567747419661e-05
3.873612900311602e-07,6.892841961528489e-07,6.890585905757003e-07,2.543153265327897e-05
3.929605951275589e-07,6.815929178121775e-07,6.806894872795505e-07,2.526590307181641e-05
3.986051451316165e-07,6.737922186298401e-07,6.725953545208462e-07,2.509962596825127e-05
4.0427016787177184e-07,6.658846031120869e-07,6.647882062317378e-07,2.493356157027397e-05
4.099306173626172e-07,6.578741584560044e-07,6.572746644060333e-07,2.4768485495523277e-05
4.155602229785834e-07,6.497683834892785e-07,6.500587331653807e-07,2.460499281570357e-05
4.2113209759277393e-07,6.41579259972045e-07,6.431461458141879e-07,2.4443450631808906e-05
4.266210971417141e-07,6.333235430305372e-07,6.365448690675568e-07,2.4283997833756304e-05
4.3200468733885353e-07,6.250207716080735e-07,6.30263038444453e-07,2.4126597698304972e-05
4.372618322144928e-07,6.166902430954221e-07,6.243099212964936e-07,2.3971128334689085e-05
4.4237187401943436e-07,6.083500649998584e-07,6.186996932400489e-07,2.381744559770064e-05
4.4731426447030976e-07,6.000190037729686e-07,6.134530692302096e-07,2.366538340199093e-05
4.5206907194786996e-07,5.917209702535589e-07,6.085937990632232e-07,2.3514729294122118e-05
4.566183447505861e-07,5.834892511134083e-07,6.041421095357718e-07,2.336525754082572e-05
4.60947921589818e-07,5.753659696617778e-07,6.001105185813179e-07,2.321683955664899e-05
4.650481975709347e-07,5.673988199492747e-07,5.965040491244288e-07,2.306952145118148e-05
4.6891307823277427e-07,5.596389615755182e-07,5.933221370760358e-07,2.292352398948885e-05
4.7253794596523934e-07,5.521379280349148e-07,5.905595303662533e-07,2.2779224095510933e-05
4.759188644248767e-07,5.449430272621035e-07,5.882060199204825e-07,2.2637100465870425e-05
4.790547574500551e-07,5.380962535831082e-07,5.862464529528403e-07,2.249762792184436e-05
4.81949946824547e-07,5.316379947026291e-07,5.84661366367831e-07,2.236117560392284e-05
4.846133514575721e-07,5.256109232203479e-07,5.834288635670501e-07,2.2227938975980654e-05
4.87055144236305e-07,5.200600674351468e-07,5.825299536195816e-07,2.209790418712319e-05
4.892838804531675e-07,5.150286114156835e-07,5.819548067106972e-07,2.1970845802202386e-05
4.913052866200762e-07,5.105530869214635e-07,5.817025798478422e-07,2.1846350644868132e-05
4.931217539757169e-07,5.066625749666943e-07,5.81774422768187e-07,2.172384405522331e-05
4.947319103574732e-07,5.033811260198345e-07,5.821680856437572e-07,2.16026142883603e-05
4.961309761867427e-07,5.00728424384487e-07,5.828797701539977e-07,2.1481851008309906e-05
4.973117856732645e-07,4.987186916865815e-07,5.83911024503788e-07,2.1360686901696868e-05
4.982657077639935e-07,4.973639066731728e-07,5.85273426727266e-07,2.1238221294943794e-05
4.989834190302821e-07,4.966816637771621e-07,5.86984494285183e-07,2.1113537728222212e-05
4.994555885020935e-07,4.966990780050847e-07,5.89057676056479e-07,2.098572698458453e-05
4.996736906019479e-07,4.974475572202594e-07,5.914959370515055e-07,2.085390040361824e-05
4.996307209299946e-07,4.989525537346013e-07,5.942922596704714e-07,2.0717194844919995e-05
4.993207872533392e-07,5.012255516744761e-07,5.974328462028263e-07,2.0574785610361375e-05
4.987377912080171e-07,5.042617082987205e-07,6.008991543642612e-07,2.042589887193874e-05
4.978746030863483e-07,5.080421746110182e-07,6.046678920859995e-07,2.0269810567928785e-05
4.96723229786927e-07,5.12539730716789e-07,6.087104117333795e-07,2.010584550318908e-05
4.952756488059215e-07,5.177248592278864e-07,6.129935387467168e-07,1.993339385503571e-05
4.935251266547052e-07,5.235672694806879e-07,6.174814050591429e-07,1.9751937717945608e-05
4.914676059983065e-07,5.300324258847088e-07,6.22137611816636e-07,1.9561072425130496e-05
4.89102159245765e-07,5.370780686862539e-07,6.269283313413739e-07,1.936052348743443e-05
4.864303371604637e-07,5.446535050386813e-07,6.318238172435435e-07,1.9150158905046068e-05
4.834553358236771e-07,5.527008067390139e-07,6.367957959278603e-07,1.892997509279972e-05
4.801814496213403e-07,5.611579140624362e-07,6.418157747188368e-07,1.870005011049813e-05
4.766136416728467e-07,5.699630288546641e-07,6.468607742315911e-07,1.846050501107599e-05
4.7275734926372574e-07,5.790574833679004e-07,6.51922317771854e-07,1.8211522864482612e-05
4.6861974791164505e-07,5.883864232797921e-07,6.570092681298177e-07,1.795342089869406e-05
4.642132125613946e-07,5.97899302848551e-07,6.621435202671578e-07,1.7686698467861555e-05
4.595584773652768e-07,6.075504952105531e-07,6.673525808614744e-07,1.7412002618657392e-05
4.546836683814898e-07,6.172985687293228e-07,6.726614126478643e-07,1.713004857265742e-05
4.496194888589624e-07,6.271045822898293e-07,6.780865978071814e-07,1.6841551508942983e-05
4.443949419039726e-07,6.369317566924927e-07,6.836356386651387e-07,1.6547201252240546e-05
4.390359351195661e-07,6.467468237299694e-07,6.893118243602396e-07,1.624771290808763e-05
4.3356559358101043e-07,6.565201061132225e-07,6.951220446878229e-07,1.5943926190666807e-05
4.280052495491687e-07,6.662236412480222e-07,7.01082851302983e-07,1.563684930969655e-05
4.2237551927453275e-07,6.75829422590924e-07,7.072219405440945e-07,1.5327596673801246e-05
4.1669674505977614e-07,6.853078059967491e-07,7.135739679915711e-07,1.5017282011868719e-05
4.109889509000525e-07,6.946265684816666e-07,7.201717721792137e-07,1.470695906753535e-05
4.0527136646203726e-07,7.037525151391148e-07,7.270393868349748e-07,1.4397664165083007e-05
3.9956154568076896e-07,7.12654344039564e-07,7.341916850296095e-07,1.4090538194850684e-05
3.938747849577551e-07,7.21303473147093e-07,7.416365311957123e-07,1.378692245809844e-05
3.882244146472621e-07,7.296729975185816e-07,7.493742310638579e-07,1.3488332366365199e-05
3.826230922924293e-07,7.37738741650173e-07,7.573955779925502e-07,1.3196322786493532e-05
3.7708419816964023e-07,7.454823875906405e-07,7.656814074267514e-07,1.2912339036360976e-05
3.716221689836339e-07,7.528912822157476e-07,7.742047067257935e-07,1.2637622538185525e-05
3.662514909728615e-07,7.599545981072498e-07,7.829345234922578e-07,1.237318717408745e-05
3.6098523980151953e-07,7.666608372460836e-07,7.918376500554734e-07,1.2119856487788705e-05
3.55835245650504e-07,7.729975146725955e-07,8.008768758630429e-07,1.1878338929722262e-05
3.5081385625308017e-07,7.789508019581545e-07,8.100120981877358e-07,1.1649354545185245e-05
3.459347583269669e-07,7.84505268806286e-07,8.192064647783624e-07,1.1433827237160927e-05
3.412123988005563e-07,7.896445839190605e-07,8.28429944360207e-07,1.1233017892756547e-05
3.366608914485054e-07,7.943523661101929e-07,8.376561203484276e-07,1.1048445609037987e-05
3.322927843702351e-07,7.986129509004472e-07,8.468563444879444e-07,1.0881660028861658e-05
3.281196244397047e-07,8.024125191912591e-07,8.559961157940664e-07,1.0734030411715112e-05
3.241548736878537e-07,8.057393858100639e-07,8.650360187434456e-07,1.0606638773647803e-05
3.204151507495871e-07,8.08584403180437e-07,8.739357547540376e-07,1.0500364272597801e-05
3.169171750617381e-07,8.109442587257541e-07,8.826577909431728e-07,1.0416150496998434e-05
3.1367405275349484e-07,8.128256350490122e-07,8.911696393460802e-07,1.0355215120508883e-05
3.1069556125789013e-07,8.142458248813795e-07,8.994445644145449e-07,1.0319016883138976e-05
3.0799099277405904e-07,8.152286153466349e-07,9.074594319640024e-07,1.0309065967070537e-05
3.0556937358524387e-07,8.157987332243439e-07,9.151913199794843e-07,1.032674197158328e-05
3.0343685924178657e-07,8.159792832458809e-07,9.226181393146886e-07,1.0373184319363175e-05
3.015957606996285e-07,8.157919729597153e-07,9.2972342953379e-07,1.0449229672206374e-05
3.000460423768605e-07,8.152572124790067e-07,9.36498456884861e-07,1.0555367355526095e-05
2.9878632278829734e-07,8.14393108927742e-07,9.429391930336222e-07,1.0691725883110574e-05
2.9781313263597327e-07,8.132150058077805e-07,9.490418413672348e-07,1.0858097217378357e-05
2.9711974262269587e-07,8.117382466790475e-07,9.54799837208732e-07,1.1053970233817928e-05
2.966961076323925e-07,8.099832843440381e-07,9.60203959555231e-07,1.1278539032861e-05
2.9652987427542053e-07,8.079787451895662e-07,9.652439267042151e-07,1.1530678128395725e-05
2.966082091034063e-07,8.057602944766925e-07,9.699077682382497e-07,1.1808912820189097e-05
2.9692072315077527e-07,8.033669478558309e-07,9.74179580122833e-07,1.2111427281007015e-05
2.9746144525905107e-07,8.008379544316776e-07,9.780383035447529e-07,1.2436133622754813e-05
2.9822788856973464e-07,7.982135497355009e-07,9.814579971651236e-07,1.2780786256522347e-05
2.99218599831092e-07,7.955389841414788e-07,9.844095877312166e-07,1.3143094819827807e-05
3.0043063774085777e-07,7.928649688408364e-07,9.8686308060563e-07,1.3520790728144354e-05
3.018574949879488e-07,7.90241671027572e-07,9.887891785078554e-07,1.3911639006430651e-05
3.034882209923807e-07,7.877133376180338e-07,9.90162265411664e-07,1.431342209356122e-05
3.053074920619705e-07,7.853175944372997e-07,9.90965138231738e-07,1.4723916467378086e-05
3.072958520104895e-07,7.830849393519909e-07,9.911918149408777e-07,1.5140863936839908e-05
3.094300240437385e-07,7.810373791687559e-07,9.908461344718276e-07,1.556194890804023e-05
3.116835475583505e-07,7.791889709017645e-07,9.899379875406214e-07,1.5984796169402218e-05
3.1402796792035185e-07,7.775461826128852e-07,9.88480870152199e-07,1.6406986291031822e-05
3.1643406126464183e-07,7.761064860197155e-07,9.8649074159855e-07,1.682609247693958e-05
3.188721727932045e-07,7.748586344985119e-07,9.839835181268696e-07,1.7239734815814403e-05
3.213122655455325e-07,7.737864654097301e-07,9.809730698466379e-07,1.7645614085693833e-05
3.2372509980894744e-07,7.728742754593737e-07,9.774721615331394e-07,1.804152071185788e-05
3.260836530384453e-07,7.721121675095422e-07,9.734940102567223e-07,1.842535614115292e-05
3.283628252124725e-07,7.715012897111166e-07,9.690521175735017e-07,1.879517258476696e-05
3.305381357690316e-07,7.710575486245436e-07,9.641584194725193e-07,1.9149208693938134e-05
3.3258534311988246e-07,7.708112289870887e-07,9.588213348207278e-07,1.948588806983644e-05
3.3448123892200733e-07,7.708021409376803e-07,9.530463008710551e-07,1.9803772818834165e-05
3.3620434414386356e-07,7.710729106001501e-07,9.468393062902659e-07,2.0101537784379582e-05
3.377348315316488e-07,7.716642302234156e-07,9.402114207818071e-07,2.0378028780234367e-05
3.390550020469121e-07,7.726124303448368e-07,9.33181977794022e-07,2.0632375023259133e-05
3.401510980152634e-07,7.739468221607882e-07,9.257782189654406e-07,2.0864078954043413e-05
3.4101536456346456e-07,7.756871241665925e-07,9.180311790067341e-07,2.1073053613728355e-05
3.4164709854447924e-07,7.778416570699871e-07,9.099705237195002e-07,2.125960487521508e-05
3.420516907862276e-07,7.804056020503355e-07,9.016219565996019e-07,2.142432396957642e-05
3.422380277057204e-07,7.833604845910957e-07,8.93008936836315e-07,2.1567905673078337e-05
3.422157584431448e-07,7.866757517178697e-07,8.841558718627224e-07,2.16910085753435e-05
3.419936521580748e-07,7.903113929308525e-07,8.750885517071196e-07,2.1794220180747253e-05
3.415800487034573e-07,7.942213418687532e-07,8.658325172127705e-07,2.187805467313256e-05
3.409844413486537e-07,7.983596295546816e-07,8.564120042314854e-07,2.194292330393289e-05
3.402182808420269e-07,8.026892372687506e-07,8.468489469620341e-07,2.1989116359364875e-05
3.392948599840392e-07,8.07188946018506e-07,8.371619101881234e-07,2.20168892546602e-05
3.3822828338205765e-07,8.118552473829838e-07,8.273665670349077e-07,2.2026711872650968e-05
3.3703205362933566e-07,8.166998140628727e-07,8.174770960001187e-07,2.2019533904013367e-05
3.357190699450891e-07,8.217432995913197e-07,8.075070771319597e-07,2.199680475024092e-05
3.3430320839719536e-07,8.27008805020463e-07,7.974699954156794e-07,2.196024743223777e-05
3.328002398680841e-07,8.325190092614324e-07,7.873785908784924e-07,2.1911602023326387e-05
3.312263845750319e-07,8.382956994789116e-07,7.772428459648778e-07,2.1852480009779503e-05
3.295960328617413e-07,8.443570842007357e-07,7.670691313273087e-07,2.1784416952911545e-05
3.27921379668443e-07,8.50712074040681e-07,7.56862198020079e-07,2.1709125250684575e-05
3.262140230361668e-07,8.57355315359132e-07,7.466288880460322e-07,2.162871874821274e-05
3.244860473710203e-07,8.64265442902231e-07,7.36381167191957e-07,2.1545682596965538e-05
3.2274944076501044e-07,8.714068679231535e-07,7.26137251677038e-07,2.1462646485926287e-05
3.2101511220378734e-07,8.787356601649345e-07,7.159213270396201e-07,2.138214847865573e-05
3.1929201087548524e-07,8.862070864217027e-07,7.057631687952621e-07,2.1306486008246084e-05
3.175866505508231e-07,8.937792378454746e-07,6.957003647659788e-07,2.1237655416861826e-05
3.1590469774481694e-07,9.014108636595413e-07,6.857822333075374e-07,2.1177337376016607e-05
3.1425351968832195e-07,9.090567433019958e-07,6.760688417578157e-07,2.112689413315542e-05
3.126420870352119e-07,9.166649996301059e-07,6.666230832281005e-07,2.1087378087806092e-05
3.1107918898217893e-07,9.24179274953242e-07,6.575016783862311e-07,2.1059555297267105e-05
3.095742242131201e-07,9.315455316019408e-07,6.487511455808507e-07,2.1043912915232808e-05
3.081395873928193e-07,9.38718966522745e-07,6.404097144430304e-07,2.104062040938535e-05
3.067901861316411e-07,9.456651414249077e-07,6.325123240174014e-07,2.1049481949073187e-05
3.055408916753845e-07,9.523545701665144e-07,6.250966433114006e-07,2.1069932904851142e-05
3.044053736085192e-07,9.58756819964927e-07,6.182082837182229e-07,2.1101088478911508e-05
3.033957414904925e-07,9.648395703303569e-07,6.119022432853587e-07,2.1141846937614102e-05
3.0252190455141613e-07,9.705707943083812e-07,6.062406528197681e-07,2.119102616719968e-05
3.017924527293844e-07,9.759198122935678e-07,6.012881888262257e-07,2.1247461370796004e-05
3.012177120074296e-07,9.808573929476075e-07,5.971049612453148e-07,2.1310037341953546e-05
3.0081122074042674e-07,9.853553913937466e-07,5.937393878667703e-07,2.1377706602612466e-05
3.0058699147184077e-07,9.893846115949405e-07,5.912249727903491e-07,2.144951498596475e-05
3.005561805767946e-07,9.929125569722766e-07,5.895830530477186e-07,2.152460115808494e-05
3.007258245503573e-07,9.959043740494822e-07,5.888316180369185e-07,2.160216469424332e-05
3.010978472861883e-07,9.98327653521097e-07,5.88994048422026e-07,2.168142416828119e-05
3.016682702327833e-07,1.000157448009367e-06,5.900987470628554e-07,2.1761571714203605e-05
3.0242798244627924e-07,1.0013764724797938e-06,5.921694353158635e-07,2.1841763792342602e-05
3.033650606990671e-07,1.001971519035568e-06,5.952152679478816e-07,2.1921189540014623e-05
3.044676092902676e-07,1.0019323800198522e-06,5.992293889885377e-07,2.199914654328696e-05
3.057253758965572e-07,1.0012556677216431e-06,6.041959122453623e-07,2.207502827590909e-05
3.071296878781786e-07,9.999490487496815e-07,6.100982316481707e-07,2.214824943867732e-05
3.086723716677968e-07,9.98030246407385e-07,6.169231288573742e-07,2.2218198711129548e-05
3.1034404120288647e-07,9.955211105240186e-07,6.246604144153586e-07,2.2284243269894814e-05
3.121326035210288e-07,9.924444152296536e-07,6.333004155653724e-07,2.2345728161538258e-05
3.1402307172739e-07,9.888299555537864e-07,6.428302981987496e-07,2.2401939355289528e-05
3.159992397356248e-07,9.847256710501222e-07,6.532286917783584e-07,2.2452089543616585e-05
3.180455235439713e-07,9.802032927858984e-07,6.64461382553466e-07,2.249537373541869e-05
3.201465622680684e-07,9.753531413837442e-07,6.764823820270584e-07,2.2531055396471964e-05
3.2228612322904785e-07,9.702702028948593e-07,6.892394635426272e-07,2.255854508691339e-05
3.2444753694721326e-07,9.650393017488235e-07,7.026800199146855e-07,2.257749081081353e-05
3.266140547308114e-07,9.597287579659842e-07,7.167539018508159e-07,2.258786370451749e-05
3.2876805389143106e-07,9.543954116365377e-07,7.314110107394402e-07,2.258996169184376e-05
3.308907532081912e-07,9.490941186485636e-07,7.465958956525401e-07,2.258430298998369e-05
3.329627909632152e-07,9.438828565186998e-07,7.622450002457347e-07,2.2571451194855452e-05
3.349643664375513e-07,9.3882264250123e-07,7.782883036573568e-07,2.2551846670370432e-05
3.3687515118126497e-07,9.33975108557024e-07,7.946539424050255e-07,2.252573142482268e-05
3.3867559344561854e-07,9.293970384369856e-07,8.112741259518556e-07,2.249318206658244e-05
3.4034964330897324e-07,9.251342487226551e-07,8.280879189150497e-07,2.2454167252229755e-05
3.418868813807986e-07,9.212211120123772e-07,8.450370417045497e-07,2.240859581514644e-05
3.4328277584951104e-07,9.176847309314415e-07,8.620586622690126e-07,2.2356461023466087e-05
3.445372543507157e-07,9.145466383008251e-07,8.790823146853035e-07,2.229808143458792e-05
3.456524530937588e-07,9.118209550156168e-07,8.960309129678196e-07,2.2234204978590343e-05
3.466310402118898e-07,9.095135111554424e-07,9.128230166267334e-07,2.216585934757745e-05
3.4747543425681874e-07,9.076234859822351e-07,9.293763029976223e-07,2.2094092026863854e-05
3.481870476068157e-07,9.061449388611843e-07,9.45609538287223e-07,2.2019778285523397e-05
3.487657604526998e-07,9.050662033694656e-07,9.61441146594494e-07,2.194363707452929e-05
3.492107137921769e-07,9.043693941962194e-07,9.767881846609998e-07,2.1866486684342506e-05
3.495221048895036e-07,9.040312862598118e-07,9.915683592332892e-07,2.178952369640922e-05
3.497019397392395e-07,9.04022883208507e-07,1.0057042679867331e-06,2.171437208257987e-05
3.497531107223344e-07,9.043079893332449e-07,1.0191268607757193e-06,2.164292450667913e-05
3.496786034145535e-07,9.0484354097899e-07,1.0317741342824042e-06,2.157714259816953e-05
3.4948139544933055e-07,9.055818923900987e-07,1.0435864972572031e-06,2.1518899979589442e-05
3.49163854104966e-07,9.064742794044511e-07,1.0545042350868444e-06,2.146988497163632e-05
3.4872697803750966e-07,9.074740418636288e-07,1.064468276780013e-06,2.143155091600628e-05
3.481709870679988e-07,9.08537169670212e-07,1.0734218706854359e-06,2.140508900160888e-05
3.474967184493671e-07,9.09620727749504e-07,1.081311970977713e-06,2.139141949603044e-05
3.467060351619328e-07,9.106832420870135e-07,1.0880910543754969e-06,2.13912031992928e-05
3.45801309524882e-07,9.116887344523859e-07,1.0937203327920786e-06,2.1404844322179386e-05
3.4478506839467305e-07,9.126112768793968e-07,1.098172969732632e-06,2.143245899019512e-05
3.4365999946527307e-07,9.13435693043963e-07,1.1014340062333964e-06,2.14738312766276e-05
3.424288315126699e-07,9.141527677354765e-07,1.1034977460062648e-06,2.152838599264866e-05
3.4109394253446413e-07,9.147527806038894e-07,1.1043686540055442e-06,2.159519522044464e-05
3.396574296753684e-07,9.152237846648053e-07,1.1040681479167235e-06,2.1673045372930623e-05
3.381217672526481e-07,9.155555105110627e-07,1.1026409886209237e-06,2.176056148049534e-05
3.3649017658382637e-07,9.157446312152514e-07,1.1001538825544911e-06,2.1856328220859124e-05
3.347666539310239e-07,9.157979901356264e-07,1.0966859894560215e-06,2.1958959850185986e-05
3.3295631916255364e-07,9.157314630670874e-07,1.0923179117898823e-06,2.206713201440089e-05
3.310655311877707e-07,9.155654357068164e-07,1.0871264738382722e-06,2.217959756489918e-05
3.2910111254943016e-07,9.153209213451949e-07,1.0811863891137531e-06,2.229518264841565e-05
3.270701092753139e-07,9.150170315927192e-07,1.074574016504006e-06,2.241277064171822e-05
3.249804607214434e-07,9.146684984688893e-07,1.0673687674675622e-06,2.253130001515418e-05
3.2284066326861376e-07,9.142843403574512e-07,1.059650639996072e-06,2.2649759134467845e-05
3.2065871444567317e-07,9.138690670377435e-07,1.051495336929498e-06,2.276713641281189e-05
3.1844210028082645e-07,9.13424361698534e-07,1.0429709172397193e-06,2.2882372474580624e-05
3.161983791848845e-07,9.129485347407429e-07,1.0341391951592682e-06,2.29943822718176e-05
3.139356543216612e-07,9.124354472257618e-07,1.0250616552988917e-06,2.3102092892334795e-05
3.1166348623862693e-07,9.118757585070236e-07,1.0158051896036924e-06,2.3204425913554503e-05
3.0939329418686106e-07,9.112603137647655e-07,1.006441330952166e-06,2.3300262631915785e-05
3.071366840267539e-07,9.10582851996242e-07,9.97039701750768e-07,2.3388449788399303e-05
3.049033166583829e-07,9.098389221284876e-07,9.876643124254706e-07,2.346782490405369e-05
3.0270079586964767e-07,9.090230914809445e-07,9.783752836690862e-07,2.353722049169705e-05
3.005360852687011e-07,9.081290602805705e-07,9.692287107628943e-07,2.359546772643288e-05
2.984168582019319e-07,9.071521429081324e-07,9.60273306450881e-07,2.3641443443903572e-05
2.963523398848254e-07,9.060909900012949e-07,9.515507240127523e-07,2.3674164721866627e-05
2.943534352894175e-07,9.049460864969143e-07,9.430999025626755e-07,2.369291251869774e-05
2.924324730556393e-07,9.03715417070772e-07,9.349586430985088e-07,2.369737554155444e-05
2.906030795440609e-07,9.02392238621002e-07,9.271596632317371e-07,2.3687765444066768e-05
2.888793447463604e-07,9.009665890054092e-07,9.19725763932802e-07,2.3664801682562422e-05
2.872743119651914e-07,8.994266125882093e-07,9.126691737039988e-07,2.362954437505262e-05
2.8579877989007413e-07,8.977580865106861e-07,9.059933254349852e-07,2.3583160551924743e-05
2.8446058235077925e-07,8.959434306067701e-07,8.996934666265068e-07,2.3526709611414925e-05
2.8326485935172874e-07,8.939614716863506e-07,8.937575909575888e-07,2.3461022446291768e-05
2.822150674444817e-07,8.917884962537473e-07,8.88169055193869e-07,2.338670647922636e-05
2.813131773671371e-07,8.893990027595829e-07,8.829085566664343e-07,2.3304201406786145e-05
2.805589854387164e-07,8.867658539018652e-07,8.779540114767765e-07,2.3213824609734672e-05
2.7994970418804184e-07,8.838631154831545e-07,8.732788141030916e-07,2.311588845354817e-05
2.7948042779716465e-07,8.806715039047705e-07,8.688499426118238e-07,2.301091348169404e-05
2.79145340164893e-07,8.771809720066572e-07,8.646281662773287e-07,2.2899727613972947e-05
2.7893838292774427e-07,8.733877262638531e-07,8.605713814503506e-07,2.2783316158906728e-05
2.7885318074999884e-07,8.692890951119783e-07,8.56640128880573e-07,2.266258405510235e-05
2.788839447827662e-07,8.648815154121961e-07,8.528040224238088e-07,2.253823315134966e-05
2.7902664408279364e-07,8.601634334802307e-07,8.490474885700156e-07,2.2410857294996844e-05
2.7927867398597933e-07,8.551394848315529e-07,8.453709519714942e-07,2.228127250686546e-05
2.796385090901484e-07,8.498225166604086e-07,8.417848822070486e-07,2.215088241794692e-05
2.801066260806168e-07,8.442343289580608e-07,8.383016275225444e-07,2.202179664649986e-05
2.806853468695332e-07,8.38405067794721e-07,8.349327554704421e-07,2.189668961410347e-05
2.813766082334059e-07,8.323691536781839e-07,8.316918082797401e-07,2.1778579881588792e-05
2.821808995938629e-07,8.261597273423992e-07,8.285955801849379e-07,2.167061455226e-05
2.830986409244578e-07,8.198056284343564e-07,8.256608136517479e-07,2.157585372030159e-05
2.841314323589139e-07,8.133307250107447e-07,8.22900590104218e-07,2.1497075964883185e-05
2.8528219517245696e-07,8.067537827807059e-07,8.203243877889213e-07,2.143664253946865e-05
2.865557760211637e-07,8.000888287982186e-07,8.17939543172018e-07,2.1396426074826252e-05
2.8796026927679344e-07,7.933472011705862e-07,8.157505192004137e-07,2.137778294078628e-05
2.895064124754817e-07,7.865452871146932e-07,8.137564930310199e-07,2.138153787377295e-05
2.912039601984343e-07,7.797207045030442e-07,8.119491437922281e-07,2.140796386583442e-05
2.930584462769466e-07,7.729474601198141e-07,8.10311318569307e-07,2.1456788900265483e-05
2.950707181287393e-07,7.663355712335247e-07,8.088171125106655e-07,2.1527257116498928e-05
2.972377521953355e-07,7.600159385069519e-07,8.074338200560008e-07,2.16182322377282e-05
2.9955304327348924e-07,7.541225670450535e-07,8.061258078509499e-07,2.1728345278709408e-05
3.0200668550285644e-07,7.487792039673104e-07,8.048590192868408e-07,2.1856167368408082e-05
3.045862190998173e-07,7.440914155176917e-07,8.03603841240272e-07,2.2000333569429432e-05
3.0727801890189966e-07,7.401433231650569e-07,8.023363193873609e-07,2.2159597342159253e-05
3.1006827283076923e-07,7.369990870099663e-07,8.010387780696429e-07,2.233286788235248e-05
3.129444179468992e-07,7.34708833128781e-07,7.996992840982566e-07,2.2519240854370582e-05
3.1589758158117e-07,7.333146742105905e-07,7.983098184881281e-07,2.271798662690551e-05
3.189239699244245e-07,7.328526219965368e-07,7.968641836378623e-07,2.292849429076279e-05
3.220242848887296e-07,7.333511218492804e-07,7.953578331115187e-07,2.315019724543112e-05
3.2520254409527717e-07,7.34830362221314e-07,7.937909023954836e-07,2.33824783022077e-05
3.284646500426285e-07,7.373059310712435e-07,7.921711274343407e-07,2.362455492280484e-05
3.318169897591357e-07,7.407951306593709e-07,7.905130512883644e-07,2.3875406258790078e-05
3.352657759961895e-07,7.453204324530955e-07,7.888348262278655e-07,2.413377752813494e-05
3.388159081887508e-07,7.50908212018851e-07,7.87156161243594e-07,2.439820039230835e-05
3.4246861322886647e-07,7.575851821584256e-07,7.854979595668892e-07,2.466700003698079e-05
3.462198693462091e-07,7.653731888325695e-07,7.838807990441364e-07,2.4938339824891087e-05
3.5006067608429324e-07,7.742829008301905e-07,7.823209417508324e-07,2.5210316440515617e-05
3.539780321304267e-07,7.843102745356102e-07,7.808263470376238e-07,2.548103497422505e-05
3.579559720464465e-07,7.95437081895106e-07,7.793967005986113e-07,2.574859357495433e-05
3.619765666957953e-07,8.076318728477502e-07,7.780305219859706e-07,2.6011018728793045e-05
3.660206413690775e-07,8.20848937555387e-07,7.767371071135875e-07,2.626625680539943e-05
3.700680222871421e-07,8.350266365846769e-07,7.755441217230843e-07,2.6512253988883663e-05
3.7409765427906703e-07,8.500875146338617e-07,7.744945343102526e-07,2.67470814004008e-05
3.7808857197543687e-07,8.659403017421837e-07,7.736366440688321e-07,2.696905815603405e-05
3.820218205906765e-07,8.824823904920151e-07,7.730152931009107e-07,2.7176835203396564e-05
3.8588241830473106e-07,8.996034592386921e-07,7.726702007322584e-07,2.736938966352937e-05
3.896599764756465e-07,9.171904274156882e-07,7.72640769010334e-07,2.7545909383983116e-05
3.933468774124906e-07,9.351302657755236e-07,7.729709753709812e-07,2.770564420802873e-05
3.9693561128406967e-07,9.533102563106958e-07,7.737111812257201e-07,2.784784365800591e-05
4.0041776769751795e-07,9.716209536839791e-07,7.749188441767641e-07,2.797181146479183e-05
4.037847155358885e-07,9.899613053568442e-07,7.766589598247939e-07,2.8076983481474407e-05
4.0702857106342653e-07,1.008239018408468e-06,7.790025112487661e-07,2.8162931917723223e-05
4.101421476273128e-07,1.0263690820047649e-06,7.82021429174373e-07,2.8229312260654888e-05
4.131177365655865e-07,1.0442793298556096e-06,7.857804407362834e-07,2.8275879941860607e-05
4.159458118846381e-07,1.0619189477536784e-06,7.903287438569038e-07,2.8302645598070366e-05
4.1861471342108884e-07,1.0792593443843322e-06,7.956948282648876e-07,2.831000997949741e-05
4.2111142852321075e-07,1.0962872972316635e-06,8.018849433791087e-07,2.8298688910733e-05
4.2342297314693507e-07,1.1129966330489756e-06,8.088846402482953e-07,2.8269492647095007e-05
4.2553911596575203e-07,1.129380229415633e-06,8.166635685064317e-07,2.822315649974833e-05
4.274555913470983e-07,1.1454219538142394e-06,8.251823331891298e-07,2.8160349082904603e-05
4.291733463790442e-07,1.1610917831191256e-06,8.343981494977884e-07,2.8081894924512677e-05
4.30693775346138e-07,1.1763470955606519e-06,8.442675268904791e-07,2.798907620540564e-05
4.3201527468311405e-07,1.1911373636942672e-06,8.547485333136805e-07,2.7883751052773054e-05
4.33132955291159e-07,1.2054082274143554e-06,8.658042545729433e-07,2.7768216457021106e-05
4.340398597257397e-07,1.21910634508737e-06,8.774056017354045e-07,2.764497597569206e-05
4.3472881686696646e-07,1.2321861731278346e-06,8.895322007140524e-07,2.751653520006651e-05
4.351940387481277e-07,1.2446125384246842e-06,9.021689481032348e-07,2.738523952198437e-05
4.3543125408991135e-07,1.2563552227006347e-06,9.152973582160784e-07,2.7253146501027084e-05
4.3543725797017877e-07,1.2673832554104758e-06,9.288883093155598e-07,2.712193767982153e-05
4.352113436164418e-07,1.2776677238698308e-06,9.429027717450794e-07,2.699288403679699e-05
4.347574562702651e-07,1.2871905122787846e-06,9.572981946745041e-07,2.6866872328174044e-05
4.3408350835591403e-07,1.2959495681524488e-06,9.72034335417735e-07,2.674446527388241e-05
4.3319880296078427e-07,1.3039559322497207e-06,9.870781185088958e-07,2.6625935561440303e-05
4.3211224859386816e-07,1.3112248172192538e-06,1.0024089513256426e-06,2.6511261812603658e-05
4.308317610640504e-07,1.317767093217942e-06,1.0180184333344299e-06,2.6400158070150906e-05
4.293654973838129e-07,1.32358728055623e-06,1.0339001313602377e-06,2.6292183225795205e-05
4.277246877317436e-07,1.3286871963177094e-06,1.0500373090752725e-06,2.618688697259412e-05
4.2592609513357246e-07,1.333068423158877e-06,1.0663977772676422e-06,2.6083934233687485e-05
4.239929189468353e-07,1.3367300416043714e-06,1.0829360867355762e-06,2.5983181533986816e-05
4.219533823400882e-07,1.3396645338048787e-06,1.0995978523278387e-06,2.588469508003292e-05
4.198375579532765e-07,1.341856685933266e-06,1.11632172200635e-06,2.5788724815031312e-05
4.1767557242590886e-07,1.3432869594699092e-06,1.1330392140342438e-06,2.5695655846208827e-05
4.1549761727685756e-07,1.343936600007355e-06,1.1496758740989401e-06,2.5605934287424508e-05
4.1333246304642677e-07,1.3437918069454263e-06,1.1661558575689385e-06,2.5519967923354725e-05
4.1120523373324647e-07,1.3428465569949278e-06,1.1824080818168736e-06,2.543802851826403e-05
4.091378424545582e-07,1.3411035198010138e-06,1.1983699194567308e-06,2.5360177516772384e-05
4.071502115335879e-07,1.3385713803441977e-06,1.2139872482235164e-06,2.5286231263656108e-05
4.0525898200670477e-07,1.3352602587623195e-06,1.229212139600677e-06,2.521579872761549e-05
4.034752331871656e-07,1.3311807150047077e-06,1.2439986740362178e-06,2.5148367792092928e-05
4.0180384802184905e-07,1.3263459478219991e-06,1.2582983251214205e-06,2.50833427521742e-05
4.0024431176108606e-07,1.3207708905282008e-06,1.2720578915908363e-06,2.502001237553688e-05
3.98791599066878e-07,1.3144680192026831e-06,1.2852211275797395e-06,2.4957525949060266e-05
3.974370267343757e-07,1.3074446273945905e-06,1.2977320022953156e-06,2.489492345249068e-05
3.9616966765989366e-07,1.2997027296888236e-06,1.3095367395013877e-06,2.483118980457904e-05
3.9497834993234134e-07,1.2912407973092798e-06,1.3205846116276064e-06,2.476527200348041e-05
3.9385322292786285e-07,1.28205679756238e-06,1.330829276960006e-06,2.469605169750731e-05
3.927852462997357e-07,1.2721501705073964e-06,1.3402302765532415e-06,2.4622335429060998e-05
3.9176413822587477e-07,1.2615216944750047e-06,1.348753683268292e-06,2.4542906632729544e-05
3.907776164831185e-07,1.2501742600495638e-06,1.3563725602746138e-06,2.4456627994370906e-05
3.8981280789630796e-07,1.2381145444977778e-06,1.363066367377179e-06,2.4362567024744478e-05
3.8885775225254044e-07,1.2253520361934914e-06,1.3688173295204547e-06,2.426010951099983e-05
3.8790104355295184e-07,1.211897062321801e-06,1.373606045325218e-06,2.414899239918984e-05
3.869305844833633e-07,1.1977611954940037e-06,1.377412005459951e-06,2.402920985666018e-05
3.859340963319291e-07,1.1829585468787951e-06,1.3802201794908134e-06,2.390086087623977e-05
3.849012808634637e-07,1.1675072000121995e-06,1.3820280284496348e-06,2.3764075230774123e-05
3.838249626554018e-07,1.1514321277755638e-06,1.3828475522002556e-06,2.361906549122291e-05
3.827000074693038e-07,1.134767745734774e-06,1.382701724803165e-06,2.346622158777713e-05
3.8152123466856884e-07,1.1175580976560529e-06,1.381617960168629e-06,2.330616596547029e-05
3.8028238546581135e-07,1.0998553817460023e-06,1.37962284357224e-06,2.313974792785057e-05
3.789773825239953e-07,1.0817171590196646e-06,1.3767409399964509e-06,2.2967970274989906e-05
3.7760306324856615e-07,1.0632021274406272e-06,1.3729955260817786e-06,2.2791895392168053e-05
3.761611514280685e-07,1.0443658648936405e-06,1.3684072285904557e-06,2.2612588807974552e-05
3.746580441751957e-07,1.025258724186123e-06,1.3629914937781432e-06,2.243106296416291e-05
3.7310268718373773e-07,1.0059263583546837e-06,1.3567592707873846e-06,2.224819977655853e-05
3.7150423200560276e-07,9.864115713677651e-07,1.3497216458019206e-06,2.206470426392356e-05
3.698716149714008e-07,9.667558738232789e-07,1.3418948754936332e-06,2.188111930439257e-05
3.6821534962550346e-07,9.47000019005364e-07,1.333302745300377e-06,2.1697947314383708e-05
3.6655017913116567e-07,9.271849878549049e-07,1.3239761961019084e-06,2.1515885376172344e-05
3.648963381816485e-07,9.07354539756572e-07,1.3139512046302186e-06,2.133599466060446e-05
3.6327694092274364e-07,8.875568667085024e-07,1.3032647410646277e-06,2.115964419286857e-05
3.617132989551265e-07,8.67843606387751e-07,1.2919503570384662e-06,2.098830994823677e-05
3.6022307901685424e-07,8.482702496522596e-07,1.2800380721979485e-06,2.082337742480845e-05
3.588213552838702e-07,8.289016049021786e-07,1.2675615760284392e-06,2.066600101856264e-05
3.5752095243797257e-07,8.098168130776818e-07,1.2545694260175616e-06,2.051702201501085e-05
3.5633216733462475e-07,7.911063221311634e-07,1.2411309224811602e-06,2.03769375255201e-05
3.5526341475594256e-07,7.72863940245289e-07,1.22733065232303e-06,2.0245916182407487e-05
3.543211657925456e-07,7.551814772668857e-07,1.2132568705073513e-06,2.012384698715504e-05
3.5350842462377565e-07,7.381454111116913e-07,1.1989932407837157e-06,2.0010398803705818e-05
3.5282370024079985e-07,7.218319911938146e-07,1.1846175691753165e-06,1.990508869569588e-05
3.522617867861042e-07,7.063025978306266e-07,1.170203759797888e-06,1.980735559329909e-05
3.518163634144313e-07,6.916028829398029e-07,1.15582119455036e-06,1.971661933637212e-05
3.514828298858357e-07,6.777651303366333e-07,1.1415308822591343e-06,1.9632318920915333e-05
3.512592695761459e-07,6.648110782131859e-07,1.1273827288591595e-06,1.9553942908678478e-05
3.511459454312662e-07,6.527543319366827e-07,1.113416162326146e-06,1.9481073621765882e-05
3.511450900912467e-07,6.416017314120487e-07,1.0996630795879142e-06,1.941344389658577e-05
3.512606748124073e-07,6.313529973657825e-07,1.08615159642088e-06,1.9350960800734447e-05
3.514964002784371e-07,6.220007081686869e-07,1.072908500210033e-06,1.9293664882019948e-05
3.518525749752264e-07,6.135318886793855e-07,1.0599605103654502e-06,1.9241651005969324e-05
3.523247494003347e-07,6.059300084684033e-07,1.0473374891958531e-06,1.9194997199615146e-05
3.529047847307764e-07,5.991771639398802e-07,1.0350779428564334e-06,1.9153723763410282e-05
3.5358248828994043e-07,5.932551160163621e-07,1.0232330585120006e-06,1.911776258014465e-05
3.543463404823554e-07,5.881428549020582e-07,1.0118653969619385e-06,1.908691036466758e-05
3.5518327268724817e-07,5.838132003255477e-07,1.001040887376178e-06,1.906080361420108e-05
3.5607833989865485e-07,5.802330417942186e-07,9.908177771626988e-07,1.9038991714035768e-05
3.570152570652624e-07,5.773669036294329e-07,9.81238872053853e-07,1.902108684587164e-05
3.5797777069473345e-07,5.751798314274395e-07,9.723306151137902e-07,1.900685631644022e-05
3.5895009806400907e-07,5.736367483940449e-07,9.64108773903429e-07,1.899620261299188e-05
3.5991583648630157e-07,5.726996852499104e-07,9.565854132261603e-07,1.898912282102288e-05
3.608574321106496e-07,5.723281720706236e-07,9.4977066635889e-07,1.8985716185225408e-05
3.6175670965334246e-07,5.724841455266362e-07,9.436705878736502e-07,1.8986196844630898e-05
3.62594943063053e-07,5.731347153419785e-07,9.382850775241293e-07,1.8990831760725673e-05
3.633525572355422e-07,5.742493819903161e-07,9.33605276242252e-07,1.8999793932738392e-05
3.640095016195211e-07,5.757985287473502e-07,9.296110191753107e-07,1.901303140264833e-05
3.6454651596963634e-07,5.777585838293507e-07,9.262710733692673e-07,1.903026120841909e-05
3.649472873245773e-07,5.801187307367211e-07,9.235453131021286e-07,1.9051082759478962e-05
3.652005986549659e-07,5.828806386963212e-07,9.213859782489838e-07,1.907512576013689e-05
3.653001598669672e-07,5.860501844087861e-07,9.197382245104284e-07,1.910218221097859e-05
3.652420568798088e-07,5.896292958408753e-07,9.185430273331213e-07,1.9132297019527702e-05
3.6502268461619356e-07,5.936156149518373e-07,9.177434815179516e-07,1.9165767365799552e-05
