2.8337488947246717e-07,5.899449181158338e-07,6.922735913409447e-07,1.8869910558127865e-05
2.8378148179426734e-07,5.909193999173393e-07,6.931475301683821e-07,1.930865152113787e-05
2.842544353955123e-07,5.923539936478344e-07,6.938930014602166e-07,1.9747226157712484e-05
2.847831612414211e-07,5.942628995915078e-07,6.944854724297464e-07,2.0182872372598616e-05
2.8535878351081353e-07,5.966680030992965e-07,6.948991845190323e-07,2.061302840608551e-05
2.8597541179764447e-07,5.995929974174321e-07,6.951090434187359e-07,2.103528772262479e-05
2.866300033680253e-07,6.03057012330771e-07,6.950907717699832e-07,2.1447401425830263e-05
2.8732129291302717e-07,6.070685153558736e-07,6.948203253670895e-07,2.1847294532693803e-05
2.8804906451969964e-07,6.116216124564056e-07,6.942752430193985e-07,2.2233039097859416e-05
2.888143669758078e-07,6.166958783477992e-07,6.934378004301789e-07,2.2602822497382344e-05
2.8962074185918195e-07,6.222577319926082e-07,6.922964913694764e-07,2.2954986534355937e-05
2.904752295491137e-07,6.282619542022887e-07,6.908447938324365e-07,2.3288116912618012e-05
2.9138712989107673e-07,6.346536064866557e-07,6.890799734373827e-07,2.3601113520486546e-05
2.9236500747552897e-07,6.413708038621557e-07,6.870024808751436e-07,2.3893190829356365e-05
2.934145856386324e-07,6.483491292593575e-07,6.846143183513464e-07,2.4163794531568663e-05
2.945388383182828e-07,6.555277157828814e-07,6.819169850548443e-07,2.441248887751697e-05
2.95738624870844e-07,6.62855238363991e-07,6.789106180258215e-07,2.4638901461364465e-05
2.970124642924854e-07,6.702941751512947e-07,6.755940571128455e-07,2.4842768434540812e-05
2.983566982582931e-07,6.778216213548735e-07,6.719647277735121e-07,2.5024045144717262e-05
2.9976676315866145e-07,6.854246462132992e-07,6.680187681142264e-07,2.518299979402466e-05
3.0123828146844027e-07,6.930932403503102e-07,6.637537882151082e-07,2.5320222549419385e-05
3.027666604576499e-07,7.00818015078525e-07,6.591750664949359e-07,2.5436549573174e-05
3.043454419786795e-07,7.08593642281228e-07,6.542995975562094e-07,2.553295898191727e-05
3.059649950699745e-07,7.164224938660573e-07,6.491535635378789e-07,2.5610487866237294e-05
3.0761252378806053e-07,7.24314811600651e-07,6.437708721138521e-07,2.5670173778792256e-05
3.0927278255064177e-07,7.322851028001332e-07,6.381992454737524e-07,2.5712988094587688e-05
3.1092892079886085e-07,7.403461390797069e-07,6.325057223957925e-07,2.573975838247236e-05
3.1256348382714967e-07,7.485031742489861e-07,6.267738937321046e-07,2.5751145144218924e-05
3.141594720621151e-07,7.567511196122328e-07,6.210963038910319e-07,2.5747741903056685e-05
3.157023278302138e-07,7.650756899419904e-07,6.155665019109153e-07,2.5730256878539445e-05
3.1718250469070266e-07,7.734557763233382e-07,6.102712125558434e-07,2.569961037894249e-05
3.1859547705559025e-07,7.818635838135181e-07,6.052845043743274e-07,2.5656874377798684e-05
3.199391315428752e-07,7.902634693340231e-07,6.006681424604947e-07,2.560317012586829e-05
3.2121178066920627e-07,7.986127004550559e-07,5.96478332381077e-07,2.553960530476148e-05
3.224113652560256e-07,8.068645454388826e-07,5.927718838570154e-07,2.546726613118326e-05
3.2353487542633226e-07,8.149709554383359e-07,5.896046400783422e-07,2.5387358189000656e-05
3.245785319592729e-07,8.228832018641176e-07,5.870255520706243e-07,2.5301453616450792e-05
3.255386834442161e-07,8.305532913633706e-07,5.850759138974345e-07,2.521158205784776e-05
3.264122138323562e-07,8.379385806902262e-07,5.837942757773035e-07,2.512009300618385e-05
3.271966866174469e-07,8.450065800666203e-07,5.832185304995934e-07,2.5029461698984986e-05
3.2789062121980053e-07,8.517368705641851e-07,5.833812269380414e-07,2.494213618213748e-05
3.2849307093686854e-07,8.581211241441685e-07,5.843043171011993e-07,2.486042399939158e-05
3.290028950358251e-07,8.641621615331854e-07,5.859991821094672e-07,2.478640575617114e-05
3.294192977797879e-07,8.698703584390865e-07,5.884695547671386e-07,2.47218502361932e-05
3.297432207382461e-07,8.752574340236904e-07,5.917133654693993e-07,2.4668137845473488e-05
3.299770231933021e-07,8.803329531024833e-07,5.957231070873191e-07,2.4626237758825853e-05
3.301222532671009e-07,8.85106824496006e-07,6.004859317244137e-07,2.4596729129878158e-05
3.301783737301662e-07,8.895927794620666e-07,6.059836868863593e-07,2.457980210351874e-05
3.301436918066226e-07,8.938069411334783e-07,6.121927092824746e-07,2.457523549604736e-05
3.3001691621487105e-07,8.977618781142194e-07,6.190833236497223e-07,2.4582417729346037e-05
3.2979749435760923e-07,9.01461005419228e-07,6.266177292845675e-07,2.460044066170252e-05
3.294848130749249e-07,9.048968640550394e-07,6.347470488734321e-07,2.462822784363968e-05
3.2907747763146204e-07,9.080521937850969e-07,6.434111280497871e-07,2.466465045035525e-05
3.285731122370952e-07,9.109017446954617e-07,6.525415943146108e-07,2.470858901766252e-05
3.279689905956864e-07,9.134148627632705e-07,6.620650776361615e-07,2.4758912667757283e-05
3.272637995063561e-07,9.155585538546051e-07,6.7190550574969e-07,2.481441751896206e-05
3.2645912823690536e-07,9.173005264466991e-07,6.819873878744566e-07,2.4873798145064208e-05
3.255590452286696e-07,9.186139400173132e-07,6.92239647327488e-07,2.493566835403713e-05
3.2456938227726124e-07,9.194835044254916e-07,7.025970606001455e-07,2.4998603774960235e-05
3.234981400111887e-07,9.199070488987259e-07,7.129999639248798e-07,2.5061180163921013e-05
3.223547502296066e-07,9.19890339269874e-07,7.233955149141202e-07,2.512197959645676e-05
3.211477470360672e-07,9.194434234529611e-07,7.337409168581792e-07,2.5179559471889942e-05
3.198836848913108e-07,9.18584546247229e-07,7.44007096346721e-07,2.523243389905369e-05
3.185685799695408e-07,9.173441346798427e-07,7.541804384312429e-07,2.527909362241943e-05
3.1721060482283394e-07,9.157605869974884e-07,7.642591141402177e-07,2.531802513144421e-05
3.158219830314924e-07,9.138719876559351e-07,7.742446225196279e-07,2.5347720863373472e-05
3.144185805671712e-07,9.117116152804027e-07,7.84134176348136e-07,2.536671280342358e-05
3.130171448734233e-07,9.093081685699585e-07,7.939184438383554e-07,2.537361813623213e-05
3.1163219159209e-07,9.066878112137716e-07,8.035850111198084e-07,2.5367177080629002e-05
3.102745963234148e-07,9.038760090717713e-07,8.13123954615783e-07,2.534632927879007e-05
3.089515036145735e-07,9.008973744842728e-07,8.225309254368516e-07,2.531032770166333e-05
3.0766669392381365e-07,8.977728327751081e-07,8.318076209176317e-07,2.525877349968877e-05
3.064217368329605e-07,8.94516943539651e-07,8.409622546844333e-07,2.5191536312849694e-05
3.0521763015214444e-07,8.911388411714634e-07,8.500098739956918e-07,2.510864527867969e-05
3.0405550624946765e-07,8.876447714962112e-07,8.589709992228976e-07,2.5010199952113887e-05
3.029359649434435e-07,8.840376789466681e-07,8.678688213816632e-07,2.4896314979753448e-05
3.0185819409699823e-07,8.803148970233244e-07,8.767277310052049e-07,2.476710538515384e-05
3.0081985500428717e-07,8.764678140377554e-07,8.855760934770763e-07,2.462268762032881e-05
2.9981797769828085e-07,8.72483796594883e-07,8.944515815623693e-07,2.446318980674021e-05
2.988500606729257e-07,8.68348780019483e-07,9.034041094480196e-07,2.428879368396293e-05
2.9791393782248867e-07,8.640494165695968e-07,9.124927312023206e-07,2.409979126170172e-05
2.9700759663888725e-07,8.595737418596801e-07,9.217764714501578e-07,2.38966125290462e-05
2.961313201098456e-07,8.549108432537513e-07,9.313066013119148e-07,2.367980922191633e-05
2.952900557657273e-07,8.50051657092954e-07,9.411297809283442e-07,2.345002140977352e-05
2.94491884033144e-07,8.449906396532218e-07,9.51298944627397e-07,2.320797926953029e-05
2.937440527139379e-07,8.397258904206268e-07,9.618810304037027e-07,2.295453625043561e-05
2.930513936624766e-07,8.342579600325125e-07,9.729572563560526e-07,2.2690664843104152e-05
2.924170452937517e-07,8.285887311499185e-07,9.846173469075292e-07,2.2417394899523647e-05
2.918423423079368e-07,8.227197835624498e-07,9.969497594443701e-07,2.2135740036231792e-05
2.913259121631915e-07,8.166505145804002e-07,1.0100302286790884e-06,2.184665707220102e-05
2.9086417353333715e-07,8.10378002232472e-07,1.0239128881456664e-06,2.15510450136968e-05
2.904542279935377e-07,8.038988476028864e-07,1.038628244082258e-06,2.124974793738808e-05
2.9009727142290977e-07,7.972114049690731e-07,1.054185800238384e-06,2.0943535277705054e-05
2.897991908397837e-07,7.903184233028513e-07,1.0705759846467178e-06,2.063308498320544e-05
2.895680594117229e-07,7.832317145862491e-07,1.087769907187544e-06,2.03190023172387e-05
2.8941189463533817e-07,7.759780388238338e-07,1.1057174900718201e-06,2.00018512533408e-05
2.8933863571753484e-07,7.686013531648961e-07,1.1243464969861944e-06,1.9682159755998905e-05
2.8935658730853424e-07,7.611572979391124e-07,1.1435658171336723e-06,1.9360403136205104e-05
2.894742044291801e-07,7.537029802915908e-07,1.1632703374971287e-06,1.9036984417351558e-05
2.896998405130155e-07,7.462898633503373e-07,1.183342901186864e-06,1.871223210340209e-05
2.900407065950479e-07,7.389627779181187e-07,1.2036549240229808e-06,1.8386432801664885e-05
2.905009019441464e-07,7.317622883019636e-07,1.2240681204916658e-06,1.8059871820759995e-05
2.910801144077283e-07,7.247288483953511e-07,1.2444372468145898e-06,1.7732836675534362e-05
2.9177341342629084e-07,7.179085539286382e-07,1.2646149736345483e-06,1.7405587711090525e-05
2.925716179805314e-07,7.113573267221756e-07,1.2844593389072951e-06,1.7078334422184692e-05
2.9346228548811175e-07,7.051398832636574e-07,1.303840787293467e-06,1.6751232526534797e-05
2.944317295373108e-07,6.993241534379995e-07,1.3226472937179076e-06,1.6424389448860487e-05
2.954674208738807e-07,6.939738047261158e-07,1.3407910564435584e-06,1.609787258321399e-05
2.9655885710608213e-07,6.891414691809239e-07,1.3582172006170606e-06,1.577173086180601e-05
2.976966957006152e-07,6.848665022499687e-07,1.3749066117937937e-06,1.5446028563225235e-05
2.988718511261957e-07,6.81177431419745e-07,1.3908665276274298e-06,1.5120869483186768e-05
3.000748274331285e-07,6.7809446704824e-07,1.4061128168466864e-06,1.4796412445277584e-05
3.012948107168829e-07,6.756307081648189e-07,1.4206551227921283e-06,1.4472900890568313e-05
3.0251945422606824e-07,6.737935748043278e-07,1.4344923325497626e-06,1.415069194340389e-05
3.037371512683009e-07,6.725850472885368e-07,1.447614301020274e-06,1.3830252780606644e-05
3.049428068648753e-07,6.71999199349275e-07,1.4600026524700231e-06,1.3512120402664986e-05
3.0614355874009647e-07,6.720201284177693e-07,1.4716312198607617e-06,1.3196851740638533e-05
3.073583180084544e-07,6.726244200949684e-07,1.48246968500448e-06,1.2885041599961588e-05
3.0861133873709224e-07,6.737867466188033e-07,1.4924887144818275e-06,1.2577441812585388e-05
3.099255142900041e-07,6.754849763359711e-07,1.5016619453956716e-06,1.22750648140461e-05
3.113185662372984e-07,6.777050035883698e-07,1.509963395388591e-06,1.1979187237451026e-05
3.128023767453527e-07,6.804432931715562e-07,1.5173631257851939e-06,1.1691302600588076e-05
3.143852946409401e-07,6.837021482087879e-07,1.5238264188151682e-06,1.1413030139281606e-05
3.160760526303592e-07,6.874829312355657e-07,1.5293207815862855e-06,1.1145959046819349e-05
3.178876522784122e-07,6.917890882007641e-07,1.5338283747303157e-06,1.0891485504558087e-05
3.198397136365002e-07,6.966373254751512e-07,1.5373551735383454e-06,1.0650715238844754e-05
3.2195752305325213e-07,7.020637876464507e-07,1.539931605993003e-06,1.0424484144189617e-05
3.242680692781266e-07,7.081197655201615e-07,1.541606292984959e-06,1.021350635723081e-05
3.2679510885652965e-07,7.148626737656738e-07,1.5424360581988086e-06,1.0018552380540373e-05
3.295556753821422e-07,7.223489105931785e-07,1.542475511059304e-06,9.840522153344533e-06
3.325600644264846e-07,7.306293841913387e-07,1.541769703719787e-06,9.680389032993878e-06
3.358147189047965e-07,7.397452056674689e-07,1.5403513394561163e-06,9.539090545509202e-06
3.393253844748801e-07,7.497224439572099e-07,1.5382413114544715e-06,9.417427296346524e-06
3.430981470761858e-07,7.605677075804366e-07,1.5354501473093858e-06,9.31598649990439e-06
3.4713788591387965e-07,7.722691348632201e-07,1.5319793000521175e-06,9.235095302072632e-06
3.514457257543533e-07,7.84804021310065e-07,1.5278227619133453e-06,9.174836794692116e-06
3.560169346411956e-07,7.981453882208282e-07,1.5229685143172981e-06,9.13519138655664e-06
3.6084045131041496e-07,8.122602674753027e-07,1.5173990245244474e-06,9.11629553483068e-06
3.659016965901271e-07,8.271038377877697e-07,1.5110922430396582e-06,9.118641074169749e-06
3.711873886294839e-07,8.426174767782008e-07,1.5040259443071371e-06,9.143030548373317e-06
3.7668737248616903e-07,8.5873154622974e-07,1.4961853229480578e-06,9.19033552328068e-06
3.823918690874725e-07,8.753690552100882e-07,1.4875677802417044e-06,9.26123191944216e-06
3.882893048554783e-07,8.924467695899277e-07,1.4781800021984469e-06,9.356049450350737e-06
3.9436885719662646e-07,9.098732763736199e-07,1.4680314678059396e-06,9.474876051279984e-06
4.0062369476169184e-07,9.275472784556083e-07,1.45713103861151e-06,9.617904791368137e-06
4.070491612056024e-07,9.453586902895569e-07,1.445487476296184e-06,9.785716800891987e-06
4.1363848097272097e-07,9.631931299429329e-07,1.433111168364879e-06,9.979273732797572e-06
4.2038131616106296e-07,9.809394540386598e-07,1.4200160852447158e-06,1.019973410327125e-05
4.2726369822969887e-07,9.984970906656244e-07,1.4062218376205352e-06,1.0448261606986174e-05
4.3426676854155037e-07,1.0157781671946469e-06,1.3917538088238523e-06,1.072585829791348e-05
4.413660046529563e-07,1.0327039706936421e-06,1.3766403396236708e-06,1.1033218498705016e-05
4.485316680858185e-07,1.0492033504591127e-06,1.360909938641981e-06,1.1370611731685465e-05
4.557294534264628e-07,1.0652172742493906e-06,1.3445931752799894e-06,1.1737815210902153e-05
4.629217678482296e-07,1.0807015268049076e-06,1.3277286788909883e-06,1.2134111954728953e-05
4.700707872278832e-07,1.0956209341273343e-06,1.310365564437788e-06,1.2558327257358293e-05
4.771425131730899e-07,1.1099402453468953e-06,1.2925601522685215e-06,1.3008854390033279e-05
4.841084434604039e-07,1.123620584901387e-06,1.2743756643264423e-06,1.3483658063979366e-05
4.90943697748202e-07,1.1366243374801698e-06,1.255887177957345e-06,1.3980289215479074e-05
4.976248994720657e-07,1.1489248237888027e-06,1.2371821347537869e-06,1.4495943007753024e-05
5.041292871867544e-07,1.1605153000357746e-06,1.2183519180948392e-06,1.5027569346343444e-05
5.104333740313402e-07,1.1714114787325592e-06,1.1994811101412948e-06,1.5572014770514587e-05
5.165115369861957e-07,1.1816446811346505e-06,1.1806415379568474e-06,1.6126116411821044e-05
5.223362147397043e-07,1.1912502263563662e-06,1.1618914936968858e-06,1.6686697800828627e-05
5.278789835477096e-07,1.2002597636002495e-06,1.1432776818941809e-06,1.7250544880578102e-05
5.331110249231335e-07,1.2087017184195403e-06,1.1248404683979395e-06,1.7814440062826354e-05
5.380032891726584e-07,1.2166057444431604e-06,1.1066210560144144e-06,1.8375233694710362e-05
5.425268953694124e-07,1.2240050022044591e-06,1.0886647618190622e-06,1.8929925678992112e-05
5.466535636359745e-07,1.2309336449497886e-06,1.071018996384108e-06,1.9475751197712205e-05
5.50356074301582e-07,1.237420603051933e-06,1.0537295854111985e-06,2.0010239545091265e-05
5.536088154909297e-07,1.2434846662066505e-06,1.036837149522673e-06,2.053118920057976e-05
5.563890146702855e-07,1.24913369961862e-06,1.0203745742646754e-06,2.103656225081377e-05
5.586789600663898e-07,1.2543654103167716e-06,1.004367196483684e-06,2.152441372776572e-05
5.604674392362872e-07,1.259169094837986e-06,9.888347667865714e-07,2.1992931994733493e-05
5.61749568681487e-07,1.2635289027091441e-06,9.737928161881987e-07,2.2440517302939487e-05
5.625260103068984e-07,1.267427094094098e-06,9.592516144734951e-07,2.2865800866079168e-05
5.628012514370099e-07,1.270849410072007e-06,9.452133861848459e-07,2.3267600139825675e-05
5.625817060975338e-07,1.273794349074687e-06,9.31671807155084e-07,2.364486552926398e-05
5.618760207498301e-07,1.276279086890103e-06,9.186151068610849e-07,2.399669011830032e-05
5.606966957068526e-07,1.278334111541862e-06,9.060293589811165e-07,2.432246082028663e-05
5.590599604094739e-07,1.2799907665828787e-06,8.938995676747022e-07,2.462210571304464e-05
5.569835737987075e-07,1.2812729077302485e-06,8.822093460021255e-07,2.4896240042092835e-05
5.544849331262486e-07,1.2821963357842762e-06,8.709418496164078e-07,2.514609962891431e-05
5.515814819547894e-07,1.2827710819556374e-06,8.600833091405233e-07,2.537333024316066e-05
5.482928716501797e-07,1.2830031273725474e-06,8.496263123288624e-07,2.557975183566271e-05
5.446418076676721e-07,1.2828951340892948e-06,8.395706674479404e-07,2.576716514475645e-05
5.406520967913373e-07,1.2824455077461994e-06,8.29924549525572e-07,2.593719407295414e-05
5.36347059181309e-07,1.2816463747332165e-06,8.207078562022455e-07,2.6091163773362064e-05
5.317514138581644e-07,1.28048266888949e-06,8.119540100208084e-07,2.623007001357889e-05
5.268947095998874e-07,1.2789337011796022e-06,8.037047386151408e-07,2.635464471873703e-05
5.21812401196575e-07,1.2769757794807115e-06,7.959991781298584e-07,2.6465446738075892e-05
5.165441645768027e-07,1.274583258356052e-06,7.888654528833331e-07,2.656292569492429e-05
5.111311331459461e-07,1.2717285671060805e-06,7.823184194828935e-07,2.6647424325295784e-05
5.056125419542747e-07,1.2683840230382168e-06,7.76360189093469e-07,2.6719121612924005e-05
5.000229493616326e-07,1.2645252331315208e-06,7.709810341570241e-07,2.677799086989403e-05
4.943912966382029e-07,1.2601329473495309e-06,7.661608816279057e-07,2.6823836888458043e-05
4.887409053866387e-07,1.255191466517828e-06,7.618716488054819e-07,2.6856461902339614e-05
4.830897149908914e-07,1.249684950014683e-06,7.580803761661295e-07,2.687598293855675e-05
4.774509076589211e-07,1.2435948834561251e-06,7.547525899179545e-07,2.688314322779895e-05
4.7183409591230794e-07,1.236900357386841e-06,7.518550263258652e-07,2.687939251962537e-05
4.662473240439417e-07,1.2295802596705696e-06,7.493563705969159e-07,2.686673757606147e-05
4.606983223787686e-07,1.2216160810182888e-06,7.472252671036191e-07,2.684751792476059e-05
4.551936547291301e-07,1.2129943408102328e-06,7.454281044571793e-07,2.6824198109206438e-05
4.497379175863537e-07,1.2037082390872185e-06,7.43929198829326e-07,2.6799190258536927e-05
4.44335439514937e-07,1.1937580665398232e-06,7.426921725951809e-07,2.6774697104514e-05
4.3899354518237973e-07,1.1831491266782869e-06,7.416814980684035e-07,2.6752591893552082e-05
4.337241867013671e-07,1.1718885618424343e-06,7.408634281118094e-07,2.673437342164439e-05
4.285430364767152e-07,1.1599842907352372e-06,7.402044166408216e-07,2.6721181130004862e-05
4.2346831661649604e-07,1.1474460050683479e-06,7.39669290222428e-07,2.671379544132512e-05
4.185204854920474e-07,1.1342859187300266e-06,7.392218321801531e-07,2.671259511889816e-05
4.137228159852861e-07,1.1205177421648372e-06,7.38826104458043e-07,2.6717544329609102e-05
4.091020657224021e-07,1.1061555666080486e-06,7.384471124901059e-07,2.6728255695520928e-05
4.0468677359833656e-07,1.0912155693629145e-06,7.380504327907268e-07,2.6744067330460848e-05
4.005043115231411e-07,1.0757177531973568e-06,7.376008713122004e-07,2.6764106971363164e-05
3.9657956209126274e-07,1.0596844611906083e-06,7.370614827828484e-07,2.6787403471769025e-05
3.929335800291232e-07,1.0431398401419129e-06,7.363937560920779e-07,2.681303971862342e-05
3.895813870950053e-07,1.0261134464004163e-06,7.35558548349884e-07,2.684026453947136e-05
3.865317696076586e-07,1.0086442428492949e-06,7.345170188991158e-07,2.686852108253261e-05
3.8378919978889925e-07,9.907805187456176e-07,7.332311933104331e-07,2.689740716758741e-05
3.813543918210936e-07,9.725754844301045e-07,7.316641995612838e-07,2.692661327225293e-05
3.792228100900749e-07,9.54081974094413e-07,7.297802791208961e-07,2.695587270699491e-05
3.773843421738766e-07,9.353496242886685e-07,7.275450569665367e-07,2.6984928937096944e-05
3.7582612477778633e-07,9.164244303522091e-07,7.249263687303681e-07,2.7013511919495635e-05
3.745378697210444e-07,8.97348467603459e-07,7.218952621369322e-07,2.704128710279664e-05
3.735167287660006e-07,8.781593563074324e-07,7.184275713374244e-07,2.706775825199689e-05
3.7276746114667384e-07,8.588908038522333e-07,7.14506072054169e-07,2.7092188078253706e-05
3.722979949332376e-07,8.395749521071759e-07,7.101211677744311e-07,2.7113598785023168e-05
3.721151143303422e-07,8.202453424980964e-07,7.052693505492577e-07,2.71308380432144e-05
3.7222260288688547e-07,8.009383580143129e-07,6.999508799658835e-07,2.714269405370747e-05
3.7262071682665107e-07,7.816934602129191e-07,6.941677623585792e-07,2.7148045308348637e-05
3.733067937359945e-07,7.625535764124956e-07,6.879229050923346e-07,2.714595426233909e-05
3.742772361652346e-07,7.435649078490021e-07,6.812207897492381e-07,2.713563646419202e-05
3.755285670569522e-07,7.247765230780748e-07,6.740693507420808e-07,2.7116370175635847e-05
3.770554250530835e-07,7.062409088727812e-07,6.664830812956471e-07,2.708742667365249e-05
3.788476739482636e-07,6.880130465025995e-07,6.584860871008922e-07,2.704802676963359e-05
3.808897842728733e-07,6.701463657880312e-07,6.501126905096808e-07,2.699733596644691e-05
3.831625132183611e-07,6.526897498965398e-07,6.414054355007492e-07,2.693455173634241e-05
3.856456869474681e-07,6.356885630289234e-07,6.324120577331276e-07,2.685907893544102e-05
3.8832043150396364e-07,6.191866074344736e-07,6.231826915160411e-07,2.677067448009817e-05
3.911695935853721e-07,6.032273894103115e-07,6.137683890212693e-07,2.6669444168772016e-05
3.941776667251856e-07,5.878573827037868e-07,6.042202481990993e-07,2.655569754534991e-05
3.9733058588272144e-07,5.731308830047643e-07,5.945873660056928e-07,2.6429764754393883e-05
4.006140133293675e-07,5.591109879847002e-07,5.849141393237108e-07,2.629188159787626e-05
4.040114752932157e-07,5.458634362519962e-07,5.752385479427516e-07,2.6142160847922416e-05
4.075040669387247e-07,5.334479690429733e-07,5.65591623916817e-07,2.598059653015623e-05
4.1107058519393147e-07,5.219138873436279e-07,5.559980397440185e-07,2.5807106122535525e-05
4.146873625565113e-07,5.11299352328071e-07,5.464787064600222e-07,2.562170110417345e-05
4.1832837880134283e-07,5.016316010290424e-07,5.370555812734951e-07,2.542476252931491e-05
4.219653583819118e-07,4.929282525432779e-07,5.277573878328761e-07,2.5217185972256786e-05
4.2556773101726353e-07,4.851981911666093e-07,5.186244691705253e-07,2.500024966210137e-05
4.291037403491529e-07,4.784405367641767e-07,5.097103034385282e-07,2.477534513138617e-05
4.325433107703378e-07,4.7264397572873897e-07,5.010780684371878e-07,2.4543769990878626e-05
4.358612601567747e-07,4.6778859190727034e-07,4.927934485888386e-07,2.43067162287506e-05
4.3903957037047397e-07,4.638491017879866e-07,4.849167512537611e-07,2.406551294057279e-05
4.4206785709111655e-07,4.607963371467225e-07,4.774987174958244e-07,2.382194774475942e-05
4.449404668826764e-07,4.58596198133321e-07,4.705818928390608e-07,2.3578363491277012e-05
4.4765166511075524e-07,4.5720974581093423e-07,4.642032365473799e-07,2.33374769824382e-05
4.5019308508472606e-07,4.565985827941171e-07,4.5839397129820025e-07,2.310211261263033e-05
4.5255408886477423e-07,4.5673379426748066e-07,4.53178013258706e-07,2.287499957819895e-05
4.5472311630190325e-07,4.5759923512887527e-07,4.485712999529913e-07,2.2658650723003468e-05
4.5668883196891574e-07,4.591841349783888e-07,4.445830143807844e-07,2.2455287134428892e-05
4.5844068597545147e-07,4.614726686358097e-07,4.4121732221771346e-07,2.2266783056394148e-05
4.5996957889480287e-07,4.6443884932649383e-07,4.3847251477398683e-07,2.209463127540271e-05
4.61269100176826e-07,4.680463394446554e-07,4.363390369355402e-07,2.1939943943117848e-05
4.6233709225120343e-07,4.7224990916639777e-07,4.348002633821725e-07,2.1803484639932465e-05
4.631765977761656e-07,4.76997024668473e-07,4.3383534539239206e-07,2.168568550123683e-05
4.6379458817289543e-07,4.822298323314847e-07,4.334216173176257e-07,2.1586623400515992e-05
4.6419939844634324e-07,4.878877403141086e-07,4.3353601596540527e-07,2.150599206953624e-05
4.6439951330055644e-07,4.939087689567721e-07,4.341556871169893e-07,2.1443128625340337e-05
4.644037841567396e-07,5.002298179962728e-07,4.3525732634527004e-07,2.1397124553084035e-05
4.642221046304713e-07,5.067885272256468e-07,4.3681616056676246e-07,2.13669820127753e-05
4.63865993367119e-07,5.135255149976591e-07,4.388081037239675e-07,2.135172301882585e-05
4.6334739935454853e-07,5.203838092245791e-07,4.4121607973522216e-07,2.1350406736459428e-05
4.62676225709037e-07,5.273072046341958e-07,4.4403583272359607e-07,2.136211051561393e-05
4.6186025409637716e-07,5.342417012184161e-07,4.472762233870738e-07,2.138593882615229e-05
4.6090762462705354e-07,5.411386634783789e-07,4.509532928809351e-07,2.1421042829961312e-05
4.598285947708155e-07,5.479543477094262e-07,4.5508144230212004e-07,2.146660077318032e-05
4.586357652486063e-07,5.54646616566301e-07,4.596664951977785e-07,2.152176043755611e-05
4.573429903662693e-07,5.611742792894756e-07,4.6470303912219846e-07,2.1585576092285198e-05
4.5596282180239926e-07,5.674990412631913e-07,4.7017565658624496e-07,2.165696349999466e-05
4.5450452016063407e-07,5.735867414261162e-07,4.760635455149409e-07,2.1734716569868924e-05
4.529741028450021e-07,5.794073517614943e-07,4.823462937800586e-07,2.1817584703065507e-05
4.513751434896144e-07,5.849348395998251e-07,4.890052437574189e-07,2.190431451559041e-05
4.497099716438874e-07,5.901479863310436e-07,4.960195249848394e-07,2.1993625768054004e-05
4.4798148748103505e-07,5.950318896493734e-07,5.033624353305139e-07,2.2084196111874265e-05
4.46193663529794e-07,5.995789416960487e-07,5.110005256805295e-07,2.217468666705468e-05
4.4435033557583627e-07,6.037885484279537e-07,5.188939900249226e-07,2.226376917649152e-05
4.42454743088839e-07,6.076641795303213e-07,5.269983075963225e-07,2.235011441934288e-05
4.405102884148941e-07,6.112088375057022e-07,5.352684453449304e-07,2.243236881721383e-05
4.3852127579288595e-07,6.144232587075479e-07,5.436676773928986e-07,2.250918143901254e-05
4.36492947163469e-07,6.173085349805403e-07,5.521792488107045e-07,2.257927567177958e-05
4.344302325029086e-07,6.198709405907658e-07,5.608129777314521e-07,2.264152002597734e-05
4.3233620571693495e-07,6.221241863165582e-07,5.696009791592918e-07,2.2695007274098318e-05
4.302123851183179e-07,6.240869481569096e-07,5.785855518223704e-07,2.273915924611149e-05
4.2806089300695e-07,6.25781439686149e-07,5.878068501303294e-07,2.27737825535684e-05
4.2588579000770333e-07,6.27236960921667e-07,5.972947464692066e-07,2.279899486311657e-05
4.2369180097592825e-07,6.284930483546981e-07,6.070654747286461e-07,2.2815057009225026e-05
4.2148201638526176e-07,6.295978956758283e-07,6.171234724183254e-07,2.282219844424153e-05
4.1925730873608776e-07,6.306031469266414e-07,6.274657770150929e-07,2.282050543845248e-05
4.170180120481701e-07,6.315571928368303e-07,6.380830554999894e-07,2.28099026944413e-05
4.147649433556656e-07,6.325010505875555e-07,6.489573671837308e-07,2.2790191503886042e-05
4.1249821227350423e-07,6.334695414900376e-07,6.6006106065896e-07,2.2761104416558585e-05
4.1021651318503936e-07,6.344943083284099e-07,6.713569867626937e-07,2.272242881014504e-05
4.079174664680129e-07,6.356052754216156e-07,6.82800810547724e-07,2.267423099578732e-05
4.0559710375533745e-07,6.368318792020107e-07,6.943493709334263e-07,2.261701233030481e-05
4.032496381225631e-07,6.382035268149682e-07,7.059727686959431e-07,2.255162984503967e-05
4.008688867425904e-07,6.397473418001821e-07,7.176610255657694e-07,2.2479069603117015e-05
3.984497594523836e-07,6.414867139666789e-07,7.294207697049916e-07,2.2400241099554613e-05
3.959888754607307e-07,6.434431741568943e-07,7.41265102187626e-07,2.231591028194429e-05
3.934845058343926e-07,6.456384392320563e-07,7.532027319252558e-07,2.222687344751901e-05
3.9093593659858496e-07,6.480936386454841e-07,7.652327768135505e-07,2.2134277366424508e-05
3.883440824148828e-07,6.508254779609792e-07,7.773456719431731e-07,2.2039792613435213e-05
3.8571323181571777e-07,6.538422779090805e-07,7.895243418408996e-07,2.194552142416609e-05
3.830502342400913e-07,6.571438722088665e-07,8.017437116256226e-07,2.1853782238444438e-05
3.8036129501189217e-07,6.607258737523513e-07,8.139704879185017e-07,2.1766909708962024e-05
3.776504186920863e-07,6.645834557437432e-07,8.261634189726761e-07,2.1687109836817167e-05
3.7492065967365524e-07,6.687096844169405e-07,8.38275235331669e-07,2.1616370615891706e-05
3.721760009196518e-07,6.730921290086481e-07,8.502573930872017e-07,2.1556407629124094e-05
3.694216416318948e-07,6.777148458164027e-07,8.620640917639381e-07,2.1508631099528148e-05
3.666627726705244e-07,6.82565440775023e-07,8.736534518117333e-07,2.147414693670648e-05
3.639037529363875e-07,6.876426361186785e-07,8.849891423689476e-07,2.1453779206331748e-05
3.611486550446517e-07,6.929604804012793e-07,8.960428070967457e-07,2.144807124739893e-05
3.584027040751001e-07,6.985458426138639e-07,9.067926142675699e-07,2.1457258900280068e-05
3.556738562357572e-07,7.044289071764844e-07,9.172168518430595e-07,2.148123794704057e-05
3.5297323987310564e-07,7.10631689424754e-07,9.27288892856457e-07,2.1519546722098795e-05
3.503137181276676e-07,7.171613733251183e-07,9.36979501654246e-07,2.157139749468264e-05
3.4770835787079604e-07,7.240102088577217e-07,9.462632578601649e-07,2.1635773636034712e-05
3.4517081213373697e-07,7.31157481744414e-07,9.551208795149835e-07,2.1711558554627937e-05
3.427162795969824e-07,7.385705471686504e-07,9.63535258453474e-07,2.179764407554097e-05
3.4036054176151736e-07,7.462063240106245e-07,9.714860179951484e-07,2.18930001030966e-05
3.381175727949268e-07,7.540137328147268e-07,9.789466942966308e-07,2.1996713035176595e-05
3.359976876780927e-07,7.619363780009259e-07,9.8588466851636e-07,2.2107983206867048e-05
3.340070744132041e-07,7.69915443639478e-07,9.922624489801306e-07,2.2226079153370263e-05
3.321494252066288e-07,7.778919106130187e-07,9.980399007850394e-07,2.235028816198244e-05
3.3042888328627877e-07,7.858086581721719e-07,1.003177783780568e-06,2.247988625952519e-05
3.2885119193128876e-07,7.93614543826604e-07,1.0076407641049708e-06,2.2614098679271908e-05
3.274224513291289e-07,8.012683778587469e-07,1.0113971018925323e-06,2.2752046041616142e-05
3.2614790602153017e-07,8.087383345502396e-07,1.0144169384994354e-06,2.289271398457751e-05
3.250316828266083e-07,8.159978088840259e-07,1.0166728266052286e-06,2.3034942439860737e-05
3.2407738533496534e-07,8.230223092684394e-07,1.0181414221598317e-06,2.31774117788822e-05
3.232888155109313e-07,8.297875116676677e-07,1.0188049184581327e-06,2.3318651424157146e-05
3.2266889148443304e-07,8.362670096796462e-07,1.0186524244313514e-06,2.3457090063433703e-05
3.222173929894719e-07,8.424321274704557e-07,1.0176794852247312e-06,2.359111788816385e-05
3.219299346928813e-07,8.482539695952872e-07,1.015885953460915e-06,2.3719123539689483e-05
3.21798079534313e-07,8.537035501796389e-07,1.0132749202835682e-06,2.383950650502521e-05
3.218098146868538e-07,8.58749731501106e-07,1.0098524447312524e-06,2.395070339146671e-05
3.2195101976095204e-07,8.633588765073622e-07,1.0056269603718751e-06,2.405124331012532e-05
3.222081926282394e-07,8.674971039236479e-07,1.0006090415077394e-06,2.4139808798648793e-05
3.2257083058837836e-07,8.711340989927988e-07,9.948122067162326e-07,2.4215309986914177e-05
3.230312682818611e-07,8.742471616082756e-07,9.882552111327677e-07,2.4276997161983152e-05
3.235829181861555e-07,8.768212133377338e-07,9.80963933812215e-07,2.4324542733950395e-05
3.2421961947947996e-07,8.78844373767931e-07,9.729694452556715e-07,2.435797846587972e-05
3.2493558192604514e-07,8.803055457114563e-07,9.643041228983269e-07,2.437750894676145e-05
3.257243016469994e-07,8.811958066056137e-07,9.550004718355174e-07,2.438334870642629e-05
3.265772185278147e-07,8.815098334270286e-07,9.450931462287295e-07,2.437567636287108e-05
3.274833782247873e-07,8.812461940755086e-07,9.346230787931455e-07,2.435467011165181e-05
3.284302210100761e-07,8.804066870770563e-07,9.236430494936863e-07,2.432054894826351e-05
3.294050416568004e-07,8.789949857192896e-07,9.122197448848879e-07,2.4273574008326666e-05
3.303963925280129e-07,8.77017319950581e-07,9.004268754091439e-07,2.421403906104284e-05
3.313953020747183e-07,8.744873397157411e-07,8.883347099493113e-07,2.414236964060379e-05
3.323960623477588e-07,8.714322385744387e-07,8.760063618751252e-07,2.4059295331461883e-05
3.333949657620775e-07,8.678945676886612e-07,8.635014439724044e-07,2.3965846250074148e-05
3.343874236548195e-07,8.639271069582995e-07,8.508798423808023e-07,2.3863131572078463e-05
3.353671949571097e-07,8.59583692378112e-07,8.382010611064977e-07,2.375211980266452e-05
3.3632951649632566e-07,8.549143465521831e-07,8.255224266315325e-07,2.3633587322779602e-05
3.372747565305195e-07,8.49970356620463e-07,8.129014522179415e-07,2.350830150626647e-05
3.382080929929307e-07,8.448130385685562e-07,8.00399888598893e-07,2.3377353307199025e-05
3.391355849944748e-07,8.395177099163832e-07,7.88083772498961e-07,2.3242361867057602e-05
3.400610274085447e-07,8.34173946919203e-07,7.760189840495381e-07,2.3105395262762773e-05
3.409864843054979e-07,8.288840418398678e-07,7.642645669767048e-07,2.296874431241055e-05
3.4191563311878014e-07,8.237562015538113e-07,7.528676276078516e-07,2.283471618174581e-05
3.428569983635876e-07,8.188927704294435e-07,7.418634960552118e-07,2.270548375837875e-05
3.438247284795381e-07,8.143811632398915e-07,7.312790889872156e-07,2.2582974934179945e-05
3.448361069812855e-07,8.102937846776309e-07,7.211350634305221e-07,2.2468784927110182e-05
3.459075589197823e-07,8.06693049829829e-07,7.114464363715605e-07,2.236411920467388e-05
3.470532637233801e-07,8.036324851920166e-07,7.022248352727052e-07,2.226979290257596e-05
3.4828631749015736e-07,8.011525205915394e-07,6.93483447166249e-07,2.2186270354325147e-05
3.496177373448261e-07,7.992768222835737e-07,6.852406516872025e-07,2.211368853017149e-05
3.510534667602168e-07,7.980128106300898e-07,6.775201055298024e-07,2.2051848056888284e-05
3.5259444483645275e-07,7.973557494058672e-07,6.703489687782902e-07,2.2000221770204823e-05
3.5424114212453437e-07,7.972937505235293e-07,6.637539495056304e-07,2.195803040043668e-05
3.559977189738493e-07,7.978110237884858e-07,6.577554314380477e-07,2.1924380248475087e-05
3.578706860237278e-07,7.988890412721929e-07,6.523634074567898e-07,2.189841111330526e-05
3.5986412181441457e-07,8.005070413379323e-07,6.475777355045393e-07,2.1879393365051248e-05
3.619775929923524e-07,8.026430038178592e-07,6.433914434154736e-07,2.1866754919107614e-05
3.642077970173733e-07,8.052747144525643e-07,6.397936890055921e-07,2.186008247183041e-05
3.665500804582157e-07,8.083789322191127e-07,6.367716094246005e-07,2.1859136311198638e-05
3.689986484564955e-07,8.119277815668603e-07,6.343143470792565e-07,2.186384322068448e-05
3.7154770202502034e-07,8.158851689737804e-07,6.324201438284196e-07,2.187421964209404e-05
3.74193377883269e-07,8.202073011081675e-07,6.31099891871285e-07,2.189024656873001e-05
3.769335270460585e-07,8.248469409190329e-07,6.303707634662929e-07,2.1911750749775614e-05
3.797644783620899e-07,8.297568133223088e-07,6.302465368132433e-07,2.1938338495311525e-05
3.8267782584827907e-07,8.348906097075932e-07,6.307354474646429e-07,2.196942802119996e-05
3.856603256658961e-07,8.402038833080854e-07,6.318440531591435e-07,2.2004361762482026e-05
3.8869627820833175e-07,8.456548228065591e-07,6.335794447530349e-07,2.2042483806133858e-05
3.9177023952763026e-07,8.512030835155719e-07,6.359462461135994e-07,2.2083125524063967e-05
3.948697401146794e-07,8.568075431661461e-07,6.389400851413991e-07,2.212557066426437e-05
3.979878108591207e-07,8.62424770434206e-07,6.425429446862068e-07,2.216905932970253e-05
4.011236977171481e-07,8.680087634830774e-07,6.467231075635788e-07,2.2212814435457785e-05
4.042811191768242e-07,8.735129176585758e-07,6.514377513938389e-07,2.2256047896121265e-05
4.074653760462457e-07,8.788939928617939e-07,6.566359061711027e-07,2.229792771213984e-05
4.106807633620368e-07,8.841148927477476e-07,6.622602977850708e-07,2.233753891033898e-05
4.139291169498925e-07,8.891435951199043e-07,6.682476917881843e-07,2.2373869741192933e-05
4.1720962162648284e-07,8.939494441299401e-07,6.74529464255415e-07,2.240582380264152e-05
4.205185750599296e-07,8.985004752419435e-07,6.810343683572726e-07,2.2432287339918736e-05
4.238488290381671e-07,9.027640020858612e-07,6.876917575086136e-07,2.2452287856225087e-05
4.271909416970004e-07,9.067094278582298e-07,6.944329246034379e-07,2.2465171662761228e-05
4.3053550671822215e-07,9.103102653036905e-07,7.011937682430865e-07,2.247064913852956e-05
4.338739746045104e-07,9.135430763042884e-07,7.079218988509163e-07,2.246866952784994e-05
4.3719886601962346e-07,9.163839546242105e-07,7.145840693847334e-07,2.2459238688624207e-05
4.405053059058866e-07,9.188054159185272e-07,7.211671201344478e-07,2.2442304666235928e-05
4.4379214404104587e-07,9.20776735488882e-07,7.276709935110654e-07,2.241774320158628e-05
4.4706107672767173e-07,9.222701330671013e-07,7.340993486770959e-07,2.2385377883856595e-05
4.503150142306689e-07,9.232717840653955e-07,7.404533239797555e-07,2.2344975425999546e-05
4.535569914220128e-07,9.237904383054304e-07,7.467294609683475e-07,2.229628139536839e-05
4.567896582411865e-07,9.238566941548438e-07,7.529213960849402e-07,2.223921680415812e-05
4.6001383856510237e-07,9.235142220415532e-07,7.590229606945805e-07,2.217414234129237e-05
4.632263741023431e-07,9.228092029829214e-07,7.650288510422672e-07,2.210191996764004e-05
4.6642059348548095e-07,9.217839168249984e-07,7.709335740309709e-07,2.2023728588816323e-05
4.695888969103207e-07,9.204775090989956e-07,7.767312506954619e-07,2.194082806237646e-05
4.7272378233383513e-07,9.189299969639772e-07,7.824158420827034e-07,2.1854396286047788e-05
4.75817331090645e-07,9.171824298217753e-07,7.879820362987756e-07,2.176550046066685e-05
4.788603310326745e-07,9.152727799403881e-07,7.934284640361157e-07,2.167526160994237e-05
4.818411009073947e-07,9.132342489581993e-07,7.987622116489115e-07,2.1585094409490324e-05
4.847453260612123e-07,9.111001991506705e-07,8.04001245501739e-07,2.1496783934609985e-05
4.875592000659911e-07,9.089096586410736e-07,8.091727362283768e-07,2.1412364920623668e-05
4.90276406538107e-07,9.067044309819349e-07,8.143082721739037e-07,2.1333953936048183e-05
4.929033103216219e-07,9.045199251730913e-07,8.19437581620478e-07,2.1263623450779683e-05
4.954550380673847e-07,9.023799007300512e-07,8.245817363236218e-07,2.1203308346370413e-05
4.97946149299735e-07,9.003009719480389e-07,8.297488526301009e-07,2.115472419050613e-05
5.003860743732342e-07,8.983045518773887e-07,8.349355012019465e-07,2.111931859926133e-05
5.027796900267489e-07,8.964270535554123e-07,8.401318255423452e-07,2.1098281292741785e-05
5.051273155231278e-07,8.947197915898247e-07,8.453248377698352e-07,2.109258403135828e-05
5.074244524389096e-07,8.932395818012353e-07,8.504987737835827e-07,2.1102984652218646e-05
5.096633838506736e-07,8.920371706116259e-07,8.556378523329998e-07,2.112996506090639e-05
5.118349097101284e-07,8.91149980639092e-07,8.607337017995066e-07,2.1173647031705045e-05
5.139289509491149e-07,8.906020906560371e-07,8.657914285088074e-07,2.1233744926182853e-05
5.159347635461769e-07,8.90408413293951e-07,8.708281789751976e-07,2.1309587340946707e-05
5.178409078834737e-07,8.905782225931368e-07,8.758645058746687e-07,2.1400220143031e-05
5.196349916140108e-07,8.911162573398606e-07,8.809140782114834e-07,2.150455617679791e-05
5.213042889160818e-07,8.920211055955595e-07,8.859783863042539e-07,2.1621507769276128e-05
5.228385570732314e-07,8.932819193322514e-07,8.91049529913834e-07,2.175007403320588e-05
5.242336484371154e-07,8.948767499461634e-07,8.961183560827532e-07,2.1889388440340782e-05
5.254914558642945e-07,8.96774089403846e-07,9.011813785464088e-07,2.203873265725955e-05
5.2661577900769e-07,8.989346107757876e-07,9.062414085455485e-07,2.2197512837063093e-05
5.276096482975633e-07,9.013110505868292e-07,9.113025389260212e-07,2.236519665755826e-05
5.28476173958434e-07,9.038486681584408e-07,9.163658039786707e-07,2.254123043379211e-05
5.292193435964204e-07,9.064877093787272e-07,9.21431248349552e-07,2.2724949016348733e-05
5.298435623947829e-07,9.091664563656223e-07,9.265033744356888e-07,2.291548381490311e-05
5.303532437237441e-07,9.118238523229509e-07,9.315928568897413e-07,2.3111719206541242e-05
5.307518254123224e-07,9.144010208367551e-07,9.367151744440107e-07,2.3312321602894072e-05
5.310401764126707e-07,9.168408121080277e-07,9.418922263312031e-07,2.35157800015242e-05
5.31216099643914e-07,9.190866732946647e-07,9.471578995774769e-07,2.372042761282545e-05
5.312748062076377e-07,9.210832534356956e-07,9.525627268021958e-07,2.392448930296607e-05
5.312089660551397e-07,9.227779355014421e-07,9.581725056901085e-07,2.4126180442133192e-05
5.310088173980818e-07,9.241209914217377e-07,9.64058258001931e-07,2.432378742471461e-05
5.306632052030308e-07,9.250652149941013e-07,9.70280861499949e-07,2.4515639353582692e-05
5.301614560128564e-07,9.255683293707385e-07,9.768803145156795e-07,2.470002098821148e-05
5.294970073228663e-07,9.255987592954094e-07,9.8387583527403e-07,2.4875156226822323e-05
5.286725091972783e-07,9.25140274118088e-07,9.912732243752792e-07,2.5039286299167803e-05
5.277017881986452e-07,9.241906391606808e-07,9.990730549322751e-07,2.519078998454567e-05
5.266056405476988e-07,9.227546993581978e-07,1.0072741998628491e-06,2.532832324671759e-05
5.254060949216957e-07,9.208371128803718e-07,1.0158711239910798e-06,2.545093489484921e-05
5.241239589866747e-07,9.184390702158405e-07,1.024851079728918e-06,2.555805895564904e-05
5.227776676439309e-07,9.155591624158508e-07,1.034196366686085e-06,2.5649368140420435e-05
5.213814681586832e-07,9.121955171399158e-07,1.0438883396328677e-06,2.5724613975976207e-05
5.199443057347855e-07,9.083460445166941e-07,1.0539080590538132e-06,2.5783566421161145e-05
5.184697600895207e-07,9.040071182576851e-07,1.0642333972257464e-06,2.5826037147413814e-05
5.169564695245789e-07,8.991732015675623e-07,1.0748358934121278e-06,2.5851906131680225e-05
5.153987734430939e-07,8.938374824230446e-07,1.0856795478848943e-06,2.58611026293166e-05
5.137876277849027e-07,8.879925693211568e-07,1.096721285278149e-06,2.585357884620844e-05
5.121121169387803e-07,8.816316973249039e-07,1.107911972887363e-06,2.5829407843156812e-05
5.103608152506843e-07,8.747499127999916e-07,1.1191976012994138e-06,2.578900391927826e-05
5.085225033608289e-07,8.673439537070084e-07,1.1305204327780678e-06,2.5733222268399536e-05
5.065870174136365e-07,8.594117244358307e-07,1.1418201527775685e-06,2.566321805526183e-05
5.045468066455511e-07,8.509527305871712e-07,1.153039354851867e-06,2.5580222908216746e-05
5.023995947333747e-07,8.419690088342088e-07,1.164135745932355e-06,2.5485394964275838e-05
5.001501721072947e-07,8.324655458621671e-07,1.1750917815483521e-06,2.537981137290037e-05
4.978082157491458e-07,8.224503236780474e-07,1.185911644600006e-06,2.526464668070693e-05
4.953844764731858e-07,8.119353200342717e-07,1.1966080918428771e-06,2.5141423426932943e-05
4.928898656725782e-07,8.00939472488963e-07,1.207189227390972e-06,2.5012094523494518e-05
4.903373179965228e-07,7.89492844640964e-07,1.2176509310059769e-06,2.487890853585752e-05
4.877434527912958e-07,7.776385939228593e-07,1.2279748159546982e-06,2.474422076279881e-05
4.851277344223331e-07,7.654299318456096e-07,1.2381306519386611e-06,2.4610354004672283e-05
4.825091069028893e-07,7.529244118282211e-07,1.24808024136008e-06,2.447949610439416e-05
4.799025188444024e-07,7.401792935316636e-07,1.2577790592024237e-06,2.435361914872901e-05
4.77317511799421e-07,7.272487875197853e-07,1.2671761563898279e-06,2.423443656153816e-05
4.7475897651430405e-07,7.141824658296315e-07,1.2762151221177905e-06,2.412339785734092e-05
4.7222925389472104e-07,7.010239907670129e-07,1.2848366772728091e-06,2.4021691239187867e-05
4.6972998278447903e-07,6.878106368063993e-07,1.2929805334388348e-06,2.393022665668248e-05
4.6726224120569316e-07,6.745749504348011e-07,1.3005847901269107e-06,2.3849598461369465e-05
4.6482664447818955e-07,6.613480736528163e-07,1.3075849259307751e-06,2.3780045855977648e-05
4.624265985223996e-07,6.481625698992918e-07,1.3139147518708486e-06,2.3721431154631426e-05
4.6007279136633167e-07,6.350530328330876e-07,1.3195080818499658e-06,2.367326868003559e-05
4.5778279809901974e-07,6.220542715010866e-07,1.3242995953853008e-06,2.363482495340665e-05
4.555763286117834e-07,6.091989024684954e-07,1.3282264580776292e-06,2.3605259507173832e-05
4.5347190411164256e-07,5.965175254386234e-07,1.3312319180188937e-06,2.358376003175039e-05
4.5148617149169215e-07,5.840413490453547e-07,1.3332684809180908e-06,2.35696443379327e-05
4.4963601890837153e-07,5.718024979936645e-07,1.334298704414187e-06,2.3562421633876934e-05
4.479438805799776e-07,5.59830413588037e-07,1.3342945068108416e-06,2.3561816626892465e-05
4.4644164559773284e-07,5.481485463045567e-07,1.3332354265957758e-06,2.356774661359124e-05
4.45168423799421e-07,5.367739649700656e-07,1.331108022883502e-06,2.3580246464105165e-05
4.4416318013770397e-07,5.257189756686507e-07,1.3279094273047165e-06,2.3599367201932573e-05
4.434575298100073e-07,5.149943326799989e-07,1.3236510594989875e-06,2.3625067935302608e-05
4.4307274229395606e-07,5.046140675509074e-07,1.318357082450155e-06,2.365711999756612e-05
4.430200924206184e-07,4.945999562315164e-07,1.3120599064971217e-06,2.3695089446301324e-05
4.433023616245145e-07,4.849824740649115e-07,1.304797133177183e-06,2.373841321153692e-05
4.439167303542176e-07,4.7579699530522776e-07,1.2966101209912262e-06,2.378646642993579e-05
4.448591066602952e-07,4.670778966573179e-07,1.2875424244598594e-06,2.38385676834198e-05
4.4612656601203043e-07,4.5885523237739027e-07,1.2776370360788521e-06,2.3893985268380327e-05
4.4771513365566424e-07,4.511555303182602e-07,1.266933009629511e-06,2.3951980991038752e-05
4.4961571937747643e-07,4.4400402570338134e-07,1.2554639948429605e-06,2.401183019662864e-05
4.518122752577158e-07,4.374253207444018e-07,1.2432614650920169e-06,2.407276052132817e-05
4.5428233613780487e-07,4.3144273966895903e-07,1.2303613279149958e-06,2.4133884300429057e-05
4.5700045855473606e-07,4.2607781740188996e-07,1.2168070072511898e-06,2.419426183530181e-05
4.59946517278004e-07,4.2134922719379076e-07,1.2026459432948884e-06,2.4253083393006445e-05
4.631144199585633e-07,4.172714251482206e-07,1.1879264351974372e-06,2.4309802414008445e-05
4.665134119827237e-07,4.1385400370076257e-07,1.1727009816533524e-06,2.4364124672592002e-05
4.701617922097608e-07,4.111015984456008e-07,1.1570327098666687e-06,2.4415912253000383e-05
4.740782026707551e-07,4.0901533173484295e-07,1.1409979185326906e-06,2.4465082536491964e-05
4.782745893179785e-07,4.0759543164559117e-07,1.124682887566358e-06,2.4511522793325296e-05
4.82753332589827e-07,4.068425561352242e-07,1.1081792428332698e-06,2.455501654585398e-05
4.875078751573912e-07,4.06757705567046e-07,1.0915830114064172e-06,2.4595212639109328e-05
4.925236199213381e-07,4.073424341118781e-07,1.074997183209609e-06,2.463165980297601e-05
4.977784731433484e-07,4.085996619100211e-07,1.058532339086697e-06,2.4663857488773656e-05
5.032453775664985e-07,4.10534100174961e-07,1.0423013582261116e-06,2.4691276794159853e-05
5.088962428286068e-07,4.131510561602621e-07,1.026410079886914e-06,2.471336848197308e-05
5.147036694932281e-07,4.164525801169248e-07,1.0109501130341756e-06,2.4729628058098306e-05
5.206398241948611e-07,4.2043244719929144e-07,9.959976171903959e-07,2.473974482801481e-05
5.266746806561229e-07,4.2507388340215953e-07,9.816154431584818e-07,2.474367780971633e-05
5.327750719575154e-07,4.303510973125634e-07,9.678551787791559e-07,2.4741556773607056e-05
5.389051188023646e-07,4.3623181753982507e-07,9.54759185429323e-07,2.473362837665e-05
5.450272391465693e-07,4.426783648807489e-07,9.423630113141693e-07,2.472037233004e-05
5.511019723536204e-07,4.496480263240094e-07,9.30696306753932e-07,2.4702568963406752e-05
5.570870539273859e-07,4.570959130523915e-07,9.197808627978632e-07,2.468120827427589e-05
5.629374306259603e-07,4.649794411021171e-07,9.096277830700304e-07,2.465735752924592e-05
5.686063255789834e-07,4.7325898214255417e-07,9.002364855853355e-07,2.46320556662186e-05
5.740477577452058e-07,4.818944560017796e-07,8.915953423534898e-07,2.460623123056713e-05
5.792214202536108e-07,4.908425920013442e-07,8.836826542562112e-07,2.458063496348457e-05
5.840970680470459e-07,5.000568496738953e-07,8.764676872847303e-07,2.4555776392517603e-05
5.88654079046724e-07,5.094895953706703e-07,8.699117796872593e-07,2.453187007630641e-05
5.928773796489013e-07,5.190956501060622e-07,8.639711721821219e-07,2.4508814754411554e-05
5.967540404477969e-07,5.288369143566282e-07,8.586031468214699e-07,2.448621509365061e-05
6.002713912268179e-07,5.386872645897737e-07,8.537712539901709e-07,2.4463424402825464e-05
6.034160663496792e-07,5.486342680786278e-07,8.49444084965369e-07,2.443958413879563e-05
6.061747569089041e-07,5.586756855942855e-07,8.455897772712706e-07,2.4413661125142653e-05
6.08535513713352e-07,5.688125624436255e-07,8.421726215033893e-07,2.4384500165638635e-05
6.104875585442604e-07,5.790418831229935e-07,8.391528203660741e-07,2.435090427855242e-05
6.120205546024313e-07,5.893520489726354e-07,8.364864337153898e-07,2.431172684751968e-05
6.131249351232735e-07,5.997242937936296e-07,8.341251154212694e-07,2.426592755852636e-05
6.137927432897153e-07,6.101403176946226e-07,8.320161783081177e-07,2.421256830249107e-05
6.140176927367235e-07,6.205900600232716e-07,8.301028455087242e-07,2.415079144280269e-05
6.137947772171867e-07,6.31071175129305e-07,8.283257582928647e-07,2.4079820029515687e-05
6.131207318594313e-07,6.415810253926623e-07,8.266255959247719e-07,2.3998965638628296e-05
6.119956729019109e-07,6.521111727280954e-07,8.249444760496528e-07,2.390763313322843e-05
6.104252736368925e-07,6.626492402613863e-07,8.232256208597275e-07,2.380534365635973e-05
6.084216402363961e-07,6.731824686386015e-07,8.214136233688906e-07,2.369176904128204e-05
6.060012769285369e-07,6.83696972399743e-07,8.194560141430441e-07,2.3566730974834008e-05
6.03182034984492e-07,6.941744909424819e-07,8.173042263565265e-07,2.3430146341680162e-05
5.999833067982018e-07,7.04592214731446e-07,8.149140190093356e-07,2.328195784910996e-05
5.964292887038958e-07,7.149257037232141e-07,8.122471207219771e-07,2.312212581156736e-05
5.92549763513014e-07,7.251490989701896e-07,8.092735334546566e-07,2.295072366495583e-05
5.883773579129258e-07,7.35232303187218e-07,8.059723801437049e-07,2.276805402581308e-05
5.83945636508413e-07,7.451407059548261e-07,8.023320211407922e-07,2.2574642760829365e-05
5.792891364898336e-07,7.548373711194196e-07,7.983518103137006e-07,2.23711027941957e-05
5.744436137547628e-07,7.642840868443124e-07,7.940431364992643e-07,2.2158006454512675e-05
5.694458098868485e-07,7.73443165745618e-07,7.894262569204202e-07,2.193586695982815e-05
5.643327438800082e-07,7.82282685751752e-07,7.845254754712962e-07,2.1705213418533588e-05
5.591407330386005e-07,7.9078172752998e-07,7.793658272477723e-07,2.146667622635755e-05
5.539049833046447e-07,7.9893147988871e-07,7.739701846062113e-07,2.1220988987722893e-05
5.486600693622258e-07,8.067336968910032e-07,7.683567947131116e-07,2.096890393083744e-05
5.434399337881706e-07,8.141980796527028e-07,7.625393939804917e-07,2.0711104412337546e-05
5.382771614935622e-07,8.213373541903763e-07,7.565288793491502e-07,2.0448174642545005e-05
5.332041780323665e-07,8.281629476172781e-07,7.503337717242792e-07,2.018066421309117e-05
5.282563503348029e-07,8.346863678528296e-07,7.439599943417726e-07,1.9909247925263112e-05
5.23472516436203e-07,8.409264775065207e-07,7.374119470680495e-07,1.963487213582604e-05
5.188931588179093e-07,8.469182207594489e-07,7.306940074766103e-07,1.9358762877460093e-05
5.145597630131552e-07,8.527158401035499e-07,7.238118113492063e-07,1.9082287197482628e-05
5.105133329030487e-07,8.583859849566888e-07,7.167758648807225e-07,1.8806750575214983e-05
5.067906405906023e-07,8.639942854031934e-07,7.096064788936526e-07,1.8533240396013246e-05
5.034214207287692e-07,8.695947537894506e-07,7.023357453519268e-07,1.8262583596977512e-05
5.004273985401065e-07,8.752264834540512e-07,6.950064673752792e-07,1.7995397499697918e-05
4.978219212268397e-07,8.80913399348111e-07,6.876686535793184e-07,1.7732198755311135e-05
4.956108500908265e-07,8.866639017137033e-07,6.803731694620004e-07,1.7473593192415436e-05
4.937946422245047e-07,8.924717037194071e-07,6.731654604972521e-07,1.722051562459151e-05
4.92369302637123e-07,8.983184724190209e-07,6.660828596052077e-07,1.6974335443853657e-05
4.913255255236783e-07,9.041768934329144e-07,6.591559075857179e-07,1.6736721243934866e-05
4.906479518253783e-07,9.100124742914488e-07,6.524121102270106e-07,1.650941279284349e-05
4.903160257196779e-07,9.157853109884228e-07,6.458798843870861e-07,1.6294042556592148e-05
4.903060542086697e-07,9.214535708276915e-07,6.395898823872043e-07,1.6092031104236358e-05
4.905938908911475e-07,9.269764293682579e-07,6.335728900699688e-07,1.5904663722184173e-05
4.911574965452932e-07,9.323138812499719e-07,6.278568705715914e-07,1.573337314544891e-05
4.919774391416192e-07,9.374253525711071e-07,6.224649629750875e-07,1.5579963446014247e-05
4.930350926474779e-07,9.422710842606505e-07,6.174149494031607e-07,1.5446584764020335e-05
4.943101478018237e-07,9.468146409696915e-07,6.127219198105637e-07,1.533556189457326e-05
4.9577837383427e-07,9.510215131739815e-07,6.08404857270198e-07,1.5249201878190774e-05
4.974106977178438e-07,9.548554845407823e-07,6.044936400474882e-07,1.5189611015313794e-05
4.991741912416039e-07,9.582774928006478e-07,6.010316142744639e-07,1.5158549757919965e-05
5.010334926531793e-07,9.612471343282042e-07,5.980731846264927e-07,1.5157361681582034e-05
5.029516088256429e-07,9.63725148173161e-07,5.956787039160396e-07,1.5186969892878586e-05
5.048910561600692e-07,9.656766809949768e-07,5.939088538460414e-07,1.5247891909086566e-05
5.068152849019493e-07,9.670758653775864e-07,5.928200781333187e-07,1.5340238378627647e-05
5.086903201247807e-07,9.67910447412465e-07,5.924600859048751e-07,1.5463692664555234e-05
5.104893499403879e-07,9.681830817032104e-07,5.928630417012922e-07,1.561748238389943e-05
5.121993414654947e-07,9.679076030597031e-07,5.940472188329469e-07,1.5800368845664828e-05
5.138223396112738e-07,9.671021339349802e-07,5.960162136109074e-07,1.6010689504934916e-05
5.153688161781887e-07,9.657829134350532e-07,5.987613972004839e-07,1.62464638476853e-05
5.168495409937332e-07,9.639622100144435e-07,6.022642375152973e-07,1.6505532659240123e-05
5.182709563257488e-07,9.616500917033475e-07,6.065007983410275e-07,1.6785690417684788e-05
5.196336080309194e-07,9.58856669843616e-07,6.114486504766071e-07,1.7084783224441267e-05
5.209331533665779e-07,9.555922609380082e-07,6.170897776651646e-07,1.7400760345055234e-05
5.221626595932396e-07,9.518656560807613e-07,6.234062505556183e-07,1.7731680630677575e-05
5.233134786433852e-07,9.476824639510815e-07,6.303744133992182e-07,1.8075680070412208e-05
5.243746072791415e-07,9.43044803933902e-07,6.379623230956882e-07,1.843091334827914e-05
5.253326918598743e-07,9.379515999166704e-07,6.46129417878654e-07,1.879549358307612e-05
5.261734130890837e-07,9.323996045110512e-07,6.548266300662e-07,1.9167447857202897e-05
5.268824272522135e-07,9.263876033330432e-07,6.639969830545347e-07,1.9544691268831586e-05
5.274445973838275e-07,9.199240123936027e-07,6.735777716499463e-07,1.992503997260408e-05
5.278431302840456e-07,9.130336649718136e-07,6.835036073154474e-07,2.0306267404917885e-05
5.280607195970386e-07,9.057607610544658e-07,6.93707190420152e-07,2.068614467888548e-05
5.280828972770251e-07,8.98168571132748e-07,7.041174784358331e-07,2.106243251071275e-05
5.279012119823114e-07,8.903352492941108e-07,7.146586878870852e-07,2.1432871577232266e-05
5.275136023011127e-07,8.82344401493302e-07,7.252517443231196e-07,2.1795219960076107e-05
5.269241615789875e-07,8.742736593054333e-07,7.358164720454659e-07,2.214731287721649e-05
5.261449893887495e-07,8.661877563682068e-07,7.462731587107319e-07,2.248707475591785e-05
5.251973571268132e-07,8.581404285149162e-07,7.565446806082349e-07,2.2812483570175948e-05
5.241112297617678e-07,8.501839016990173e-07,7.665600057795725e-07,2.3121556381563306e-05
5.229242088187139e-07,8.423779906122394e-07,7.762564881454165e-07,2.341239637723468e-05
5.216768806599334e-07,8.347903050129794e-07,7.855789667632759e-07,2.368329536027074e-05
5.204062627763879e-07,8.274879685285582e-07,7.944778712916195e-07,2.393285971914412e-05
5.191447657052047e-07,8.205278912779735e-07,8.029083989402761e-07,2.4160110673993915e-05
5.179231672658771e-07,8.139512752267451e-07,8.108298048976829e-07,2.4364490948013826e-05
5.167704674003503e-07,8.077844977761401e-07,8.182042165684331e-07,2.4545744491115562e-05
5.157121296086913e-07,8.020437962866706e-07,8.24996310010992e-07,2.470374601658244e-05
5.14771024221456e-07,7.96737959008393e-07,8.311742853782655e-07,2.4838394233715536e-05
5.139683146256323e-07,7.918682931579791e-07,8.367108257307916e-07,2.494958773377708e-05
5.133224136279217e-07,7.874302326875987e-07,8.415834033456659e-07,2.503723820538374e-05
5.12849857979321e-07,7.834165551257095e-07,8.4577404340354e-07,2.510130962582145e-05
5.125681943225642e-07,7.798187552727892e-07,8.492687354401244e-07,2.514186593690743e-05
5.124966979115636e-07,7.766259491694654e-07,8.520569084837935e-07,2.515912030284479e-05
5.126550738233171e-07,7.738222764942931e-07,8.54130939701426e-07,2.515356052012369e-05
5.130629213273323e-07,7.713843169656926e-07,8.554863118373226e-07,2.5126099649628257e-05
5.137410396685878e-07,7.692814918386228e-07,8.561221322818807e-07,2.5078049374056634e-05
5.14714835595386e-07,7.674814864905711e-07,8.560401944369055e-07,2.501091923179016e-05
5.160170103451195e-07,7.659585679281717e-07,8.552433222165258e-07,2.4926223420218813e-05
5.176850547789978e-07,7.646990081772466e-07,8.537345410105942e-07,2.48253938307198e-05
5.197548281263852e-07,7.636992513788771e-07,8.515169331078274e-07,2.4709868903823943e-05
5.222557639418232e-07,7.629593391746794e-07,8.485949588015013e-07,2.458135658912795e-05
5.252108253704743e-07,7.62480102541722e-07,8.449783614588894e-07,2.4442043824335715e-05
5.286404996894901e-07,7.622683208955918e-07,8.406863284861594e-07,2.429454766093611e-05
5.32567229975934e-07,7.623420704509783e-07,8.35746731384374e-07,2.414169043540752e-05
5.370154723969273e-07,7.627265963946965e-07,8.301911633137309e-07,2.398627590893588e-05
5.420065760881542e-07,7.634435591199721e-07,8.24055348042899e-07,2.3830931496852373e-05
5.47553643142159e-07,7.645039472979957e-07,8.1738815915579e-07,2.3678008939806465e-05
5.536592553028407e-07,7.659075746122798e-07,8.102572947236438e-07,2.352951919719812e-05
5.603143524533454e-07,7.67645870618108e-07,8.027422114360596e-07,2.338709359339195e-05
5.674985030192765e-07,7.697058303311611e-07,7.949228056653893e-07,2.3251986732769777e-05
5.751816069773373e-07,7.72072005301967e-07,7.868766249573643e-07,2.3125109183850054e-05
5.83325080808804e-07,7.747249328807488e-07,7.786837105571139e-07,2.3007041731285574e-05
5.918834771503678e-07,7.776403198880282e-07,7.704292296545941e-07,2.2898023153848928e-05
6.008077329562011e-07,7.807930474958456e-07,7.621989947249431e-07,2.279796727575856e-05
6.100473820235667e-07,7.841644181355272e-07,7.540720591883968e-07,2.270653545829247e-05
6.195505223195831e-07,7.877474048918769e-07,7.461169738205274e-07,2.262323650715816e-05
6.292637457264013e-07,7.915448077159375e-07,7.383915853175779e-07,2.254753869177016e-05
6.39132470031959e-07,7.955602104989242e-07,7.309432131890536e-07,2.247896908119336e-05
6.491017271452932e-07,7.997884564472404e-07,7.238118974751389e-07,2.2417151322765752e-05
6.591178096445611e-07,8.042126995297858e-07,7.170375620021795e-07,2.2361790405073127e-05
6.69128154148978e-07,8.088091208761988e-07,7.106645068998794e-07,2.2312659326275453e-05
6.790791652632484e-07,8.13554871342705e-07,7.04741490483813e-07,2.2269583108948733e-05
6.889165535501348e-07,8.184339186473527e-07,6.993226069003943e-07,2.223237984608097e-05
6.985895929092422e-07,8.234392697165387e-07,6.94469811973561e-07,2.220078265411125e-05
7.080546522074875e-07,8.285715811078067e-07,6.902514393280701e-07,2.21743862765732e-05
7.172736920332574e-07,8.338328849534454e-07,6.867331971750019e-07,2.2152626810501067e-05
7.26209751599592e-07,8.392179491412518e-07,6.839676338927497e-07,2.2134824087499567e-05
7.348254510948822e-07,8.447095255299252e-07,6.819905857343557e-07,2.212028921450873e-05
7.430853888896799e-07,8.502787438766749e-07,6.80823448546601e-07,2.210840487119275e-05
7.509578860135345e-07,8.558876304703176e-07,6.804751589739658e-07,2.209862881055308e-05
7.584161096365978e-07,8.614933756652104e-07,6.809441523046382e-07,2.2090485897898245e-05
7.654411307561305e-07,8.670531701347677e-07,6.822233981238205e-07,2.2083596530307544e-05
7.720234778330698e-07,8.725253801108038e-07,6.843054494569087e-07,2.2077704899608196e-05
7.781595841487926e-07,8.778680026879427e-07,6.871817677648338e-07,2.2072634976856368e-05
7.838463991776352e-07,8.830411192903396e-07,6.908388306588214e-07,2.2068156826897005e-05
7.890797224564678e-07,8.88013933218222e-07,6.952582936530272e-07,2.2063868665556792e-05
7.93856158347913e-07,8.927674794413715e-07,7.004195739428442e-07,2.205923189051916e-05
7.981735886931428e-07,8.972889520829109e-07,7.062991365669376e-07,2.2053766688135613e-05
8.020292363112667e-07,9.015661991823757e-07,7.128683499658356e-07,2.204725719020945e-05
8.054180593445261e-07,9.055888319248555e-07,7.200933707182826e-07,2.203980986076756e-05
8.083317144210798e-07,9.093514827506113e-07,7.279359314566573e-07,2.203177060398124e-05
8.107581009314777e-07,9.128540347090046e-07,7.363538363084484e-07,2.2023598619983623e-05
8.126824800344836e-07,9.160983166000375e-07,7.453008880209294e-07,2.201573264869128e-05
8.140904391825305e-07,9.190834546925795e-07,7.547254806963666e-07,2.2008462461992505e-05
8.149708749722775e-07,9.218026621237824e-07,7.645691754273273e-07,2.2001867262280045e-05
8.153163624046449e-07,9.242423915422765e-07,7.747676010680192e-07,2.1995842514051277e-05
8.151226367144798e-07,9.263834711115679e-07,7.852543868677289e-07,2.1990147477709093e-05
8.143893993335973e-07,9.28202705503587e-07,7.95968031712475e-07,2.198442018724033e-05
8.131202443027743e-07,9.296735191534293e-07,8.068590938520754e-07,2.1978217232645706e-05
8.113211669898465e-07,9.307668024010995e-07,8.178922606696631e-07,2.1971198165045486e-05
8.089993994095819e-07,9.31453814257096e-07,8.29040160561569e-07,2.196339004867637e-05
8.061624027043312e-07,9.317098379465848e-07,8.402729208979451e-07,2.1955270972157367e-05
8.028172042104529e-07,9.315151374799246e-07,8.515527802779478e-07,2.1947598116457954e-05
7.989708845091155e-07,9.308539305091235e-07,8.628383892178983e-07,2.1941193514263572e-05
7.946312883988504e-07,9.297139325901396e-07,8.740923560554975e-07,2.1936916462213005e-05
7.898080934916105e-07,9.280848856562323e-07,8.852821969477516e-07,2.1935793424631256e-05
7.845153836135037e-07,9.259571362553612e-07,8.963741613884138e-07,2.1939061680161546e-05
7.787728946725115e-07,9.233247213653886e-07,9.073276717041521e-07,2.194805992541881e-05
7.72603749618857e-07,9.20189194712878e-07,9.180949190102335e-07,2.196410470055824e-05
7.660322380939962e-07,9.165572008442773e-07,9.286240483015531e-07,2.1988406575567664e-05
7.590836793234309e-07,9.124356537283037e-07,9.388633825745632e-07,2.202199742516318e-05
7.517845411275018e-07,9.078322250219977e-07,9.48765776285244e-07,2.2065662774429807e-05
7.441620436754553e-07,9.027599467585228e-07,9.58292466297014e-07,2.2119889005805982e-05
7.362451427134494e-07,8.972391884404507e-07,9.674142411115203e-07,2.2184831449371493e-05
7.280686552009485e-07,8.912943747990084e-07,9.761078213171655e-07,2.2260304722094187e-05
7.19676469673856e-07,8.849497868426655e-07,9.843502689256665e-07,2.2345805399481032e-05
7.111195258460527e-07,8.78229211519848e-07,9.921176403155994e-07,2.2440575851570386e-05
7.024522253834895e-07,8.711596933720871e-07,9.99389584789404e-07,2.2543671617100825e-05
6.937302559995238e-07,8.637772654376517e-07,1.0061569405616837e-06,2.2653972601620208e-05
6.850083110654678e-07,8.561323047000497e-07,1.0124288594599196e-06,2.2770155143628312e-05
6.763386306337167e-07,8.482930031122228e-07,1.0182354712728165e-06,2.289070998139664e-05
6.677707153218912e-07,8.403445017985406e-07,1.0236234703744123e-06,2.301403653390645e-05
6.593497394987865e-07,8.323807029925023e-07,1.0286463229674852e-06,2.3138550048317404e-05
6.511145257024787e-07,8.24493234119403e-07,1.033353639350435e-06,2.326273873387637e-05
6.430977872391717e-07,8.167668577566814e-07,1.037784756579968e-06,2.338518162341076e-05
6.353271991320189e-07,8.092814099655455e-07,1.0419702277364814e-06,2.350456880494288e-05
6.278245209418542e-07,8.021134899826154e-07,1.0459384598624687e-06,2.3619733723643924e-05
6.206036725470018e-07,7.953363875982541e-07,1.0497196969112664e-06,2.372967813641369e-05
6.136706188276186e-07,7.890187730866776e-07,1.0533450927895122e-06,2.3833570519066225e-05
6.070266166199425e-07,7.832204604603944e-07,1.0568438448577056e-06,2.3930710338782105e-05
6.006740199547886e-07,7.779879503590661e-07,1.060239344855923e-06,2.4020461097702264e-05
5.94620632712135e-07,7.733543975812172e-07,1.063544957905566e-06,2.4102181136338558e-05
5.88878253915268e-07,7.693422871290883e-07,1.0667612829939437e-06,2.4175219701466785e-05
5.834578482936627e-07,7.659646996100471e-07,1.0698758029171889e-06,2.423899910275511e-05
5.783679225922145e-07,7.632259920020648e-07,1.0728644041350666e-06,2.429309458482536e-05
5.736160085228487e-07,7.611252250941811e-07,1.0756940822544875e-06,2.433724172931055e-05
5.692091429682839e-07,7.596615488365758e-07,1.0783263114797156e-06,2.4371284794972576e-05
5.651527686826216e-07,7.58836945454348e-07,1.0807191140031143e-06,2.4395084715535164e-05
5.6144926697002e-07,7.586532523629891e-07,1.082826813676741e-06,2.440844211363116e-05
5.580976802157186e-07,7.591058270013973e-07,1.0845997859439351e-06,2.4411115476477224e-05
5.550941871517957e-07,7.601800179457119e-07,1.0859863553686984e-06,2.4402888450984197e-05
5.524312996061257e-07,7.618532683591787e-07,1.0869371059581414e-06,2.438357357837244e-05
5.50098062449171e-07,7.640989269104206e-07,1.0874098275573908e-06,2.4352956542776244e-05
5.480831859115004e-07,7.668866741727773e-07,1.0873710294413313e-06,2.4310760512564192e-05
5.463766386725762e-07,7.701812867283559e-07,1.0867926466632187e-06,2.425668449836742e-05
5.449670941075308e-07,7.739442005981218e-07,1.0856493074817505e-06,2.419053010449648e-05
5.438391766364668e-07,7.781351344876148e-07,1.0839202166426494e-06,2.411234807122397e-05
5.42973389629996e-07,7.827101222220428e-07,1.0815907553909048e-06,2.4022485476472792e-05
5.423479839598004e-07,7.876195561776398e-07,1.0786505053102056e-06,2.3921504812591533e-05
5.41941908916471e-07,7.928085448925451e-07,1.0750922311474908e-06,2.3810037766066635e-05
5.417371011247174e-07,7.982174170215084e-07,1.070912811626025e-06,2.3688637600992024e-05
5.417181204432191e-07,8.037832426932945e-07,1.0661129088609093e-06,2.355768850174709e-05
5.41870481641419e-07,8.09443387533651e-07,1.060695774271258e-06,2.3417396423635407e-05
5.421810072206128e-07,8.151381535890738e-07,1.054666425675044e-06,2.3267837338448886e-05
5.42640139208595e-07,8.208113677849741e-07,1.048031537738157e-06,2.310908051842049e-05
5.432428566093751e-07,8.264101650214081e-07,1.04080215528041e-06,2.294142342769257e-05
5.439877865722675e-07,8.318840102403609e-07,1.0329995915056558e-06,2.276561715928927e-05
5.448761615576225e-07,8.371832761544983e-07,1.024658632313593e-06,2.258287517944101e-05
5.459095190949478e-07,8.422582115965678e-07,1.0158223284594e-06,2.2394667100741447e-05
5.470856388496061e-07,8.47058685717987e-07,1.0065324582304269e-06,2.220247756235044e-05
5.483959858037579e-07,8.515350610723444e-07,9.968248281411148e-07,2.200765654039206e-05
5.498282620702486e-07,8.556400967383625e-07,9.867315810980986e-07,2.18114467493917e-05
5.513741346938316e-07,8.593311004921872e-07,9.762844574137442e-07,2.1615217175611647e-05
5.530372947555264e-07,8.625707361094666e-07,9.65514304410287e-07,2.1420710729376307e-05
5.548354580746779e-07,8.653258178081604e-07,9.54448628661403e-07,2.1230071363700826e-05
5.567947283224283e-07,8.675659771143798e-07,9.431101386626827e-07,2.104569703339989e-05
5.589402208111344e-07,8.692639369277269e-07,9.315174303724884e-07,2.0870094240485826e-05
5.612886370199857e-07,8.703968933503841e-07,9.196883992073023e-07,2.070575929385118e-05
5.638470179033991e-07,8.709471993660973e-07,9.076438660614151e-07,2.0555034672512852e-05
5.666173125651086e-07,8.709014875623604e-07,8.954072999099289e-07,2.0419958448371066e-05
5.696019092435596e-07,8.702496964433027e-07,8.830018170643066e-07,2.030216901186389e-05
5.728049409618836e-07,8.689845175801882e-07,8.704501666607277e-07,2.02028907782612e-05
5.762297833097517e-07,8.671007722041118e-07,8.577806105891206e-07,2.0122964627302835e-05
5.798779085677911e-07,8.645965650806341e-07,8.450349613432233e-07,2.006286100225056e-05
5.837499051257656e-07,8.614753606817595e-07,8.32271369747764e-07,2.0022656920145186e-05
5.878450608684754e-07,8.57745304490857e-07,8.195595630058071e-07,2.0002025287686705e-05
5.921592283766612e-07,8.534175970318851e-07,8.06974348425942e-07,2.0000287747909947e-05
5.966846248633639e-07,8.485066625734652e-07,7.945917242209993e-07,2.0016526640334325e-05
6.014141803828046e-07,8.43029437872218e-07,7.824861532492297e-07,2.0049708269464014e-05
6.063487912005601e-07,8.370032222640545e-07,7.707292211178323e-07,2.009876890015369e-05
6.115030502349244e-07,8.304456258258473e-07,7.593911239740797e-07,2.0162646031551413e-05
6.169049070933601e-07,8.233760507129244e-07,7.48540911542165e-07,2.0240283617630327e-05
6.225878630366422e-07,8.158151071730532e-07,7.382412392638731e-07,2.033065954062284e-05
6.285804571800399e-07,8.077827387200418e-07,7.285413873739212e-07,2.0432824045688e-05
6.348999960475496e-07,7.992981200310596e-07,7.194747899474813e-07,2.054588422337482e-05
6.415518193006521e-07,7.903821384340516e-07,7.110618954965585e-07,2.0668934837925355e-05
6.485298161571332e-07,7.810625926089181e-07,7.033154923864193e-07,2.0800987184691808e-05
6.558170478709948e-07,7.713790834474793e-07,6.962458567064742e-07,2.0940907451526332e-05
6.633890087530466e-07,7.613816774317162e-07,6.898643634163601e-07,2.108739145381928e-05
6.712182107856997e-07,7.511243535672854e-07,6.841850248968571e-07,2.1239019170453353e-05
6.792768407159129e-07,7.406597175333926e-07,6.792237333232065e-07,2.1394332991597494e-05
6.875366260770457e-07,7.300372570914909e-07,6.749955677075865e-07,2.1551853614797155e-05
6.959664837869529e-07,7.193036288182974e-07,6.715113244393116e-07,2.1710064118875547e-05
7.045302547052663e-07,7.085033015371727e-07,6.687747340871147e-07,2.186743435533768e-05
7.131864973247149e-07,6.976786015061656e-07,6.667811120304809e-07,2.2022466726135862e-05
7.218899691254487e-07,6.868699281690936e-07,6.655187475878075e-07,2.217371597985273e-05
7.305942427543353e-07,6.761187031206703e-07,6.649745666978802e-07,2.2319826263690186e-05
7.392541932366377e-07,6.654731629359409e-07,6.651405179242915e-07,2.245961189268422e-05
7.478272044562659e-07,6.549911443019918e-07,6.660134164570709e-07,2.2592100201213778e-05
7.562750237387106e-07,6.447355071440174e-07,6.675877910884298e-07,2.2716508186794008e-05
7.645659858920326e-07,6.347673101421184e-07,6.698507183045942e-07,2.2832197950700737e-05
7.726736278822655e-07,6.251463821524425e-07,6.727843115583616e-07,2.293861100435665e-05
7.805723942200418e-07,6.159420012070096e-07,6.763705057567529e-07,2.303518030921253e-05
7.882344225836885e-07,6.072444521775001e-07,6.805916628105467e-07,2.3121266511963253e-05
7.956282781952684e-07,5.991671272364895e-07,6.854268577041236e-07,2.3196166527859627e-05
8.027194666740638e-07,5.9183784882891e-07,6.908475008373208e-07,2.3259194078394142e-05
8.09473446134338e-07,5.853840411882196e-07,6.968170629495521e-07,2.3309771356511986e-05
8.158594406040565e-07,5.799225815329814e-07,7.032966897692532e-07,2.3347470402176598e-05
8.218511975736352e-07,5.755628198146465e-07,7.102524198658698e-07,2.337200820205835e-05
8.274249192250149e-07,5.724140417175739e-07,7.17657256139389e-07,2.3383216843111334e-05
8.325577592468123e-07,5.705851347316072e-07,7.254857968615508e-07,2.3381000182293564e-05
8.372270422627812e-07,5.701762529703061e-07,7.337071583788073e-07,2.3365335644665508e-05
8.414090755548417e-07,5.71267016874996e-07,7.422845028693097e-07,2.3336321468278658e-05
8.450793293969575e-07,5.739071533387087e-07,7.511810895089134e-07,2.3294164461500995e-05
8.482153118394031e-07,5.78114786820669e-07,7.6036419582942e-07,2.3239096016197572e-05
8.507989312168959e-07,5.838805113467943e-07,7.698020335841158e-07,2.3171297113712216e-05
8.52815019649182e-07,5.911724833342973e-07,7.794573689488716e-07,2.309086569556104e-05
8.542481787600146e-07,5.999407070648042e-07,7.892840486021259e-07,2.2997832028260112e-05
8.550822699326158e-07,6.101208193544161e-07,7.992291489616226e-07,2.289220621073728e-05
8.55303419999833e-07,6.216383514807121e-07,8.092373237996414e-07,2.2774006617020292e-05
8.549036037967105e-07,6.344136239704057e-07,8.192533424216185e-07,2.264324954959091e-05
8.538814416162313e-07,6.483652506078487e-07,8.292258125844192e-07,2.249992799746876e-05
8.522401157055576e-07,6.634088272460658e-07,8.391153951403431e-07,2.2344003013553093e-05
8.499852229102463e-07,6.794518124483391e-07,8.489018714460825e-07,2.21754074393644e-05
8.471245666020731e-07,6.963915596023196e-07,8.58583082640273e-07,2.199405217558846e-05
8.436688504903981e-07,7.141189284174515e-07,8.68167084435734e-07,2.1799833285534008e-05
8.39631603636353e-07,7.325230256613715e-07,8.776628700044615e-07,2.1592654602265547e-05
8.350290365567101e-07,7.51494678985559e-07,8.870727667983965e-07,2.1372485387458828e-05
8.298798649033115e-07,7.709281079038464e-07,8.963884392060781e-07,2.113943210443269e-05
8.242035549295521e-07,7.907204574393381e-07,9.055916861694656e-07,2.089375712429521e-05
8.180182347732644e-07,8.107722943296623e-07,9.146573890905641e-07,2.0635829870134056e-05
8.113404773901084e-07,8.309904141026528e-07,9.235547325780468e-07,2.036607534526644e-05
8.041860910003019e-07,8.512883337612873e-07,9.322469671025448e-07,2.0084958733444487e-05
7.965704770806477e-07,8.71581802957262e-07,9.406918098987837e-07,1.979299319118396e-05
7.885093881001341e-07,8.917842403539831e-07,9.488427870783657e-07,1.9490755237896813e-05
7.800212154208455e-07,9.118081811726072e-07,9.566503679287843e-07,1.91788931651042e-05
7.711292090532703e-07,9.315712463859682e-07,9.640630859319658e-07,1.8858115637604027e-05
7.618612466246722e-07,9.509997872278406e-07,9.71031689459933e-07,1.8529160150827626e-05
7.522480581683623e-07,9.700275683392544e-07,9.77516820067851e-07,1.8192757990479592e-05
7.423223298789863e-07,9.88592182212453e-07,9.834952863191015e-07,1.7849616210397885e-05
7.321195079480164e-07,1.006632233228374e-06,9.889592139408098e-07,1.750041121757753e-05
7.216793630937383e-07,1.0240869205077768e-06,9.939076347857496e-07,1.7145779366619394e-05
7.110460721527834e-07,1.0408970602572253e-06,9.983375712272431e-07,1.6786311793133058e-05
7.002664271101293e-07,1.057004770204945e-06,1.0022407867683383e-06,1.642256501411151e-05
6.893882198252186e-07,1.0723512312765163e-06,1.0056041796831757e-06,1.6055093697752388e-05
6.784586714645493e-07,1.0868749035371434e-06,1.008410098330521e-06,1.5684495175906912e-05
6.675229387979372e-07,1.1005117400565641e-06,1.0106375550670726e-06,1.5311421024494754e-05
6.566264688717714e-07,1.1131967388148044e-06,1.012265685283085e-06,1.4936539808806894e-05
6.458197177612635e-07,1.124866412331104e-06,1.013276610365825e-06,1.4560497479906809e-05
6.35157351934898e-07,1.1354616097332234e-06,1.0136547899443258e-06,1.4183906651614275e-05
6.246918404481367e-07,1.1449286513818286e-06,1.0133847552169082e-06,1.3807362359563642e-05
6.144691637628333e-07,1.1532183117452269e-06,1.0124513156939158e-06,1.3431476817004167e-05
6.045294213768726e-07,1.1602848790474186e-06,1.0108425573738977e-06,1.3056912923060608e-05
5.949081903158391e-07,1.1660862400539257e-06,1.0085510334959671e-06,1.2684420360267708e-05
5.856356355168592e-07,1.1705843247035822e-06,1.0055709194596882e-06,1.2314884164718949e-05
5.767358507709387e-07,1.173746269131291e-06,1.0018953558419254e-06,1.1949351155394065e-05
5.682282916236111e-07,1.1755461427740419e-06,9.975172482067058e-07,1.1589020261733345e-05
5.601285431973275e-07,1.1759665953694706e-06,9.924314534215737e-07,1.1235215449778974e-05
5.524470200380265e-07,1.1750013679004542e-06,9.866362810854686e-07,1.0889336981526293e-05
5.451875951799903e-07,1.1726573458177383e-06,9.801348360889506e-07,1.0552776460358173e-05
5.383474921292655e-07,1.1689524326179285e-06,9.729359376877129e-07,1.0226815693972916e-05
5.31918879229435e-07,1.1639107814689943e-06,9.650542046313284e-07,9.91257204868925e-06
5.258924201843374e-07,1.1575608025661842e-06,9.565104973259105e-07,9.61101170206998e-06
5.202608428484507e-07,1.1499372126253599e-06,9.473321607469782e-07,9.322975426165027e-06
5.150193249191797e-07,1.1410836943738315e-06,9.375514886608276e-07,9.049183499256347e-06
5.10162369186374e-07,1.131052175185378e-06,9.272032804525223e-07,8.790233484653031e-06
5.056801669903553e-07,1.1198989367064086e-06,9.163232751245243e-07,8.546609943496974e-06
5.015577661158853e-07,1.1076823831775906e-06,9.049482571001068e-07,8.318755419976331e-06
4.977780947470235e-07,1.0944646956345393e-06,8.931175420713794e-07,8.107197531230141e-06
4.943254844670759e-07,1.0803136379369335e-06,8.808749551126967e-07,7.912605345558644e-06
4.911861198324596e-07,1.0653008730264747e-06,8.682702878472805e-07,7.73574577478782e-06
4.883490404389269e-07,1.049498268961472e-06,8.553583086139713e-07,7.5774352762247485e-06
4.858113520443727e-07,1.0329752060936178e-06,8.421949517557144e-07,7.438485775896527e-06
4.835816569099503e-07,1.015797286634243e-06,8.28834618350372e-07,7.319612295466333e-06
4.816755869360171e-07,9.98026730318194e-07,8.153312474348441e-07,7.221351100035031e-06
4.801072273267862e-07,9.79725223108336e-07,8.017407692222093e-07,7.144027173741202e-06
4.788834842758725e-07,9.609575582172563e-07,7.881227465177756e-07,7.087748949760069e-06
4.780032780645223e-07,9.41793934529923e-07,7.745407316782105e-07,7.052401528261553e-06
4.774599240469923e-07,9.223097773075092e-07,7.610603689137637e-07,7.037642404130803e-06
4.772443961837038e-07,9.025818312638705e-07,7.477460093887025e-07,7.042911162245763e-06
4.773466655568597e-07,8.826827930271892e-07,7.346573172597611e-07,7.0674464834769825e-06
4.777553800592946e-07,8.626787823261086e-07,7.218458123453947e-07,7.110306646274907e-06
4.784589028154286e-07,8.426294013650319e-07,7.093524752507182e-07,7.170401942196643e-06
4.794481963612542e-07,8.225885732980325e-07,6.97208007199588e-07,7.246537762943615e-06
4.807187439057484e-07,8.026060459534994e-07,6.854366547269478e-07,7.337459773182884e-06
4.822694313024295e-07,7.827282595255019e-07,6.740635469894024e-07,7.44188775156937e-06
4.841010912532025e-07,7.629975762266075e-07,6.631205386006114e-07,7.558532812380251e-06
4.862176875387351e-07,7.434511362798381e-07,6.526444153560432e-07,7.686117311885236e-06
4.886278206070069e-07,7.241205696547252e-07,6.426692981795171e-07,7.823394691679607e-06
4.913437692945854e-07,7.050327754850528e-07,6.332210615271815e-07,7.969140519455932e-06
4.943781743749132e-07,6.862109771784172e-07,6.243188354874616e-07,8.122125223449588e-06
4.977399653774033e-07,6.676754770929772e-07,6.159803715943767e-07,8.281107876928186e-06
5.014321179157685e-07,6.494447457249001e-07,6.082242613640164e-07,8.444858574366205e-06
5.054516331756322e-07,6.315373446393677e-07,6.010698437954168e-07,8.612189678154214e-06
5.097899275438917e-07,6.13975487451815e-07,5.945391027243118e-07,8.781986181723041e-06
5.144331425528965e-07,5.967886658355898e-07,5.886563738309283e-07,8.95323287527087e-06
5.193621430844142e-07,5.80012167277259e-07,5.8344241597806e-07,9.125026942225016e-06
5.245523346166973e-07,5.636809386675263e-07,5.789093917112303e-07,9.296567030035795e-06
5.299761074816093e-07,5.478255393843753e-07,5.750611813431603e-07,9.467126074439563e-06
5.356105047497078e-07,5.324726828218852e-07,5.718945255166753e-07,9.636015289471602e-06
5.414460350819287e-07,5.176470274514033e-07,5.693981385890655e-07,9.802558206364695e-06
5.474877319355562e-07,5.033710031516607e-07,5.675531215169443e-07,9.966110135519634e-06
5.537477572734649e-07,4.89663502417196e-07,5.663362642894173e-07,1.0126094291006514e-05
5.602384926230272e-07,4.7653960116543426e-07,5.657236863668844e-07,1.0281987680179317e-05
5.66969723561641e-07,4.6401060384413996e-07,5.656933477923597e-07,1.0433266786793955e-05
5.739463638302339e-07,4.52083999216034e-07,5.662262095247708e-07,1.0579367572465268e-05
5.811658637134918e-07,4.4076474939234524e-07,5.673049871349422e-07,1.071969974521244e-05
5.886165582463645e-07,4.300564937412047e-07,5.689105103271219e-07,1.0853705090638271e-05
5.962780043186768e-07,4.199603383642425e-07,5.710180313983072e-07,1.0980893938167012e-05
6.041235550423079e-07,4.104730195299198e-07,5.735956539592932e-07,1.1100855761711992e-05
6.121218531533442e-07,4.0158646717933935e-07,5.766047801892554e-07,1.1213289024555427e-05
6.202357539891157e-07,3.9328798612239377e-07,5.800019894441349e-07,1.1318021627707152e-05
6.284225100663089e-07,3.855606951216115e-07,5.837410484910431e-07,1.141497605867506e-05
6.366366462496885e-07,3.783844645532951e-07,5.877731312698606e-07,1.1504092645872016e-05
6.448331811510165e-07,3.7173718872850316e-07,5.92046496106621e-07,1.1585267520630628e-05
6.529707862920904e-07,3.655964861799178e-07,5.965072743681857e-07,1.1658363318100053e-05
6.610159047140622e-07,3.599413493276568e-07,6.011002520764353e-07,1.1723280860436666e-05
6.689455537047578e-07,3.5475248354816386e-07,6.057698575841576e-07,1.1780024002790172e-05
6.767449508801782e-07,3.500107011106104e-07,6.10462315522283e-07,1.1828722361273873e-05
6.844024750699943e-07,3.4569460817786713e-07,6.1512789176686e-07,1.1869606485093996e-05
6.919069287888585e-07,3.4177956330021355e-07,6.197232031079303e-07,1.1902937588227733e-05
6.992455645318197e-07,3.3823848232742555e-07,6.24214333229661e-07,1.1928932905096374e-05
7.06400875028881e-07,3.350442149375279e-07,6.28578897525589e-07,1.1947742067934047e-05
7.133484776308205e-07,3.321722105800013e-07,6.328055195241895e-07,1.1959496960656273e-05
7.200574375676505e-07,3.296013178697795e-07,6.368922176511009e-07,1.1964412733811052e-05
7.264917337667016e-07,3.273136276555562e-07,6.408449951719795e-07,1.1962891940961756e-05
7.326117181569796e-07,3.252960080035408e-07,6.446766555159439e-07,1.1955587504738111e-05
7.383759063619733e-07,3.2354284734568765e-07,6.484056030578907e-07,1.194338025032981e-05
7.437436330459231e-07,3.220582995749899e-07,6.520530626423518e-07,1.1927282444871366e-05
7.486779720515476e-07,3.208563974389183e-07,6.556388746586715e-07,1.1908372598087018e-05
7.531471401871644e-07,3.199580262976637e-07,6.591801072892294e-07,1.1887803256972508e-05
7.571232217472409e-07,3.1938682553307317e-07,6.626940569933065e-07,1.1866779611894787e-05
7.605798742620014e-07,3.191651601791924e-07,6.66201358917744e-07,1.1846472075955233e-05
7.634911565395128e-07,3.1930976442745836e-07,6.697252854911194e-07,1.1827953794855315e-05
7.658314090335499e-07,3.1982984542339026e-07,6.732878970730994e-07,1.1812190595868825e-05
7.675765694847507e-07,3.207298051878433e-07,6.76906168476165e-07,1.1800072154101128e-05
7.687079405909549e-07,3.2201433698865126e-07,6.805898101683892e-07,1.1792511745095105e-05
7.692153052680762e-07,3.236928646861805e-07,6.84340949577033e-07,1.1790557626680685e-05
7.690954624235202e-07,3.2578162289562485e-07,6.881545878202139e-07,1.1795399904282672e-05
7.683485684005399e-07,3.283018571166944e-07,6.92018173763103e-07,1.1808267124749554e-05
7.66976080836697e-07,3.312740232950769e-07,6.959115011143486e-07,1.1830307651415531e-05
7.649799562831823e-07,3.347119421456033e-07,6.998093114353447e-07,1.1862532317247425e-05
7.623624011254848e-07,3.386204892948381e-07,7.036855424605592e-07,1.1905819122587888e-05
7.591265983646687e-07,3.429958989759869e-07,7.075156479027834e-07,1.1960918872213804e-05
7.55278170500454e-07,3.478282749216952e-07,7.112755070613536e-07,1.2028435863347866e-05
7.508264027257279e-07,3.531068545548285e-07,7.149389238176941e-07,1.2108855710778074e-05
7.457839677571999e-07,3.588260417938057e-07,7.184760498013339e-07,1.2202687180275425e-05
7.401660129611745e-07,3.6499004123784937e-07,7.218533229959809e-07,1.2310611515999295e-05
7.339911757659741e-07,3.7161453730052906e-07,7.250346553612136e-07,1.2433429002444967e-05
7.272830631371095e-07,3.787230066077568e-07,7.279834938177512e-07,1.2571808928437598e-05
7.200688318120147e-07,3.863380899253045e-07,7.306646377185343e-07,1.2726066838041334e-05
7.123772154161805e-07,3.9447530671923816e-07,7.330448286738401e-07,1.2896119668763199e-05
7.042392242239147e-07,4.031453778397931e-07,7.350944319038192e-07,1.308168049003766e-05
6.95688416290942e-07,4.123601510232886e-07,7.367941995444057e-07,1.3282664513296166e-05
6.867584474041584e-07,4.221331267908996e-07,7.381432186154558e-07,1.3499533920799815e-05
6.774814082335728e-07,4.3247458042238256e-07,7.391579187291206e-07,1.3733306420789482e-05
6.678898243889947e-07,4.4338718839874057e-07,7.398620129908448e-07,1.3985318875642655e-05
6.580218292054725e-07,4.548635496721136e-07,7.40276827555059e-07,1.4256994244410047e-05
6.479249574823274e-07,4.6688449519105575e-07,7.404166819617537e-07,1.4549660300206125e-05
6.376525666881129e-07,4.794201866836247e-07,7.402883491354773e-07,1.4864362454236237e-05
6.272556839699912e-07,4.924332293608685e-07,7.39895186767675e-07,1.5201713578209567e-05
6.167783415765479e-07,5.058791355784356e-07,7.392461904864285e-07,1.5561858475860653e-05
6.062576859442931e-07,5.197048146752272e-07,7.383641683022184e-07,1.5944531160785594e-05
5.957256757728247e-07,5.338501353438825e-07,7.372883923767312e-07,1.6349123976302567e-05
5.852103386399143e-07,5.482544749016607e-07,7.360747945467099e-07,1.6774719983845495e-05
5.7473654365203e-07,5.628658754479789e-07,7.347945183815817e-07,1.7220093984049792e-05
5.643277993098696e-07,5.776465408133344e-07,7.335270752675813e-07,1.7683701090446474e-05
5.540091150390753e-07,5.925692346609473e-07,7.323495945439149e-07,1.816365867063248e-05
5.438097688934183e-07,6.076076355501093e-07,7.313300030832721e-07,1.865776529499121e-05
5.337656639398253e-07,6.227302020565325e-07,7.305305385576904e-07,1.916360612299856e-05
5.239193738177109e-07,6.379034398049561e-07,7.300167616982695e-07,1.967870502913413e-05
5.143157139496127e-07,6.530989560661407e-07,7.298594294773536e-07,2.0200634721033748e-05
5.04995592456086e-07,6.682944182617853e-07,7.301263154207941e-07,2.0727038070021605e-05
4.959929844728367e-07,6.834692391270145e-07,7.308721471503882e-07,2.1255583136573065e-05
4.873354777861726e-07,6.986023269991169e-07,7.321331014516891e-07,2.1783918509619035e-05
4.790449979500421e-07,7.136724135250477e-07,7.339285339451597e-07,2.23096828828246e-05
4.7113746428857145e-07,7.286574616922768e-07,7.362711699531813e-07,2.283055456485484e-05
4.636241032988534e-07,7.43533305670837e-07,7.391829277012541e-07,2.3344283314578505e-05
4.5651493086819193e-07,7.582736749120832e-07,7.427087624311281e-07,2.384868242444953e-05
4.4982139446703026e-07,7.728512037002401e-07,7.46921624587265e-07,2.4341587197764943e-05
4.435573073100174e-07,7.872363478837443e-07,7.519188446776931e-07,2.482079774635139e-05
4.3773853445968714e-07,8.013941830999659e-07,7.578149934726298e-07,2.528404883626262e-05
4.3238107380224067e-07,8.15283741078082e-07,7.647333293125751e-07,2.572902269317649e-05
4.2749847420551423e-07,8.288619677049465e-07,7.727946288534516e-07,2.6153388941591362e-05
4.230998928599183e-07,8.420891199841337e-07,7.821048272068137e-07,2.6554858838223443e-05
4.191903419230233e-07,8.549317999962135e-07,7.927456956842009e-07,2.693122129817359e-05
4.15776581527709e-07,8.673629394311573e-07,8.047690544206304e-07,2.7280363121780013e-05
4.1287602181368594e-07,8.793597939094074e-07,8.181931820546047e-07,2.7600359810386408e-05
4.105176853667544e-07,8.909000923723108e-07,8.330039180933394e-07,2.788965364741907e-05
4.087352969955562e-07,9.019585015784712e-07,8.491613516300796e-07,2.8147185663044238e-05
4.075651409360454e-07,9.125060554600308e-07,8.66607619671579e-07,2.837238352967003e-05
4.0704922178414564e-07,9.225109476397524e-07,8.852720856295334e-07,2.8565054830141e-05
4.0723278809219094e-07,9.319396200787121e-07,9.050749230070464e-07,2.872526157841545e-05
4.0815536337951474e-07,9.407591537432837e-07,9.259317180869879e-07,2.8853191433680827e-05
4.098439106134357e-07,9.48939840128262e-07,9.477580647812781e-07,2.894904701136853e-05
4.1231170790114323e-07,9.564561317296885e-07,9.70471492526614e-07,2.9013012317573358e-05
4.155604999500245e-07,9.632853058863727e-07,9.939915090275975e-07,2.9045312978434118e-05
4.1958320144741685e-07,9.694050076185543e-07,1.018239128487363e-06,2.9046310375853724e-05
4.243647816247108e-07,9.74792627211845e-07,1.0431361782914924e-06,2.901656042246321e-05
4.298815725578169e-07,9.79426657889389e-07,1.0686050805892552e-06,2.8956812204786278e-05
4.361029961089921e-07,9.832870057114515e-07,1.0945681737563989e-06,2.8867953696713832e-05
4.429970313533239e-07,9.863538851822477e-07,1.1209448224146818e-06,2.8750954834980577e-05
4.505342600761796e-07,9.886082613766262e-07,1.1476462236826712e-06,2.860692327405543e-05
4.5868691129892227e-07,9.900354463353269e-07,1.1745707294904926e-06,2.8437250641536797e-05
4.6742846655563296e-07,9.906287130541766e-07,1.201603133537294e-06,2.8243627015293823e-05
4.7673810154045066e-07,9.903887395317971e-07,1.2286175871524352e-06,2.8027929831834424e-05
