5.657123203225623e-07,3.598664787174757e-07,3.2678935748311374e-07,2.097121257725106e-05
5.676123307520346e-07,3.610582762760857e-07,3.2744142155883824e-07,2.1075406419583186e-05
5.69360927174377e-07,3.623048338012383e-07,3.278583607181194e-07,2.116707842450611e-05
5.70932769972811e-07,3.635917273144813e-07,3.280410532637986e-07,2.124596972065792e-05
5.723011232066162e-07,3.649042218383432e-07,3.279943493849441e-07,2.1311838395420417e-05
5.734382807705614e-07,3.6622613021879566e-07,3.277268774640798e-07,2.1364431374246647e-05
5.743174393117798e-07,3.675398047429954e-07,3.272490678714342e-07,2.140354942920212e-05
5.749166279095692e-07,3.688271277574052e-07,3.265725501167429e-07,2.1429134285878327e-05
5.752221281157162e-07,3.700711873164038e-07,3.257113450102881e-07,2.1441277399267646e-05
5.752277879772622e-07,3.712585613315717e-07,3.246816489240389e-07,2.144016799670701e-05
5.749315602889814e-07,3.723804004911374e-07,3.234995153284781e-07,2.1426038182653085e-05
5.743327788349469e-07,3.7343044601086977e-07,3.221793328668047e-07,2.1399119789092992e-05
5.734308680686023e-07,3.744018934314156e-07,3.207346481624205e-07,2.1359612627900822e-05
5.722255119321136e-07,3.752859248377681e-07,3.1917931853528945e-07,2.130766481668117e-05
5.707169909665863e-07,3.760717527091133e-07,3.1752701658803964e-07,2.1243364963729278e-05
5.689051916872587e-07,3.767472442439093e-07,3.157903280450688e-07,2.1166737147563832e-05
5.667893617532063e-07,3.7730123102927816e-07,3.1398095076530254e-07,2.107773773567356e-05
5.643701602562677e-07,3.77727712992058e-07,3.121099091031802e-07,2.097626665894015e-05
5.61651686657668e-07,3.780276438593011e-07,3.101875118833314e-07,2.0862187018508452e-05
5.586412162647432e-07,3.7820576653920655e-07,3.082251697008019e-07,2.073534224157128e-05
5.553476761739043e-07,3.782665602941072e-07,3.062379890094736e-07,2.0595588010199727e-05
5.51780640075681e-07,3.7821301959202647e-07,3.042440400766048e-07,2.0442846646107827e-05
5.479499654026369e-07,3.780480275243289e-07,3.022611302971101e-07,2.027714952952255e-05
5.438656250218004e-07,3.777761062922461e-07,3.003052494275981e-07,2.0098631849554238e-05
5.395371255830294e-07,3.774029540540036e-07,2.9839081451092016e-07,1.9907487557791118e-05
5.349730757385301e-07,3.769332391424385e-07,2.9653104430599817e-07,1.970392442145406e-05
5.301826392540218e-07,3.763699464628932e-07,2.947384458656739e-07,1.9488140941344614e-05
5.251786863049393e-07,3.757158364331613e-07,2.9302509923846887e-07,1.926032113384423e-05
5.19980197824141e-07,3.7497389300289883e-07,2.914028377514579e-07,1.9020648105745108e-05
5.146115689734413e-07,3.7414573958714063e-07,2.8988379195955147e-07,1.8769331731270965e-05
5.090998948753179e-07,3.732307317695863e-07,2.884800037958177e-07,1.850663010014411e-05
5.034742681361086e-07,3.7222774869598927e-07,2.872016204566161e-07,1.8232850856910693e-05
4.977668959296929e-07,3.711384381500607e-07,2.8605536676803927e-07,1.7948342226307776e-05
4.920114483693788e-07,3.699688044501878e-07,2.8504495253175525e-07,1.7653508119820672e-05
4.862386533486271e-07,3.6872825558878924e-07,2.8417433754051856e-07,1.7348855212317332e-05
4.804742294189952e-07,3.6742785291211355e-07,2.834518843851219e-07,1.7035024295548675e-05
4.7474126116822005e-07,3.6607908192738594e-07,2.82890548017362e-07,1.6712776034491942e-05
4.6906360581851064e-07,3.646942798493485e-07,2.825034226892139e-07,1.638294635224704e-05
4.634661106629833e-07,3.632887944603727e-07,2.8229988979995285e-07,1.6046395151926132e-05
4.5797162166873243e-07,3.618823437541175e-07,2.822855724330836e-07,1.5703994176236342e-05
4.52598174563819e-07,3.6049740116692317e-07,2.824637977163583e-07,1.5356662889496285e-05
4.4735844651015215e-07,3.591554386750693e-07,2.82836144602151e-07,1.500537505779876e-05
4.422614165091017e-07,3.5787393808246385e-07,2.834031566982256e-07,1.465111785962941e-05
4.373153154267044e-07,3.5666621304090185e-07,2.841666950897145e-07,1.4294866367529928e-05
4.3252926605936405e-07,3.555429367130016e-07,2.8513187016706906e-07,1.3937577461936105e-05
4.279124710357007e-07,3.5451297457567404e-07,2.863053288062036e-07,1.3580196185738284e-05
4.2347481913699284e-07,3.535829738388292e-07,2.876911263923373e-07,1.322370572648113e-05
4.1923120138134434e-07,3.5275664907220396e-07,2.892879447819363e-07,1.2869176978591057e-05
4.152047626146054e-07,3.52034335881195e-07,2.9108876431288233e-07,1.251772930077937e-05
4.1142449910644396e-07,3.5141279571990015e-07,2.930830579922904e-07,1.2170431175691544e-05
4.0791899151230883e-07,3.508857764636301e-07,2.952615700317329e-07,1.1828247582396146e-05
4.047114058373785e-07,3.5044553867671863e-07,2.97620743618618e-07,1.1492079817429182e-05
4.018197775594019e-07,3.500838546689807e-07,3.001625624255691e-07,1.1162889782057044e-05
3.9926159664309956e-07,3.497918141970187e-07,3.028902636897504e-07,1.0841860398116023e-05
3.970561893653733e-07,3.495596304978073e-07,3.058047114027553e-07,1.0530472513259244e-05
3.9522119234205604e-07,3.4937718300558673e-07,3.0890298765454196e-07,1.0230402778648655e-05
3.9376742391322887e-07,3.4923593363746317e-07,3.1217712185373374e-07,9.943293833284653e-06
3.926980154090315e-07,3.491318204579311e-07,3.156132813627974e-07,9.67055003408907e-06
3.9201384585381863e-07,3.490663756823529e-07,3.191930984156465e-07,9.41325721771065e-06
3.9172039093015044e-07,3.490459157590513e-07,3.228962494379705e-07,9.172194666870436e-06
3.918283466425672e-07,3.490813312682655e-07,3.267018553339088e-07,8.947868584237611e-06
3.9235128643228617e-07,3.491873733809834e-07,3.305880601011631e-07,8.740571938856121e-06
3.9330647203939686e-07,3.493799138191359e-07,3.3453155553520533e-07,8.550542387599394e-06
3.947141868734062e-07,3.496733174818293e-07,3.385082348670805e-07,8.378208375621391e-06
3.965940089797914e-07,3.500793322180134e-07,3.424942232964551e-07,8.224338209498516e-06
3.989628456285023e-07,3.506073719862367e-07,3.464666810410372e-07,8.089949930620677e-06
4.0183349995170963e-07,3.512653602661854e-07,3.504049720608564e-07,7.976079343302596e-06
4.052112328666888e-07,3.520593846495807e-07,3.5429152137300953e-07,7.883578255550226e-06
4.0909090319149706e-07,3.529924347251159e-07,3.581104961512584e-07,7.813070073820276e-06
4.134573333397216e-07,3.540636174692938e-07,3.6184527723013117e-07,7.765157250673479e-06
4.182876914495214e-07,3.5526784832757173e-07,3.6547732078930006e-07,7.740764629467638e-06
4.235540928539104e-07,3.5659588109943017e-07,3.6898648488315173e-07,7.741304719369569e-06
4.2922719346498e-07,3.58035462398421e-07,3.7235198189995494e-07,7.768548017431098e-06
4.3527997268065775e-07,3.5957414304730174e-07,3.7555431082964475e-07,7.824373157813694e-06
4.416887947346098e-07,3.6120156688466e-07,3.7857673187131356e-07,7.910565987675696e-06
4.484332459145731e-07,3.6290832436959464e-07,3.8140434147492617e-07,8.028692877645427e-06
4.554970097050872e-07,3.6468282638881114e-07,3.840231074802753e-07,8.180005628600926e-06
4.6286595167790576e-07,3.6651028335737367e-07,3.864216402110946e-07,8.365350361314456e-06
4.7052289431481686e-07,3.683744973160614e-07,3.8859343830923033e-07,8.585092754021111e-06
4.784450390997506e-07,3.7025938413378994e-07,3.9053601615263407e-07,8.839090538449475e-06
4.866042064080635e-07,3.7214855197776406e-07,3.922479643720253e-07,9.126720295914965e-06
4.949662190709366e-07,3.7402447186741047e-07,3.937275052305615e-07,9.446916768578702e-06
5.034905661737884e-07,3.7586869016180744e-07,3.9497279133907106e-07,9.798189100168504e-06
5.121323940448746e-07,3.7766312512101175e-07,3.959822707025444e-07,1.0178643815045767e-05
5.20845546546959e-07,3.793912029224131e-07,3.9675553638830586e-07,1.0586058473832318e-05
5.295842176551031e-07,3.810374074508401e-07,3.972948748892746e-07,1.1017992743907665e-05
5.383034663285927e-07,3.82586157349859e-07,3.976052091025345e-07,1.147189635157319e-05
5.469614526330874e-07,3.8402247725764117e-07,3.976917617136429e-07,1.1945205542543855e-05
5.555235336819754e-07,3.853359035579312e-07,3.975580915310533e-07,1.243543572582558e-05
5.639644951722579e-07,3.865249316464993e-07,3.972062635315469e-07,1.2940253304711667e-05
5.722667590138003e-07,3.875963489351501e-07,3.9663857121273364e-07,1.3457489184950936e-05
5.804161020220541e-07,3.8855956425925284e-07,3.958592456228938e-07,1.398507842923363e-05
5.883972275616628e-07,3.8942169865178706e-07,3.948743636371799e-07,1.4520970794804926e-05
5.961914904368051e-07,3.901867766878581e-07,3.9369036932618544e-07,1.5063071983944973e-05
6.0377882086041e-07,3.908598363085081e-07,3.9231390706206383e-07,1.5609209351514954e-05
6.111423054955385e-07,3.914537955931622e-07,3.9075305585510797e-07,1.6157098893802718e-05
6.182698352369182e-07,3.919928837312504e-07,3.8901756102756745e-07,1.6704357327014926e-05
6.251504878957743e-07,3.925094882244992e-07,3.8711851183460214e-07,1.7248572655037652e-05
6.317708087538423e-07,3.930374273394005e-07,3.8506914690625227e-07,1.778734852129371e-05
6.381158106966239e-07,3.936062655706988e-07,3.8288535726666276e-07,1.8318282098687627e-05
6.441730300184715e-07,3.942388044653837e-07,3.805849783252842e-07,1.883893286327242e-05
6.499349137276873e-07,3.9495071429938006e-07,3.7818858192504295e-07,1.934683048043736e-05
6.553973264111686e-07,3.9575127143161563e-07,3.7572232008980654e-07,1.9839514601845397e-05
6.605570537573191e-07,3.9664477157928094e-07,3.732188139580805e-07,2.0314580829434166e-05
6.654115213596107e-07,3.97631281792265e-07,3.707143094948629e-07,2.0769744318791464e-05
6.699592987769188e-07,3.987063142439618e-07,3.682444448235556e-07,2.120296535403428e-05
6.741993535107446e-07,3.9986071431429293e-07,3.6584061807672135e-07,2.161262014605401e-05
6.781307516115258e-07,4.010817291006546e-07,3.6352771078161477e-07,2.199760204451704e-05
6.817539460812361e-07,4.023547534227587e-07,3.613234137710508e-07,2.2357272755253407e-05
6.850708972285672e-07,4.036648139278378e-07,3.5923854788426e-07,2.2691317155704487e-05
6.880830598663287e-07,4.0499768922682814e-07,3.572780788570469e-07,2.2999589162679605e-05
6.907895031212735e-07,4.063412788677628e-07,3.554439289681553e-07,2.3281986509706447e-05
6.931859033592004e-07,4.0768669106396473e-07,3.537390999812768e-07,2.353838303025907e-05
6.952645159896704e-07,4.0902777248691543e-07,3.521692703530906e-07,2.3768645462148103e-05
6.970153619414573e-07,4.103603789438592e-07,3.507406988458981e-07,2.397270490768557e-05
6.984273353137722e-07,4.1168242173947494e-07,3.49457966881561e-07,2.4150610863426344e-05
6.994880153645775e-07,4.1299236602977596e-07,3.4832348513798826e-07,2.430254734622577e-05
7.001830681848032e-07,4.142867463663089e-07,3.4733805056343213e-07,2.4428823173974108e-05
7.004972846497435e-07,4.155610850323794e-07,3.4650194270824807e-07,2.4529856268735365e-05
7.004167915862389e-07,4.168136177910565e-07,3.45815894879864e-07,2.4606251565317366e-05
6.999293613643055e-07,4.180466811740453e-07,3.452808781129173e-07,2.4658949713377012e-05
6.990226361522339e-07,4.192647380807382e-07,3.4489648262543306e-07,2.4689220136130648e-05
6.976838431353092e-07,4.204720813790349e-07,3.446591937003758e-07,2.4698526902216048e-05
6.959030147906504e-07,4.216711636174368e-07,3.445620543728934e-07,2.4688521837934922e-05
6.93678461426155e-07,4.228609152078752e-07,3.445960509185899e-07,2.4661124045838573e-05
6.910222567487814e-07,4.240365205222649e-07,3.447522583591302e-07,2.4618494391390986e-05
6.879627687648011e-07,4.251913302148567e-07,3.4502303243232486e-07,2.4562919729054048e-05
6.84541118743459e-07,4.263189534569335e-07,3.454020269815322e-07,2.4496694375204614e-05
6.808029609155208e-07,4.274146227738712e-07,3.4588436150015333e-07,2.442202283148532e-05
6.767919660818269e-07,4.284764341188336e-07,3.4646712243051794e-07,2.43409489533504e-05
6.725478924202379e-07,4.295058298277497e-07,3.4714916645919104e-07,2.425530983811697e-05
6.681060489336536e-07,4.3050586493058283e-07,3.4792938072395625e-07,2.4166703910892606e-05
6.634968684903943e-07,4.314781390806672e-07,3.4880393208895394e-07,2.4076460870571325e-05
6.587471897915968e-07,4.3242068345530794e-07,3.497643964300394e-07,2.398561195941572e-05
6.5388154508505e-07,4.3332734186044224e-07,3.5079811027721765e-07,2.389487756189037e-05
6.489209197271653e-07,4.341879096805002e-07,3.518908910373404e-07,2.380468759173333e-05
6.438809241916401e-07,4.3498862914682073e-07,3.530302435388027e-07,2.3715216533075367e-05
6.387720954873269e-07,4.357137130283434e-07,3.5420604919148223e-07,2.3626401128805245e-05
6.336018480985092e-07,4.3634875340277564e-07,3.5540958847308094e-07,2.35379610747558e-05
6.283765083131509e-07,4.368848530799682e-07,3.566333721585088e-07,2.3449469408492625e-05
6.231021286328715e-07,4.3732014894953135e-07,3.578703624517905e-07,2.33604569228483e-05
6.17783356400994e-07,4.376569585142211e-07,3.591117725241169e-07,2.327049192876756e-05
6.124229240783148e-07,4.378971090809179e-07,3.603457406127663e-07,2.3179212236171e-05
6.070258748632474e-07,4.380390012848616e-07,3.6155747300098855e-07,2.308632518070148e-05
6.01605660587514e-07,4.380772767211483e-07,3.6273011291838155e-07,2.299159519586417e-05
5.961842578280569e-07,4.3800391150824357e-07,3.638462629445004e-07,2.2894847241953405e-05
5.907867470028035e-07,4.378095188825597e-07,3.648891472268854e-07,2.27960135928862e-05
5.854372819303907e-07,4.3748505643158424e-07,3.658430041276959e-07,2.26951879884068e-05
5.801575699529211e-07,4.37023970132058e-07,3.666936789138275e-07,2.259260749142697e-05
5.749653931690454e-07,4.3642314243508864e-07,3.6742917075819614e-07,2.248855567060476e-05
5.698740291654558e-07,4.356829690666929e-07,3.680401185695864e-07,2.2383261280812062e-05
5.648935562902561e-07,4.348089279023389e-07,3.6852066010389926e-07,2.2276850657003454e-05
5.600318983883894e-07,4.338131999008765e-07,3.688684239561777e-07,2.216938226949197e-05
5.552941648625573e-07,4.3271316353817604e-07,3.690829742968901e-07,2.2060952678733728e-05
5.506817698597484e-07,4.3152791886803017e-07,3.6916393486286953e-07,2.1951767488990645e-05
5.461928665758625e-07,4.3027573991475886e-07,3.691102523117509e-07,2.184208429680725e-05
5.418243055114954e-07,4.2897339194467676e-07,3.689207943615664e-07,2.173209005273373e-05
5.37574283847432e-07,4.276361333737945e-07,3.6859465638735923e-07,2.162183185068316e-05
5.33444100053305e-07,4.262766572111434e-07,3.681302389971742e-07,2.1511247097175896e-05
5.294379691713869e-07,4.2490420794599156e-07,3.6752450896479297e-07,2.1400249294644557e-05
5.255621043679554e-07,4.2352604795835684e-07,3.6677325557181934e-07,2.128876200379648e-05
5.218244631709311e-07,4.2214929879817476e-07,3.658722121875507e-07,2.1176658575600272e-05
5.182337059539739e-07,4.2078022949166384e-07,3.6481996043165865e-07,2.1063697271599483e-05
5.147971691779282e-07,4.1942204383703227e-07,3.6362138672588396e-07,2.0949537810739958e-05
5.115194231312225e-07,4.180734769219146e-07,3.6228751694771905e-07,2.083384294551369e-05
5.084015830545394e-07,4.1672943585943887e-07,3.60831397242882e-07,2.07164360180374e-05
5.054429461225535e-07,4.153846402916061e-07,3.5926491430684815e-07,2.059743118016737e-05
5.026452489044746e-07,4.140379935713818e-07,3.575990836569518e-07,2.047721869033468e-05
5.000146560538559e-07,4.126929336539485e-07,3.558447738847918e-07,2.035630925009194e-05
4.975581681782857e-07,4.113544626553149e-07,3.540118003359966e-07,2.0235166687834046e-05
4.952785057551982e-07,4.1002826997330814e-07,3.521085063288517e-07,2.0114130104079936e-05
4.931737645822697e-07,4.08723050688913e-07,3.501426317156776e-07,1.999341778229217e-05
4.912423958652129e-07,4.0745200548982786e-07,3.4812250118334017e-07,1.9873133319775698e-05
4.894880578416474e-07,4.062314612305028e-07,3.460584428332202e-07,1.9753251126647816e-05
4.879192153658411e-07,4.0507896864466e-07,3.4396296507566855e-07,1.9633676711877225e-05
4.865440816543625e-07,4.0401182524983955e-07,3.4184861860709273e-07,1.951444875586783e-05
4.853658262576163e-07,4.0304461930275775e-07,3.397258391269249e-07,1.939593304460135e-05
4.843811656214616e-07,4.021874891483553e-07,3.3760261988677804e-07,1.927879373657313e-05
4.835815787192942e-07,4.0144703242717954e-07,3.35485317597953e-07,1.9163781884972765e-05
4.82955488697731e-07,4.0082771585323317e-07,3.3337989344059273e-07,1.9051529435060518e-05
4.824898422784471e-07,4.0033186626245753e-07,3.312932699566022e-07,1.8942457961932722e-05
4.821698946391186e-07,3.9995929123316457e-07,3.2923406451020925e-07,1.883689889108833e-05
4.819786597846539e-07,3.9970745014787076e-07,3.272125107007814e-07,1.873542773584057e-05
4.81899063464123e-07,3.995715504981833e-07,3.252400363609452e-07,1.8639150661853197e-05
4.819195963276221e-07,3.99543861608836e-07,3.23328497731861e-07,1.8549704442200893e-05
4.820394992257515e-07,3.9961335352429656e-07,3.2148964601393426e-07,1.84690558685952e-05
4.822675742336774e-07,3.9976790446961286e-07,3.197355685184232e-07,1.8399284013422197e-05
4.826149290817675e-07,3.999974830134393e-07,3.180783408141798e-07,1.8342387919311827e-05
4.830885075001176e-07,4.00293855038652e-07,3.1652785824476065e-07,1.830011076037804e-05
4.836897478326514e-07,4.006474196228709e-07,3.1509054157232534e-07,1.8273809426844807e-05
4.844157794106971e-07,4.010464724498295e-07,3.1377053993782644e-07,1.8264401915497774e-05
4.852593224854064e-07,4.01480659528224e-07,3.1257104537528e-07,1.8272383918925046e-05
4.862091349902684e-07,4.019438793553494e-07,3.1149339608338513e-07,1.8297870988392945e-05
4.872547464757803e-07,4.0243247169059994e-07,3.105353489529767e-07,1.834061897387284e-05
4.883919488093051e-07,4.029414832472824e-07,3.0969113576986926e-07,1.8400019044322573e-05
4.896221488858146e-07,4.034638432084836e-07,3.0895353844764447e-07,1.847511884883498e-05
4.909473870420786e-07,4.0399293353373923e-07,3.083163105529314e-07,1.8564692883499908e-05
4.923674563875062e-07,4.045250302275053e-07,3.0777516117231174e-07,1.8667332816968334e-05
4.938800108184928e-07,4.050585579671441e-07,3.073265635349932e-07,1.8781556685479322e-05
4.954820365230248e-07,4.0559161077711947e-07,3.0696588644787413e-07,1.8905939767243024e-05
4.97171867897115e-07,4.0612107535018224e-07,3.066869230246229e-07,1.9039206289426268e-05
4.989502261178011e-07,4.066442341693053e-07,3.0648212066830284e-07,1.9180242458737985e-05
5.008189202894121e-07,4.071614687595313e-07,3.0634288320229074e-07,1.9328079705377174e-05
5.027781336874968e-07,4.076780052504474e-07,3.0626151173576217e-07,1.9481887164691145e-05
5.048254768339101e-07,4.082032661294797e-07,3.062331988085106e-07,1.964093640759473e-05
5.069577034853345e-07,4.087486581627176e-07,3.062551638829678e-07,1.9804499476104088e-05
5.091714972654796e-07,4.0932613521937363e-07,3.063245818800345e-07,1.9971714189248725e-05
5.114617022069734e-07,4.0994727639463e-07,3.064375357592473e-07,2.014150251794168e-05
5.138215750198936e-07,4.106212459895754e-07,3.065888994033357e-07,2.031260001863161e-05
5.162488907311215e-07,4.113529631876146e-07,3.067729497672974e-07,2.048365607621172e-05
5.187527899916828e-07,4.1214271067282243e-07,3.069839268657176e-07,2.065329988129471e-05
5.213522483139764e-07,4.1298625115391314e-07,3.072155466559505e-07,2.0820142759453212e-05
5.240666452202042e-07,4.138751723416574e-07,3.074602458519526e-07,2.098278546607617e-05
5.269081871723144e-07,4.147977886317947e-07,3.077093861716093e-07,2.11398648090834e-05
5.298806658571415e-07,4.157405634215532e-07,3.079541522443976e-07,2.1290096698667548e-05
5.329808120212943e-07,4.166892349800735e-07,3.081866041935588e-07,2.1432286343606552e-05
5.361993775970571e-07,4.17628480675785e-07,3.0840042342222706e-07,2.1565366927369352e-05
5.395224685513093e-07,4.185407774996209e-07,3.085906836390392e-07,2.1688510989484117e-05
5.429344920926165e-07,4.1940612068183524e-07,3.0875382859548785e-07,2.180122363577306e-05
5.464219018547936e-07,4.2020272940391975e-07,3.088890472519564e-07,2.190333783537093e-05
5.49973783667112e-07,4.209077813467483e-07,3.0899919038532037e-07,2.1994938958924203e-05
5.535784406324555e-07,4.214979803009247e-07,3.090900742105363e-07,2.207625605920212e-05
5.572199015165607e-07,4.2195106054884683e-07,3.0916984437185824e-07,2.21475411527322e-05
5.60876641373902e-07,4.2224804895558856e-07,3.092497203671483e-07,2.220896107642901e-05
5.645229270815998e-07,4.223738033177874e-07,3.093450761168553e-07,2.226053353641145e-05
5.681333074010629e-07,4.223155581371651e-07,3.0947430905245785e-07,2.2302142154085887e-05
5.716872634369941e-07,4.2206173021168225e-07,3.096552414264617e-07,2.2333616121459964e-05
5.751699547081502e-07,4.216016585567549e-07,3.099017275101878e-07,2.235480566312565e-05
5.785705648939461e-07,4.2092612846253937e-07,3.102222773921046e-07,2.2365610215884303e-05
5.818810204652255e-07,4.200280113663863e-07,3.106210164788343e-07,2.2365959731812706e-05
5.850947217525963e-07,4.189019199538101e-07,3.1110045910319084e-07,2.23557920981352e-05
5.882046879116729e-07,4.1754386526392346e-07,3.116641763044893e-07,2.2335114988073386e-05
5.912010112539689e-07,4.159516188322842e-07,3.123176434086772e-07,2.230412731410108e-05
5.940688945606637e-07,4.1412497013342477e-07,3.130676724668523e-07,2.226325299038445e-05
5.967891447584963e-07,4.1206625376350827e-07,3.139213594181592e-07,2.2213071288232552e-05
5.993400344149296e-07,4.097812740120612e-07,3.1488454759966047e-07,2.215423903311833e-05
6.016988278006694e-07,4.0728025511676985e-07,3.159606463627934e-07,2.2087424262163254e-05
6.03843807197169e-07,4.0457916615862606e-07,3.171508057351883e-07,2.2013240846838927e-05
6.057562604801525e-07,4.016996528040421e-07,3.184543940908895e-07,2.1932207648944002e-05
6.07419888476251e-07,3.9866554238135883e-07,3.198692342202639e-07,2.1844732524939225e-05
6.088194203811392e-07,3.954987547474496e-07,3.213923727224445e-07,2.1751098548309327e-05
6.099423327405781e-07,3.9221860807517294e-07,3.230204731249593e-07,2.1651470024766395e-05
6.10782099318284e-07,3.8884342847635616e-07,3.247495674358711e-07,2.1545942556637688e-05
6.113407407690602e-07,3.8539067825146906e-07,3.26575431387432e-07,2.1434606992210653e-05
6.116318449712582e-07,3.818756879934688e-07,3.2849380099199445e-07,2.1317584589428405e-05
6.11681364485095e-07,3.783124200385433e-07,3.3050000324225106e-07,2.119502304626218e-05
6.115220603199739e-07,3.747164257357352e-07,3.325889704323066e-07,2.106706238338324e-05
6.111849304081337e-07,3.7110645783689365e-07,3.347550335640586e-07,2.093379944824733e-05
6.1069465250067e-07,3.6750297077561e-07,3.369909679708123e-07,2.079528720931181e-05
6.100708398554512e-07,3.6392554748894024e-07,3.39287186613041e-07,2.0651555719886442e-05
6.093305441626424e-07,3.603916206275994e-07,3.416319772810045e-07,2.0502603351798323e-05
6.084886453121146e-07,3.569160955348652e-07,3.440123973356736e-07,2.034835860573804e-05
6.075581745344723e-07,3.535114466629251e-07,3.464147269972371e-07,2.0188662464215575e-05
6.06552399090102e-07,3.501891757639896e-07,3.4882464009500165e-07,2.002328134670637e-05
6.054868108785475e-07,3.469615762970124e-07,3.5122723491327466e-07,1.9851927242119627e-05
6.043780220571932e-07,3.438414826896926e-07,3.536064886144171e-07,1.9674281446858205e-05
6.032395821992871e-07,3.408404846101265e-07,3.5594486237044076e-07,1.949001544360028e-05
6.020786454498715e-07,3.3796824782067254e-07,3.5822339064692724e-07,1.9298805120587008e-05
6.008959572896465e-07,3.352330522343722e-07,3.604219544174921e-07,1.9100368481442628e-05
5.996881617172086e-07,3.326416150084631e-07,3.6252044239273954e-07,1.8894536476797392e-05
5.984500546990417e-07,3.301983334715745e-07,3.6450089901756883e-07,1.8681321373521988e-05
5.971744757143312e-07,3.279052779180033e-07,3.6634956810795405e-07,1.8460960174149177e-05
5.958507887778609e-07,3.257634933348064e-07,3.680577880071289e-07,1.8233916908790806e-05
5.944651967377138e-07,3.2377528689425604e-07,3.696211371328565e-07,1.800081689057431e-05
5.930029628649752e-07,3.2194542871809847e-07,3.71037604279156e-07,1.776235060519215e-05
5.9144974844824e-07,3.202802263372129e-07,3.723066766656904e-07,1.7519223341733518e-05
5.897923827543285e-07,3.1878659661159574e-07,3.734293263697862e-07,1.7272136925990244e-05
5.880222941464626e-07,3.1747207170965447e-07,3.744076760851113e-07,1.7021755885427542e-05
5.861403153102814e-07,3.163450733972482e-07,3.752459506726494e-07,1.6768673327691545e-05
5.841577199357675e-07,3.15414716226589e-07,3.759532187160083e-07,1.6513402263606888e-05
5.820932821954095e-07,3.146889529105212e-07,3.765438359654792e-07,1.6256397097182805e-05
5.799700257525137e-07,3.1417256510687015e-07,3.770339324830117e-07,1.599808383448832e-05
5.778124867225626e-07,3.138669726018056e-07,3.7743765825534856e-07,1.5738869892290654e-05
5.756454676388636e-07,3.137707497300133e-07,3.777663625910465e-07,1.5479134857150226e-05
5.734959463093766e-07,3.138799057602417e-07,3.780299859743929e-07,1.5219220351769464e-05
5.713946098594346e-07,3.1418770492418734e-07,3.7823821599635894e-07,1.4959443375195687e-05
5.693734881646534e-07,3.146840816293288e-07,3.784003666523736e-07,1.4700127147950492e-05
5.674625476627147e-07,3.1535578871423746e-07,3.7852485950536964e-07,1.4441602439064942e-05
5.656882401120112e-07,3.16187304082557e-07,3.786190469487501e-07,1.4184166144863992e-05
5.640731308081948e-07,3.171611665110773e-07,3.7868879056420406e-07,1.3928043048077296e-05
5.626354243613313e-07,3.1825760315513375e-07,3.7873745435729315e-07,1.3673399266999284e-05
5.613888896844413e-07,3.194551899568133e-07,3.787653180443215e-07,1.3420406768729726e-05
5.603447857901496e-07,3.2073458710121456e-07,3.787699045817976e-07,1.3169296068999335e-05
5.595151638768528e-07,3.220834603494741e-07,3.787463867739178e-07,1.2920333532079358e-05
5.589136686433759e-07,3.234971749312649e-07,3.7868775539311023e-07,1.2673755786154535e-05
5.585527599822854e-07,3.249750967892068e-07,3.7858536578760684e-07,1.2429742500353713e-05
5.584409075119787e-07,3.265173526085368e-07,3.784303775733795e-07,1.2188449477653896e-05
5.58582180886006e-07,3.281231659561654e-07,3.78215393281445e-07,1.195008744356246e-05
5.589769664196229e-07,3.297898132945326e-07,3.779345890106644e-07,1.1715013052130459e-05
5.59621515549816e-07,3.3151302123779824e-07,3.7758210175113846e-07,1.1483758612295054e-05
5.605060465005751e-07,3.332875314230251e-07,3.7715042656879456e-07,1.1256962451685886e-05
5.61613821978259e-07,3.351057858266973e-07,3.766308996265071e-07,1.1035268747914548e-05
5.629238201126676e-07,3.369564268089749e-07,3.7601653153996955e-07,1.0819272407651596e-05
5.644149137989863e-07,3.388243932695305e-07,3.753038615830653e-07,1.0609491612048668e-05
5.660666101790607e-07,3.406918166127873e-07,3.744912906139094e-07,1.0406343554113536e-05
5.678574532036061e-07,3.4253880330415767e-07,3.735764836015968e-07,1.0210139339160223e-05
5.697651507654859e-07,3.443438995474301e-07,3.7255558497900726e-07,1.0021120954917636e-05
5.717674456650121e-07,3.4608457066202326e-07,3.714235812432854e-07,9.839558278642225e-06
5.738423459175319e-07,3.477384054967175e-07,3.7017453464081343e-07,9.665842908114739e-06
5.759691392638377e-07,3.492850592228777e-07,3.6880215277102645e-07,9.500471922374895e-06
5.78131534422621e-07,3.5070756755272887e-07,3.6730246981418974e-07,9.343953461794198e-06
5.803223370919573e-07,3.519918515874105e-07,3.6567737046563743e-07,9.196737093461867e-06
5.825454470355881e-07,3.5312554225090716e-07,3.639348814657224e-07,9.059174768531047e-06
5.848115263244076e-07,3.54098105328375e-07,3.620864545341825e-07,8.931510480237421e-06
5.871306849789963e-07,3.549014286210392e-07,3.6014540300533547e-07,8.813923810959196e-06
5.895101385772869e-07,3.555291378853871e-07,3.581280568349702e-07,8.706594307687528e-06
5.919600327364696e-07,3.5597580365866644e-07,3.5605548147795257e-07,8.609734648298763e-06
5.9450043128417e-07,3.562372819509849e-07,3.5395329451673007e-07,8.523571930290121e-06
5.971611526756773e-07,3.5631140703692064e-07,3.518496251139715e-07,8.44829206857586e-06
5.999753364626114e-07,3.5619789098577773e-07,3.497733099109211e-07,8.383978811092378e-06
6.029717317825134e-07,3.558976041038029e-07,3.4775308358066913e-07,8.330575083438916e-06
6.061692213370279e-07,3.554124741433428e-07,3.458164298492396e-07,8.28788856864984e-06
6.095759376708369e-07,3.547460409264345e-07,3.4398780007703364e-07,8.255659836347422e-06
6.131920324202421e-07,3.53904335136717e-07,3.4228767175252736e-07,8.233741788290171e-06
6.170146738611056e-07,3.528963311069605e-07,3.40733157902452e-07,8.22236435281168e-06
6.210447371125772e-07,3.51733363944632e-07,3.393386154730625e-07,8.22224720100033e-06
6.252919001274683e-07,3.504294640772013e-07,3.381145377228313e-07,8.234422386995944e-06
6.29775729024043e-07,3.490023729244687e-07,3.370663617853157e-07,8.25999220627935e-06
6.345228396991104e-07,3.474722822981425e-07,3.3619609876217506e-07,8.300000663638588e-06
6.395599694672666e-07,3.4585891446611925e-07,3.355052272165402e-07,8.355363182398247e-06
6.449058073819556e-07,3.441796808453385e-07,3.349953125936405e-07,8.426860773801605e-06
6.50566781923755e-07,3.4245002900892217e-07,3.346675552543873e-07,8.515179136427992e-06
6.565396082936593e-07,3.4068518200530873e-07,3.345232977388389e-07,8.620897294259101e-06
6.628195262256944e-07,3.389006266816369e-07,3.345637790645802e-07,8.744476482289157e-06
6.694077862981976e-07,3.3711036314518306e-07,3.3478930905346734e-07,8.886293134307983e-06
6.763131523880466e-07,3.35325903853046e-07,3.351999869146476e-07,9.04662492142683e-06
6.835490159279241e-07,3.3355769919279057e-07,3.3579605669661225e-07,9.225560617760643e-06
6.911281724165156e-07,3.3181645705210965e-07,3.365759803497566e-07,9.422897780201078e-06
6.990579101181529e-07,3.301123400893105e-07,3.375347825565751e-07,9.638083650823168e-06
7.073399533841073e-07,3.2845345003526624e-07,3.38664339107502e-07,9.870234788541032e-06
7.159745892105309e-07,3.268452621929447e-07,3.39954640670264e-07,1.0118246190242999e-05
7.249633646199077e-07,3.252906996176547e-07,3.413952613855732e-07,1.0380938864606944e-05
7.343063230225642e-07,3.2379030249154037e-07,3.429765567158352e-07,1.0657152768588317e-05
7.439951797158456e-07,3.223424521370746e-07,3.4469100538488843e-07,1.0945745603629657e-05
7.540082742986694e-07,3.209438561593553e-07,3.465342471276546e-07,1.1245527904331063e-05
7.643112335144199e-07,3.1959037639365804e-07,3.485040810727329e-07,1.1555180359735871e-05
7.748621790293909e-07,3.182774688348557e-07,3.505986459436019e-07,1.1873207557914205e-05
7.856172843252352e-07,3.170002262069061e-07,3.5281593480698425e-07,1.2197955392861632e-05
7.965324744672191e-07,3.157536616352111e-07,3.55153745577121e-07,1.2527675292857906e-05
8.075613012428645e-07,3.14532551521806e-07,3.576087547243295e-07,1.2860655358842275e-05
8.186535931366569e-07,3.133306028461621e-07,3.6017536828477827e-07,1.3195433301239962e-05
8.297589238277792e-07,3.121398536504145e-07,3.6284534075302985e-07,1.3530955269903284e-05
8.408344314411241e-07,3.109509108753457e-07,3.6560790718959274e-07,1.3866523767205921e-05
8.518518347931556e-07,3.0975436728565825e-07,3.684497919600821e-07,1.4201590376255993e-05
8.627987254522844e-07,3.085424740179909e-07,3.713552455253816e-07,1.4535557357326974e-05
8.736742211494719e-07,3.073103192001125e-07,3.743063274636683e-07,1.4867704271624741e-05
8.844811709555212e-07,3.060576356437787e-07,3.7728375621862404e-07,1.5197355555738706e-05
8.952178312782772e-07,3.0479031007015066e-07,3.802693767040689e-07,1.55242621848186e-05
9.058751101178976e-07,3.0351858499041986e-07,3.83248935850595e-07,1.584886406092412e-05
9.16441493476371e-07,3.022528268914463e-07,3.862116633681922e-07,1.6172168055835412e-05
9.269085054594532e-07,3.010008410992302e-07,3.891474145714231e-07,1.6495393229432706e-05
9.37270876815802e-07,2.9976738880756925e-07,3.9204536471969063e-07,1.6819664438933814e-05
9.47523433906982e-07,2.985541047758265e-07,3.9489421828501156e-07,1.714584517929694e-05
9.57658150850228e-07,2.973600991985681e-07,3.976813197093222e-07,1.7474461628094345e-05
9.67662555523914e-07,2.961838013584184e-07,4.00391397149204e-07,1.7805663810255373e-05
9.775191844403255e-07,2.950244344884664e-07,4.0300708480873437e-07,1.8139215405448328e-05
9.872046213655036e-07,2.9388252542932356e-07,4.05510468254549e-07,1.8474522065588493e-05
9.966882334806354e-07,2.9276158754365017e-07,4.0788410448245703e-07,1.8810684970867e-05
1.0059325371410623e-06,2.91670425816107e-07,4.101114590875488e-07,1.914655083401201e-05
1.0148950392471845e-06,2.906226191146561e-07,4.1217688218048223e-07,1.94807523212904e-05
1.023530564828737e-06,2.896344259919815e-07,4.1406526302875817e-07,1.9811766338074498e-05
1.0317947696961548e-06,2.887242467795742e-07,4.157615514175277e-07,2.013799828331126e-05
1.0396470996369057e-06,2.8791182513463995e-07,4.1725016668902247e-07,2.0457863714367613e-05
1.0470498288932524e-06,2.8721545844983425e-07,4.18514816642561e-07,2.076984388546992e-05
1.0539655443316222e-06,2.8664925320364147e-07,4.195391101174045e-07,2.107250627879873e-05
1.0603565173534842e-06,2.862218155747479e-07,4.2030738612815924e-07,2.136451702216048e-05
1.0661846231445994e-06,2.859361395026177e-07,4.208051257537072e-07,2.1644699862500308e-05
1.0714119228867572e-06,2.8579019810753877e-07,4.210192780342392e-07,2.1912126208000573e-05
1.0760026825345057e-06,2.857778024873193e-07,4.209396697591146e-07,2.216615183673941e-05
1.0799239080399951e-06,2.858901224702946e-07,4.205613219163861e-07,2.240638008065252e-05
1.083143141342125e-06,2.861174786132236e-07,4.198849311585294e-07,2.2632608125992708e-05
1.0856265544399741e-06,2.8644960103197307e-07,4.1891467833304135e-07,2.2844769851446897e-05
1.087339992021965e-06,2.868751177351032e-07,4.176557958653788e-07,2.304284116215905e-05
1.088251767432548e-06,2.873837500519572e-07,4.161133872489463e-07,2.3226730403369705e-05
1.0883347088725108e-06,2.879705918587772e-07,4.142929845323394e-07,2.339622877233406e-05
1.0875687066301624e-06,2.886374970842688e-07,4.1220280480348593e-07,2.3551038769819737e-05
1.0859448626958193e-06,2.893909097946946e-07,4.098562212456833e-07,2.369082548460728e-05
1.0834672190732193e-06,2.902395702422136e-07,4.0727244591828927e-07,2.3815257983304568e-05
1.080151690382631e-06,2.9119266081579836e-07,4.044746193866223e-07,2.392406043328124e-05
1.076026141815545e-06,2.922578411290954e-07,4.014867093428856e-07,2.401707278290759e-05
1.0711296308868305e-06,2.9344002274793246e-07,3.9833090082374407e-07,2.409426165945004e-05
1.0655094711075837e-06,2.947406856831521e-07,3.9502631997461855e-07,2.415565518140517e-05
1.059220114963999e-06,2.961573508730392e-07,3.91589511465841e-07,2.420126911194043e-05
1.052323625822949e-06,2.976838451456785e-07,3.880358679418565e-07,2.4231066779212743e-05
1.0448883130392272e-06,2.993112541135609e-07,3.8438087305651456e-07,2.4244939328371562e-05
1.0369844554809316e-06,3.010284916345361e-07,3.806408605538911e-07,2.424274878515173e-05
1.0286782987676734e-06,3.028222620859209e-07,3.768331209168783e-07,2.4224476047584145e-05
1.020027407655087e-06,3.0467724007533394e-07,3.7297532248986824e-07,2.4190373826101324e-05
1.0110794686999228e-06,3.0657661386445253e-07,3.6908509781919757e-07,2.414096341224495e-05
1.0018752637941184e-06,3.085026141720358e-07,3.651800780974394e-07,2.407687597412924e-05
9.92455417128032e-07,3.104367340457883e-07,3.6127715229004077e-07,2.3998708893050146e-05
9.828656955270829e-07,3.123594106405416e-07,3.5739134516609846e-07,2.39069954433583e-05
9.731552546677861e-07,3.1424991289071496e-07,3.5353586924529844e-07,2.380222782392667e-05
9.63370861786217e-07,3.1608716905571324e-07,3.497222799627421e-07,2.3684873643474806e-05
9.535555495952858e-07,3.1785078647673184e-07,3.459594668461504e-07,2.355537931393205e-05
9.437534701729263e-07,3.195216303054423e-07,3.422530101828953e-07,2.341420304026616e-05
9.340125120583096e-07,3.2108250172307966e-07,3.386067207122572e-07,2.3261991449581155e-05
9.243794249838772e-07,3.2251877566600444e-07,3.350253666234586e-07,2.3099853607361624e-05
9.148950209775528e-07,3.238180603672095e-07,3.3151534734260376e-07,2.292945742962924e-05
9.055964411806419e-07,3.249690193520257e-07,3.2808256286991823e-07,2.275285034600833e-05
8.965207900368481e-07,3.259609570749554e-07,3.247305520741827e-07,2.257217151413812e-05
8.877028550993181e-07,3.267856587934303e-07,3.2146081856552766e-07,2.238942124112889e-05
8.791697029709625e-07,3.2744012441473253e-07,3.1827441321646607e-07,2.2206436135284135e-05
8.709386069081829e-07,3.279274227817278e-07,3.151730408306759e-07,2.2025128534675728e-05
8.630186135066437e-07,3.282552353887421e-07,3.121586265715058e-07,2.1847763718353304e-05
8.554118955545391e-07,3.2843330336582125e-07,3.0923234000328086e-07,2.16769935811732e-05
8.481143165993991e-07,3.284710836876362e-07,3.063942568398665e-07,2.1515658196794427e-05
8.411162901992102e-07,3.283763762208474e-07,3.036433511863375e-07,2.1366543658147823e-05
8.344033265967992e-07,3.2815476017685534e-07,3.0097771543988984e-07,2.12321990087663e-05
8.279566780449413e-07,3.278095340093996e-07,2.983946912650317e-07,2.111480569309353e-05
8.217540873889049e-07,3.273420363605265e-07,2.958904356708683e-07,2.1016079479692986e-05
8.157696885168573e-07,3.267523147740543e-07,2.9345956392699607e-07,2.093721410067411e-05
8.09974466318726e-07,3.260398345625824e-07,2.91095989670746e-07,2.0878878116286515e-05
8.043385198659722e-07,3.2520395059384687e-07,2.8879589367683467e-07,2.084124939490825e-05
7.988335782834795e-07,3.242452475922842e-07,2.865608030079825e-07,2.0824047193617228e-05
7.934356031389852e-07,3.2316820211254674e-07,2.843972344681404e-07,2.0826549376391377e-05
7.881280615955521e-07,3.2198243658379546e-07,2.823142226621487e-07,2.08476277129226e-05
7.829016618738886e-07,3.207007129915306e-07,2.8032176732087394e-07,2.088581035449616e-05
7.7774890009677e-07,3.19335755826079e-07,2.78429900653016e-07,2.093935406177353e-05
7.726599217556198e-07,3.1789831451624734e-07,2.766474581693556e-07,2.100634330788231e-05
7.676229094773085e-07,3.163968842131026e-07,2.749809068557513e-07,2.1084826194265647e-05
7.626254435429054e-07,3.148387409519508e-07,2.734341389052556e-07,2.117292756176505e-05
7.576553176184106e-07,3.132317629101001e-07,2.720094656347345e-07,2.126889256144337e-05
7.527027206687576e-07,3.115854626335484e-07,2.7070847506037915e-07,2.137109932466109e-05
7.477633649200689e-07,3.099100277180992e-07,2.69531633043398e-07,2.147807751836809e-05
7.428385228611572e-07,3.0821479667611103e-07,2.6847766455474906e-07,2.158851349227352e-05
7.379309323402091e-07,3.065073518751614e-07,2.67543703989539e-07,2.170122699548705e-05
7.33040719331741e-07,3.0479268653204174e-07,2.6672615948911875e-07,2.1815130348016865e-05
7.281638160766012e-07,3.03072999279805e-07,2.6602240681115013e-07,2.192917488389072e-05
7.232920374849032e-07,3.0134909692703e-07,2.654318775664382e-07,2.2042301927806257e-05
7.184147602688727e-07,2.9962258417185444e-07,2.6495484372686374e-07,2.2153447439173528e-05
7.135223887843934e-07,2.978976868002497e-07,2.645902259655381e-07,2.226159103297872e-05
7.086095916787487e-07,2.9618325610952e-07,2.6433464385218465e-07,2.236577637710632e-05
7.036759898330472e-07,2.94494849899964e-07,2.641828874359131e-07,2.246510019715925e-05
6.987251037575904e-07,2.928552189489308e-07,2.641285872756184e-07,2.255871286832673e-05
6.9376384921149e-07,2.912930769508732e-07,2.641644092093964e-07,2.2645816442944932e-05
6.888023624390085e-07,2.898404438138906e-07,2.642820944344824e-07,2.272564846215729e-05
6.838525343580408e-07,2.885284532296963e-07,2.6447255351295186e-07,2.2797518824658398e-05
6.789259390691281e-07,2.873837096142541e-07,2.6472603091969574e-07,2.286091704132792e-05
6.740328947209038e-07,2.8642722545381087e-07,2.6503257743466805e-07,2.29155755465244e-05
6.691816399331315e-07,2.8567513171016605e-07,2.6538250390492054e-07,2.296143680945954e-05
6.643764527874753e-07,2.8513926020852187e-07,2.657668951384853e-07,2.2998583453021136e-05
6.596164291729045e-07,2.8482681776125285e-07,2.661789162768809e-07,2.3027150620993523e-05
6.548959105595013e-07,2.8473999004289307e-07,2.6661402839024854e-07,2.304721679374174e-05
6.502056066849775e-07,2.848763868173519e-07,2.670680489933511e-07,2.305872204194562e-05
6.455343300399807e-07,2.8523010007906863e-07,2.675366329397592e-07,2.306147927448133e-05
6.408720660040004e-07,2.857924798150022e-07,2.6801759278662106e-07,2.3055286008192802e-05
6.362131768633683e-07,2.865522351187866e-07,2.685133720084207e-07,2.304005998484464e-05
6.315565792268011e-07,2.8749560425929604e-07,2.690318468861569e-07,2.301590566226621e-05
6.269025546925436e-07,2.8860734265856683e-07,2.6958509030975735e-07,2.2983088096573168e-05
6.222503771861654e-07,2.898722586590579e-07,2.701868572015944e-07,2.2941952206904213e-05
6.175990326772849e-07,2.912764423058461e-07,2.708505773925536e-07,2.2892855510582024e-05
6.129488853562355e-07,2.9280745688456304e-07,2.715884109749331e-07,2.2836188241863645e-05
6.083040920129972e-07,2.944532974808712e-07,2.7241034638797944e-07,2.2772453260000603e-05
6.036760536520408e-07,2.962007876785155e-07,2.7332330745463963e-07,2.270227647005253e-05
5.990834594929836e-07,2.9803463227450326e-07,2.743311397713583e-07,2.26262997499558e-05
5.945474535277454e-07,2.9993770315606625e-07,2.7543489986251105e-07,2.2545038973021342e-05
5.90087344949325e-07,3.018920780261025e-07,2.766327578270693e-07,2.245879860052437e-05
5.857199004284537e-07,3.038802064393106e-07,2.779201693677652e-07,2.2367664236536828e-05
5.814594356944033e-07,3.058860326183881e-07,2.7929023748797173e-07,2.2271536337403062e-05
5.773165363168368e-07,3.07895813408788e-07,2.807339850435585e-07,2.217017692256604e-05
5.732978843761734e-07,3.098982893961737e-07,2.8224116701045034e-07,2.206329621615197e-05
5.694088355974163e-07,3.118844400077817e-07,2.838016015326541e-07,2.195068638520844e-05
5.656547444319231e-07,3.138468194666777e-07,2.8540660166856963e-07,2.1832315900846687e-05
5.620387932365428e-07,3.157788321735405e-07,2.870494572098069e-07,2.1708308263560707e-05
5.585599946246186e-07,3.176750503963513e-07,2.887239539859848e-07,2.1578847790611303e-05
5.552141102262696e-07,3.195313575474322e-07,2.9042257656400716e-07,2.1444132353473853e-05
5.519975699532079e-07,3.213433223183241e-07,2.9213622430752604e-07,2.130446610511975e-05
5.489122744922653e-07,3.231047213445444e-07,2.938548472486316e-07,2.1160432881134727e-05
5.45967466979635e-07,3.248081665168524e-07,2.955681197396855e-07,2.101294209519839e-05
5.431806273779628e-07,3.264463674289973e-07,2.9726601245976964e-07,2.0863069795620696e-05
5.405806053719672e-07,3.2801180213164285e-07,2.989388469060029e-07,2.071186661916187e-05
5.382075641647745e-07,3.2949545429796126e-07,3.0057687159148844e-07,2.0560248237365853e-05
5.361058612545889e-07,3.3088646534764965e-07,3.021703584384635e-07,2.0408929040967128e-05
5.343156000475618e-07,3.321729925221068e-07,3.0370981711128264e-07,2.025840308263336e-05
5.32868798826343e-07,3.3334414479121214e-07,3.051852571697805e-07,2.010897439602405e-05
5.31789023522579e-07,3.343920083336134e-07,3.065852510929652e-07,1.9960776401422136e-05
5.310909863682386e-07,3.353116231633974e-07,3.078966825679153e-07,1.9813820939171122e-05
5.307800045151794e-07,3.3609906167164396e-07,3.0910535673412317e-07,1.966819738411911e-05
5.308520866356793e-07,3.367499145399128e-07,3.1019835465810317e-07,1.952436105190816e-05
5.312946429645495e-07,3.372590985161577e-07,3.111676348006308e-07,1.9383263125827412e-05
5.320875604712511e-07,3.376224627900137e-07,3.120110937977891e-07,1.924619736698113e-05
5.332038663262145e-07,3.3784031363917226e-07,3.1272937256994054e-07,1.911452382228297e-05
5.34610777214589e-07,3.3791930587363647e-07,3.133220449896326e-07,1.898957211157861e-05
5.362724201091868e-07,3.378704333140563e-07,3.137862479754514e-07,1.887282940521292e-05
5.38153049470519e-07,3.377065891249466e-07,3.141175767586915e-07,1.876618810357601e-05
5.402186307642416e-07,3.374419201700998e-07,3.143129337382257e-07,1.8672014773045936e-05
5.424363327271729e-07,3.370914179622914e-07,3.143742102982093e-07,1.859302112276348e-05
5.447733091361751e-07,3.366700283655136e-07,3.143104136939563e-07,1.8532064787633803e-05
5.471958346249178e-07,3.3619148178460934e-07,3.141374177411956e-07,1.849195759843956e-05
5.496684788826044e-07,3.356669662509939e-07,3.1387580658185137e-07,1.847521829186025e-05
5.521533866459006e-07,3.351052037111769e-07,3.135474517347757e-07,1.848379182380229e-05
5.546104514911822e-07,3.345148485553903e-07,3.131724217393189e-07,1.851889998355989e-05
5.569982902866985e-07,3.339064442297594e-07,3.1276757834029497e-07,1.8581068010297877e-05
5.592757038731655e-07,3.3329178591965825e-07,3.1234678926503985e-07,1.867021901217384e-05
5.614039297110594e-07,3.326825154200944e-07,3.119227442047081e-07,1.8785753737411106e-05
5.633491216396879e-07,3.3208925987852877e-07,3.1150954107255906e-07,1.892662727029169e-05
5.650844450936527e-07,3.315209772692866e-07,3.111239468460785e-07,1.9091462080797888e-05
5.665918993541441e-07,3.309849502419913e-07,3.10785514468387e-07,1.9278696906944565e-05
5.678627857229523e-07,3.30487698209614e-07,3.105161991572962e-07,1.948673501366731e-05
5.688965038158398e-07,3.300364171022487e-07,3.1033862615510285e-07,1.9714027028252122e-05
5.696988582218458e-07,3.296401476608657e-07,3.102735866001696e-07,1.995902442136484e-05
5.702795476424525e-07,3.2930986752699163e-07,3.103378757072743e-07,2.022003444156158e-05
5.706497353853171e-07,3.2905764408957923e-07,3.10543559726384e-07,2.049513907790563e-05
5.708227678249927e-07,3.288949926405055e-07,3.108991087557684e-07,2.0782331873202227e-05
5.708172929273453e-07,3.288308664703212e-07,3.114101764188084e-07,2.10797777805178e-05
5.706586441504428e-07,3.288705826497197e-07,3.120788740570985e-07,2.138591407569699e-05
5.703767240964695e-07,3.2901570247711226e-07,3.129037772807416e-07,2.169934821852776e-05
5.70001885229216e-07,3.292640827687717e-07,3.138812749952593e-07,2.201875860008762e-05
5.69561627450152e-07,3.296104381456019e-07,3.1500574492532037e-07,2.2342860561605524e-05
5.690795060419828e-07,3.300486312328783e-07,3.162685023721408e-07,2.2670374365566285e-05
5.68574940525436e-07,3.3057593860584267e-07,3.1765857873925645e-07,2.2999985085231517e-05
5.680633558768906e-07,3.3119628489224965e-07,3.191655524047042e-07,2.3330295361982605e-05
5.675570523679629e-07,3.3191933434603084e-07,3.207814431470337e-07,2.365976802957125e-05
5.670650897596343e-07,3.3275656700535633e-07,3.22500854888259e-07,2.398667581239073e-05
5.665921086224062e-07,3.337174784187267e-07,3.243206087184381e-07,2.430910708418991e-05
5.661395730323911e-07,3.3480733536695446e-07,3.262385334171046e-07,2.462508452458537e-05
5.657097029639929e-07,3.36026293402056e-07,3.282512131933455e-07,2.4932744871792652e-05
5.653079939155573e-07,3.373696869444228e-07,3.3035235880035007e-07,2.523042979733888e-05
5.649417641042299e-07,3.3882899527270605e-07,3.325327622387651e-07,2.55166535227586e-05
5.646162923683915e-07,3.403932648245938e-07,3.34781136866536e-07,2.5790039998895816e-05
5.643322263920706e-07,3.420514635742819e-07,3.370850329458119e-07,2.604926090245464e-05
5.640852212470815e-07,3.4379433469527173e-07,3.394313649228701e-07,2.629297087246373e-05
5.638665268317381e-07,3.4561370616400986e-07,3.4180641951524987e-07,2.651978833699685e-05
5.636655342695652e-07,3.475004860682948e-07,3.441958232883249e-07,2.672833293117656e-05
5.634738170400428e-07,3.494437869440889e-07,3.46584471719681e-07,2.6917260816788505e-05
5.632863382038506e-07,3.514309204801968e-07,3.4895595710315513e-07,2.7085263526569604e-05
5.630990052213056e-07,3.534476913258465e-07,3.512921132804808e-07,2.7231076626064286e-05
5.629070131533422e-07,3.5548125144763117e-07,3.5357345855099674e-07,2.735357992968445e-05
5.627063814752722e-07,3.5752626658001476e-07,3.5577986890678686e-07,2.745196418806236e-05
5.624966567561811e-07,3.595899205122454e-07,3.5789072451713883e-07,2.752582978769513e-05
5.622826456624999e-07,3.616906969196525e-07,3.598852077693275e-07,2.757517461174676e-05
5.620751768419137e-07,3.638514262526901e-07,3.617430729007226e-07,2.760031872019178e-05
5.618913995926397e-07,3.6609188161179365e-07,3.634450307974257e-07,2.7601772882689006e-05
5.617530995968389e-07,3.684249617865244e-07,3.649730072166369e-07,2.7580081383623107e-05
5.616815540704268e-07,3.7085636862098773e-07,3.6631109710315317e-07,2.7535726308137395e-05
5.616921598485055e-07,3.733856482011816e-07,3.6744630280654e-07,2.7469121132341683e-05
5.617926018141618e-07,3.7600783100380673e-07,3.683684650064278e-07,2.7380638042735445e-05
5.619844662982022e-07,3.787166048446404e-07,3.690709204881634e-07,2.7270627744539684e-05
5.62267092744851e-07,3.815079864482588e-07,3.695518562215655e-07,2.71394246744642e-05
5.626409162237478e-07,3.8438136876842717e-07,3.698139211115625e-07,2.6987337308344048e-05
5.631082819796841e-07,3.8733740405177397e-07,3.6986274544103244e-07,2.681465062045841e-05
5.636728084074562e-07,3.903751777797397e-07,3.697065933311721e-07,2.662165562545376e-05
5.643374635766765e-07,3.9349028641168754e-07,3.6935556707708665e-07,2.640868643944025e-05
5.651022520891246e-07,3.9667501468222474e-07,3.688196556117633e-07,2.617615268094097e-05
5.659645239819073e-07,3.999223956724464e-07,3.681083481837411e-07,2.592454773314887e-05
5.669228104326637e-07,4.032320882000896e-07,3.672320151269625e-07,2.5654434705197706e-05
5.679811025011019e-07,4.066119769026196e-07,3.662022319031398e-07,2.536647514004571e-05
5.691488543107305e-07,4.100737573442618e-07,3.6503056647727815e-07,2.506150280499852e-05
5.704360824014384e-07,4.136277420460704e-07,3.637279415473956e-07,2.4740529506982332e-05
5.71848233090433e-07,4.1728069220138543e-07,3.623049770226608e-07,2.440465336606869e-05
5.733847331539779e-07,4.2103499867476776e-07,3.6077248804158026e-07,2.405498570031865e-05
5.750402142552539e-07,4.2488753504445684e-07,3.591419218522567e-07,2.3692658374643838e-05
5.768054528365992e-07,4.288289633190257e-07,3.5742507223805253e-07,2.3318836231241346e-05
5.786672141126523e-07,4.32843875613338e-07,3.5563302291988225e-07,2.2934669452247737e-05
5.806081907761738e-07,4.369114510310755e-07,3.5377541826092314e-07,2.2541244849994897e-05
5.826085186382175e-07,4.4100657711306267e-07,3.518608252649497e-07,2.213967336115103e-05
5.84648578787499e-07,4.4510136343384774e-07,3.4989815683076765e-07,2.173137069988808e-05
5.867105821954689e-07,4.4916743652233754e-07,3.4789787847474017e-07,2.1318334448931587e-05
5.88777524244802e-07,4.531786606842432e-07,3.458717399427926e-07,2.0903155717876737e-05
5.908321935166432e-07,4.5711298432306463e-07,3.438320006479055e-07,2.0488806639791777e-05
5.928599369234788e-07,4.6095353176185855e-07,3.4179098269690446e-07,2.007840229630319e-05
5.948536346675681e-07,4.6468828968544177e-07,3.397601473272685e-07,1.9675008195157762e-05
5.968149396827965e-07,4.6830708491164245e-07,3.3774962040076836e-07,1.9281555228114272e-05
5.987496367097738e-07,4.7179823930040796e-07,3.357691866671125e-07,1.8900949360835918e-05
6.006627723226876e-07,4.751475963991416e-07,3.3382886954616673e-07,1.853625950838834e-05
6.025589103991922e-07,4.783393763413747e-07,3.3193828239716746e-07,1.819076419001833e-05
6.044439315834197e-07,4.813575307722424e-07,3.30106547440377e-07,1.7867841549047103e-05
6.063232016152518e-07,4.841862578102611e-07,3.2834318864376866e-07,1.757079453149656e-05
6.081991900258847e-07,4.86809617940754e-07,3.26658104283069e-07,1.730265839488327e-05
6.100720990058487e-07,4.89211727018671e-07,3.250601518276899e-07,1.7066058513958814e-05
6.119409386468197e-07,4.913772706481091e-07,3.23556218540584e-07,1.686315725361467e-05
6.138046075164018e-07,4.932915613832348e-07,3.221517156199795e-07,1.669565356067008e-05
6.156633446276015e-07,4.94940511346014e-07,3.208513587672003e-07,1.656480212382445e-05
6.175167821001688e-07,4.963103405551685e-07,3.1965866975491645e-07,1.6471436917922725e-05
6.193600019244539e-07,4.973879961218153e-07,3.1857472504515026e-07,1.6415968408915888e-05
6.211835757559411e-07,4.981632178212294e-07,3.175986361311166e-07,1.639833853864314e-05
6.22977276757557e-07,4.986293767268845e-07,3.1672948160485265e-07,1.6417978886445967e-05
6.247327313003109e-07,4.987817778864216e-07,3.159666070678178e-07,1.6473840798795855e-05
6.26442938676729e-07,4.986163905070887e-07,3.1530825734919893e-07,1.6564515669595003e-05
6.28100979963296e-07,4.981297437371632e-07,3.1475089947473567e-07,1.6688396488324872e-05
6.296999161380696e-07,4.973188974336372e-07,3.142895932456673e-07,1.684380792371672e-05
6.312317159364796e-07,4.961818950459908e-07,3.139182234300996e-07,1.7029058403326408e-05
6.326851815123404e-07,4.947181848489871e-07,3.136293871660961e-07,1.7242414524001955e-05
6.340470925636524e-07,4.929284853411565e-07,3.134152862045448e-07,1.7482042264130834e-05
6.353063254426604e-07,4.908152083293288e-07,3.132693018450381e-07,1.7745962278891336e-05
6.364553276948112e-07,4.883833105949625e-07,3.1318713044824944e-07,1.8032029107735237e-05
6.37487726761068e-07,4.856406129983042e-07,3.1316895982234805e-07,1.8337938048921963e-05
6.383962949887411e-07,4.825976861625394e-07,3.132213761989077e-07,1.8661265257587603e-05
6.391722698823921e-07,4.792673282828566e-07,3.133551313672635e-07,1.899950817895243e-05
6.398043030974754e-07,4.756641967935268e-07,3.1358100380498736e-07,1.9350110698805787e-05
6.402779616860795e-07,4.718067276267689e-07,3.1390791221798073e-07,1.9710507636593527e-05
6.40576822324946e-07,4.6772166523801527e-07,3.1434219556827114e-07,2.0078180499232385e-05
6.406841976364739e-07,4.634463676367344e-07,3.148863567946987e-07,2.045067841922852e-05
6.405846060812042e-07,4.5902445799417036e-07,3.1553798082946073e-07,2.0825595728117232e-05
6.40264323981849e-07,4.544982812041053e-07,3.16289693976056e-07,2.1200528725801395e-05
6.39710809736779e-07,4.4990462301557896e-07,3.1713037781849214e-07,2.157304461075916e-05
6.389121613474785e-07,4.452748543445425e-07,3.18046678383008e-07,2.194068341515531e-05
6.378573918704962e-07,4.4063721512585297e-07,3.1902365769563305e-07,2.230098904724408e-05
6.365363966049517e-07,4.3601921174753607e-07,3.200456864669949e-07,2.2651549096241265e-05
6.349398872357277e-07,4.314485000240712e-07,3.210988961841621e-07,2.299001676694425e-05
6.330623593018678e-07,4.2695309555473453e-07,3.221728294330449e-07,2.331411245073164e-05
6.30906014288219e-07,4.225622998451456e-07,3.2325908998724546e-07,2.362165651479279e-05
6.284791174000786e-07,4.1830616857026246e-07,3.243499593441876e-07,2.391070184244711e-05
6.257902606197739e-07,4.1421317160255813e-07,3.25439255311872e-07,2.417971248731212e-05
6.228450588926706e-07,4.1030892144337524e-07,3.2652259180507715e-07,2.442761600332784e-05
6.196470142777405e-07,4.066157603203488e-07,3.275957911581517e-07,2.4653676085805544e-05
6.16201608967179e-07,4.031530687897347e-07,3.286536136300268e-07,2.4857319979053205e-05
6.125204579007145e-07,3.99939687546601e-07,3.296892488515641e-07,2.5038048702198995e-05
6.086204615663731e-07,3.9699593339390546e-07,3.306940777436986e-07,2.519542839755856e-05
6.045188314603227e-07,3.9434259926378133e-07,3.3165851153468017e-07,2.5329087855140522e-05
6.002299769486028e-07,3.919981211524251e-07,3.3257405270864264e-07,2.543868416627557e-05
5.957672741318178e-07,3.8997613572577135e-07,3.3343463553969394e-07,2.552392042025993e-05
5.911483856330729e-07,3.8828682503812407e-07,3.342355358410247e-07,2.558474289310739e-05
5.86399050612348e-07,3.8694281698768356e-07,3.349712466754706e-07,2.562162317701044e-05
5.815505715169225e-07,3.859630137775328e-07,3.356345389540769e-07,2.5635648581942833e-05
5.766353196659177e-07,3.853689215952743e-07,3.362174432514307e-07,2.5628350478159226e-05
5.716889513537588e-07,3.851773595506295e-07,3.367139615284099e-07,2.5601433914725776e-05
5.667581439275728e-07,3.8539592604417784e-07,3.3712151356438607e-07,2.5556564882760682e-05
5.619036549175519e-07,3.860222254577197e-07,3.374390731851767e-07,2.5495354917746586e-05
5.571933327171604e-07,3.8704489921834173e-07,3.3766648480051213e-07,2.5419593596580786e-05
5.526910739947755e-07,3.884460004872983e-07,3.378080035884525e-07,2.533151688553253e-05
5.484506229355503e-07,3.9020414811599724e-07,3.378751750521246e-07,2.5233850035449686e-05
5.44515970748976e-07,3.922961040316546e-07,3.378852201245861e-07,2.5129638753664388e-05
5.409255211008297e-07,3.9469595257133e-07,3.3785774961956397e-07,2.50220374945716e-05
5.377179392072154e-07,3.9737381253614367e-07,3.378121040356545e-07,2.491412734383584e-05
5.349355588092509e-07,4.0029554821183897e-07,3.3776508352104913e-07,2.480875968360338e-05
5.326213164875278e-07,4.0342355958404953e-07,3.377309462710147e-07,2.4708451302402263e-05
5.308127990825655e-07,4.067185153506154e-07,3.377240780373703e-07,2.4615360213317068e-05
5.295393967042509e-07,4.101424228590173e-07,3.377602317942664e-07,2.4531315739703923e-05
5.288230378283489e-07,4.1366322217695863e-07,3.378543636835632e-07,2.445785013121945e-05
5.286794053638292e-07,4.172576385232411e-07,3.380183095393856e-07,2.439618400601269e-05
5.291171135106329e-07,4.2090829270443117e-07,3.382609455910166e-07,2.434715175224113e-05
5.301357548474914e-07,4.245975045558467e-07,3.3858888184161737e-07,2.431112679972984e-05
5.317252496715864e-07,4.2830390512101064e-07,3.3900563410860673e-07,2.4288022403124866e-05
5.338666828222009e-07,4.3200381359130594e-07,3.395109011116161e-07,2.42773779631245e-05
5.36533090213116e-07,4.3567404568037005e-07,3.401013737665739e-07,2.427849134741919e-05
5.396898057459985e-07,4.3929286151755133e-07,3.407729444826972e-07,2.4290554817406728e-05
5.432956621683586e-07,4.4284036052729495e-07,3.415237962705708e-07,2.4312764659293922e-05
5.473045599003513e-07,4.4630013258238727e-07,3.423556930530931e-07,2.4344395839317365e-05
5.516659436178707e-07,4.4965994721239127e-07,3.43271502658158e-07,2.438485143666884e-05
5.56325482099362e-07,4.529099300587047e-07,3.442714244002088e-07,2.4433685406073645e-05
5.612278091523229e-07,4.5604007611671104e-07,3.4535143872467717e-07,2.449057452883289e-05
5.663208219108321e-07,4.590385237849616e-07,3.465042933314153e-07,2.4555237512540727e-05
5.715602083590827e-07,4.6189080479265356e-07,3.477208165878875e-07,2.462733677230729e-05
5.769137930355578e-07,4.645800520565983e-07,3.4899105893109644e-07,2.470638605568987e-05
5.823629048298401e-07,4.6708745632579525e-07,3.5030689974578773e-07,2.4791693432197588e-05
5.8789810721352e-07,4.693929559874701e-07,3.5166470542336076e-07,2.4882394661614692e-05
5.935149562422831e-07,4.7147685466690007e-07,3.53064689995789e-07,2.4977545583782425e-05
5.992133045183588e-07,4.7332115665537005e-07,3.545077084235949e-07,2.507615663045999e-05
6.049955121200391e-07,4.749095095365211e-07,3.559923970791807e-07,2.5177143331269782e-05
6.108653438527775e-07,4.7622741276533567e-07,3.575143439876035e-07,2.5279283916566448e-05
6.16830060146638e-07,4.772634613767871e-07,3.5906768538122006e-07,2.5381251356982605e-05
6.228991447034399e-07,4.780104133398263e-07,3.6064682746902133e-07,2.548167523851321e-05
6.290775425680442e-07,4.784650069770678e-07,3.6224590012709397e-07,2.5579148751569212e-05
6.353596785603915e-07,4.786260735041973e-07,3.638572540121909e-07,2.5672197374410416e-05
6.417281819709541e-07,4.784927999385222e-07,3.654714782391101e-07,2.575929559443156e-05
6.481555876394804e-07,4.780651453912211e-07,3.670792990457164e-07,2.583894934694874e-05
6.546065026756352e-07,4.773447277788538e-07,3.686733193799717e-07,2.590980225659293e-05
6.610399661495011e-07,4.76334267942921e-07,3.7024765841146923e-07,2.5970754227014225e-05
6.674116084724767e-07,4.750365483216072e-07,3.71796749604536e-07,2.602107254051216e-05
6.736749906028046e-07,4.734538016422536e-07,3.733151630099223e-07,2.6060407797388212e-05
6.797838231696267e-07,4.715878314267707e-07,3.747971810761415e-07,2.608866818366473e-05
6.856962801571472e-07,4.6944136669892387e-07,3.7623528779450324e-07,2.6105829891333522e-05
6.913804565625613e-07,4.6701949595823686e-07,3.7761967976867903e-07,2.61118071166464e-05
6.968188833340686e-07,4.6432989299163953e-07,3.789397198790109e-07,2.610643541207872e-05
7.020071329346975e-07,4.6138243901155996e-07,3.801855367766229e-07,2.6089517969393492e-05
7.069465723760828e-07,4.5818846790263044e-07,3.813485000260485e-07,2.6060853438588918e-05
7.116399912758934e-07,4.54759702017785e-07,3.824213188612722e-07,2.602024544791399e-05
7.160916278230595e-07,4.5110832963718566e-07,3.8339829280303345e-07,2.5967622441112118e-05
7.203057010012377e-07,4.47248410979733e-07,3.84274607629886e-07,2.590328364889187e-05
7.242837838154046e-07,4.431972233245568e-07,3.8504457000195423e-07,2.582801282876109e-05
7.280238627489669e-07,4.3897564415088347e-07,3.857006271685908e-07,2.574292541004649e-05
7.315202786450721e-07,4.3460638318941325e-07,3.862341389511536e-07,2.564923103985604e-05
7.347630533674909e-07,4.301105712201162e-07,3.866382839370637e-07,2.554806374931124e-05
7.377368433069894e-07,4.255059709537288e-07,3.8691199542798097e-07,2.5440432254590727e-05
7.404207860668808e-07,4.208077743698472e-07,3.870601696884456e-07,2.532737754458895e-05
7.42789858736316e-07,4.1602974235281296e-07,3.8708916704926683e-07,2.5210250669308428e-05
7.448171998122336e-07,4.111842875515718e-07,3.870033280122121e-07,2.5090831982476675e-05
7.464763552803108e-07,4.062818234863561e-07,3.868051963200192e-07,2.4971229085033544e-05
7.477431239351944e-07,4.01330252174663e-07,3.8649688831163286e-07,2.485371975661653e-05
7.485977997495391e-07,3.9633568670327476e-07,3.860803425735009e-07,2.474062451780356e-05
7.490287765569152e-07,3.9130472296121367e-07,3.855562974846808e-07,2.4634197605599345e-05
7.490354696183877e-07,3.862467171329246e-07,3.849235573149983e-07,2.453652420329328e-05
7.486267833022678e-07,3.8117467603317546e-07,3.8417966358038204e-07,2.444942110546696e-05
7.478166867879805e-07,3.7610540565818595e-07,3.8332195335627493e-07,2.437436150961469e-05
7.466220252671121e-07,3.710598703366512e-07,3.8234807292935536e-07,2.431245445808181e-05
7.450633151779314e-07,3.660633306383481e-07,3.812561696593031e-07,2.4264465446833585e-05
7.431646085267995e-07,3.611436087585439e-07,3.8004496769294365e-07,2.423082915448868e-05
7.409503813857023e-07,3.5632774503305714e-07,3.7871422663556854e-07,2.42116333078486e-05
7.38442362272286e-07,3.516403148748995e-07,3.772656724837481e-07,2.420658845078385e-05
7.356594278556828e-07,3.471034032963873e-07,3.7570395885540795e-07,2.421502183766215e-05
7.32619106057891e-07,3.427353447363121e-07,3.7403762627534796e-07,2.423594823051665e-05
7.293373793199565e-07,3.3854967774037034e-07,3.722789171623242e-07,2.4268221516661773e-05
7.25827097939679e-07,3.3455726762802536e-07,3.704415873420104e-07,2.4310688913152232e-05
7.220970054395004e-07,3.3076976634310477e-07,3.685386084821622e-07,2.4362281799862326e-05
7.181516869781123e-07,3.272002123266243e-07,3.665812127646189e-07,2.442206952043085e-05
7.139932859241199e-07,3.238610085450316e-07,3.645788019078977e-07,2.448930918031264e-05
7.096257927662232e-07,3.2076307747051416e-07,3.6253980010261717e-07,2.456345652230644e-05
7.050588367367988e-07,3.179162044591309e-07,3.6047328836667507e-07,2.4644113149444573e-05
7.003070328012245e-07,3.153282242009821e-07,3.583899919611716e-07,2.4730930294154518e-05
6.953865935653254e-07,3.130035985986876e-07,3.5630233581451115e-07,2.4823482796253706e-05
6.9031312879483e-07,3.109427580425064e-07,3.542245455922657e-07,2.492116117547554e-05
6.851008799356092e-07,3.0914194182608034e-07,3.521723981514219e-07,2.5023170310752528e-05
6.797630667310694e-07,3.0759348800061824e-07,3.501615115361351e-07,2.51286108692285e-05
6.743128373770963e-07,3.062879890278949e-07,3.4820509499286127e-07,2.5236527451562285e-05
6.687627817109169e-07,3.052185472533141e-07,3.4631297630530056e-07,2.5345913486109877e-05
6.631242030680117e-07,3.0438482835209944e-07,3.444916163306714e-07,2.545573512204471e-05
6.574079760120296e-07,3.037938418579544e-07,3.427447085198975e-07,2.556497904045561e-05
6.516244122507218e-07,3.0345642018557875e-07,3.410763932371561e-07,2.5672684358256392e-05
6.457818399483486e-07,3.0338275632882534e-07,3.3949612458634e-07,2.577791674955729e-05
6.398871662188135e-07,3.03580165699825e-07,3.380192975511101e-07,2.587969130729345e-05
6.339474533649081e-07,3.0405222135921443e-07,3.366625227581253e-07,2.597691085298898e-05
6.279700145599694e-07,3.04799067953556e-07,3.354390744276191e-07,2.6068378150807405e-05
6.219630972123927e-07,3.058193164245928e-07,3.3435711143190796e-07,2.615288771220112e-05
6.159392076115271e-07,3.0711093591141127e-07,3.334194403329023e-07,2.622936710596141e-05
6.099186363994735e-07,3.086696127268177e-07,3.32624456235674e-07,2.629701593013324e-05
6.039300588028913e-07,3.1048678134638273e-07,3.319674528338579e-07,2.635535998279324e-05
5.980082435300074e-07,3.125498960020328e-07,3.314414454599622e-07,2.640415962437188e-05
5.92191615458651e-07,3.148455578955428e-07,3.3103855854045857e-07,2.6443228238038706e-05
5.865208484787063e-07,3.173628427156336e-07,3.307514678704951e-07,2.647229971064264e-05
5.810354050160237e-07,3.200935188606063e-07,3.305729629782813e-07,2.6491003785313386e-05
5.757684301443805e-07,3.230299594773644e-07,3.304945702009118e-07,2.6498887234281665e-05
5.707467838112801e-07,3.2616290743226893e-07,3.305061036132914e-07,2.649542110363031e-05
5.65996975390126e-07,3.294798869140586e-07,3.305957356039852e-07,2.6480018350204125e-05
5.615483893691645e-07,3.329652985890627e-07,3.3075032395047285e-07,2.645216205326609e-05
5.574292499678239e-07,3.3660190647963015e-07,3.309573865399201e-07,2.6411665046467168e-05
5.536611005924098e-07,3.403716485620989e-07,3.312078200815124e-07,2.6358854051250908e-05
5.502578207195593e-07,3.4425522505911806e-07,3.314960181851204e-07,2.6294489217464552e-05
5.47228276197057e-07,3.482316534315993e-07,3.318174523611857e-07,2.6219520192121028e-05
5.445789337772912e-07,3.522782012587469e-07,3.3216688267675826e-07,2.6134873431419212e-05
5.423142409352567e-07,3.563703472656113e-07,3.325383526994731e-07,2.6041372652949192e-05
5.404352102572049e-07,3.604819075978134e-07,3.32925659134904e-07,2.593987445817544e-05
5.389389882931819e-07,3.645859179106532e-07,3.333221166892777e-07,2.583154983979242e-05
5.378215365652445e-07,3.6865621608187384e-07,3.3372001254298093e-07,2.571803105272285e-05
5.370806524058813e-07,3.726685817383443e-07,3.341109836397926e-07,2.5601307813609106e-05
5.367148763885714e-07,3.7660020765261674e-07,3.344872715782567e-07,2.5483530640345998e-05
5.367198899152722e-07,3.8042829041354495e-07,3.348420682143062e-07,2.536684654295943e-05
5.370872173339406e-07,3.841303502453482e-07,3.3516826717432384e-07,2.5253269055130857e-05
5.378074346855247e-07,3.876858897382639e-07,3.354571718937747e-07,2.5144570304056847e-05
5.388766832220202e-07,3.91076569419475e-07,3.356985090493986e-07,2.5042210048009688e-05
5.403016110282838e-07,3.942850445288015e-07,3.358821868532372e-07,2.4947314764840715e-05
5.420984503982134e-07,3.972944523217896e-07,3.360005339558687e-07,2.4860686226827562e-05
5.442874251048983e-07,4.0008911543772407e-07,3.3604823459989647e-07,2.4782813415081945e-05
5.468868602795084e-07,4.0265552729224686e-07,3.3602083725144393e-07,2.471387915756708e-05
5.499095554649706e-07,4.049830206284054e-07,3.359152134954415e-07,2.46537575433224e-05
5.533611385338216e-07,4.070646402739406e-07,3.3573072477239884e-07,2.460201583690804e-05
5.572409403722045e-07,4.08897445273634e-07,3.354684405331913e-07,2.4557950357187198e-05
5.615466924016896e-07,4.104809430146055e-07,3.351300984898108e-07,2.4520673060396248e-05
5.662784431405181e-07,4.1181565777934407e-07,3.3471861331995e-07,2.44892367005238e-05
5.714356783122867e-07,4.12904229848677e-07,3.3423876017806645e-07,2.4462753230533e-05
5.770117581772422e-07,4.1375278201093047e-07,3.3369657409714233e-07,2.4440476097895526e-05
5.829925777545243e-07,4.1436954609487157e-07,3.33097742155896e-07,2.442185906417133e-05
5.893579508359174e-07,4.147622391913936e-07,3.324462771298897e-07,2.440658609524813e-05
5.960822304220187e-07,4.149366530820805e-07,3.317441989278029e-07,2.439454545679281e-05
6.03135856763571e-07,4.1489644770912367e-07,3.309917555650603e-07,2.4385747195343814e-05
6.104893134548093e-07,4.14643643267357e-07,3.3018798851043574e-07,2.438020906663652e-05
6.181163379044238e-07,4.1417955007337383e-07,3.293319374552625e-07,2.4377840682487038e-05
6.259943802351336e-07,4.135057582139925e-07,3.284243899086071e-07,2.437836355841348e-05
6.341034558418122e-07,4.1262478344875433e-07,3.2746917950371646e-07,2.438132319537146e-05
6.4242344998563e-07,4.115400482398386e-07,3.264727129187343e-07,2.438618485260059e-05
6.509307083339189e-07,4.1025594098107206e-07,3.254424854518843e-07,2.439241025044842e-05
6.595962890909867e-07,4.0877854366516316e-07,3.2438622996705565e-07,2.4399479878535266e-05
6.683854220864043e-07,4.0711589058899545e-07,3.233110981407809e-07,2.4406918013006866e-05
6.77256928559889e-07,4.0527713309078797e-07,3.222225995534958e-07,2.4414323424912398e-05
6.861637176356383e-07,4.0327172404123297e-07,3.2112558712862767e-07,2.4421352137288945e-05
6.950548315073529e-07,4.011091845689004e-07,3.2002751450995605e-07,2.442763201509401e-05
7.038774371433877e-07,3.9879918675263526e-07,3.189399682465773e-07,2.4432656335521413e-05
7.125775004017032e-07,3.963521200736513e-07,3.1787698748341236e-07,2.443574138774e-05
7.21100440829007e-07,3.9377927873425776e-07,3.168537795148532e-07,2.4436091807908512e-05
7.293934480445134e-07,3.9109238254874077e-07,3.158870881075699e-07,2.443293072093002e-05
7.374080367778594e-07,3.8830481177178274e-07,3.149948958752143e-07,2.4425634279373585e-05
7.451006049242231e-07,3.8543420306833907e-07,3.1419503454238143e-07,2.44138513255558e-05
7.524307918405902e-07,3.82503578460163e-07,3.1350364034942705e-07,2.439756141889657e-05
7.593594930433126e-07,3.795407696678315e-07,3.129339075937399e-07,2.437700134667795e-05
7.658487461275324e-07,3.765754796276081e-07,3.124950859813387e-07,2.435248431087872e-05
7.718624395914348e-07,3.7363431829859593e-07,3.121917123528402e-07,2.432422256864678e-05
7.773655952266994e-07,3.707380244314726e-07,3.120247546699735e-07,2.4292230558944614e-05
7.82323082720221e-07,3.679021066197909e-07,3.119950365064037e-07,2.4256304003963573e-05
7.866995242083698e-07,3.651380970140412e-07,3.1210515063672874e-07,2.4216043635057776e-05
7.90460726858514e-07,3.624540090248342e-07,3.123576783367217e-07,2.417091306037943e-05
7.935756518928352e-07,3.5985414752046706e-07,3.1275277955026284e-07,2.412037114419441e-05
7.960169546918262e-07,3.573388741464943e-07,3.1328798133826213e-07,2.4064108782485856e-05
7.977598583456963e-07,3.549050551221638e-07,3.1395991256908987e-07,2.400223708494763e-05
7.987812370454576e-07,3.5254696131121346e-07,3.1476614054139236e-07,2.3935225155246078e-05
7.990596259075401e-07,3.50256983645326e-07,3.1570449082031587e-07,2.3863651529839084e-05
7.985756220675213e-07,3.480264658942512e-07,3.167700770653001e-07,2.3787983851275132e-05
7.973124091089898e-07,3.45847920999926e-07,3.179537523185769e-07,2.3708531436657637e-05
7.952562451476925e-07,3.4371795887326933e-07,3.1924353344222605e-07,2.3625649647220616e-05
7.923967713043222e-07,3.416376071890245e-07,3.206264969762894e-07,2.354007833995493e-05
7.887271965584186e-07,3.396106445914152e-07,3.220887885809417e-07,2.345310740046445e-05
7.842448349187476e-07,3.3764348636531217e-07,3.2361463580851476e-07,2.336646862138052e-05
7.789522324575323e-07,3.3574505295104735e-07,3.251860776031982e-07,2.328213977501863e-05
7.728580815781706e-07,3.3392434229252377e-07,3.267840084317065e-07,2.3202197112124802e-05
7.659777337148631e-07,3.3218819397677825e-07,3.2839126871379237e-07,2.312870043386651e-05
7.583334843353012e-07,3.3054206841863553e-07,3.2999585278857196e-07,2.3063577140764425e-05
7.499537444270143e-07,3.289928248850936e-07,3.315901487210393e-07,2.300851127823148e-05
7.408714126195731e-07,3.275493265914957e-07,3.331672702166629e-07,2.2964867706301432e-05
7.31122124197364e-07,3.262196910689686e-07,3.347187296681321e-07,2.293367829755571e-05
7.207426885664617e-07,3.250084635574228e-07,3.362343149248211e-07,2.291567566680786e-05
7.097712884148793e-07,3.239157102563799e-07,3.37703119767246e-07,2.2911316627869243e-05
6.982484812458179e-07,3.229380908656525e-07,3.3911464708248697e-07,2.29207573292326e-05
6.862163389863308e-07,3.2207106214319247e-07,3.404589083520136e-07,2.294380068545639e-05
6.737170808836777e-07,3.2131036457485925e-07,3.417258525008155e-07,2.297987002403134e-05
6.607937121744471e-07,3.206521325440181e-07,3.429050059567701e-07,2.302806710072968e-05
6.474915378474083e-07,3.200920285674344e-07,3.439855195750754e-07,2.308732604218745e-05
6.338576589716241e-07,3.19623873426835e-07,3.449568007414367e-07,2.315658011430681e-05
6.199383403943243e-07,3.192389406696487e-07,3.458098006340918e-07,2.323485484072737e-05
6.057770106487465e-07,3.189266457323115e-07,3.4653854818830845e-07,2.332130972093457e-05
5.914142876094464e-07,3.186757133268212e-07,3.471408025023759e-07,2.341527681064717e-05
5.76889398537025e-07,3.184744170467847e-07,3.476168738475815e-07,2.351627026778169e-05
5.622419769183092e-07,3.183100199506094e-07,3.4796749122988693e-07,2.3623938162073595e-05
5.475131955185347e-07,3.181687486004886e-07,3.481922700540584e-07,2.373799646371937e-05
5.327464727120427e-07,3.1803628190940704e-07,3.482895266304547e-07,2.3858184171250297e-05
5.179884783089938e-07,3.178987672186133e-07,3.4825722182964056e-07,2.3984198967273216e-05
5.032889770051862e-07,3.1774559366288364e-07,3.480936431912537e-07,2.411557463509336e-05
4.886980848737327e-07,3.1757262905081484e-07,3.477970376794873e-07,2.425157194134691e-05
4.742635189265479e-07,3.1738287656127876e-07,3.473654072340055e-07,2.439115853899917e-05
4.60030967540289e-07,3.171842719845964e-07,3.4679818836974513e-07,2.4533039351457104e-05
4.460456215231418e-07,3.169875007916937e-07,3.460994672573721e-07,2.467568878738299e-05
4.323517089711584e-07,3.1680547710028637e-07,3.4527901755269245e-07,2.4817407387143486e-05
4.189910200854749e-07,3.166526102156136e-07,3.4434913919250214e-07,2.495641928844996e-05
4.060022537578197e-07,3.165431948444863e-07,3.4332126469481976e-07,2.5090958024474867e-05
3.9342143783798156e-07,3.164897143518699e-07,3.4220551562878186e-07,2.5219288206081867e-05
3.81282822993349e-07,3.165008521757723e-07,3.4101103042673894e-07,2.533969009419537e-05
3.696192854149927e-07,3.165804872501756e-07,3.397455954946305e-07,2.545045320910715e-05
3.584622418725874e-07,3.1672882275685265e-07,3.384163185188344e-07,2.554989216011133e-05
3.478412245833884e-07,3.1694475181318737e-07,3.370314553379488e-07,2.563640684250042e-05
3.377829336068364e-07,3.172285633077987e-07,3.3560102377768897e-07,2.5708602824812666e-05
3.283099792461004e-07,3.175835168634937e-07,3.3413543938296146e-07,2.576540177676934e-05
3.194402345877338e-07,3.180147152828743e-07,3.326438642292052e-07,2.5806028675788032e-05
3.111881882322129e-07,3.185271203888904e-07,3.311338074206016e-07,2.582989294601608e-05
3.035671289438672e-07,3.191259568560809e-07,3.2961175004498697e-07,2.5836507785575728e-05
2.9658917147435014e-07,3.198186883826147e-07,3.28083330792981e-07,2.582550790871749e-05
2.902636602963197e-07,3.2061549361616504e-07,3.265530406342178e-07,2.579669091353793e-05
2.845965710093741e-07,3.215277021871624e-07,3.250248871233095e-07,2.575001998312482e-05
2.79590507303442e-07,3.225657482493916e-07,3.23503414400756e-07,2.568558772558133e-05
2.752439545564671e-07,3.237379551181573e-07,3.219933629256764e-07,2.560359634676585e-05
2.7155078842067644e-07,3.2505074646285e-07,3.204983555688723e-07,2.550446170045195e-05
2.6850077759159906e-07,3.2650963820968797e-07,3.190201020076735e-07,2.5388997668178e-05
2.660801801079672e-07,3.281186554054044e-07,3.175587724392045e-07,2.5258459027639983e-05
2.642720469376795e-07,3.2987815785022147e-07,3.161137105104584e-07,2.511438665392213e-05
2.6305680202357305e-07,3.317846066570793e-07,3.14683986092947e-07,2.495841081933344e-05
2.624138067982777e-07,3.3383289292505953e-07,3.132701808523051e-07,2.479212744786964e-05
2.623233413742284e-07,3.360184023131629e-07,3.118771539511718e-07,2.461709164460844e-05
2.6276697458176944e-07,3.383369494949028e-07,3.105143241117404e-07,2.4434960074962412e-05
2.63726699468612e-07,3.4078318215080444e-07,3.0919245955775034e-07,2.4247676491048096e-05
2.6518492134966373e-07,3.433499474859397e-07,3.079203435009117e-07,2.405749426958056e-05
2.6712507291420785e-07,3.460290420284586e-07,3.067033433821441e-07,2.3866824819845706e-05
2.695315864459812e-07,3.488112414482154e-07,3.055434982141299e-07,2.3678074434046e-05
2.723884061036323e-07,3.5168525569718397e-07,3.0444138625822767e-07,2.3493559000203365e-05
2.756769577405336e-07,3.546371388454004e-07,3.033982887327198e-07,2.331547739861147e-05
2.793751943108913e-07,3.57650517965117e-07,3.0241575544454516e-07,2.314589149691131e-05
2.834572042539957e-07,3.6070718128362437e-07,3.014935749420853e-07,2.2986690312813364e-05
2.878930403460766e-07,3.637884364286326e-07,3.0062893469201386e-07,2.2839551673340178e-05
2.92649910751149e-07,3.668762381880861e-07,2.998169589416559e-07,2.270591256626437e-05
2.976946653344903e-07,3.6995236378282144e-07,2.9905170279453803e-07,2.2586943291822816e-05
3.02996649974057e-07,3.7299689268708467e-07,2.983269636650101e-07,2.248350957508458e-05
3.0853244600725124e-07,3.759877468860117e-07,2.9763693291282157e-07,2.239611290345907e-05
3.142918499546557e-07,3.7890107004294023e-07,2.969770648365353e-07,2.232483148234938e-05
3.202788327197509e-07,3.817120660487937e-07,2.963441321015552e-07,2.226931824926604e-05
3.265059959071537e-07,3.8439602200450547e-07,2.95734918577076e-07,2.222889232503691e-05
3.329878858249869e-07,3.8692891191757274e-07,2.951452464493893e-07,2.220267988863315e-05
3.3973609725972854e-07,3.89287620380796e-07,2.9457006391500733e-07,2.2189719011842317e-05
3.467563656283892e-07,3.9145072063952e-07,2.940040402024356e-07,2.2189007970118984e-05
3.5404767821451905e-07,3.9339988960753214e-07,2.934430238835153e-07,2.2199545114753208e-05
3.616027356863253e-07,3.951201691548572e-07,2.928858548478841e-07,2.2220381712250283e-05
3.694091365388625e-07,3.965982636783517e-07,2.923348545544313e-07,2.2250658378962038e-05
3.7745045703172477e-07,3.978211372034778e-07,2.917946180534713e-07,2.228959745290568e-05
3.857074482692219e-07,3.987770553988745e-07,2.9127032421465604e-07,2.2336447021062647e-05
3.9416057790091155e-07,3.99457569529069e-07,2.907668070301588e-07,2.2390397108459008e-05
4.0279206568958847e-07,3.998575329132827e-07,2.902880857475796e-07,2.2450529978895168e-05
4.115847146854787e-07,3.9997353004771135e-07,2.898366423302701e-07,2.2515847026160613e-05
4.2051937754740206e-07,3.9980307600612506e-07,2.894128459317824e-07,2.2585314038313032e-05
4.295763953639491e-07,3.993450700830023e-07,2.890154212763116e-07,2.265786623329437e-05
4.3874287134493104e-07,3.9860120736336545e-07,2.8864325466031647e-07,2.273240787002908e-05
4.4801825095470456e-07,3.9757740944153966e-07,2.8829664460349505e-07,2.2807839645138228e-05
4.5741001099826925e-07,3.962832003324215e-07,2.879762074105157e-07,2.2883087031989526e-05
4.6692384267380504e-07,3.9473025835680005e-07,2.876815989008725e-07,2.2957091463771724e-05
4.765576428640605e-07,3.9293273385159594e-07,2.8741233723899533e-07,2.302877920416221e-05
4.863003689643721e-07,3.90907851525677e-07,2.871692478575431e-07,2.3097068504657736e-05
4.961328312185269e-07,3.886760877197415e-07,2.869549735983664e-07,2.3160928498255897e-05
5.06029567765465e-07,3.8626154739278344e-07,2.8677362787603694e-07,2.3219464293100063e-05
5.159609907421884e-07,3.8369038037005405e-07,2.866297232764355e-07,2.3272037194415184e-05
5.258946203978004e-07,3.809876218224157e-07,2.865272850592814e-07,2.3318400868108747e-05
5.357950560782493e-07,3.7817574627159856e-07,2.864704291779001e-07,2.335875560810639e-05
5.4562322222097e-07,3.752753839479757e-07,2.864647135407208e-07,2.339366444459055e-05
5.553363420853935e-07,3.7230672445407684e-07,2.865168480909474e-07,2.342386969251906e-05
5.648893356942548e-07,3.6929020324206893e-07,2.8663215918825076e-07,2.34500674785568e-05
5.742367301168204e-07,3.662454891065807e-07,2.868123502456345e-07,2.347271791064279e-05
5.833338884573004e-07,3.6318975095357297e-07,2.870556342111999e-07,2.3491967956312386e-05
5.921365443339942e-07,3.6013724444031685e-07,2.8735855970496457e-07,2.350767145125644e-05
6.005996684971128e-07,3.571000437571872e-07,2.8771805477791386e-07,2.3519436716748362e-05
6.086779968766661e-07,3.5408929479177077e-07,2.881327634383484e-07,2.3526718971039152e-05
6.163273691037943e-07,3.5111742953176927e-07,2.8860307633556774e-07,2.3529043597703807e-05
6.235051835596966e-07,3.481993080469071e-07,2.891296841148319e-07,2.352627358951529e-05
6.301711438111928e-07,3.453507150559407e-07,2.897118994336393e-07,2.351866391123073e-05
6.36289060823812e-07,3.4258715793628005e-07,2.903480253531681e-07,2.350665883897026e-05
6.418286170957126e-07,3.39924177516744e-07,2.910372045550214e-07,2.3490657278701545e-05
6.467666264935501e-07,3.3737658072700785e-07,2.9177967183960786e-07,2.347095363221705e-05
6.510874049318015e-07,3.349566778609857e-07,2.925751609119719e-07,2.344792900296475e-05
6.547809401408929e-07,3.326735047393278e-07,2.934214175425586e-07,2.342233837685981e-05
6.578399488457202e-07,3.3053325041654054e-07,2.943136724812327e-07,2.3395404504227344e-05
6.602598217023511e-07,3.285403877191258e-07,2.9524562275395853e-07,2.3368669667931118e-05
6.620422200058639e-07,3.266983657292645e-07,2.9621151726575587e-07,2.33437872446571e-05
6.631975526847831e-07,3.250090639967445e-07,2.972071719376697e-07,2.332237433464248e-05
6.637427246831084e-07,3.2347231376702285e-07,2.982290252929332e-07,2.330592995695248e-05
6.636965043643085e-07,3.2208640120095053e-07,2.992729345880239e-07,2.3295781483024688e-05
6.630763582007168e-07,3.208482770722883e-07,3.003338585720393e-07,2.329304460027997e-05
6.618976589347926e-07,3.1975310356841805e-07,3.014054748042728e-07,2.329860676420538e-05
6.601746050456744e-07,3.1879402028260734e-07,3.024800679414205e-07,2.331313297373973e-05
6.579217293311056e-07,3.1796208351234964e-07,3.0355069323229605e-07,2.3337089257729958e-05
6.551547318891814e-07,3.172464154312797e-07,3.0461438154839267e-07,2.3370758383115782e-05
6.518914410081922e-07,3.1663438545271356e-07,3.056733642330472e-07,2.3414203829517964e-05
6.481544663772852e-07,3.1611126927166574e-07,3.067351116179881e-07,2.34671962004268e-05
6.439744834546252e-07,3.156603814628585e-07,3.07812236841328e-07,2.352917449465617e-05
6.393921426794644e-07,3.152644349486337e-07,3.089203510491131e-07,2.3599301258695845e-05
6.344572959048883e-07,3.149065472500893e-07,3.100747498476804e-07,2.3676602952398725e-05
6.292249956071066e-07,3.145698802232984e-07,3.112889109722211e-07,2.3760105673152184e-05
6.237509670425099e-07,3.142371238858267e-07,3.1257409346130317e-07,2.384889554802239e-05
6.180893413156997e-07,3.1389060647477397e-07,3.1393896280564253e-07,2.3942130672867928e-05
6.12290858953259e-07,3.135128221068861e-07,3.1539016089978263e-07,2.403905464470672e-05
6.064007988269393e-07,3.1308748234388556e-07,3.169326213145321e-07,2.4139016125125243e-05
6.004583096368707e-07,3.126008340876409e-07,3.185684394163115e-07,2.4241469791177406e-05
5.944962425107111e-07,3.120422328274416e-07,3.202964768627157e-07,2.4345937883768845e-05
5.885407497043788e-07,3.114037139895014e-07,3.2211397100324945e-07,2.4451930889033578e-05
5.826115800246563e-07,3.1068013821482074e-07,3.2401827541721656e-07,2.4558854911906866e-05
5.767234888769788e-07,3.098704227839307e-07,3.260074173932993e-07,2.466596963035365e-05
5.708892932547509e-07,3.089775169737702e-07,3.280801311805699e-07,2.477244729219625e-05
5.651231627548049e-07,3.080064343425909e-07,3.3023535743570926e-07,2.4877484472545e-05
5.594409553661118e-07,3.069624700075992e-07,3.324706621951995e-07,2.4980365523055787e-05
5.53859109833256e-07,3.058514882018136e-07,3.347808818597924e-07,2.508044969094624e-05
5.483953468963128e-07,3.046822209441033e-07,3.371584042616936e-07,2.5177117907818532e-05
5.430685723016494e-07,3.034672649416828e-07,3.395946773130496e-07,2.5269718121281425e-05
5.378964578143722e-07,3.022207014593623e-07,3.4208189699225283e-07,2.5357538122500808e-05
5.328945413578386e-07,3.009558064662313e-07,3.446132773189581e-07,2.5439800783290736e-05
5.280771451251717e-07,2.9968642519353645e-07,3.4718128059202214e-07,2.551565120793332e-05
5.234574056437746e-07,2.984298030639064e-07,3.497756871391137e-07,2.5584136400265812e-05
5.190484111619931e-07,2.972063520018801e-07,3.5238323707102607e-07,2.564421531320325e-05
5.148665359351915e-07,2.960371937208213e-07,3.5498902887843685e-07,2.569482063053044e-05
5.109320559827293e-07,2.949431031856953e-07,3.5757844272784966e-07,2.5734973779984438e-05
5.072666320707712e-07,2.939442809550779e-07,3.6013792329723845e-07,2.576393516478997e-05
5.038923807333443e-07,2.930591625727719e-07,3.626546145183003e-07,2.578130262339719e-05
5.008315834703453e-07,2.9230323522688865e-07,3.651161806788197e-07,2.578696742035496e-05
4.981049087192121e-07,2.9168927138377945e-07,3.6751161483773726e-07,2.578094696651301e-05
4.95730665844597e-07,2.912280600246684e-07,3.69831799636346e-07,2.5763205472021698e-05
4.93725988302553e-07,2.909282174372117e-07,3.720689817054186e-07,2.573356031610829e-05
4.921076453557343e-07,2.90795414233222e-07,3.7421676908515657e-07,2.5691678756319706e-05
4.908911810472749e-07,2.908318236420238e-07,3.7627101155427886e-07,2.563711141694979e-05
4.900886599634201e-07,2.9103637848397624e-07,3.782302965013994e-07,2.556936070695916e-05
4.897065828127596e-07,2.914056106923523e-07,3.8009540229986773e-07,2.5488054684060466e-05
4.897459523333747e-07,2.919341343466229e-07,3.818672187438239e-07,2.539317523074928e-05
4.902035143940011e-07,2.926149393356128e-07,3.835441215860268e-07,2.5285126557382974e-05
4.910720629803029e-07,2.934403941056037e-07,3.8512130399379063e-07,2.516459644550787e-05
4.923416316174086e-07,2.944034477362189e-07,3.865926527048609e-07,2.503237782179177e-05
4.94003608849992e-07,2.954977149995263e-07,3.879525881618368e-07,2.488924720097984e-05
4.960537946823391e-07,2.9671625288164894e-07,3.891958489022215e-07,2.4735927821647626e-05
4.984904829268177e-07,2.9804996520991936e-07,3.903167671117272e-07,2.45732117485388e-05
5.013108569622977e-07,2.994876129244833e-07,3.9130933812964957e-07,2.4402180271592028e-05
5.045087381264464e-07,3.0101895797259865e-07,3.921672982397462e-07,2.4224294921985942e-05
5.080720488330326e-07,3.026393452838872e-07,3.9288462605083924e-07,2.4041303152577835e-05
5.119806253936457e-07,3.043510489171336e-07,3.9345682884654544e-07,2.385509043856307e-05
5.162066250134046e-07,3.0615921426216113e-07,3.938813415216614e-07,2.366753692274152e-05
5.207161598677815e-07,3.080666611781962e-07,3.941563921973734e-07,2.348037309927314e-05
5.254711630757741e-07,3.100721120638761e-07,3.9428020460001385e-07,2.329505468578337e-05
5.304324145632359e-07,3.1217076983170817e-07,3.942518727080226e-07,2.311269388174839e-05
5.355619483572893e-07,3.143553487390735e-07,3.9407231192183353e-07,2.293406395120961e-05
5.408238595559834e-07,3.166183391265272e-07,3.937434243700982e-07,2.275964841076858e-05
5.461848403043402e-07,3.1895395984267676e-07,3.9326643243955605e-07,2.258969191022807e-05
5.516138781319065e-07,3.213571368423205e-07,3.9264099635251215e-07,2.242423455012944e-05
5.570817906753569e-07,3.238216170289763e-07,3.918655727581169e-07,2.2263139660446866e-05
5.625612676782872e-07,3.2634018393510926e-07,3.9093900620966e-07,2.210612015713332e-05
5.680253328285599e-07,3.2890660118573167e-07,3.8986206459383727e-07,2.1952752235307795e-05
5.734446592225178e-07,3.3151718617928517e-07,3.8863716751651784e-07,2.180249314662396e-05
5.787862279822489e-07,3.341699016413026e-07,3.872671083548032e-07,2.165473245066536e-05
5.840139121265739e-07,3.368624986130845e-07,3.857547967134351e-07,2.150885663798488e-05
5.890896901256487e-07,3.395941728125492e-07,3.841038979379379e-07,2.136429797174672e-05
5.939742184725052e-07,3.42369390802074e-07,3.8231914976485326e-07,2.1220584236441733e-05
5.98626970679716e-07,3.451970219506742e-07,3.804055921419604e-07,2.1077388929881792e-05
6.030067774266977e-07,3.480845878094135e-07,3.783671284017949e-07,2.0934530637922518e-05
6.07073932593142e-07,3.510343597527049e-07,3.7620653885802775e-07,2.079190317554652e-05
6.107935909680313e-07,3.5404351378187324e-07,3.739272336375293e-07,2.0649390147528987e-05
6.141380229357739e-07,3.5710594587166256e-07,3.7153407001317294e-07,2.050682042703992e-05
6.170872833889556e-07,3.602149481670706e-07,3.690322492270753e-07,2.0363982769817875e-05
6.196286362191736e-07,3.633654713272789e-07,3.664262989517289e-07,2.0220690292856102e-05
6.217538796279668e-07,3.665533298854377e-07,3.637210169689661e-07,2.0076833272446898e-05
6.234561877682923e-07,3.6977237977876295e-07,3.6092417303714385e-07,1.993235471204496e-05
6.247286450001718e-07,3.7301361578820827e-07,3.5804845531274454e-07,1.978718261812354e-05
6.255645753852029e-07,3.762680011818717e-07,3.5511048039474615e-07,1.9641204971610127e-05
6.259588996255147e-07,3.7953016335555025e-07,3.5212814621366344e-07,1.9494319498645155e-05
6.259084537414995e-07,3.827980196093373e-07,3.491184296390984e-07,1.9346504175232058e-05
6.25410375024438e-07,3.8606899918597936e-07,3.4609615200465013e-07,1.9197823958707408e-05
6.244607137350773e-07,3.8933858178908367e-07,3.430737488297185e-07,1.904836555504453e-05
6.230549110368085e-07,3.9260379540779317e-07,3.400615445156323e-07,1.8898169993162045e-05
6.211894227191331e-07,3.958680234581192e-07,3.370680793755763e-07,1.8747223978786027e-05
6.188631229803105e-07,3.991408982671475e-07,3.3410026638261407e-07,1.859552342667008e-05
6.160775647117073e-07,4.0243303937358007e-07,3.3116315533786267e-07,1.8443197649680544e-05
6.128366365635477e-07,4.057513223548669e-07,3.2826018245079827e-07,1.829064866003605e-05
6.0914747850461e-07,4.0909731572438594e-07,3.253950763617447e-07,1.8138596021172197e-05
6.050223652403071e-07,4.124677153895075e-07,3.225744616197585e-07,1.7987951040573204e-05
6.004797303621898e-07,4.158556852753343e-07,3.1980841041153716e-07,1.7839599384621102e-05
5.955447386739897e-07,4.1925232529769525e-07,3.171080466536667e-07,1.7694256161344585e-05
