6.3111429155132e-07,3.724467656857158e-07,2.816254657583194e-07,1.6504924166523033e-05
6.356433010103177e-07,3.6870099708452576e-07,2.818781528454282e-07,1.6353824231927946e-05
6.404206869045706e-07,3.649211774209476e-07,2.823014889761736e-07,1.6231341920463386e-05
6.453936045232986e-07,3.61118667725381e-07,2.828806899957937e-07,1.6138064094989753e-05
6.505091617540286e-07,3.573023611147421e-07,2.836043111585722e-07,1.6074272215631823e-05
6.557193061960845e-07,3.534787271846776e-07,2.8446644554060303e-07,1.603994834942269e-05
6.60981133102679e-07,3.49652605905689e-07,2.8546501826356823e-07,1.6034756897797313e-05
6.662539989113247e-07,3.458295367219851e-07,2.865992494209442e-07,1.6058014374488373e-05
6.714967454834594e-07,3.420183805395437e-07,2.878677501162176e-07,1.6108671390058626e-05
6.76665366802148e-07,3.382317540284336e-07,2.892664208250532e-07,1.6185331639039552e-05
6.817120797992746e-07,3.344844478683018e-07,2.907873593058577e-07,1.6286328577800262e-05
6.865862956973872e-07,3.307913956509265e-07,2.9242030103921906e-07,1.6409842454210178e-05
6.912363900364446e-07,3.2716723783103225e-07,2.941555915723095e-07,1.6554017073979655e-05
6.956113100759205e-07,3.236289269186067e-07,2.959859167388528e-07,1.6717050862548225e-05
6.99661645725487e-07,3.201982800649577e-07,2.979053855439904e-07,1.6897243821195667e-05
7.033408306958114e-07,3.1690071978705327e-07,2.9990753359175785e-07,1.709301276821401e-05
7.066064301288352e-07,3.1376238048058074e-07,3.0198408236273714e-07,1.7302909911511326e-05
7.09421223667714e-07,3.108089504950316e-07,3.041247252191121e-07,1.7525637188458053e-05
7.117555636103256e-07,3.0806511041032264e-07,3.063176187604328e-07,1.7760028336629775e-05
7.135907728320563e-07,3.05552571348386e-07,3.085498400194726e-07,1.8004995837282247e-05
7.14919911015477e-07,3.032875410915132e-07,3.108072282441191e-07,1.8259446664792656e-05
7.15743738825698e-07,3.0127988349907717e-07,3.13074518125241e-07,1.8522187625587027e-05
7.160652464979847e-07,2.995349363657129e-07,3.153363790684712e-07,1.879188015717478e-05
7.158874439255814e-07,2.980563716611437e-07,3.175778708589132e-07,1.9067060529812013e-05
7.152152010585521e-07,2.968471267284516e-07,3.1978373765991074e-07,1.9346158164715853e-05
7.140595754653172e-07,2.9590757008994064e-07,3.2193828312745945e-07,1.962748296952161e-05
7.12440856027592e-07,2.952333224606484e-07,3.2402672206112623e-07,1.9909226931839014e-05
7.103868582282541e-07,2.9481505550345923e-07,3.2603734094398647e-07,2.0189512539511442e-05
7.079287135837477e-07,2.946401486023555e-07,3.279628957048573e-07,2.0466470122697587e-05
7.050981059912672e-07,2.946945988220172e-07,3.29799721893287e-07,2.0738312878165928e-05
7.019270622277353e-07,2.9496446474386373e-07,3.3154541891345264e-07,2.100339316121041e-05
6.984484549120905e-07,2.954366657544621e-07,3.331968977603392e-07,2.1260214189133348e-05
6.946943553064908e-07,2.960983202184425e-07,3.347495384059353e-07,2.1507399007724084e-05
6.906930734949023e-07,2.969352076402257e-07,3.36197427141463e-07,2.1743659364154888e-05
6.864676680178868e-07,2.979308883605775e-07,3.3753366152116807e-07,2.196776984079673e-05
6.820367616503218e-07,2.990668237008715e-07,3.3875012764078696e-07,2.2178531521223082e-05
6.774170179541836e-07,3.0032310510122427e-07,3.398374899047604e-07,2.2374740959293077e-05
6.726246550030444e-07,3.016795244890985e-07,3.4078614303545506e-07,2.255519339732237e-05
6.676739613024386e-07,3.0311730291661394e-07,3.415878286997355e-07,2.271874005130718e-05
6.625756073433302e-07,3.046212069100093e-07,3.422362638028393e-07,2.286438820134752e-05
6.573390998641309e-07,3.061805550524156e-07,3.4272650320906856e-07,2.2991381838683428e-05
6.519784400961561e-07,3.0778865784262354e-07,3.430555127547021e-07,2.309920430424663e-05
6.465148454033019e-07,3.094413432849691e-07,3.432236889336416e-07,2.3187522585270928e-05
6.40973117486501e-07,3.1113470213763017e-07,3.432344587255356e-07,2.3256138690694182e-05
6.353759148231447e-07,3.1286290283182733e-07,3.430927703660552e-07,2.3304995916870506e-05
6.297417592494003e-07,3.1461763808740396e-07,3.428042016134547e-07,2.3334234532126136e-05
6.240864179424048e-07,3.1639005008583796e-07,3.423739979820151e-07,2.3344237015021906e-05
6.184242532211529e-07,3.181748256951248e-07,3.4180631411671165e-07,2.33356229005674e-05
6.127685687181932e-07,3.1997275584218375e-07,3.4110429379574977e-07,2.3309193544002978e-05
6.071308382771343e-07,3.217880528391889e-07,3.4027036678553557e-07,2.326584332354714e-05
6.01519644949244e-07,3.23623957733337e-07,3.393065930703753e-07,2.3206478807397557e-05
5.95941752590991e-07,3.2548171935543627e-07,3.382150417298156e-07,2.313196556824191e-05
5.904043284589276e-07,3.273616254952613e-07,3.369979859890487e-07,2.304307678107352e-05
5.849146032120916e-07,3.2926392393745516e-07,3.3565816891333e-07,2.294043760198652e-05
5.794773432532302e-07,3.311901149981914e-07,3.34199000888525e-07,2.282449905775311e-05
5.740933965507253e-07,3.3314345214712725e-07,3.32624399439809e-07,2.269555688786418e-05
5.687607435592689e-07,3.3512773313315807e-07,3.309390805346927e-07,2.255379178332255e-05
5.634772034069743e-07,3.37146110977546e-07,3.291493031604093e-07,2.239930124052804e-05
5.582421658680096e-07,3.392006459636588e-07,3.2726261058988446e-07,2.2232115298195213e-05
5.530562395864749e-07,3.4129268724717286e-07,3.252871240999605e-07,2.20522125330953e-05
5.479214201320639e-07,3.434245606851421e-07,3.232318809000963e-07,2.185954980773523e-05
5.428426245425344e-07,3.4560056304849057e-07,3.2110720716534425e-07,2.165410180768954e-05
5.378274838031274e-07,3.47825216246846e-07,3.18923897823013e-07,2.1435894070786692e-05
5.328838835840066e-07,3.501005673681216e-07,3.1669187052441913e-07,2.12050165076504e-05
5.280187203853185e-07,3.524250358396985e-07,3.1441981060630505e-07,2.096161925910085e-05
5.232385996995898e-07,3.547936539635642e-07,3.121167592161703e-07,2.0705902746696382e-05
5.185494350776989e-07,3.571982667706089e-07,3.097938024197373e-07,2.0438124841702446e-05
5.139550430713085e-07,3.596276048519436e-07,3.074632237214778e-07,2.015863264726265e-05
5.094576783628893e-07,3.620684688416096e-07,3.051372027970886e-07,1.986789082055786e-05
5.050589837977731e-07,3.6450717650108023e-07,3.02829487355872e-07,1.9566481252132094e-05
5.007588754845015e-07,3.669292424020938e-07,3.0055744177618856e-07,1.9255080339532025e-05
4.965545819322804e-07,3.6931830086732923e-07,2.983404410895454e-07,1.8934446717481706e-05
4.924411242509519e-07,3.716564429946394e-07,2.961973188201268e-07,1.8605438259755e-05
4.884116292871464e-07,3.7392608282517726e-07,2.941473216820773e-07,1.8269015802171147e-05
4.844574380688484e-07,3.7611212460384007e-07,2.9221182182361284e-07,1.7926185679224164e-05
4.805690701158828e-07,3.7820458823537617e-07,2.904127991540491e-07,1.7577914294721568e-05
4.76738012825089e-07,3.802013366270711e-07,2.887712121931813e-07,1.7225086632088468e-05
4.729585007173272e-07,3.8210666854694633e-07,2.873076332830676e-07,1.6868538302671154e-05
4.6922804860293847e-07,3.839253323944791e-07,2.860419189231956e-07,1.6509125606820284e-05
4.6554680554135897e-07,3.856582665812951e-07,2.8499069165126704e-07,1.6147750786782597e-05
4.6191718997647135e-07,3.873028076867247e-07,2.841649476828383e-07,1.5785311502726173e-05
4.583431132113178e-07,3.88854185282258e-07,2.8356939734201144e-07,1.5422640323496248e-05
4.548278673368864e-07,3.903058224802715e-07,2.832033145736955e-07,1.5060500862605627e-05
4.513728342506673e-07,3.9164926435140297e-07,2.8306193098497137e-07,1.4699664489950175e-05
4.479779287454174e-07,3.9287541633959923e-07,2.8313845428018853e-07,1.4341048057162833e-05
4.4464194428474595e-07,3.93977333012279e-07,2.83427006076272e-07,1.3985814491155664e-05
4.413631401076671e-07,3.9495296964756203e-07,2.839252926054091e-07,1.3635327454099135e-05
4.381422180445671e-07,3.9580532276563617e-07,2.846357862424952e-07,1.3290983020518228e-05
4.349858350240445e-07,3.965395590928498e-07,2.8556494766772176e-07,1.295405863685524e-05
4.3190651857729396e-07,3.971598095648721e-07,2.867211366422172e-07,1.2625689907749624e-05
4.289199827849887e-07,3.976675943273446e-07,2.881132083744916e-07,1.2306989435500666e-05
4.260428929831589e-07,3.9806186537213116e-07,2.8974987585296025e-07,1.1999230267495325e-05
4.2329041151655117e-07,3.9834001276204425e-07,2.91638065994217e-07,1.1703955262998582e-05
4.2067379403426277e-07,3.984989148225646e-07,2.937806879052344e-07,1.1422926770247889e-05
4.1820095403969116e-07,3.985358126739858e-07,2.961751366539301e-07,1.1157954441332783e-05
4.1587998918128993e-07,3.9844906890273964e-07,2.988128330957595e-07,1.0910698319479491e-05
4.137216388031737e-07,3.982389174353779e-07,3.0168009327442984e-07,1.0682536964749637e-05
4.1173795551768727e-07,3.979086276718646e-07,3.0475918598249807e-07,1.0474531831921091e-05
4.09938934678772e-07,3.9746452701700395e-07,3.080283159248903e-07,1.0287450892255583e-05
4.0832990371173756e-07,3.969137456440065e-07,3.114620422528471e-07,1.0121830879138646e-05
4.0691102674371435e-07,3.962627186598547e-07,3.150332134402192e-07,9.978116858983632e-06
4.056788631633451e-07,3.955185468670349e-07,3.1871499097459587e-07,9.856866624267821e-06
4.0462856748342524e-07,3.94691024606892e-07,3.224814290096793e-07,9.758852834089333e-06
4.03756501130965e-07,3.937932293016408e-07,3.263065821805834e-07,9.684939845703005e-06
4.030628455003277e-07,3.9284075128909604e-07,3.30163589022554e-07,9.63585948500066e-06
4.025510878502228e-07,3.9185046205131605e-07,3.3402478404187626e-07,9.612047337046772e-06
4.02224412562313e-07,3.908391443355987e-07,3.3786231262603194e-07,9.613602289881196e-06
4.020833941524608e-07,3.8982201798359704e-07,3.41648950587554e-07,9.640452979876904e-06
4.0212730671583134e-07,3.8881224154851776e-07,3.4535941470267265e-07,9.692686394314287e-06
4.023564118795885e-07,3.8782137405604795e-07,3.489711181420699e-07,9.770765735219562e-06
4.0277079820729706e-07,3.8685890471095536e-07,3.5246354182387173e-07,9.875495371744133e-06
4.033676468229585e-07,3.85930728266725e-07,3.558174792310682e-07,1.0007863052116563e-05
4.041430168715519e-07,3.8503827369581316e-07,3.590145585852864e-07,1.0168885721131167e-05
4.05097131247983e-07,3.8417878308596005e-07,3.6203663346337106e-07,1.0359480612859554e-05
4.062365669273288e-07,3.833466408625799e-07,3.6486601596697314e-07,1.0580367486437777e-05
4.075710800983911e-07,3.82536867044973e-07,3.674862011442086e-07,1.0832008163431149e-05
4.0910891002116667e-07,3.817499830559645e-07,3.69882301833294e-07,1.111457077898202e-05
4.108546053417883e-07,3.809937754563757e-07,3.720424825725307e-07,1.1427902785513554e-05
4.128093015140746e-07,3.802798598172043e-07,3.739594941163117e-07,1.177150715920467e-05
4.1497111738418973e-07,3.7961850058707204e-07,3.7562955969428906e-07,1.2144514916651475e-05
4.173344890162858e-07,3.790156168391742e-07,3.7704954274232007e-07,1.2545654974447438e-05
4.1988901942434204e-07,3.7847228001858924e-07,3.782153519122993e-07,1.2973234093591851e-05
4.2261890046810544e-07,3.779851380083193e-07,3.791221750038692e-07,1.3425138419973469e-05
4.2550353817335526e-07,3.7754699049401627e-07,3.7976520437790887e-07,1.3898882778583552e-05
4.285197513421558e-07,3.771474375086203e-07,3.801399260412255e-07,1.439173012538638e-05
4.3164450294939385e-07,3.7677421673637275e-07,3.80242180916166e-07,1.4900843538239626e-05
4.3485545425845653e-07,3.7641589539563995e-07,3.800682366300221e-07,1.542340532959452e-05
4.38129455943281e-07,3.760643601319076e-07,3.796151681751438e-07,1.5956697360587534e-05
4.4144197345039386e-07,3.757144491406204e-07,3.7888235933878993e-07,1.6498167829478796e-05
4.447686749783868e-07,3.7536144450157256e-07,3.77872940410453e-07,1.704546792036901e-05
4.4808852549366047e-07,3.750004865767353e-07,3.765930813587936e-07,1.759644639736632e-05
4.51385287303715e-07,3.746298579135549e-07,3.750505016835224e-07,1.8149124626668725e-05
4.546450323312047e-07,3.742559826656234e-07,3.732539509206895e-07,1.8701644712889875e-05
4.5785349410996887e-07,3.738962910816317e-07,3.712129072729624e-07,1.925217351604536e-05
4.6099706142080967e-07,3.735766127434778e-07,3.689374329112192e-07,1.9798805803507547e-05
4.6406526516242887e-07,3.733242565981507e-07,3.664383469232022e-07,2.0339518409908686e-05
4.670510785519942e-07,3.7316241323162604e-07,3.637269549091005e-07,2.0872168199309328e-05
4.699483851270893e-07,3.7310829226078687e-07,3.6081443748762825e-07,2.1394517942082854e-05
4.7274921628683824e-07,3.731733007139803e-07,3.577113009122577e-07,2.1904294500489763e-05
4.7544390057722033e-07,3.733642600258693e-07,3.544270145617803e-07,2.2399274097388107e-05
4.780246825020743e-07,3.7368432931648796e-07,3.509701830481804e-07,2.287736974877073e-05
4.804899271627239e-07,3.7413266804547293e-07,3.473490703367976e-07,2.333666623109339e-05
4.828450766145676e-07,3.747045273701968e-07,3.4357193618301664e-07,2.3775377290862484e-05
4.851000909201515e-07,3.753926367455735e-07,3.3964756674918657e-07,2.4191780589117466e-05
4.872676810462979e-07,3.761881855928984e-07,3.3558607353453565e-07,2.4584184088549787e-05
4.893645083215192e-07,3.7708063882610226e-07,3.313989389562068e-07,2.495093407227142e-05
4.91411793343888e-07,3.780573773747158e-07,3.270987566648924e-07,2.529047987307462e-05
4.934325546565367e-07,3.79103694501199e-07,3.226998551093689e-07,2.5601498860429224e-05
4.954471518843536e-07,3.802032459359817e-07,3.18218673330599e-07,2.5883012750600454e-05
4.974699366072191e-07,3.8133939818088715e-07,3.136725416037714e-07,2.613439936579852e-05
4.995087510509211e-07,3.824975925987224e-07,3.0907815538085485e-07,2.6355288861300267e-05
5.015674087314752e-07,3.836670489756312e-07,3.0445114880502984e-07,2.654541990200624e-05
5.036491440191079e-07,3.848397791424534e-07,2.9980629119074867e-07,2.670454088581427e-05
5.057585161267826e-07,3.8600807159271156e-07,2.9515791745267417e-07,2.6832388792737666e-05
5.079002710745003e-07,3.8716317148703436e-07,2.905207115043854e-07,2.692870690682109e-05
5.100763270840041e-07,3.8829543573058827e-07,2.859108750362104e-07,2.6993275733587686e-05
5.122853438995268e-07,3.8939450247491713e-07,2.813471381282891e-07,2.702603432496984e-05
5.145263447778631e-07,3.904491741346949e-07,2.768502927108165e-07,2.7027348534963864e-05
5.16801881178924e-07,3.9144770285561954e-07,2.724418927680945e-07,2.699825740481889e-05
5.191171233406019e-07,3.923785370929432e-07,2.6814416699466056e-07,2.694046195178929e-05
5.214777442941352e-07,3.932309160340322e-07,2.6398026538102165e-07,2.6856082570343868e-05
5.23892806780753e-07,3.939948260816935e-07,2.5997260904671e-07,2.6747377829371546e-05
5.263820150359455e-07,3.94660837875614e-07,2.5614070086405483e-07,2.661656153797809e-05
5.289777926075145e-07,3.952208721806418e-07,2.5250138245898254e-07,2.646584686445969e-05
5.31717291425208e-07,3.9566924003612817e-07,2.490707479385913e-07,2.6297724784837767e-05
5.346318819512153e-07,3.9600214646106365e-07,2.458647145319049e-07,2.611519599613597e-05
5.377428468769879e-07,3.962169042149665e-07,2.428974562800307e-07,2.5921715446408858e-05
5.410619672987127e-07,3.963130110401661e-07,2.401795636792262e-07,2.5720940000615077e-05
5.445922441175523e-07,3.962926480906553e-07,2.377178222919231e-07,2.551647477319097e-05
5.483297467704326e-07,3.9615875395948774e-07,2.3551563977596245e-07,2.5311699416400398e-05
5.522676181319827e-07,3.959139605378067e-07,2.3357301294784013e-07,2.510966572656712e-05
5.563978833957733e-07,3.955617969051038e-07,2.318874332889555e-07,2.491303538199493e-05
5.607089756252559e-07,3.9510724795357435e-07,2.3045535163027577e-07,2.472405047682694e-05
5.65183382630365e-07,3.94555792287721e-07,2.2927220130217747e-07,2.454453575393324e-05
5.697985560534196e-07,3.939125891933789e-07,2.2833207256355556e-07,2.437590639107065e-05
5.7452923278627e-07,3.9318181035125597e-07,2.2762878252852665e-07,2.421915583452452e-05
5.793495301167692e-07,3.923656485063426e-07,2.271571106332552e-07,2.4074830333693296e-05
5.842350053874618e-07,3.914639700476118e-07,2.2691269186989368e-07,2.3943028022788585e-05
5.891638849715703e-07,3.9047482200840685e-07,2.2689117322783975e-07,2.382345396548004e-05
5.941160437477109e-07,3.893950465097667e-07,2.270873804718964e-07,2.3715521433107808e-05
5.990708550471449e-07,3.88221289534312e-07,2.2749436923200373e-07,2.3618464421412e-05
6.040071212972292e-07,3.8695168811791343e-07,2.2810327521515622e-07,2.353143140678289e-05
6.089050057538083e-07,3.855876592364438e-07,2.2890447526948014e-07,2.3453544852622892e-05
6.137462222360354e-07,3.84135062684061e-07,2.298879991636817e-07,2.338393012439536e-05
6.185121086109499e-07,3.8260359549397883e-07,2.3104227253589648e-07,2.332172870527615e-05
6.231825754604677e-07,3.8100447323399223e-07,2.3235315318451897e-07,2.3266103986287358e-05
6.277360236081702e-07,3.793484487114434e-07,2.338045701749555e-07,2.3216244256243367e-05
6.321489607187908e-07,3.776463756569861e-07,2.3538009200561598e-07,2.3171360597524177e-05
6.363955580487502e-07,3.7591226100577886e-07,2.3706393981272322e-07,2.313065814272023e-05
6.404479574416289e-07,3.741647438819626e-07,2.388411135884715e-07,2.3093288240548692e-05
6.442784439609299e-07,3.7242435668041576e-07,2.406981831955985e-07,2.305835619553941e-05
6.478619395691926e-07,3.7070990307488754e-07,2.426244751915812e-07,2.3025018043280304e-05
6.511756875416745e-07,3.6903681182934007e-07,2.446118269333756e-07,2.29925725189226e-05
6.541975898875102e-07,3.6741667275831783e-07,2.466539900657969e-07,2.296045667680533e-05
6.56906031934746e-07,3.6585757087126994e-07,2.487464696825949e-07,2.2928176248501e-05
6.59279948111582e-07,3.6436485041676814e-07,2.50885328612259e-07,2.289524900769987e-05
6.61298161206455e-07,3.629412713467026e-07,2.5306568815168555e-07,2.2861173596765306e-05
6.629399647198328e-07,3.6158690000260185e-07,2.552822770104044e-07,2.28253971770348e-05
6.641873041188444e-07,3.6029968177750353e-07,2.5753179055927016e-07,2.278731232197529e-05
6.650258322044147e-07,3.590769947025968e-07,2.5981345601171323e-07,2.274630933432825e-05
6.65443634137746e-07,3.579173831501882e-07,2.6212678169474225e-07,2.2701837073660185e-05
6.654302571695271e-07,3.56821034963739e-07,2.644702384827978e-07,2.2653454931680856e-05
6.649778918715668e-07,3.557887215428925e-07,2.668416432092996e-07,2.260091128687056e-05
6.640827390209771e-07,3.548206508547911e-07,2.6923782402251984e-07,2.254425549963331e-05
6.627449134748762e-07,3.539166992315525e-07,2.7165375033857445e-07,2.248392651623633e-05
6.609681109721439e-07,3.530768806070747e-07,2.7408256304396266e-07,2.2420734531836748e-05
6.587594958424615e-07,3.523004403199596e-07,2.765164134039997e-07,2.2355715685176723e-05
6.561283369480942e-07,3.51584606948797e-07,2.789475163361412e-07,2.2289912260442622e-05
6.530844749830134e-07,3.509241332566181e-07,2.813694737927968e-07,2.2224162027754958e-05
6.496402650492518e-07,3.503115442367355e-07,2.837777363007009e-07,2.2158982347965305e-05
6.458146561717072e-07,3.497384924078146e-07,2.8616815401465547e-07,2.2094572303920748e-05
6.416341008664545e-07,3.491979084536373e-07,2.885355505034432e-07,2.203088047228629e-05
6.371318165866978e-07,3.4868522396661983e-07,2.908736456565271e-07,2.1967713342554512e-05
6.323486540211043e-07,3.481991395998237e-07,2.931750990256365e-07,2.19049347818853e-05
6.27331238319058e-07,3.4774355725889785e-07,2.954311862990825e-07,2.1842687400960648e-05
6.221259273243291e-07,3.473289149683596e-07,2.976321956052001e-07,2.1781418738720653e-05
6.1677432117741e-07,3.469706672489104e-07,2.997686441923765e-07,2.1721693798969547e-05
6.113131611534678e-07,3.4668563976920534e-07,3.018315588470294e-07,2.166398625729721e-05
6.057759788862538e-07,3.464882509795085e-07,3.038117477821972e-07,2.1608579536357875e-05
6.001933631325715e-07,3.4638862926158926e-07,3.057006775977096e-07,2.1555675798751747e-05
5.945926709718281e-07,3.463932313576008e-07,3.074932726987957e-07,2.1505735199087287e-05
5.889991567607707e-07,3.465063559194128e-07,3.091893906026339e-07,2.145980123092612e-05
5.834364602961964e-07,3.467315480320459e-07,3.107926109747195e-07,2.141953935653798e-05
5.779255822605994e-07,3.4707264418142737e-07,3.1230882905166944e-07,2.1387035851803728e-05
5.724853348126797e-07,3.4753360476380247e-07,3.137458541387427e-07,2.136455770315871e-05
5.671335791609973e-07,3.481177435652213e-07,3.151119330137341e-07,2.135435440280081e-05
5.618860352831756e-07,3.4882780080979986e-07,3.164130966306641e-07,2.135850259222065e-05
5.567539603655334e-07,3.496661590219745e-07,3.176519235696133e-07,2.1378787056039456e-05
5.517436901108935e-07,3.506339454106693e-07,3.1882809468049544e-07,2.1416602680367e-05
5.468575725018225e-07,3.5173023960701103e-07,3.199397764228207e-07,2.1472880690265608e-05
5.420942344243727e-07,3.5295263475431595e-07,3.209854526574299e-07,2.154805133124825e-05
5.374480308866861e-07,3.542979644973485e-07,3.219648229848496e-07,2.164203316437804e-05
5.329090934199822e-07,3.5576271570636174e-07,3.228782031364302e-07,2.175424912165773e-05
5.284644882086825e-07,3.573432330136351e-07,3.2372608011123943e-07,2.1883689716813007e-05
5.24099457018105e-07,3.590344518036997e-07,3.2450978271920884e-07,2.2029012491976266e-05
5.197982566594903e-07,3.6082760417671524e-07,3.252320478074492e-07,2.2188645715297765e-05
5.155452335409281e-07,3.627090587894835e-07,3.258969999303596e-07,2.2360894014820127e-05
5.113259138443979e-07,3.6466082281938897e-07,3.265119953058046e-07,2.2544047150724395e-05
5.07128056080443e-07,3.66661534534469e-07,3.270913205350527e-07,2.273645932139135e-05
5.029436205433376e-07,3.686870594027067e-07,3.27656557166812e-07,2.293657146419803e-05
4.98769584299376e-07,3.707112661432835e-07,3.282320677367042e-07,2.314289439411058e-05
4.94605224872315e-07,3.7270783724698146e-07,3.288401520104711e-07,2.335398730056965e-05
4.904492116568966e-07,3.7465314844741717e-07,3.2949881673487967e-07,2.356843804220051e-05
4.86299345736633e-07,3.765295194975866e-07,3.3022283082402785e-07,2.378483419530209e-05
4.821531428291644e-07,3.7832638140509867e-07,3.3102736164436414e-07,2.4001727642757845e-05
4.780088703036472e-07,3.8003747357436563e-07,3.3192975949168066e-07,2.421760915727001e-05
4.7386720771260366e-07,3.8165680277274756e-07,3.3294732205623425e-07,2.4430933996903132e-05
4.697308118640563e-07,3.8317745946137907e-07,3.340951951860982e-07,2.4640228673272752e-05
4.6560175762670783e-07,3.845938247409075e-07,3.353867342714137e-07,2.484420225417412e-05
4.61480777553479e-07,3.8590365860076353e-07,3.368338113213761e-07,2.504175410290959e-05
4.573695105311714e-07,3.87106707509901e-07,3.3844591424367064e-07,2.523189592519277e-05
4.532730400552347e-07,3.882017438939093e-07,3.40229048043437e-07,2.5413682780512764e-05
4.491995399882247e-07,3.8918521125503103e-07,3.4218493025870536e-07,2.5586199764578118e-05
4.45156996047902e-07,3.90051268666307e-07,3.443109418156425e-07,2.574856592622975e-05
4.4115035266340246e-07,3.90792394714801e-07,3.466005609321053e-07,2.5899891601138488e-05
4.3718074392224073e-07,3.914001718505386e-07,3.490432895439368e-07,2.603921240846221e-05
4.3324612614974385e-07,3.918661919383389e-07,3.516250427488829e-07,2.6165494683860628e-05
4.2934362490379037e-07,3.9218314840657994e-07,3.543304779377688e-07,2.6277743401813174e-05
4.254735825618763e-07,3.923454760313152e-07,3.5714602838691844e-07,2.637515303987662e-05
4.2164310576928744e-07,3.9234926523799966e-07,3.6006092666968165e-07,2.645725577091413e-05
4.178663906672225e-07,3.9219166548279536e-07,3.6306562773962726e-07,2.6524033427436795e-05
4.141611236583622e-07,3.918701965830183e-07,3.661499533833506e-07,2.6575906740625918e-05
4.105434491086146e-07,3.913823721703037e-07,3.6930273127754047e-07,2.6613564317321985e-05
4.070249305961799e-07,3.907251941338076e-07,3.7251278148839853e-07,2.663771670074755e-05
4.036128731933722e-07,3.898945355683126e-07,3.7576965429806936e-07,2.6648898017350863e-05
4.00312968512039e-07,3.8888521562034495e-07,3.790623835773378e-07,2.6647391891034852e-05
3.9713141931447064e-07,3.876918302171201e-07,3.8237805051943595e-07,2.6633265624698056e-05
3.940742704201031e-07,3.8631009518522223e-07,3.857023668586128e-07,2.660642724244231e-05
3.911449385115928e-07,3.8473849400732824e-07,3.8902050655438297e-07,2.656668945577369e-05
3.883432255512126e-07,3.8297967943200026e-07,3.923168634591846e-07,2.651395025388956e-05
3.8566785495048795e-07,3.8104096370536656e-07,3.9557553457923067e-07,2.6448476826357625e-05
3.8311975254488354e-07,3.789334285969082e-07,3.987823532946245e-07,2.637104513863337e-05
3.8070155534167953e-07,3.7667008761100737e-07,4.0192620627084286e-07,2.628282473747179e-05
3.78414606018324e-07,3.7426438226754396e-07,4.049981129233646e-07,2.618517310472792e-05
3.762576271313727e-07,3.717297593150842e-07,4.079896571895139e-07,2.607946399144472e-05
3.7422707359252475e-07,3.6907986578871886e-07,4.10892153196436e-07,2.596699071201041e-05
3.7231754448079424e-07,3.663290866767956e-07,4.136962045714365e-07,2.5849053465518077e-05
3.705231515668689e-07,3.6349408949824817e-07,4.163913721793736e-07,2.5727197151789905e-05
3.688405115740424e-07,3.605951361635736e-07,4.1896631513481813e-07,2.5603332373241724e-05
3.6727075519986184e-07,3.5765422311514227e-07,4.2140977465242076e-07,2.5479633886616128e-05
3.658180769945282e-07,3.546912295074078e-07,4.237114235997266e-07,2.5358367644731197e-05
3.6448664249510595e-07,3.517221696298975e-07,4.258617358931698e-07,2.5241756873455028e-05
3.6327906251728466e-07,3.48760029870402e-07,4.2785179678756717e-07,2.5131891886362328e-05
3.6219666648225157e-07,3.458155682072344e-07,4.296735511045802e-07,2.503067341335801e-05
3.612399955435853e-07,3.428976883564682e-07,4.313201444122757e-07,2.493978060687436e-05
3.604086306216682e-07,3.4001624915094254e-07,4.327860194329276e-07,2.4860654956226002e-05
3.597003928114473e-07,3.371868098341234e-07,4.3406644744762753e-07,2.479449812026893e-05
3.5911074521234475e-07,3.344322459690138e-07,4.3515668169652003e-07,2.474226605305519e-05
3.5863303836885107e-07,3.31779301692939e-07,4.36051375392877e-07,2.470462463978313e-05
3.5825870755955245e-07,3.292531444314551e-07,4.3674454995877064e-07,2.468187587250553e-05
3.5797687247749626e-07,3.268737648576609e-07,4.372299970275976e-07,2.4673907664760127e-05
3.577749389502773e-07,3.24655249647436e-07,4.375024029217572e-07,2.468019410608984e-05
3.576406418565715e-07,3.2260641656469476e-07,4.375586705969095e-07,2.4699848613734044e-05
3.575640938282135e-07,3.207323305739205e-07,4.373980080030634e-07,2.4731730376067678e-05
3.575405624358605e-07,3.1903732885253826e-07,4.370207704726815e-07,2.4774567316291848e-05
3.575740988482786e-07,3.175289454436603e-07,4.364269713442621e-07,2.482704974132403e-05
3.576791137050201e-07,3.162199121440124e-07,4.35615440020024e-07,2.488790281537577e-05
3.578787707503747e-07,3.151255743330861e-07,4.3458430153217926e-07,2.495595670399417e-05
3.5820110209037475e-07,3.1425908167795586e-07,4.3333169476746493e-07,2.5030191687758026e-05
3.5867452214159046e-07,3.136286772307577e-07,4.318554129141971e-07,2.510972884391803e-05
3.593249635027256e-07,3.132378134004484e-07,4.301520791840765e-07,2.519376712066793e-05
3.6017469693912117e-07,3.130872583928583e-07,4.2821701481852666e-07,2.5281488348554612e-05
3.6124209707110366e-07,3.131773677632248e-07,4.260450614658226e-07,2.5371964171068304e-05
3.625422431182114e-07,3.1350820559885e-07,4.2363199451312104e-07,2.546411710054017e-05
3.6408678900709117e-07,3.1407809514856173e-07,4.209756802162408e-07,2.555675282973003e-05
3.6588249238947113e-07,3.148823103555355e-07,4.1807593152688907e-07,2.5648620780902742e-05
3.679313464315961e-07,3.1591224219182767e-07,4.1493339594813597e-07,2.573847830148531e-05
3.7023395657776705e-07,3.1715522631468487e-07,4.1154923157802637e-07,2.5825154663994212e-05
3.7279326370751574e-07,3.18594973558362e-07,4.079256301770096e-07,2.5907588782744423e-05
3.7561551916818985e-07,3.202124244412457e-07,4.0406570842296e-07,2.598481075840127e-05
3.7870812818733724e-07,3.219879501032871e-07,3.999729410048672e-07,2.605585862790694e-05
3.82075454798262e-07,3.23905111531754e-07,3.956514894776632e-07,2.611968520034568e-05
3.857160504632537e-07,3.2595342467722694e-07,3.9110770764733133e-07,2.617513757600471e-05
3.896257754768563e-07,3.2812746885183074e-07,3.86351196864106e-07,2.622101236161921e-05
3.9380372906680477e-07,3.304247073617105e-07,3.813939341231029e-07,2.6256141316125225e-05
3.982524180597509e-07,3.328460195657832e-07,3.762487170987291e-07,2.6279511136329958e-05
4.029729732829051e-07,3.3539649652133564e-07,3.7092880256821225e-07,2.629041372705691e-05
4.079623140193222e-07,3.380834687250242e-07,3.6544898659512954e-07,2.628853463232769e-05
4.1321235986129366e-07,3.409162824774629e-07,3.5982743296732493e-07,2.6273899078471494e-05
4.187093600041704e-07,3.4391042698156727e-07,3.5408620416648296e-07,2.6246707528656217e-05
4.244340630759715e-07,3.470889661484362e-07,3.4824918790150625e-07,2.620716740101741e-05
4.3036242128761035e-07,3.504767787805244e-07,3.423398273167323e-07,2.6155416135844424e-05
4.364670712979701e-07,3.5409365357589567e-07,3.363805889824772e-07,2.60915304689117e-05
4.427209401952401e-07,3.5795155580810906e-07,3.3039297605366804e-07,2.601554087852561e-05
4.4910081482711926e-07,3.6205431058731153e-07,3.243972833749772e-07,2.59274392202198e-05
4.5558723485294846e-07,3.6639761796833853e-07,3.184125556525837e-07,2.5827283996859065e-05
4.6216172175853865e-07,3.709700803717805e-07,3.12457023650001e-07,2.571542952101041e-05
4.688044664283352e-07,3.757556600901061e-07,3.065485058641898e-07,2.5592678073178767e-05
4.754930933724335e-07,3.8073618762221864e-07,3.007044505338765e-07,2.546019564069465e-05
4.822019740977409e-07,3.8589324056032296e-07,2.949419489732692e-07,2.531930793606091e-05
4.889018779338601e-07,3.9121006896226845e-07,2.892775388641527e-07,2.5171331432490742e-05
4.955597393129049e-07,3.966724994239657e-07,2.83726984669524e-07,2.501749628440205e-05
5.021393182185411e-07,4.022675805419977e-07,2.783052823402858e-07,2.4859053186570982e-05
5.086040024176651e-07,4.079811950128344e-07,2.730270884205305e-07,2.469752142901887e-05
5.149197497034508e-07,4.1379638185913796e-07,2.67909370708558e-07,2.453480947118179e-05
5.21055406295572e-07,4.1969263649184535e-07,2.6297488137066226e-07,2.43731080520266e-05
5.269817835291272e-07,4.256455460487186e-07,2.5825121039902157e-07,2.42147149087958e-05
5.326712213752387e-07,4.31627098796575e-07,2.537664948739125e-07,2.406189724530588e-05
5.380976584319975e-07,4.376069227758468e-07,2.495482535292049e-07,2.39167798450772e-05
5.432371201563259e-07,4.435539598855557e-07,2.456253437898217e-07,2.3781236654028813e-05
5.480674614471175e-07,4.4943809483498385e-07,2.4202758281270124e-07,2.365679711091802e-05
5.525670113770653e-07,4.552306090415767e-07,2.387824460863209e-07,2.354460187952567e-05
5.567134101331845e-07,4.609033826865034e-07,2.359126859476409e-07,2.3445418967164388e-05
5.604833854986432e-07,4.6642811482163494e-07,2.3343565081948108e-07,2.335968151943292e-05
5.638535496115887e-07,4.717758958808814e-07,2.3136318938308892e-07,2.32875009998016e-05
5.668016579224124e-07,4.769169021020722e-07,2.2970256384612927e-07,2.322865395645415e-05
5.69308301190731e-07,4.818207582554146e-07,2.284579750660585e-07,2.3182575949076306e-05
5.713594015631142e-07,4.864577899504289e-07,2.2763133212809835e-07,2.31484015901548e-05
5.729470614434711e-07,4.907996588990675e-07,2.272219863525711e-07,2.312507330798595e-05
5.740678806837865e-07,4.948187964011153e-07,2.272265190614605e-07,2.311148801370818e-05
5.747233388216064e-07,4.98488395087342e-07,2.2763997431968088e-07,2.31066029963275e-05
5.749227086673478e-07,5.017837760764133e-07,2.284587744130548e-07,2.3109463485524498e-05
5.746824564684663e-07,5.046847809099785e-07,2.2968400526720943e-07,2.311920080817865e-05
5.740214427535761e-07,5.071783918825582e-07,2.3132280749482212e-07,2.313505410510928e-05
5.729576105826557e-07,5.092587437487026e-07,2.333863269151967e-07,2.315640247756939e-05
5.715080269118395e-07,5.109241155552391e-07,2.3588479117930693e-07,2.3182767983046727e-05
5.696903024281759e-07,5.121748886240197e-07,2.3882273331029605e-07,2.321377276377833e-05
5.675245142424712e-07,5.130132381437422e-07,2.421976188268869e-07,2.3249051107267785e-05
5.650335145255255e-07,5.134422797976824e-07,2.460019463425266e-07,2.3288148119021468e-05
5.622401396107659e-07,5.134649856586397e-07,2.502256522668901e-07,2.33304861141525e-05
5.591642409190804e-07,5.130839280857273e-07,2.548558675045126e-07,2.337542345349986e-05
5.558222806818025e-07,5.123019727771378e-07,2.598750041252298e-07,2.3422311560341142e-05
5.522292357274846e-07,5.111243724580883e-07,2.652597135304635e-07,2.34704927781189e-05
5.484011116684111e-07,5.095619533023265e-07,2.7098102995790737e-07,2.3519287426356282e-05
5.443569787813957e-07,5.076328384353597e-07,2.770055076516777e-07,2.3568005851887936e-05
5.40120090148485e-07,5.05360219991931e-07,2.8329701120271744e-07,2.3615952311905186e-05
5.357166524001882e-07,5.027677969481915e-07,2.8981769293864176e-07,2.366237461539429e-05
5.31172576853272e-07,4.998770375586163e-07,2.965278612606017e-07,2.370638756843622e-05
5.265112065265943e-07,4.967069794468457e-07,3.0338643420927966e-07,2.3746954483088296e-05
5.217535921936644e-07,4.932742672874812e-07,3.1035313026630604e-07,2.3782954490799384e-05
5.169202828987804e-07,4.895933455859297e-07,3.1739163406949885e-07,2.381329082768805e-05
5.120334131679616e-07,4.856778281854136e-07,3.244712681954996e-07,2.3837008610225782e-05
5.071180564971283e-07,4.81541873349161e-07,3.315657354972211e-07,2.3853419426699772e-05
5.022006618473954e-07,4.772005169610745e-07,3.3865087527328145e-07,2.3862181358444446e-05
4.973051165000668e-07,4.726696117447376e-07,3.4570304828780604e-07,2.3863255416450456e-05
4.924506603209348e-07,4.6796532896518575e-07,3.526986539610605e-07,2.3856750023468245e-05
4.876522393675366e-07,4.6310282198608963e-07,3.5961566391549563e-07,2.3842765523907807e-05
4.829206756431071e-07,4.5809535261891287e-07,3.664350066755911e-07,2.3821325041512106e-05
4.782629482421165e-07,4.529547243862977e-07,3.7313878719132326e-07,2.379237190298105e-05
4.736838811223685e-07,4.476918753918853e-07,3.7970707671821007e-07,2.375578207924722e-05
4.691884217520051e-07,4.423179800555514e-07,3.8611690587407825e-07,2.3711381846829984e-05
4.647833013014455e-07,4.368472151703248e-07,3.9234383393384537e-07,2.365901291754635e-05
4.6047769968818406e-07,4.312983050295536e-07,3.983639621166539e-07,2.359868995491016e-05
4.5628343706940824e-07,4.2569213454467274e-07,4.0415501219833594e-07,2.35307519789186e-05
4.522163984291113e-07,4.200489427428673e-07,4.0969604096070244e-07,2.3455842539055483e-05
4.482985265410244e-07,4.143884328490937e-07,4.149660159128113e-07,2.337473617217572e-05
4.4455578750294246e-07,4.0873019998313993e-07,4.1994338662658e-07,2.3288147959851112e-05
4.410120210642659e-07,4.0309271431803963e-07,4.2460854486233603e-07,2.319665411847713e-05
4.376846474043848e-07,3.974928414196026e-07,4.2894753394163275e-07,2.3100855129395722e-05
4.345845139692935e-07,3.919456963908881e-07,4.3295347554781493e-07,2.300172491783815e-05
4.3171717193025093e-07,3.864638140250961e-07,4.366250164349633e-07,2.290083563394998e-05
4.2908330919625273e-07,3.810572420566247e-07,4.399649382611455e-07,2.2800279554333897e-05
4.2667833036308346e-07,3.757349813156717e-07,4.429805896389099e-07,2.2702416684646084e-05
4.2449214170135116e-07,3.7050600183459247e-07,4.456839624771081e-07,2.2609624742272e-05
4.225096093244632e-07,3.653792906492682e-07,4.480897555996371e-07,2.252412068111792e-05
4.207115968891623e-07,3.6036392128461616e-07,4.502123949402025e-07,2.244785199939936e-05
4.190761722287724e-07,3.554691013251825e-07,4.5206443421529315e-07,2.2382430363314545e-05
4.1757952301974267e-07,3.507042328890602e-07,4.536574514088925e-07,2.232909256269776e-05
4.1619643494748027e-07,3.4608017843576684e-07,4.5500286387891436e-07,2.2288693898781635e-05
4.1490032896098743e-07,3.416102733253409e-07,4.5611115500383847e-07,2.2261726984346046e-05
4.1366347052445956e-07,3.3730951308282773e-07,4.569916649741666e-07,2.2248333886295247e-05
4.124577307037497e-07,3.331933956042465e-07,4.5765345749516076e-07,2.224829722677777e-05
4.11255447822396e-07,3.292763281732769e-07,4.581061876870789e-07,2.22610452313811e-05
4.1003042219198687e-07,3.255692069132576e-07,4.5836067922563286e-07,2.2285709789647607e-05
4.087594750935946e-07,3.220782746221459e-07,4.5842873454249974e-07,2.232123500374433e-05
4.0742550908329077e-07,3.1880635640936986e-07,4.583228100885153e-07,2.236650862514928e-05
4.06021999935302e-07,3.157549429964422e-07,4.580566748238862e-07,2.2420474624648362e-05
4.0455484607551046e-07,3.129247074193413e-07,4.576459554587567e-07,2.248218506275329e-05
4.030382071943257e-07,3.1031455233531946e-07,4.571072249427069e-07,2.255080223188839e-05
4.014877009960946e-07,3.0792151203623893e-07,4.5645667018354366e-07,2.262560041900045e-05
3.999161686328406e-07,3.057413075004241e-07,4.5570923745882253e-07,2.2705973075640546e-05
3.9833265806381e-07,3.0376807075388067e-07,4.548777136350235e-07,2.279141625675772e-05
3.9674279835474283e-07,3.0199428738117426e-07,4.53972188501618e-07,2.28814917367865e-05
3.9514958623132657e-07,3.0041200647055396e-07,4.530003490126825e-07,2.2975780557224866e-05
3.935545190724935e-07,2.990139598885403e-07,4.5196784055834066e-07,2.307381148425448e-05
3.9195850540808025e-07,2.9779317019585856e-07,4.508780229164858e-07,2.3174985181750448e-05
3.9036216373287e-07,2.967416054356315e-07,4.497312243433272e-07,2.327855366679964e-05
3.8876780428114954e-07,2.958491240399468e-07,4.4852550302772503e-07,2.3383654611031515e-05
3.871829468202694e-07,2.9510335332606547e-07,4.472605852776437e-07,2.348934827544122e-05
3.8561997817372853e-07,2.944907765319271e-07,4.4594156795263826e-07,2.359464164282219e-05
3.840917084632726e-07,2.939979693471376e-07,4.445776540078168e-07,2.369851592195043e-05
3.8260906724057754e-07,2.9361164512146694e-07,4.431778507023509e-07,2.379994569888641e-05
3.8118216717685646e-07,2.933182667202981e-07,4.4174886638982077e-07,2.389789750264376e-05
3.798208660258806e-07,2.931038677525529e-07,4.402954566291069e-07,2.399138916656386e-05
3.78534381632117e-07,2.9295377176555426e-07,4.3882023160754576e-07,2.4079656401545458e-05
3.7733172422375393e-07,2.9285327681949766e-07,4.3732291635544577e-07,2.416228217170568e-05
3.7622215059384313e-07,2.9278945775535487e-07,4.358011649491293e-07,2.423917899041906e-05
3.75215348986817e-07,2.9275167709683854e-07,4.3425177995653775e-07,2.431048916778753e-05
3.7432161044615406e-07,2.927301849955328e-07,4.326700287111226e-07,2.437646118022632e-05
3.735500318254153e-07,2.927151478718678e-07,4.310492045878955e-07,2.443730362203753e-05
3.7290573213274864e-07,2.9269709806583593e-07,4.293831386493693e-07,2.449305679699657e-05
3.723898586855328e-07,2.9266759442191293e-07,4.276692114662757e-07,2.4543559407094847e-05
3.7200165507117704e-07,2.9261947070413454e-07,4.259080329993408e-07,2.458854047378529e-05
3.717395031190133e-07,2.925467275371613e-07,4.24100769388288e-07,2.4627759879774592e-05
3.71600806414691e-07,2.9244411419455e-07,4.222479891692392e-07,2.466108488616263e-05
3.7158120393833253e-07,2.923069584467489e-07,4.203506366882511e-07,2.468848053514865e-05
3.716736390155964e-07,2.921311391001689e-07,4.18410490931711e-07,2.470994902228514e-05
3.718691955421869e-07,2.9191259419697085e-07,4.164292848755629e-07,2.472546766993277e-05
3.721589644159794e-07,2.916472391137815e-07,4.144084870526868e-07,2.4735024885223466e-05
3.725343195888111e-07,2.913316677023282e-07,4.123504678088761e-07,2.473874769224844e-05
3.7298607178985007e-07,2.909633136726773e-07,4.102593739644733e-07,2.4736994828155104e-05
3.7350407683257157e-07,2.905407353234945e-07,4.081404875158766e-07,2.4730382277915288e-05
3.74077945466632e-07,2.900654645815204e-07,4.0599832050519523e-07,2.471973511363641e-05
3.746987766684581e-07,2.8954303315981805e-07,4.0383514607328774e-07,2.470595273681472e-05
3.753599837851352e-07,2.889807057480561e-07,4.0165207327586005e-07,2.46898695775595e-05
3.7605701219258497e-07,2.8838442030731947e-07,3.99451578714668e-07,2.467217125409224e-05
3.7678798667125453e-07,2.877581271636953e-07,3.972384533396962e-07,2.465334488574099e-05
3.7755360646555773e-07,2.8710464081033394e-07,3.9501993821841066e-07,2.463365731824324e-05
3.783541664200449e-07,2.8642644529759933e-07,3.9280685296790883e-07,2.461316477433886e-05
3.7918703528272116e-07,2.857269886371124e-07,3.9061367220570323e-07,2.459172207051943e-05
3.8004877618752777e-07,2.850122127205205e-07,3.8845656754761883e-07,2.456897369746617e-05
3.8094099742958116e-07,2.8429070920822933e-07,3.863516913084346e-07,2.454435489249828e-05
3.818754907559323e-07,2.835717432431249e-07,3.8431424704635047e-07,2.4517120660170744e-05
3.8287538268639863e-07,2.828624075541394e-07,3.823572641674797e-07,2.4486381825382143e-05
3.839711954493362e-07,2.821668085128868e-07,3.804908319516439e-07,2.4451133646373465e-05
3.8519353180730257e-07,2.814889085049284e-07,3.787224183863963e-07,2.44102931944297e-05
3.8656689396794585e-07,2.8083690933640213e-07,3.7705730338096845e-07,2.4362747930825585e-05
3.881076172926774e-07,2.802254961420351e-07,3.754990159232464e-07,2.4307393213362132e-05
3.8982613255834277e-07,2.7967555158681414e-07,3.740496446120892e-07,2.424314980956901e-05
3.9173146629288843e-07,2.79213744403955e-07,3.727096868656314e-07,2.416896515613237e-05
3.9383316539330685e-07,2.788715553404607e-07,3.714786128362649e-07,2.4083804243830925e-05
3.9613859251903646e-07,2.7868157454798193e-07,3.703563837779385e-07,2.3986646485424405e-05
3.986493991955447e-07,2.786731396955196e-07,3.693439918484617e-07,2.3876510411617014e-05
4.013608739503607e-07,2.788714813293697e-07,3.6844192059056906e-07,2.375251583718109e-05
4.042638021267815e-07,2.792998087115512e-07,3.6764830399999537e-07,2.3613967259708705e-05
4.073467384681469e-07,2.7997969239252374e-07,3.6695883859170134e-07,2.34604206140825e-05
4.1059803050449217e-07,2.809288703067295e-07,3.663682346487025e-07,2.329170004767456e-05
4.140090820293379e-07,2.821602724590944e-07,3.6587258233138706e-07,2.310786219828684e-05
4.175792433220581e-07,2.836826789543477e-07,3.6547096252151924e-07,2.290913536876775e-05
4.21318609905507e-07,2.8550044499829464e-07,3.6516389065351657e-07,2.2695864719385115e-05
4.252446541729058e-07,2.876132722398518e-07,3.649501380233933e-07,2.2468476317743883e-05
4.2937510405896686e-07,2.9001752631451347e-07,3.648252999208619e-07,2.2227466722503367e-05
4.3372398984357977e-07,2.9270731043106546e-07,3.6478233598341405e-07,2.197341932815405e-05
4.3830221499691827e-07,2.9567448336456325e-07,3.6481225670256547e-07,2.1707021400615838e-05
4.4311808807401497e-07,2.9890860504518014e-07,3.649047410231904e-07,2.142905857697828e-05
4.48175769552097e-07,3.023968339409407e-07,3.650497131638842e-07,2.1140378243671685e-05
4.53474192662397e-07,3.0612399742810394e-07,3.652383394879192e-07,2.0841837487891447e-05
4.590098545851011e-07,3.100730037058025e-07,3.654620252313601e-07,2.0534318282919643e-05
4.6478148489339095e-07,3.142250037753232e-07,3.6571107498349497e-07,2.0218828212343923e-05
4.7079024108903277e-07,3.185592008459469e-07,3.6597445619775255e-07,1.989655333208692e-05
4.77036201895721e-07,3.230524550787749e-07,3.6624060435797724e-07,1.9568791256406628e-05
4.835168400562865e-07,3.276792927923224e-07,3.6649788855612977e-07,1.9236867434204808e-05
4.902270994697057e-07,3.3241292108849213e-07,3.6673409767229856e-07,1.890214521515408e-05
4.971595870562751e-07,3.3722717825837087e-07,3.6693658158623967e-07,1.856608654564097e-05
5.043052804938946e-07,3.420987551083889e-07,3.6709324556414475e-07,1.8230246441738896e-05
5.116526158440221e-07,3.4700730329888573e-07,3.671926506003447e-07,1.7896193625869152e-05
5.191852593263182e-07,3.519327845228068e-07,3.672231775849723e-07,1.7565417221401716e-05
5.268820356627801e-07,3.5685424617623174e-07,3.671727179322826e-07,1.7239260438651668e-05
5.347188999422345e-07,3.6175277298921216e-07,3.670288082120904e-07,1.691893731192319e-05
5.426709934125505e-07,3.6661526323654274e-07,3.667782401918855e-07,1.660561269661688e-05
5.507144076356018e-07,3.7143499054411653e-07,3.6640708146338246e-07,1.630041640470728e-05
5.588263359178901e-07,3.762094236632515e-07,3.6590262697523325e-07,1.6004360477084775e-05
5.669826191342568e-07,3.809371354456744e-07,3.6525612357790315e-07,1.5718265144164136e-05
5.751555511550164e-07,3.8561479183720296e-07,3.6446318802823356e-07,1.5442787315250906e-05
5.833142242108964e-07,3.9023561668280185e-07,3.635219344898407e-07,1.5178587066402008e-05
5.91425206869274e-07,3.947894774746093e-07,3.624322053002945e-07,1.4926525756101055e-05
5.994522126914118e-07,3.992636529002421e-07,3.6119621287658074e-07,1.4687684485327515e-05
6.073566742182737e-07,4.0364442069970594e-07,3.598178720907439e-07,1.4463204288948785e-05
6.150990393236779e-07,4.079198311174239e-07,3.583009661295942e-07,1.4254188233952545e-05
6.226388318095038e-07,4.120813437167531e-07,3.566481263145137e-07,1.406176045231268e-05
6.299342552015312e-07,4.1612184435383395e-07,3.548608675058016e-07,1.388712694842215e-05
6.36942895463382e-07,4.200325397614186e-07,3.5294001582671134e-07,1.3731535373458839e-05
6.436238902079514e-07,4.238021068117904e-07,3.508859816280779e-07,1.3596197183284884e-05
6.49940521328691e-07,4.2741781971784796e-07,3.486986873671863e-07,1.3482223399543131e-05
6.558607220501518e-07,4.3086637426284504e-07,3.463775558804721e-07,1.3390551827901756e-05
6.61355910437658e-07,4.341332805445185e-07,3.439222045515076e-07,1.3321855808853502e-05
6.664001916580617e-07,4.3720287890209044e-07,3.41333724417017e-07,1.327646417773206e-05
6.709695329168986e-07,4.400599428741683e-07,3.3861505685932e-07,1.3254319457144847e-05
6.750412167798015e-07,4.426906076516223e-07,3.357702319637364e-07,1.3254978804722107e-05
6.785938161411799e-07,4.4508206931699647e-07,3.328039028299808e-07,1.3277652392994126e-05
6.816064999682226e-07,4.4722225947308065e-07,3.297209971448935e-07,1.3321257604401296e-05
6.840584160591507e-07,4.4909993843266e-07,3.265260206277181e-07,1.3384458986929805e-05
6.859299343663442e-07,4.507061146252146e-07,3.232229499853322e-07,1.3465693709581345e-05
6.872059973568458e-07,4.5203634529856847e-07,3.198156548524967e-07,1.3563209414146741e-05
6.87879666511346e-07,4.5309074062838963e-07,3.1630795274090945e-07,1.3675133420622022e-05
6.87953305293534e-07,4.538714541708891e-07,3.127035353055848e-07,1.3799568877614533e-05
6.874368298999172e-07,4.543818975133073e-07,3.090062489076139e-07,1.393468572665737e-05
6.863446542234168e-07,4.546283249354375e-07,3.0522049057384423e-07,1.40787660229896e-05
6.846940034576929e-07,4.5461977373226634e-07,3.013517127693573e-07,1.4230200584953977e-05
6.82505915965531e-07,4.543666737942499e-07,2.974070213663837e-07,1.4387474847037616e-05
6.798072499181796e-07,4.538818897515233e-07,2.933949830296459e-07,1.4549175394389814e-05
6.766321532418955e-07,4.5318307585595863e-07,2.893247008917037e-07,1.471402150143362e-05
6.730235364936307e-07,4.522927727555501e-07,2.852057685034216e-07,1.4880899634836312e-05
6.690328112323029e-07,4.51236098955465e-07,2.810490391841836e-07,1.5048849807703393e-05
6.647147834325607e-07,4.50037922402404e-07,2.7686647841114164e-07,1.5216982397719968e-05
6.601203366695431e-07,4.4872180568732737e-07,2.7267036541084964e-07,1.5384381620789894e-05
6.552925957000308e-07,4.4731158328099203e-07,2.684739059584167e-07,1.5550060220768285e-05
6.502679201517358e-07,4.458324489447545e-07,2.642930396896387e-07,1.5712979762201848e-05
6.45078709261796e-07,4.4430942872515547e-07,2.601465128058855e-07,1.5872105263892075e-05
6.397546192626588e-07,4.4276527246895856e-07,2.560540271348501e-07,1.6026444212995898e-05
6.343218304252348e-07,4.412193605234973e-07,2.5203536010058323e-07,1.6175054287649317e-05
6.288032380585032e-07,4.3968775557246187e-07,2.481103890586093e-07,1.6317030446613126e-05
6.23222216062417e-07,4.3818380594214994e-07,2.442986272601497e-07,1.6451489341757465e-05
6.176078731276378e-07,4.3671799372865637e-07,2.4061926459773386e-07,1.6577590113777455e-05
6.119958256517955e-07,4.3529730786614287e-07,2.370913211593617e-07,1.6694599383243288e-05
6.064229000022984e-07,4.3392548997971956e-07,2.337330332873377e-07,1.6801939202090954e-05
6.009214423885735e-07,4.3260358848823566e-07,2.3056201608548212e-07,1.689916046653267e-05
5.955175318431331e-07,4.3132997801744757e-07,2.2759565631982762e-07,1.6985865068291378e-05
5.902317563939683e-07,4.301010804208464e-07,2.2485004400434947e-07,1.706163896504779e-05
5.850810225371437e-07,4.289131367522597e-07,2.223391963322231e-07,1.7126028570260793e-05
5.800806024794775e-07,4.277632810450322e-07,2.2007571496290487e-07,1.717857155597041e-05
5.752443571187432e-07,4.2664911767926653e-07,2.180709318614452e-07,1.721886507692642e-05
5.705829370718592e-07,4.2556756374242884e-07,2.163334263368977e-07,1.7246602525599184e-05
5.66102133106769e-07,4.2451367019444997e-07,2.14867299701712e-07,1.7261544951878165e-05
5.618022446752466e-07,4.234798499465201e-07,2.136720320394309e-07,1.7263503342131088e-05
5.57677921064691e-07,4.224559628879992e-07,2.1274353462523705e-07,1.725238703671296e-05
5.537191092074764e-07,4.2143015678935923e-07,2.1207514583843103e-07,1.722824841919359e-05
5.499141774405865e-07,4.2039014908173225e-07,2.116586168530719e-07,1.7191252518535818e-05
5.462535255528015e-07,4.1932473731102404e-07,2.1148458170300503e-07,1.7141609091625865e-05
5.427313924792455e-07,4.1822434040741026e-07,2.115418721359005e-07,1.707957807537674e-05
5.393471223782304e-07,4.170798520089675e-07,2.1181714751765908e-07,1.7005634590994323e-05
5.361070221693817e-07,4.158811645613312e-07,2.1229608835316264e-07,1.692070742218421e-05
5.330248893514148e-07,4.146170134823607e-07,2.129648243405465e-07,1.6826262096026737e-05
5.30119802027557e-07,4.1327697782224283e-07,2.1381082383440461e-07,1.6724154235623928e-05
5.274115653169938e-07,4.118542166170918e-07,2.148241354831224e-07,1.6616398910631935e-05
5.249158606721102e-07,4.1034534287260853e-07,2.1599784742373924e-07,1.6504981756363972e-05
5.22642259204638e-07,4.087475639524868e-07,2.173264662198687e-07,1.639178299113625e-05
5.205954562570968e-07,4.070572296903576e-07,2.188039465432289e-07,1.6278696339488846e-05
5.187769796415867e-07,4.052708448401187e-07,2.2042316714981213e-07,1.6167844472665972e-05
5.17186841982687e-07,4.0338681628139e-07,2.2217687768977646e-07,1.6061636319561567e-05
5.15825284755664e-07,4.014069251163862e-07,2.240589242419229e-07,1.5962629847480785e-05
5.146919960110456e-07,3.9933631698073117e-07,2.2606411506250682e-07,1.5873356521159914e-05
5.137832653345395e-07,3.9718209484467273e-07,2.281865487537859e-07,1.5796177246316016e-05
5.130907965831857e-07,3.9495296726431286e-07,2.3041817048244892e-07,1.573316602926806e-05
5.126026654714513e-07,3.926600739322703e-07,2.3274912666694289e-07,1.5686026253897394e-05
5.123040603776125e-07,3.9031665744938e-07,2.3516935840612732e-07,1.565605562215873e-05
5.12177025406579e-07,3.879377825789106e-07,2.3766974716834308e-07,1.5644165823951265e-05
5.122006986729154e-07,3.8554156463618215e-07,2.4024221003608213e-07,1.565093259381323e-05
5.123524783986937e-07,3.8314870979031617e-07,2.4287977000918584e-07,1.567663871386154e-05
5.126103497908236e-07,3.807794258622225e-07,2.4557757853682307e-07,1.572128851542244e-05
5.129565804009497e-07,3.784518327898654e-07,2.48333961027915e-07,1.5784599976831824e-05
5.133800045113024e-07,3.761836760341333e-07,2.511496410596222e-07,1.5865986106196294e-05
5.1387549910145e-07,3.739934172676476e-07,2.5402524128108894e-07,1.5964549469568052e-05
5.144425662478121e-07,3.718977979773523e-07,2.569592710265097e-07,1.6079142562240197e-05
5.150832969068503e-07,3.699089837772313e-07,2.599475101669178e-07,1.6208491908086233e-05
5.158004878110939e-07,3.6803428085430473e-07,2.629829750276081e-07,1.63512992414054e-05
5.165999113400294e-07,3.66277572516884e-07,2.6605657088360575e-07,1.6506283971671113e-05
5.174958636138283e-07,3.6464072199202634e-07,2.6915875925543947e-07,1.6672220939784475e-05
5.185116519365416e-07,3.631237120645494e-07,2.722812577380648e-07,1.684799752619903e-05
5.196719624327115e-07,3.617236879274681e-07,2.754177141707954e-07,1.703264491050114e-05
5.209944177050164e-07,3.604345845403384e-07,2.78563381265272e-07,1.7225297149511565e-05
5.224871353956031e-07,3.592484538091445e-07,2.8171396994844947e-07,1.7425085329427108e-05
5.241513156786499e-07,3.5815842547596897e-07,2.848639609119735e-07,1.7631025524559792e-05
5.259833552092659e-07,3.5716318427834113e-07,2.8800540311143544e-07,1.7841968872626897e-05
5.279742064841462e-07,3.5627003110354687e-07,2.9112776537924617e-07,1.80566406110762e-05
5.301091077749545e-07,3.554919420805641e-07,2.942185758125095e-07,1.8273716465026544e-05
5.323689932302453e-07,3.5484094778794024e-07,2.972642597743636e-07,1.849185698566184e-05
5.3473148294718e-07,3.5432449458406205e-07,3.002505797918245e-07,1.8709688292219454e-05
5.371719817750021e-07,3.539464323061779e-07,3.031626608883037e-07,1.8925774413061468e-05
5.39666224278355e-07,3.537094776389164e-07,3.059849272656873e-07,1.9138620181873042e-05
5.42192017452569e-07,3.5361557231646145e-07,3.0870120387914664e-07,1.9346735858083933e-05
5.447292458681893e-07,3.5366415118508504e-07,3.112951459514407e-07,1.954877359107645e-05
5.472599641056916e-07,3.538520362422269e-07,3.1375079668934934e-07,1.9743652856905747e-05
5.497682832696408e-07,3.541759002380761e-07,3.160528110565839e-07,1.9930568623905005e-05
5.522399757475298e-07,3.5463347063457134e-07,3.181865634555259e-07,2.0108909164546366e-05
5.546630582150756e-07,3.552217866598804e-07,3.2013851872840554e-07,2.027817034262691e-05
5.570281995568256e-07,3.5593549737069494e-07,3.218965627303168e-07,2.043789189884662e-05
5.593272075108122e-07,3.5676697162029314e-07,3.234498826185689e-07,2.05876046731212e-05
5.61550402533147e-07,3.577069294001833e-07,3.247885444717375e-07,2.0726784013099364e-05
5.63684600406344e-07,3.587444410286482e-07,3.259038254741377e-07,2.0854845426059726e-05
5.657123203225623e-07,3.598664787174757e-07,3.2678935748311374e-07,2.097121257725106e-05
5.676123307520346e-07,3.610582762760857e-07,3.2744142155883824e-07,2.1075406419583186e-05
5.69360927174377e-07,3.623048338012383e-07,3.278583607181194e-07,2.116707842450611e-05
5.70932769972811e-07,3.635917273144813e-07,3.280410532637986e-07,2.124596972065792e-05
5.723011232066162e-07,3.649042218383432e-07,3.279943493849441e-07,2.1311838395420417e-05
5.734382807705614e-07,3.6622613021879566e-07,3.277268774640798e-07,2.1364431374246647e-05
5.743174393117798e-07,3.675398047429954e-07,3.272490678714342e-07,2.140354942920212e-05
5.749166279095692e-07,3.688271277574052e-07,3.265725501167429e-07,2.1429134285878327e-05
5.752221281157162e-07,3.700711873164038e-07,3.257113450102881e-07,2.1441277399267646e-05
5.752277879772622e-07,3.712585613315717e-07,3.246816489240389e-07,2.144016799670701e-05
5.749315602889814e-07,3.723804004911374e-07,3.234995153284781e-07,2.1426038182653085e-05
5.743327788349469e-07,3.7343044601086977e-07,3.221793328668047e-07,2.1399119789092992e-05
5.734308680686023e-07,3.744018934314156e-07,3.207346481624205e-07,2.1359612627900822e-05
5.722255119321136e-07,3.752859248377681e-07,3.1917931853528945e-07,2.130766481668117e-05
5.707169909665863e-07,3.760717527091133e-07,3.1752701658803964e-07,2.1243364963729278e-05
5.689051916872587e-07,3.767472442439093e-07,3.157903280450688e-07,2.1166737147563832e-05
5.667893617532063e-07,3.7730123102927816e-07,3.1398095076530254e-07,2.107773773567356e-05
5.643701602562677e-07,3.77727712992058e-07,3.121099091031802e-07,2.097626665894015e-05
5.61651686657668e-07,3.780276438593011e-07,3.101875118833314e-07,2.0862187018508452e-05
5.586412162647432e-07,3.7820576653920655e-07,3.082251697008019e-07,2.073534224157128e-05
5.553476761739043e-07,3.782665602941072e-07,3.062379890094736e-07,2.0595588010199727e-05
5.51780640075681e-07,3.7821301959202647e-07,3.042440400766048e-07,2.0442846646107827e-05
5.479499654026369e-07,3.780480275243289e-07,3.022611302971101e-07,2.027714952952255e-05
5.438656250218004e-07,3.777761062922461e-07,3.003052494275981e-07,2.0098631849554238e-05
5.395371255830294e-07,3.774029540540036e-07,2.9839081451092016e-07,1.9907487557791118e-05
5.349730757385301e-07,3.769332391424385e-07,2.9653104430599817e-07,1.970392442145406e-05
5.301826392540218e-07,3.763699464628932e-07,2.947384458656739e-07,1.9488140941344614e-05
5.251786863049393e-07,3.757158364331613e-07,2.9302509923846887e-07,1.926032113384423e-05
5.19980197824141e-07,3.7497389300289883e-07,2.914028377514579e-07,1.9020648105745108e-05
5.146115689734413e-07,3.7414573958714063e-07,2.8988379195955147e-07,1.8769331731270965e-05
5.090998948753179e-07,3.732307317695863e-07,2.884800037958177e-07,1.850663010014411e-05
5.034742681361086e-07,3.7222774869598927e-07,2.872016204566161e-07,1.8232850856910693e-05
4.977668959296929e-07,3.711384381500607e-07,2.8605536676803927e-07,1.7948342226307776e-05
4.920114483693788e-07,3.699688044501878e-07,2.8504495253175525e-07,1.7653508119820672e-05
4.862386533486271e-07,3.6872825558878924e-07,2.8417433754051856e-07,1.7348855212317332e-05
4.804742294189952e-07,3.6742785291211355e-07,2.834518843851219e-07,1.7035024295548675e-05
4.7474126116822005e-07,3.6607908192738594e-07,2.82890548017362e-07,1.6712776034491942e-05
4.6906360581851064e-07,3.646942798493485e-07,2.825034226892139e-07,1.638294635224704e-05
4.634661106629833e-07,3.632887944603727e-07,2.8229988979995285e-07,1.6046395151926132e-05
4.5797162166873243e-07,3.618823437541175e-07,2.822855724330836e-07,1.5703994176236342e-05
4.52598174563819e-07,3.6049740116692317e-07,2.824637977163583e-07,1.5356662889496285e-05
4.4735844651015215e-07,3.591554386750693e-07,2.82836144602151e-07,1.500537505779876e-05
4.422614165091017e-07,3.5787393808246385e-07,2.834031566982256e-07,1.465111785962941e-05
4.373153154267044e-07,3.5666621304090185e-07,2.841666950897145e-07,1.4294866367529928e-05
4.3252926605936405e-07,3.555429367130016e-07,2.8513187016706906e-07,1.3937577461936105e-05
4.279124710357007e-07,3.5451297457567404e-07,2.863053288062036e-07,1.3580196185738284e-05
4.2347481913699284e-07,3.535829738388292e-07,2.876911263923373e-07,1.322370572648113e-05
4.1923120138134434e-07,3.5275664907220396e-07,2.892879447819363e-07,1.2869176978591057e-05
4.152047626146054e-07,3.52034335881195e-07,2.9108876431288233e-07,1.251772930077937e-05
4.1142449910644396e-07,3.5141279571990015e-07,2.930830579922904e-07,1.2170431175691544e-05
4.0791899151230883e-07,3.508857764636301e-07,2.952615700317329e-07,1.1828247582396146e-05
4.047114058373785e-07,3.5044553867671863e-07,2.97620743618618e-07,1.1492079817429182e-05
4.018197775594019e-07,3.500838546689807e-07,3.001625624255691e-07,1.1162889782057044e-05
3.9926159664309956e-07,3.497918141970187e-07,3.028902636897504e-07,1.0841860398116023e-05
3.970561893653733e-07,3.495596304978073e-07,3.058047114027553e-07,1.0530472513259244e-05
3.9522119234205604e-07,3.4937718300558673e-07,3.0890298765454196e-07,1.0230402778648655e-05
3.9376742391322887e-07,3.4923593363746317e-07,3.1217712185373374e-07,9.943293833284653e-06
3.926980154090315e-07,3.491318204579311e-07,3.156132813627974e-07,9.67055003408907e-06
3.9201384585381863e-07,3.490663756823529e-07,3.191930984156465e-07,9.41325721771065e-06
3.9172039093015044e-07,3.490459157590513e-07,3.228962494379705e-07,9.172194666870436e-06
3.918283466425672e-07,3.490813312682655e-07,3.267018553339088e-07,8.947868584237611e-06
3.9235128643228617e-07,3.491873733809834e-07,3.305880601011631e-07,8.740571938856121e-06
3.9330647203939686e-07,3.493799138191359e-07,3.3453155553520533e-07,8.550542387599394e-06
3.947141868734062e-07,3.496733174818293e-07,3.385082348670805e-07,8.378208375621391e-06
3.965940089797914e-07,3.500793322180134e-07,3.424942232964551e-07,8.224338209498516e-06
3.989628456285023e-07,3.506073719862367e-07,3.464666810410372e-07,8.089949930620677e-06
4.0183349995170963e-07,3.512653602661854e-07,3.504049720608564e-07,7.976079343302596e-06
4.052112328666888e-07,3.520593846495807e-07,3.5429152137300953e-07,7.883578255550226e-06
4.0909090319149706e-07,3.529924347251159e-07,3.581104961512584e-07,7.813070073820276e-06
4.134573333397216e-07,3.540636174692938e-07,3.6184527723013117e-07,7.765157250673479e-06
4.182876914495214e-07,3.5526784832757173e-07,3.6547732078930006e-07,7.740764629467638e-06
4.235540928539104e-07,3.5659588109943017e-07,3.6898648488315173e-07,7.741304719369569e-06
4.2922719346498e-07,3.58035462398421e-07,3.7235198189995494e-07,7.768548017431098e-06
4.3527997268065775e-07,3.5957414304730174e-07,3.7555431082964475e-07,7.824373157813694e-06
4.416887947346098e-07,3.6120156688466e-07,3.7857673187131356e-07,7.910565987675696e-06
4.484332459145731e-07,3.6290832436959464e-07,3.8140434147492617e-07,8.028692877645427e-06
4.554970097050872e-07,3.6468282638881114e-07,3.840231074802753e-07,8.180005628600926e-06
4.6286595167790576e-07,3.6651028335737367e-07,3.864216402110946e-07,8.365350361314456e-06
4.7052289431481686e-07,3.683744973160614e-07,3.8859343830923033e-07,8.585092754021111e-06
4.784450390997506e-07,3.7025938413378994e-07,3.9053601615263407e-07,8.839090538449475e-06
4.866042064080635e-07,3.7214855197776406e-07,3.922479643720253e-07,9.126720295914965e-06
4.949662190709366e-07,3.7402447186741047e-07,3.937275052305615e-07,9.446916768578702e-06
5.034905661737884e-07,3.7586869016180744e-07,3.9497279133907106e-07,9.798189100168504e-06
5.121323940448746e-07,3.7766312512101175e-07,3.959822707025444e-07,1.0178643815045767e-05
5.20845546546959e-07,3.793912029224131e-07,3.9675553638830586e-07,1.0586058473832318e-05
5.295842176551031e-07,3.810374074508401e-07,3.972948748892746e-07,1.1017992743907665e-05
5.383034663285927e-07,3.82586157349859e-07,3.976052091025345e-07,1.147189635157319e-05
5.469614526330874e-07,3.8402247725764117e-07,3.976917617136429e-07,1.1945205542543855e-05
5.555235336819754e-07,3.853359035579312e-07,3.975580915310533e-07,1.243543572582558e-05
5.639644951722579e-07,3.865249316464993e-07,3.972062635315469e-07,1.2940253304711667e-05
5.722667590138003e-07,3.875963489351501e-07,3.9663857121273364e-07,1.3457489184950936e-05
5.804161020220541e-07,3.8855956425925284e-07,3.958592456228938e-07,1.398507842923363e-05
5.883972275616628e-07,3.8942169865178706e-07,3.948743636371799e-07,1.4520970794804926e-05
5.961914904368051e-07,3.901867766878581e-07,3.9369036932618544e-07,1.5063071983944973e-05
6.0377882086041e-07,3.908598363085081e-07,3.9231390706206383e-07,1.5609209351514954e-05
6.111423054955385e-07,3.914537955931622e-07,3.9075305585510797e-07,1.6157098893802718e-05
6.182698352369182e-07,3.919928837312504e-07,3.8901756102756745e-07,1.6704357327014926e-05
6.251504878957743e-07,3.925094882244992e-07,3.8711851183460214e-07,1.7248572655037652e-05
6.317708087538423e-07,3.930374273394005e-07,3.8506914690625227e-07,1.778734852129371e-05
6.381158106966239e-07,3.936062655706988e-07,3.8288535726666276e-07,1.8318282098687627e-05
6.441730300184715e-07,3.942388044653837e-07,3.805849783252842e-07,1.883893286327242e-05
6.499349137276873e-07,3.9495071429938006e-07,3.7818858192504295e-07,1.934683048043736e-05
6.553973264111686e-07,3.9575127143161563e-07,3.7572232008980654e-07,1.9839514601845397e-05
6.605570537573191e-07,3.9664477157928094e-07,3.732188139580805e-07,2.0314580829434166e-05
6.654115213596107e-07,3.97631281792265e-07,3.707143094948629e-07,2.0769744318791464e-05
6.699592987769188e-07,3.987063142439618e-07,3.682444448235556e-07,2.120296535403428e-05
6.741993535107446e-07,3.9986071431429293e-07,3.6584061807672135e-07,2.161262014605401e-05
6.781307516115258e-07,4.010817291006546e-07,3.6352771078161477e-07,2.199760204451704e-05
6.817539460812361e-07,4.023547534227587e-07,3.613234137710508e-07,2.2357272755253407e-05
6.850708972285672e-07,4.036648139278378e-07,3.5923854788426e-07,2.2691317155704487e-05
6.880830598663287e-07,4.0499768922682814e-07,3.572780788570469e-07,2.2999589162679605e-05
6.907895031212735e-07,4.063412788677628e-07,3.554439289681553e-07,2.3281986509706447e-05
6.931859033592004e-07,4.0768669106396473e-07,3.537390999812768e-07,2.353838303025907e-05
6.952645159896704e-07,4.0902777248691543e-07,3.521692703530906e-07,2.3768645462148103e-05
6.970153619414573e-07,4.103603789438592e-07,3.507406988458981e-07,2.397270490768557e-05
6.984273353137722e-07,4.1168242173947494e-07,3.49457966881561e-07,2.4150610863426344e-05
6.994880153645775e-07,4.1299236602977596e-07,3.4832348513798826e-07,2.430254734622577e-05
7.001830681848032e-07,4.142867463663089e-07,3.4733805056343213e-07,2.4428823173974108e-05
7.004972846497435e-07,4.155610850323794e-07,3.4650194270824807e-07,2.4529856268735365e-05
7.004167915862389e-07,4.168136177910565e-07,3.45815894879864e-07,2.4606251565317366e-05
6.999293613643055e-07,4.180466811740453e-07,3.452808781129173e-07,2.4658949713377012e-05
6.990226361522339e-07,4.192647380807382e-07,3.4489648262543306e-07,2.4689220136130648e-05
6.976838431353092e-07,4.204720813790349e-07,3.446591937003758e-07,2.4698526902216048e-05
6.959030147906504e-07,4.216711636174368e-07,3.445620543728934e-07,2.4688521837934922e-05
6.93678461426155e-07,4.228609152078752e-07,3.445960509185899e-07,2.4661124045838573e-05
6.910222567487814e-07,4.240365205222649e-07,3.447522583591302e-07,2.4618494391390986e-05
6.879627687648011e-07,4.251913302148567e-07,3.4502303243232486e-07,2.4562919729054048e-05
6.84541118743459e-07,4.263189534569335e-07,3.454020269815322e-07,2.4496694375204614e-05
6.808029609155208e-07,4.274146227738712e-07,3.4588436150015333e-07,2.442202283148532e-05
6.767919660818269e-07,4.284764341188336e-07,3.4646712243051794e-07,2.43409489533504e-05
6.725478924202379e-07,4.295058298277497e-07,3.4714916645919104e-07,2.425530983811697e-05
6.681060489336536e-07,4.3050586493058283e-07,3.4792938072395625e-07,2.4166703910892606e-05
6.634968684903943e-07,4.314781390806672e-07,3.4880393208895394e-07,2.4076460870571325e-05
6.587471897915968e-07,4.3242068345530794e-07,3.497643964300394e-07,2.398561195941572e-05
6.5388154508505e-07,4.3332734186044224e-07,3.5079811027721765e-07,2.389487756189037e-05
6.489209197271653e-07,4.341879096805002e-07,3.518908910373404e-07,2.380468759173333e-05
6.438809241916401e-07,4.3498862914682073e-07,3.530302435388027e-07,2.3715216533075367e-05
6.387720954873269e-07,4.357137130283434e-07,3.5420604919148223e-07,2.3626401128805245e-05
6.336018480985092e-07,4.3634875340277564e-07,3.5540958847308094e-07,2.35379610747558e-05
6.283765083131509e-07,4.368848530799682e-07,3.566333721585088e-07,2.3449469408492625e-05
6.231021286328715e-07,4.3732014894953135e-07,3.578703624517905e-07,2.33604569228483e-05
6.17783356400994e-07,4.376569585142211e-07,3.591117725241169e-07,2.327049192876756e-05
6.124229240783148e-07,4.378971090809179e-07,3.603457406127663e-07,2.3179212236171e-05
6.070258748632474e-07,4.380390012848616e-07,3.6155747300098855e-07,2.308632518070148e-05
6.01605660587514e-07,4.380772767211483e-07,3.6273011291838155e-07,2.299159519586417e-05
5.961842578280569e-07,4.3800391150824357e-07,3.638462629445004e-07,2.2894847241953405e-05
5.907867470028035e-07,4.378095188825597e-07,3.648891472268854e-07,2.27960135928862e-05
5.854372819303907e-07,4.3748505643158424e-07,3.658430041276959e-07,2.26951879884068e-05
5.801575699529211e-07,4.37023970132058e-07,3.666936789138275e-07,2.259260749142697e-05
5.749653931690454e-07,4.3642314243508864e-07,3.6742917075819614e-07,2.248855567060476e-05
5.698740291654558e-07,4.356829690666929e-07,3.680401185695864e-07,2.2383261280812062e-05
5.648935562902561e-07,4.348089279023389e-07,3.6852066010389926e-07,2.2276850657003454e-05
5.600318983883894e-07,4.338131999008765e-07,3.688684239561777e-07,2.216938226949197e-05
5.552941648625573e-07,4.3271316353817604e-07,3.690829742968901e-07,2.2060952678733728e-05
5.506817698597484e-07,4.3152791886803017e-07,3.6916393486286953e-07,2.1951767488990645e-05
5.461928665758625e-07,4.3027573991475886e-07,3.691102523117509e-07,2.184208429680725e-05
5.418243055114954e-07,4.2897339194467676e-07,3.689207943615664e-07,2.173209005273373e-05
5.37574283847432e-07,4.276361333737945e-07,3.6859465638735923e-07,2.162183185068316e-05
5.33444100053305e-07,4.262766572111434e-07,3.681302389971742e-07,2.1511247097175896e-05
5.294379691713869e-07,4.2490420794599156e-07,3.6752450896479297e-07,2.1400249294644557e-05
5.255621043679554e-07,4.2352604795835684e-07,3.6677325557181934e-07,2.128876200379648e-05
5.218244631709311e-07,4.2214929879817476e-07,3.658722121875507e-07,2.1176658575600272e-05
5.182337059539739e-07,4.2078022949166384e-07,3.6481996043165865e-07,2.1063697271599483e-05
5.147971691779282e-07,4.1942204383703227e-07,3.6362138672588396e-07,2.0949537810739958e-05
5.115194231312225e-07,4.180734769219146e-07,3.6228751694771905e-07,2.083384294551369e-05
5.084015830545394e-07,4.1672943585943887e-07,3.60831397242882e-07,2.07164360180374e-05
5.054429461225535e-07,4.153846402916061e-07,3.5926491430684815e-07,2.059743118016737e-05
5.026452489044746e-07,4.140379935713818e-07,3.575990836569518e-07,2.047721869033468e-05
5.000146560538559e-07,4.126929336539485e-07,3.558447738847918e-07,2.035630925009194e-05
4.975581681782857e-07,4.113544626553149e-07,3.540118003359966e-07,2.0235166687834046e-05
4.952785057551982e-07,4.1002826997330814e-07,3.521085063288517e-07,2.0114130104079936e-05
4.931737645822697e-07,4.08723050688913e-07,3.501426317156776e-07,1.999341778229217e-05
4.912423958652129e-07,4.0745200548982786e-07,3.4812250118334017e-07,1.9873133319775698e-05
4.894880578416474e-07,4.062314612305028e-07,3.460584428332202e-07,1.9753251126647816e-05
4.879192153658411e-07,4.0507896864466e-07,3.4396296507566855e-07,1.9633676711877225e-05
4.865440816543625e-07,4.0401182524983955e-07,3.4184861860709273e-07,1.951444875586783e-05
4.853658262576163e-07,4.0304461930275775e-07,3.397258391269249e-07,1.939593304460135e-05
4.843811656214616e-07,4.021874891483553e-07,3.3760261988677804e-07,1.927879373657313e-05
4.835815787192942e-07,4.0144703242717954e-07,3.35485317597953e-07,1.9163781884972765e-05
4.82955488697731e-07,4.0082771585323317e-07,3.3337989344059273e-07,1.9051529435060518e-05
4.824898422784471e-07,4.0033186626245753e-07,3.312932699566022e-07,1.8942457961932722e-05
4.821698946391186e-07,3.9995929123316457e-07,3.2923406451020925e-07,1.883689889108833e-05
4.819786597846539e-07,3.9970745014787076e-07,3.272125107007814e-07,1.873542773584057e-05
4.81899063464123e-07,3.995715504981833e-07,3.252400363609452e-07,1.8639150661853197e-05
4.819195963276221e-07,3.99543861608836e-07,3.23328497731861e-07,1.8549704442200893e-05
4.820394992257515e-07,3.9961335352429656e-07,3.2148964601393426e-07,1.84690558685952e-05
4.822675742336774e-07,3.9976790446961286e-07,3.197355685184232e-07,1.8399284013422197e-05
4.826149290817675e-07,3.999974830134393e-07,3.180783408141798e-07,1.8342387919311827e-05
4.830885075001176e-07,4.00293855038652e-07,3.1652785824476065e-07,1.830011076037804e-05
4.836897478326514e-07,4.006474196228709e-07,3.1509054157232534e-07,1.8273809426844807e-05
4.844157794106971e-07,4.010464724498295e-07,3.1377053993782644e-07,1.8264401915497774e-05
4.852593224854064e-07,4.01480659528224e-07,3.1257104537528e-07,1.8272383918925046e-05
4.862091349902684e-07,4.019438793553494e-07,3.1149339608338513e-07,1.8297870988392945e-05
4.872547464757803e-07,4.0243247169059994e-07,3.105353489529767e-07,1.834061897387284e-05
4.883919488093051e-07,4.029414832472824e-07,3.0969113576986926e-07,1.8400019044322573e-05
4.896221488858146e-07,4.034638432084836e-07,3.0895353844764447e-07,1.847511884883498e-05
4.909473870420786e-07,4.0399293353373923e-07,3.083163105529314e-07,1.8564692883499908e-05
4.923674563875062e-07,4.045250302275053e-07,3.0777516117231174e-07,1.8667332816968334e-05
4.938800108184928e-07,4.050585579671441e-07,3.073265635349932e-07,1.8781556685479322e-05
4.954820365230248e-07,4.0559161077711947e-07,3.0696588644787413e-07,1.8905939767243024e-05
4.97171867897115e-07,4.0612107535018224e-07,3.066869230246229e-07,1.9039206289426268e-05
4.989502261178011e-07,4.066442341693053e-07,3.0648212066830284e-07,1.9180242458737985e-05
5.008189202894121e-07,4.071614687595313e-07,3.0634288320229074e-07,1.9328079705377174e-05
5.027781336874968e-07,4.076780052504474e-07,3.0626151173576217e-07,1.9481887164691145e-05
5.048254768339101e-07,4.082032661294797e-07,3.062331988085106e-07,1.964093640759473e-05
5.069577034853345e-07,4.087486581627176e-07,3.062551638829678e-07,1.9804499476104088e-05
5.091714972654796e-07,4.0932613521937363e-07,3.063245818800345e-07,1.9971714189248725e-05
5.114617022069734e-07,4.0994727639463e-07,3.064375357592473e-07,2.014150251794168e-05
5.138215750198936e-07,4.106212459895754e-07,3.065888994033357e-07,2.031260001863161e-05
5.162488907311215e-07,4.113529631876146e-07,3.067729497672974e-07,2.048365607621172e-05
5.187527899916828e-07,4.1214271067282243e-07,3.069839268657176e-07,2.065329988129471e-05
5.213522483139764e-07,4.1298625115391314e-07,3.072155466559505e-07,2.0820142759453212e-05
5.240666452202042e-07,4.138751723416574e-07,3.074602458519526e-07,2.098278546607617e-05
5.269081871723144e-07,4.147977886317947e-07,3.077093861716093e-07,2.11398648090834e-05
5.298806658571415e-07,4.157405634215532e-07,3.079541522443976e-07,2.1290096698667548e-05
5.329808120212943e-07,4.166892349800735e-07,3.081866041935588e-07,2.1432286343606552e-05
5.361993775970571e-07,4.17628480675785e-07,3.0840042342222706e-07,2.1565366927369352e-05
5.395224685513093e-07,4.185407774996209e-07,3.085906836390392e-07,2.1688510989484117e-05
5.429344920926165e-07,4.1940612068183524e-07,3.0875382859548785e-07,2.180122363577306e-05
5.464219018547936e-07,4.2020272940391975e-07,3.088890472519564e-07,2.190333783537093e-05
5.49973783667112e-07,4.209077813467483e-07,3.0899919038532037e-07,2.1994938958924203e-05
5.535784406324555e-07,4.214979803009247e-07,3.090900742105363e-07,2.207625605920212e-05
5.572199015165607e-07,4.2195106054884683e-07,3.0916984437185824e-07,2.21475411527322e-05
5.60876641373902e-07,4.2224804895558856e-07,3.092497203671483e-07,2.220896107642901e-05
5.645229270815998e-07,4.223738033177874e-07,3.093450761168553e-07,2.226053353641145e-05
5.681333074010629e-07,4.223155581371651e-07,3.0947430905245785e-07,2.2302142154085887e-05
5.716872634369941e-07,4.2206173021168225e-07,3.096552414264617e-07,2.2333616121459964e-05
5.751699547081502e-07,4.216016585567549e-07,3.099017275101878e-07,2.235480566312565e-05
5.785705648939461e-07,4.2092612846253937e-07,3.102222773921046e-07,2.2365610215884303e-05
5.818810204652255e-07,4.200280113663863e-07,3.106210164788343e-07,2.2365959731812706e-05
5.850947217525963e-07,4.189019199538101e-07,3.1110045910319084e-07,2.23557920981352e-05
5.882046879116729e-07,4.1754386526392346e-07,3.116641763044893e-07,2.2335114988073386e-05
5.912010112539689e-07,4.159516188322842e-07,3.123176434086772e-07,2.230412731410108e-05
5.940688945606637e-07,4.1412497013342477e-07,3.130676724668523e-07,2.226325299038445e-05
5.967891447584963e-07,4.1206625376350827e-07,3.139213594181592e-07,2.2213071288232552e-05
5.993400344149296e-07,4.097812740120612e-07,3.1488454759966047e-07,2.215423903311833e-05
6.016988278006694e-07,4.0728025511676985e-07,3.159606463627934e-07,2.2087424262163254e-05
6.03843807197169e-07,4.0457916615862606e-07,3.171508057351883e-07,2.2013240846838927e-05
6.057562604801525e-07,4.016996528040421e-07,3.184543940908895e-07,2.1932207648944002e-05
6.07419888476251e-07,3.9866554238135883e-07,3.198692342202639e-07,2.1844732524939225e-05
6.088194203811392e-07,3.954987547474496e-07,3.213923727224445e-07,2.1751098548309327e-05
6.099423327405781e-07,3.9221860807517294e-07,3.230204731249593e-07,2.1651470024766395e-05
6.10782099318284e-07,3.8884342847635616e-07,3.247495674358711e-07,2.1545942556637688e-05
6.113407407690602e-07,3.8539067825146906e-07,3.26575431387432e-07,2.1434606992210653e-05
6.116318449712582e-07,3.818756879934688e-07,3.2849380099199445e-07,2.1317584589428405e-05
6.11681364485095e-07,3.783124200385433e-07,3.3050000324225106e-07,2.119502304626218e-05
6.115220603199739e-07,3.747164257357352e-07,3.325889704323066e-07,2.106706238338324e-05
6.111849304081337e-07,3.7110645783689365e-07,3.347550335640586e-07,2.093379944824733e-05
6.1069465250067e-07,3.6750297077561e-07,3.369909679708123e-07,2.079528720931181e-05
6.100708398554512e-07,3.6392554748894024e-07,3.39287186613041e-07,2.0651555719886442e-05
6.093305441626424e-07,3.603916206275994e-07,3.416319772810045e-07,2.0502603351798323e-05
6.084886453121146e-07,3.569160955348652e-07,3.440123973356736e-07,2.034835860573804e-05
6.075581745344723e-07,3.535114466629251e-07,3.464147269972371e-07,2.0188662464215575e-05
6.06552399090102e-07,3.501891757639896e-07,3.4882464009500165e-07,2.002328134670637e-05
6.054868108785475e-07,3.469615762970124e-07,3.5122723491327466e-07,1.9851927242119627e-05
6.043780220571932e-07,3.438414826896926e-07,3.536064886144171e-07,1.9674281446858205e-05
6.032395821992871e-07,3.408404846101265e-07,3.5594486237044076e-07,1.949001544360028e-05
6.020786454498715e-07,3.3796824782067254e-07,3.5822339064692724e-07,1.9298805120587008e-05
6.008959572896465e-07,3.352330522343722e-07,3.604219544174921e-07,1.9100368481442628e-05
5.996881617172086e-07,3.326416150084631e-07,3.6252044239273954e-07,1.8894536476797392e-05
5.984500546990417e-07,3.301983334715745e-07,3.6450089901756883e-07,1.8681321373521988e-05
5.971744757143312e-07,3.279052779180033e-07,3.6634956810795405e-07,1.8460960174149177e-05
5.958507887778609e-07,3.257634933348064e-07,3.680577880071289e-07,1.8233916908790806e-05
5.944651967377138e-07,3.2377528689425604e-07,3.696211371328565e-07,1.800081689057431e-05
5.930029628649752e-07,3.2194542871809847e-07,3.71037604279156e-07,1.776235060519215e-05
5.9144974844824e-07,3.202802263372129e-07,3.723066766656904e-07,1.7519223341733518e-05
5.897923827543285e-07,3.1878659661159574e-07,3.734293263697862e-07,1.7272136925990244e-05
5.880222941464626e-07,3.1747207170965447e-07,3.744076760851113e-07,1.7021755885427542e-05
5.861403153102814e-07,3.163450733972482e-07,3.752459506726494e-07,1.6768673327691545e-05
5.841577199357675e-07,3.15414716226589e-07,3.759532187160083e-07,1.6513402263606888e-05
5.820932821954095e-07,3.146889529105212e-07,3.765438359654792e-07,1.6256397097182805e-05
5.799700257525137e-07,3.1417256510687015e-07,3.770339324830117e-07,1.599808383448832e-05
5.778124867225626e-07,3.138669726018056e-07,3.7743765825534856e-07,1.5738869892290654e-05
5.756454676388636e-07,3.137707497300133e-07,3.777663625910465e-07,1.5479134857150226e-05
5.734959463093766e-07,3.138799057602417e-07,3.780299859743929e-07,1.5219220351769464e-05
5.713946098594346e-07,3.1418770492418734e-07,3.7823821599635894e-07,1.4959443375195687e-05
5.693734881646534e-07,3.146840816293288e-07,3.784003666523736e-07,1.4700127147950492e-05
5.674625476627147e-07,3.1535578871423746e-07,3.7852485950536964e-07,1.4441602439064942e-05
5.656882401120112e-07,3.16187304082557e-07,3.786190469487501e-07,1.4184166144863992e-05
5.640731308081948e-07,3.171611665110773e-07,3.7868879056420406e-07,1.3928043048077296e-05
5.626354243613313e-07,3.1825760315513375e-07,3.7873745435729315e-07,1.3673399266999284e-05
5.613888896844413e-07,3.194551899568133e-07,3.787653180443215e-07,1.3420406768729726e-05
5.603447857901496e-07,3.2073458710121456e-07,3.787699045817976e-07,1.3169296068999335e-05
5.595151638768528e-07,3.220834603494741e-07,3.787463867739178e-07,1.2920333532079358e-05
5.589136686433759e-07,3.234971749312649e-07,3.7868775539311023e-07,1.2673755786154535e-05
5.585527599822854e-07,3.249750967892068e-07,3.7858536578760684e-07,1.2429742500353713e-05
5.584409075119787e-07,3.265173526085368e-07,3.784303775733795e-07,1.2188449477653896e-05
5.58582180886006e-07,3.281231659561654e-07,3.78215393281445e-07,1.195008744356246e-05
5.589769664196229e-07,3.297898132945326e-07,3.779345890106644e-07,1.1715013052130459e-05
5.59621515549816e-07,3.3151302123779824e-07,3.7758210175113846e-07,1.1483758612295054e-05
5.605060465005751e-07,3.332875314230251e-07,3.7715042656879456e-07,1.1256962451685886e-05
5.61613821978259e-07,3.351057858266973e-07,3.766308996265071e-07,1.1035268747914548e-05
5.629238201126676e-07,3.369564268089749e-07,3.7601653153996955e-07,1.0819272407651596e-05
5.644149137989863e-07,3.388243932695305e-07,3.753038615830653e-07,1.0609491612048668e-05
5.660666101790607e-07,3.406918166127873e-07,3.744912906139094e-07,1.0406343554113536e-05
5.678574532036061e-07,3.4253880330415767e-07,3.735764836015968e-07,1.0210139339160223e-05
5.697651507654859e-07,3.443438995474301e-07,3.7255558497900726e-07,1.0021120954917636e-05
5.717674456650121e-07,3.4608457066202326e-07,3.714235812432854e-07,9.839558278642225e-06
5.738423459175319e-07,3.477384054967175e-07,3.7017453464081343e-07,9.665842908114739e-06
5.759691392638377e-07,3.492850592228777e-07,3.6880215277102645e-07,9.500471922374895e-06
5.78131534422621e-07,3.5070756755272887e-07,3.6730246981418974e-07,9.343953461794198e-06
5.803223370919573e-07,3.519918515874105e-07,3.6567737046563743e-07,9.196737093461867e-06
5.825454470355881e-07,3.5312554225090716e-07,3.639348814657224e-07,9.059174768531047e-06
5.848115263244076e-07,3.54098105328375e-07,3.620864545341825e-07,8.931510480237421e-06
5.871306849789963e-07,3.549014286210392e-07,3.6014540300533547e-07,8.813923810959196e-06
5.895101385772869e-07,3.555291378853871e-07,3.581280568349702e-07,8.706594307687528e-06
5.919600327364696e-07,3.5597580365866644e-07,3.5605548147795257e-07,8.609734648298763e-06
5.9450043128417e-07,3.562372819509849e-07,3.5395329451673007e-07,8.523571930290121e-06
5.971611526756773e-07,3.5631140703692064e-07,3.518496251139715e-07,8.44829206857586e-06
5.999753364626114e-07,3.5619789098577773e-07,3.497733099109211e-07,8.383978811092378e-06
6.029717317825134e-07,3.558976041038029e-07,3.4775308358066913e-07,8.330575083438916e-06
6.061692213370279e-07,3.554124741433428e-07,3.458164298492396e-07,8.28788856864984e-06
6.095759376708369e-07,3.547460409264345e-07,3.4398780007703364e-07,8.255659836347422e-06
6.131920324202421e-07,3.53904335136717e-07,3.4228767175252736e-07,8.233741788290171e-06
6.170146738611056e-07,3.528963311069605e-07,3.40733157902452e-07,8.22236435281168e-06
6.210447371125772e-07,3.51733363944632e-07,3.393386154730625e-07,8.22224720100033e-06
6.252919001274683e-07,3.504294640772013e-07,3.381145377228313e-07,8.234422386995944e-06
6.29775729024043e-07,3.490023729244687e-07,3.370663617853157e-07,8.25999220627935e-06
6.345228396991104e-07,3.474722822981425e-07,3.3619609876217506e-07,8.300000663638588e-06
6.395599694672666e-07,3.4585891446611925e-07,3.355052272165402e-07,8.355363182398247e-06
6.449058073819556e-07,3.441796808453385e-07,3.349953125936405e-07,8.426860773801605e-06
6.50566781923755e-07,3.4245002900892217e-07,3.346675552543873e-07,8.515179136427992e-06
6.565396082936593e-07,3.4068518200530873e-07,3.345232977388389e-07,8.620897294259101e-06
6.628195262256944e-07,3.389006266816369e-07,3.345637790645802e-07,8.744476482289157e-06
6.694077862981976e-07,3.3711036314518306e-07,3.3478930905346734e-07,8.886293134307983e-06
6.763131523880466e-07,3.35325903853046e-07,3.351999869146476e-07,9.04662492142683e-06
6.835490159279241e-07,3.3355769919279057e-07,3.3579605669661225e-07,9.225560617760643e-06
6.911281724165156e-07,3.3181645705210965e-07,3.365759803497566e-07,9.422897780201078e-06
6.990579101181529e-07,3.301123400893105e-07,3.375347825565751e-07,9.638083650823168e-06
7.073399533841073e-07,3.2845345003526624e-07,3.38664339107502e-07,9.870234788541032e-06
7.159745892105309e-07,3.268452621929447e-07,3.39954640670264e-07,1.0118246190242999e-05
7.249633646199077e-07,3.252906996176547e-07,3.413952613855732e-07,1.0380938864606944e-05
7.343063230225642e-07,3.2379030249154037e-07,3.429765567158352e-07,1.0657152768588317e-05
7.439951797158456e-07,3.223424521370746e-07,3.4469100538488843e-07,1.0945745603629657e-05
7.540082742986694e-07,3.209438561593553e-07,3.465342471276546e-07,1.1245527904331063e-05
7.643112335144199e-07,3.1959037639365804e-07,3.485040810727329e-07,1.1555180359735871e-05
7.748621790293909e-07,3.182774688348557e-07,3.505986459436019e-07,1.1873207557914205e-05
7.856172843252352e-07,3.170002262069061e-07,3.5281593480698425e-07,1.2197955392861632e-05
7.965324744672191e-07,3.157536616352111e-07,3.55153745577121e-07,1.2527675292857906e-05
8.075613012428645e-07,3.14532551521806e-07,3.576087547243295e-07,1.2860655358842275e-05
8.186535931366569e-07,3.133306028461621e-07,3.6017536828477827e-07,1.3195433301239962e-05
8.297589238277792e-07,3.121398536504145e-07,3.6284534075302985e-07,1.3530955269903284e-05
8.408344314411241e-07,3.109509108753457e-07,3.6560790718959274e-07,1.3866523767205921e-05
8.518518347931556e-07,3.0975436728565825e-07,3.684497919600821e-07,1.4201590376255993e-05
8.627987254522844e-07,3.085424740179909e-07,3.713552455253816e-07,1.4535557357326974e-05
8.736742211494719e-07,3.073103192001125e-07,3.743063274636683e-07,1.4867704271624741e-05
8.844811709555212e-07,3.060576356437787e-07,3.7728375621862404e-07,1.5197355555738706e-05
8.952178312782772e-07,3.0479031007015066e-07,3.802693767040689e-07,1.55242621848186e-05
9.058751101178976e-07,3.0351858499041986e-07,3.83248935850595e-07,1.584886406092412e-05
9.16441493476371e-07,3.022528268914463e-07,3.862116633681922e-07,1.6172168055835412e-05
9.269085054594532e-07,3.010008410992302e-07,3.891474145714231e-07,1.6495393229432706e-05
9.37270876815802e-07,2.9976738880756925e-07,3.9204536471969063e-07,1.6819664438933814e-05
9.47523433906982e-07,2.985541047758265e-07,3.9489421828501156e-07,1.714584517929694e-05
9.57658150850228e-07,2.973600991985681e-07,3.976813197093222e-07,1.7474461628094345e-05
9.67662555523914e-07,2.961838013584184e-07,4.00391397149204e-07,1.7805663810255373e-05
9.775191844403255e-07,2.950244344884664e-07,4.0300708480873437e-07,1.8139215405448328e-05
9.872046213655036e-07,2.9388252542932356e-07,4.05510468254549e-07,1.8474522065588493e-05
9.966882334806354e-07,2.9276158754365017e-07,4.0788410448245703e-07,1.8810684970867e-05
1.0059325371410623e-06,2.91670425816107e-07,4.101114590875488e-07,1.914655083401201e-05
1.0148950392471845e-06,2.906226191146561e-07,4.1217688218048223e-07,1.94807523212904e-05
1.023530564828737e-06,2.896344259919815e-07,4.1406526302875817e-07,1.9811766338074498e-05
1.0317947696961548e-06,2.887242467795742e-07,4.157615514175277e-07,2.013799828331126e-05
1.0396470996369057e-06,2.8791182513463995e-07,4.1725016668902247e-07,2.0457863714367613e-05
1.0470498288932524e-06,2.8721545844983425e-07,4.18514816642561e-07,2.076984388546992e-05
1.0539655443316222e-06,2.8664925320364147e-07,4.195391101174045e-07,2.107250627879873e-05
1.0603565173534842e-06,2.862218155747479e-07,4.2030738612815924e-07,2.136451702216048e-05
1.0661846231445994e-06,2.859361395026177e-07,4.208051257537072e-07,2.1644699862500308e-05
1.0714119228867572e-06,2.8579019810753877e-07,4.210192780342392e-07,2.1912126208000573e-05
1.0760026825345057e-06,2.857778024873193e-07,4.209396697591146e-07,2.216615183673941e-05
1.0799239080399951e-06,2.858901224702946e-07,4.205613219163861e-07,2.240638008065252e-05
1.083143141342125e-06,2.861174786132236e-07,4.198849311585294e-07,2.2632608125992708e-05
1.0856265544399741e-06,2.8644960103197307e-07,4.1891467833304135e-07,2.2844769851446897e-05
1.087339992021965e-06,2.868751177351032e-07,4.176557958653788e-07,2.304284116215905e-05
1.088251767432548e-06,2.873837500519572e-07,4.161133872489463e-07,2.3226730403369705e-05
1.0883347088725108e-06,2.879705918587772e-07,4.142929845323394e-07,2.339622877233406e-05
1.0875687066301624e-06,2.886374970842688e-07,4.1220280480348593e-07,2.3551038769819737e-05
1.0859448626958193e-06,2.893909097946946e-07,4.098562212456833e-07,2.369082548460728e-05
1.0834672190732193e-06,2.902395702422136e-07,4.0727244591828927e-07,2.3815257983304568e-05
1.080151690382631e-06,2.9119266081579836e-07,4.044746193866223e-07,2.392406043328124e-05
1.076026141815545e-06,2.922578411290954e-07,4.014867093428856e-07,2.401707278290759e-05
1.0711296308868305e-06,2.9344002274793246e-07,3.9833090082374407e-07,2.409426165945004e-05
1.0655094711075837e-06,2.947406856831521e-07,3.9502631997461855e-07,2.415565518140517e-05
1.059220114963999e-06,2.961573508730392e-07,3.91589511465841e-07,2.420126911194043e-05
1.052323625822949e-06,2.976838451456785e-07,3.880358679418565e-07,2.4231066779212743e-05
1.0448883130392272e-06,2.993112541135609e-07,3.8438087305651456e-07,2.4244939328371562e-05
1.0369844554809316e-06,3.010284916345361e-07,3.806408605538911e-07,2.424274878515173e-05
1.0286782987676734e-06,3.028222620859209e-07,3.768331209168783e-07,2.4224476047584145e-05
1.020027407655087e-06,3.0467724007533394e-07,3.7297532248986824e-07,2.4190373826101324e-05
1.0110794686999228e-06,3.0657661386445253e-07,3.6908509781919757e-07,2.414096341224495e-05
1.0018752637941184e-06,3.085026141720358e-07,3.651800780974394e-07,2.407687597412924e-05
9.92455417128032e-07,3.104367340457883e-07,3.6127715229004077e-07,2.3998708893050146e-05
9.828656955270829e-07,3.123594106405416e-07,3.5739134516609846e-07,2.39069954433583e-05
9.731552546677861e-07,3.1424991289071496e-07,3.5353586924529844e-07,2.380222782392667e-05
9.63370861786217e-07,3.1608716905571324e-07,3.497222799627421e-07,2.3684873643474806e-05
9.535555495952858e-07,3.1785078647673184e-07,3.459594668461504e-07,2.355537931393205e-05
9.437534701729263e-07,3.195216303054423e-07,3.422530101828953e-07,2.341420304026616e-05
9.340125120583096e-07,3.2108250172307966e-07,3.386067207122572e-07,2.3261991449581155e-05
9.243794249838772e-07,3.2251877566600444e-07,3.350253666234586e-07,2.3099853607361624e-05
9.148950209775528e-07,3.238180603672095e-07,3.3151534734260376e-07,2.292945742962924e-05
9.055964411806419e-07,3.249690193520257e-07,3.2808256286991823e-07,2.275285034600833e-05
8.965207900368481e-07,3.259609570749554e-07,3.247305520741827e-07,2.257217151413812e-05
8.877028550993181e-07,3.267856587934303e-07,3.2146081856552766e-07,2.238942124112889e-05
