2.549307491195105e-07,8.472381595299384e-07,1.145773058471944e-06,2.173732433986701e-05
2.5619064139319784e-07,8.373603965028662e-07,1.1465206535241931e-06,2.1726921877082967e-05
2.5826279920371145e-07,8.27400000602005e-07,1.1479279704590775e-06,2.1716267438345084e-05
2.611676701708169e-07,8.173722495791246e-07,1.1500774451477762e-06,2.1706959251242717e-05
2.64912875045612e-07,8.072907894411236e-07,1.1530387727368431e-06,2.170045264728424e-05
2.6949944896797335e-07,7.971656079759969e-07,1.1568606052799954e-06,2.1697992161291417e-05
2.749279271048504e-07,7.870034763346157e-07,1.1615767168320416e-06,2.170057147704613e-05
2.8120175982944746e-07,7.768096015289882e-07,1.1672155159753731e-06,2.1708917695422647e-05
2.883287572892747e-07,7.66588724522653e-07,1.1738031860755738e-06,2.172349424734946e-05
2.9632144202954767e-07,7.563455380199609e-07,1.1813599265125129e-06,2.174451881604872e-05
3.051956549076445e-07,7.460854170330632e-07,1.1898915002092098e-06,2.1771989578963825e-05
3.149682414171996e-07,7.358149666152513e-07,1.199382592181078e-06,2.180569646787169e-05
3.2565533496899826e-07,7.255411495075334e-07,1.2097970405960695e-06,2.1845201861862053e-05
3.3727036580347873e-07,7.152696284140603e-07,1.2210804410842223e-06,2.188983317090625e-05
3.4982051297861e-07,7.050042691450919e-07,1.2331636982827645e-06,2.193874876005756e-05
3.6330376366718675e-07,6.947487193311993e-07,1.2459741490691515e-06,2.1991054765077347e-05
3.7770886236548907e-07,6.845088447547778e-07,1.2594555826856082e-06,2.2045890628417346e-05
3.9301601953907243e-07,6.742935622073243e-07,1.2735884066690479e-06,2.210246187288609e-05
4.091960714654354e-07,6.641128633796142e-07,1.288395495987282e-06,2.216005801149748e-05
4.262083890768172e-07,6.539751203589004e-07,1.303925123401391e-06,2.2218071198748662e-05
4.4399882719194326e-07,6.43886547532418e-07,1.320223329435756e-06,2.2276011167594432e-05
4.6249973936416093e-07,6.338533144456221e-07,1.337320033336238e-06,2.2333520870755755e-05
4.816321182465845e-07,6.23884830542409e-07,1.355235703865791e-06,2.2390383849728496e-05
5.013083295852298e-07,6.139951857149035e-07,1.3739931856800563e-06,2.2446498415966168e-05
5.214351684305192e-07,6.042011555320986e-07,1.3936214608123143e-06,2.2501820720324245e-05
5.419163901287126e-07,5.945207057346273e-07,1.4141516130934539e-06,2.255629969154762e-05
5.62653969606704e-07,5.849759357684814e-07,1.4356087615651111e-06,2.2609810224553922e-05
5.835490650067131e-07,5.755974526110625e-07,1.458002446479829e-06,2.266211363901372e-05
6.045029101980148e-07,5.664262202270672e-07,1.481319411525095e-06,2.271289950145689e-05
6.254176036085097e-07,5.575122068302477e-07,1.505522442212963e-06,2.2761863024119024e-05
6.461976032048562e-07,5.489086611772169e-07,1.5305547082122108e-06,2.280869916039085e-05
6.667506481068165e-07,5.406651615122898e-07,1.556344885708615e-06,2.2853018356194958e-05
6.869866326359006e-07,5.328279807443477e-07,1.5828128210072726e-06,2.289429351834403e-05
7.068161577102676e-07,5.254481637049775e-07,1.6098822094965989e-06,2.293189561549133e-05
7.261504214868945e-07,5.185858839838973e-07,1.6374952313361666e-06,2.29651931569679e-05
7.449024286211787e-07,5.123032969882367e-07,1.6656127902315568e-06,2.2993639451412365e-05
7.629891861107258e-07,5.066529992006242e-07,1.6942036233641443e-06,2.301678697896797e-05
7.803345208992186e-07,5.016725741792532e-07,1.7232428331351241e-06,2.303423445500596e-05
7.968728931812395e-07,4.973853105759349e-07,1.7527223563196903e-06,2.304554764632524e-05
8.125539533758944e-07,4.938030053401833e-07,1.782658037428812e-06,2.3050224308550813e-05
8.27344211452278e-07,4.909295119262053e-07,1.813084704006852e-06,2.3047773268737126e-05
8.412224867402318e-07,4.887635063012605e-07,1.8440414544627357e-06,2.303786166556499e-05
8.54171884313415e-07,4.872995040210342e-07,1.8755527484163825e-06,2.3020387252397768e-05
8.661739118049463e-07,4.865280035545143e-07,1.907611811787246e-06,2.299541355834269e-05
8.77206720736386e-07,4.864350030334083e-07,1.940173387001942e-06,2.2963036541297173e-05
8.87246216399848e-07,4.870016284154372e-07,1.973157460029616e-06,2.292328246698772e-05
8.962686909279207e-07,4.882049768303657e-07,2.0064568226165418e-06,2.2876083441704605e-05
9.042528728064724e-07,4.900188586505235e-07,2.0399423569075556e-06,2.282129466880856e-05
9.111796463455005e-07,4.924139711325364e-07,2.073465979804854e-06,2.275870901465646e-05
9.170315099441592e-07,4.95358953818923e-07,2.106861525578647e-06,2.268810933010124e-05
9.217941380469976e-07,4.988211160154659e-07,2.139945837024448e-06,2.2609424922718258e-05
9.254583228407215e-07,5.027653817389118e-07,2.1725238708942825e-06,2.252293079827333e-05
9.280199411788408e-07,5.071538277698865e-07,2.2043953671468737e-06,2.2429310001563666e-05
9.294784423791706e-07,5.119467831560319e-07,2.235359223497628e-06,2.232952070890315e-05
9.298357798990356e-07,5.171026719679823e-07,2.265217456548113e-06,2.222459609277806e-05
9.29097562961679e-07,5.225764281050785e-07,2.2937808779781244e-06,2.21154925536556e-05
9.272766129808005e-07,5.283190845056893e-07,2.32087506238775e-06,2.200306936126988e-05
9.243955483446121e-07,5.34278582288666e-07,2.3463438235116216e-06,2.188827464761923e-05
9.20484940127582e-07,5.404004962060028e-07,2.3700476903326482e-06,2.1772412474215578e-05
9.155795811628815e-07,5.466284911342421e-07,2.3918583239497908e-06,2.1657230433062564e-05
9.097176873041945e-07,5.529043756621464e-07,2.411655958478211e-06,2.154478017660152e-05
9.029425222498844e-07,5.591681304831262e-07,2.4293353652165817e-06,2.1437210720255747e-05
8.953041354755361e-07,5.653589512549897e-07,2.444814763747627e-06,2.1336601984179668e-05
8.86861690629677e-07,5.714171250771284e-07,2.4580383454942883e-06,2.1244852284936645e-05
8.776847027727682e-07,5.772853438100615e-07,2.468970491771601e-06,2.1163612742160583e-05
8.678498731197884e-07,5.829089471889925e-07,2.477585999512293e-06,2.1094244106493687e-05
8.574359107109953e-07,5.882362130202035e-07,2.483862529710913e-06,2.103776874452697e-05
8.46521073994494e-07,5.932192459359817e-07,2.487779609736108e-06,2.099483277767588e-05
8.351826862755837e-07,5.978150546383028e-07,2.4893212164055216e-06,2.0965703118932282e-05
8.234956263791108e-07,6.019870660736668e-07,2.4884761085921393e-06,2.095027769318141e-05
8.115298183235036e-07,6.057073333231658e-07,2.485238141498376e-06,2.0948090849874373e-05
7.993482786493617e-07,6.089584174306707e-07,2.479611258332153e-06,2.095834475931908e-05
7.870066609502128e-07,6.117325582699902e-07,2.4716161956507447e-06,2.0979992148515e-05
7.745536648996583e-07,6.140276963521056e-07,2.4612944952705018e-06,2.101185034077932e-05
7.620310266761119e-07,6.158445411325754e-07,2.4487096917781447e-06,2.105270776451529e-05
7.494731454280509e-07,6.171875042178647e-07,2.433945620818807e-06,2.1101400060748638e-05
7.369074666298951e-07,6.180669165757206e-07,2.41710034828084e-06,2.1156858689106164e-05
7.24357210255643e-07,6.185012739853337e-07,2.3982769068970056e-06,2.121813975149068e-05
7.118469889167755e-07,6.185208949536914e-07,2.377575905651738e-06,2.128442371064064e-05
6.994077931109297e-07,6.181698759172292e-07,2.3550936148540515e-06,2.135498654559032e-05
6.87076555324035e-07,6.17501572589253e-07,2.330924094140244e-06,2.142916226084589e-05
6.748916827322439e-07,6.165701594051519e-07,2.305163179903291e-06,2.150629148565281e-05
6.628900482293243e-07,6.154254997234215e-07,2.2779146661710116e-06,2.1585641625691265e-05
6.511065684325846e-07,6.141139028975307e-07,2.2492973872427628e-06,2.1666340143662828e-05
6.395734783145215e-07,6.126803718532794e-07,2.2194478177522724e-06,2.174738884529495e-05
6.283179565847145e-07,6.111672658088579e-07,2.188513462510428e-06,2.1827734195555466e-05
6.173601368778565e-07,6.096106136435076e-07,2.1566400961776457e-06,2.190629744364201e-05
6.067138828413092e-07,6.080392275076331e-07,2.123963364580799e-06,2.1981952860543268e-05
5.963896933651245e-07,6.064781292546254e-07,2.0906098473363968e-06,2.205351136809943e-05
5.863982819973339e-07,6.049526125547732e-07,2.0567006901210028e-06,2.211973198020041e-05
5.767532783913312e-07,6.034881843073889e-07,2.022350827647198e-06,2.2179381858181627e-05
5.674702343093865e-07,6.02106328400867e-07,1.987665705327067e-06,2.223138171465264e-05
5.585631469238163e-07,6.008209964210417e-07,1.952740249267797e-06,2.2274971234404767e-05
5.500426643381592e-07,5.9963923710345e-07,1.9176613813471923e-06,2.230975398925776e-05
5.41915428029506e-07,5.985660990238653e-07,1.8825136727504486e-06,2.233562818538909e-05
5.341830267013591e-07,5.976125345473839e-07,1.8473870733316035e-06,2.2352715198935887e-05
5.268423864032761e-07,5.968019654005035e-07,1.8123832074756719e-06,2.236129516375007e-05
5.198879565816422e-07,5.961696683066445e-07,1.7776158845883736e-06,2.2361698960588228e-05
5.133130736877439e-07,5.95754199129339e-07,1.7432048567923251e-06,2.235418324421871e-05
5.071091402983409e-07,5.955869332046479e-07,1.7092662709030162e-06,2.233889514465489e-05
5.0126445842406e-07,5.95686331238589e-07,1.6759035631612444e-06,2.231597217991422e-05
4.957644373978082e-07,5.960576709993434e-07,1.6432017220464546e-06,2.22856728325714e-05
4.905924392320042e-07,5.966952825717254e-07,1.6112284027119732e-06,2.2248430054816605e-05
4.857304930578207e-07,5.97585588113016e-07,1.580042293210732e-06,2.220483640867623e-05
4.811603296042967e-07,5.987096141268262e-07,1.5497045048031867e-06,2.215559785905884e-05
4.768644606654979e-07,6.00044217325906e-07,1.5202887824576833e-06,2.2101454149761184e-05
4.728263526640601e-07,6.015639048017377e-07,1.4918899885630903e-06,2.204306886616219e-05
4.690295699004553e-07,6.032430467500185e-07,1.4646312659982062e-06,2.1980956308367926e-05
4.6545644139554596e-07,6.050554454752264e-07,1.4386655082918729e-06,2.1915529974694087e-05
4.6208736388418963e-07,6.069726063650341e-07,1.4141640697997445e-06,2.1847217468189428e-05
4.589013840108808e-07,6.089639214450818e-07,1.3912935685257414e-06,2.1776496472459572e-05
4.558773834982208e-07,6.109977454622533e-07,1.370192906989637e-06,2.1703838609297268e-05
4.529951679001275e-07,6.130423159366296e-07,1.350962333793908e-06,2.1629646483635602e-05
4.502355515026683e-07,6.150673309445802e-07,1.3336651232996293e-06,2.155422420183441e-05
4.4757895594430707e-07,6.17045730065234e-07,1.3183344251852779e-06,2.147777354050085e-05
4.4500416730313165e-07,6.189551862067874e-07,1.304979340606277e-06,2.1400385048979072e-05
4.4248895110827685e-07,6.207799171306613e-07,1.293590368934679e-06,2.1322006501114232e-05
4.400120640664337e-07,6.225123711867746e-07,1.2841454525961183e-06,2.1242412858183568e-05
4.375543316172693e-07,6.241520528080391e-07,1.2766128749071129e-06,2.1161207336074202e-05
4.3509746687509223e-07,6.257003875116625e-07,1.2709492045024408e-06,2.107784963552435e-05
4.32622549278306e-07,6.271556730471743e-07,1.2670974662277793e-06,2.099168903887244e-05
4.3011007527287424e-07,6.285116899509943e-07,1.2649891319789374e-06,2.0901990789514508e-05
4.27541154233255e-07,6.297584232452204e-07,1.2645484489119116e-06,2.0807958074440382e-05
4.2489869149355923e-07,6.308822871020191e-07,1.2656980618520248e-06,2.0708759699704426e-05
4.2216805709501726e-07,6.318660825251913e-07,1.2683660492016821e-06,2.060357045721957e-05
4.193374465066178e-07,6.326904787941996e-07,1.2724895592399886e-06,2.049161240758801e-05
4.163978262912224e-07,6.333362353533817e-07,1.2780080591245856e-06,2.037217342124971e-05
4.133424085148233e-07,6.337851470763977e-07,1.2848512497433708e-06,2.024459750261943e-05
4.101658790855606e-07,6.340220990382871e-07,1.292937549342548e-06,2.0108268005946698e-05
4.068632322907504e-07,6.340404549774036e-07,1.302188186624012e-06,1.9962608782635315e-05
4.034288086838402e-07,6.338463574975171e-07,1.3125422355725046e-06,1.980711372898191e-05
3.998565830910389e-07,6.33457262381204e-07,1.323956424693671e-06,1.964139165731438e-05
3.961414826348135e-07,6.328958877973046e-07,1.3363914706627415e-06,1.946520405279581e-05
3.922803571860777e-07,6.3218369742037e-07,1.349802602299968e-06,1.927849962730119e-05
3.8827158279005647e-07,6.313371942763657e-07,1.3641456345611582e-06,1.90814568930446e-05
3.841145393126496e-07,6.303678160066471e-07,1.3793887372650688e-06,1.8874507786223167e-05
3.7981143939134345e-07,6.292837871048943e-07,1.3955138332945965e-06,1.865831383890084e-05
3.7537065766983546e-07,6.280918020665689e-07,1.4125047721811109e-06,1.843370840993005e-05
3.708077613664135e-07,6.267974220961788e-07,1.4303330949059838e-06,1.820161550775931e-05
3.6614339839339975e-07,6.25404069665494e-07,1.4489541746076324e-06,1.796295638184562e-05
3.6139998513216244e-07,6.239119701921221e-07,1.468315526929803e-06,1.7718598008945015e-05
3.5659878126214047e-07,6.223183123949448e-07,1.4883668785920476e-06,1.7469347646769812e-05
3.517587552600561e-07,6.206173750246867e-07,1.5090608677191739e-06,1.7215934620925808e-05
3.468972149636411e-07,6.188000328643146e-07,1.5303436925950149e-06,1.6958986375282457e-05
3.4203087283064105e-07,6.168552698177485e-07,1.5521464373326954e-06,1.6699036787433926e-05
3.37176288557586e-07,6.147749517887225e-07,1.5743896806209175e-06,1.643657407290513e-05
3.32349527709499e-07,6.125579139979079e-07,1.5969994685884805e-06,1.617214173161885e-05
3.275665322489676e-07,6.102093123382217e-07,1.619914947366354e-06,1.5906451776006894e-05
3.2284467738867157e-07,6.077377635749433e-07,1.643078135580478e-06,1.5640401821424163e-05
3.1820332622563986e-07,6.05154146050772e-07,1.6664243566577258e-06,1.5374973095287446e-05
3.136620056871665e-07,6.024705250264909e-07,1.6898903754864813e-06,1.5111104113487107e-05
3.0923794989687264e-07,5.996975958709959e-07,1.713429200818055e-06,1.4849618141826043e-05
3.049459177409604e-07,5.96842596863001e-07,1.7370137613346154e-06,1.4591232397431585e-05
3.008002088059239e-07,5.939089228853308e-07,1.760629489087173e-06,1.4336652660296822e-05
2.9681576734959806e-07,5.908969542898261e-07,1.7842625487988426e-06,1.4086673907109733e-05
2.930071770505004e-07,5.87805419723996e-07,1.8078872185210732e-06,1.384216783908414e-05
2.893872259167462e-07,5.846327741559422e-07,1.8314607274634663e-06,1.360396012480086e-05
2.859664556707773e-07,5.813781689658086e-07,1.8549285972778275e-06,1.3372713119993664e-05
2.827537961002825e-07,5.780409863509893e-07,1.878227501399023e-06,1.3148889091119705e-05
2.79757100473501e-07,5.746193694933361e-07,1.9012791206003757e-06,1.293277026098139e-05
2.769823104386362e-07,5.711101574390263e-07,1.9239851131765918e-06,1.2724485747029107e-05
2.744323953344845e-07,5.675101389481075e-07,1.9462294521551004e-06,1.2524051610264608e-05
2.721083979807878e-07,5.638164257368784e-07,1.9678848507397644e-06,1.233148590456564e-05
2.700117799105977e-07,5.600257038372526e-07,1.9888202546039628e-06,1.2147015670519013e-05
2.6814521821768926e-07,5.5613405610135e-07,2.008909012033234e-06,1.1971243089363295e-05
2.665115908624673e-07,5.521386194845281e-07,2.028036788270095e-06,1.1805116151159328e-05
2.6511248678282604e-07,5.480396246213563e-07,2.046105394734111e-06,1.164974304778127e-05
2.63947120286773e-07,5.438408819970671e-07,2.063029504058217e-06,1.150619286067501e-05
2.630125763140901e-07,5.395491402864836e-07,2.078728223216294e-06,1.1375380688486086e-05
2.6230542924472287e-07,5.351723641123684e-07,2.09311849386555e-06,1.1258134242918927e-05
2.6182301115380076e-07,5.307170301652215e-07,2.106118146105533e-06,1.1155438464387017e-05
2.615627097962193e-07,5.261865201836379e-07,2.1176561527606176e-06,1.106862819905127e-05
2.615208631780486e-07,5.215817647067456e-07,2.1276790685451032e-06,1.0999342529842923e-05
2.616932350916172e-07,5.169033338045695e-07,2.136151596787136e-06,1.0949341553125826e-05
2.620750774091423e-07,5.121538495117207e-07,2.143056945241917e-06,1.0920345870264577e-05
2.6265959739950533e-07,5.073393732005974e-07,2.148395303998605e-06,1.0913909353297422e-05
2.634379813249455e-07,5.024681142563309e-07,2.152177005241556e-06,1.093129628098739e-05
2.644022399731961e-07,4.975472303618368e-07,2.154419337277481e-06,1.0973392840679069e-05
2.6554710708974905e-07,4.925812537241921e-07,2.155158069220804e-06,1.1040682576015964e-05
2.6686890339645144e-07,4.875737794630936e-07,2.1544682079026888e-06,1.1133265640489264e-05
2.6836411848328556e-07,4.825317304781684e-07,2.1524776596623417e-06,1.1250890908053e-05
2.7002895822487266e-07,4.774707675793335e-07,2.149363760003204e-06,1.1392979260521602e-05
2.718583962613835e-07,4.7241790990838135e-07,2.1453347041684047e-06,1.1558623270239974e-05
2.738447367514666e-07,4.6740814689410715e-07,2.1406044154284355e-06,1.1746580602764892e-05
2.759767754383041e-07,4.6247863973715714e-07,2.135368546389236e-06,1.1955300045371864e-05
2.782402449657201e-07,4.576669224775003e-07,2.1297877283402903e-06,1.2182995892337599e-05
2.806190178436557e-07,4.5301245409526464e-07,2.1239821356983312e-06,1.2427750643057876e-05
2.8309567086046557e-07,4.4855634714478437e-07,2.118034686812648e-06,1.26876132437901e-05
2.856515479243449e-07,4.4433955317643965e-07,2.111996113549001e-06,1.2960673785777588e-05
2.882675024283268e-07,4.404026161540861e-07,2.10588894220578e-06,1.3245119488322834e-05
2.909251506264308e-07,4.367863334419301e-07,2.099712312244377e-06,1.35392722916526e-05
2.9360765318875235e-07,4.335314564585911e-07,2.093450285618804e-06,1.3841581617383954e-05
2.9630014256015285e-07,4.306775448493369e-07,2.0870840528112497e-06,1.4150571566501538e-05
2.9899055282422753e-07,4.282612939897375e-07,2.0806050129115e-06,1.4464787269931506e-05
3.0167012439023554e-07,4.2631350031931745e-07,2.074022082919776e-06,1.4782760072905216e-05
3.043328863830585e-07,4.248554527314488e-07,2.0673590571115974e-06,1.5102978127712039e-05
3.0697530270772977e-07,4.2389707045900725e-07,2.0606458938832933e-06,1.5423873670158955e-05
3.095960429219749e-07,4.2343708035261064e-07,2.0539105716187748e-06,1.5743842049528278e-05
3.1219449238992445e-07,4.234644158314093e-07,2.047174731871046e-06,1.6061264235019062e-05
3.1476921267347214e-07,4.239599448233728e-07,2.0404529751357976e-06,1.63745080352529e-05
3.1731818505625174e-07,4.2489811501420934e-07,2.03375426060056e-06,1.6681928819813737e-05
3.1983912304630854e-07,4.2625052273226367e-07,2.027082207598256e-06,1.6981893531471834e-05
3.223281074203869e-07,4.2799101210803977e-07,2.020432004210799e-06,1.727281417220364e-05
3.247782534289282e-07,4.3009800265141e-07,2.013788080995639e-06,1.7553178048111678e-05
3.2717991165220625e-07,4.3255473269418003e-07,2.0071267336112928e-06,1.7821632248955326e-05
3.295217386829846e-07,4.353507487718252e-07,2.0004202282807165e-06,1.8077143809415975e-05
3.3179168098212373e-07,4.3848184911909286e-07,1.9936405588734157e-06,1.831911105132449e-05
3.3397760389452674e-07,4.4194595740650356e-07,1.9867650384028863e-06,1.8547331089833278e-05
3.360684549211645e-07,4.4573887502572573e-07,1.9797791267400484e-06,1.8761871353857387e-05
3.380559653421147e-07,4.4985324979566114e-07,1.972671444698581e-06,1.8962921478799e-05
3.3993459351919307e-07,4.542782719218414e-07,1.965425933692068e-06,1.9150660636732573e-05
3.417000767256935e-07,4.589979156740622e-07,1.958017427169494e-06,1.932516221590544e-05
3.433495194129956e-07,4.639904137385478e-07,1.950412892308556e-06,1.948638076460197e-05
3.448816338648233e-07,4.6923002611235724e-07,1.9425793672109053e-06,1.963423283749205e-05
3.462948288768214e-07,4.746880840407303e-07,1.934493841847027e-06,1.976869266457688e-05
3.4758527792682485e-07,4.803321167049991e-07,1.926145783625381e-06,1.988983310636171e-05
3.4874687354318765e-07,4.861249819544858e-07,1.917530559809616e-06,1.9997821696457246e-05
3.497724365484973e-07,4.920257196851445e-07,1.908642257924961e-06,2.009287937204812e-05
3.506554138090557e-07,4.979912899839989e-07,1.8994724911375599e-06,2.01752311544386e-05
3.513921666662238e-07,5.039772715408204e-07,1.8900122407442608e-06,2.0245161487099948e-05
3.5198394815506593e-07,5.099386398872353e-07,1.880252755080973e-06,2.030315933090729e-05
3.524359730601133e-07,5.158332090092717e-07,1.8701875082152352e-06,2.03499858482088e-05
3.5275401266425533e-07,5.216251257782527e-07,1.859816336341505e-06,2.038665489757338e-05
3.529422993932869e-07,5.272842276145708e-07,1.849148237879511e-06,2.041440285637013e-05
3.5300496592838894e-07,5.327838421891472e-07,1.8382013222023976e-06,2.043461940409122e-05
3.5294929356630476e-07,5.381003229913681e-07,1.827001016497533e-06,2.044873927644146e-05
3.527867872142814e-07,5.432126483705316e-07,1.815575396792379e-06,2.045814671870056e-05
3.5253171499496605e-07,5.481015125733902e-07,1.8039487099348328e-06,2.0464103398263292e-05
3.521996955196921e-07,5.527505680010169e-07,1.792140097474517e-06,2.046768622374816e-05
3.5180626398862554e-07,5.571512311453492e-07,1.7801698717267388e-06,2.046972253377496e-05
3.513648882463621e-07,5.61307292483621e-07,1.7680651598748478e-06,2.0470735008892893e-05
3.508861600977541e-07,5.652340902430086e-07,1.755857251599547e-06,2.0470928737720686e-05
3.503794818889856e-07,5.689539098578741e-07,1.7435724353447032e-06,2.0470220271586448e-05
3.498555023574126e-07,5.724923916949198e-07,1.731224430364371e-06,2.046828049145496e-05
3.493260858764253e-07,5.758758097608379e-07,1.7188129317929276e-06,2.0464574958715806e-05
3.488017132989493e-07,5.791284693536658e-07,1.7063249387388833e-06,2.0458402998961075e-05
3.482893256681297e-07,5.822712558044551e-07,1.693735795983049e-06,2.0448943051357326e-05
3.477919729052628e-07,5.853207074844589e-07,1.6810112466568486e-06,2.0435318749611168e-05
3.473092014407793e-07,5.882886265630912e-07,1.668111161834333e-06,2.041669337524166e-05
3.468377528067379e-07,5.911823818404603e-07,1.6549928791986088e-06,2.039235146635324e-05
3.4637286693097483e-07,5.940045130714538e-07,1.6416121464788043e-06,2.036171202474739e-05
3.459095143472699e-07,5.967528416926334e-07,1.6279225986233522e-06,2.0324283788746728e-05
3.454427558924174e-07,5.994227369113191e-07,1.6138759135991082e-06,2.0279616370439592e-05
3.4496818424624505e-07,6.020091751959076e-07,1.5994230569416178e-06,2.022727996937272e-05
3.4448310919677637e-07,6.04506119160027e-07,1.5845159210101615e-06,2.0166881822011248e-05
3.43986856892846e-07,6.069046573327463e-07,1.569109069173485e-06,2.009811015022128e-05
3.434795202084175e-07,6.09192470174852e-07,1.5531617091392833e-06,2.002077305292786e-05
3.4296078872236944e-07,6.113544810441281e-07,1.5366388472639569e-06,1.9934803016992652e-05
3.4242981288316264e-07,6.133739929278773e-07,1.5195110242326367e-06,1.984022770015882e-05
3.418852525564886e-07,6.152348383344124e-07,1.501754963682514e-06,1.9737123584059352e-05
3.4132498414241855e-07,6.169235265289138e-07,1.4833554039266275e-06,1.962556793292676e-05
3.4074566798695425e-07,6.184297794630862e-07,1.4643047685203131e-06,1.9505621677811586e-05
3.4014222902414797e-07,6.197464615641675e-07,1.4446004085853719e-06,1.937739900577471e-05
3.395080694329061e-07,6.208698876606118e-07,1.4242426028349943e-06,1.9241199982403048e-05
3.388360102494276e-07,6.217991266426425e-07,1.4032355999093314e-06,1.9097555685366665e-05
3.3811900985394767e-07,6.225341156179553e-07,1.3815919463737387e-06,1.894711272466749e-05
3.3735103986790855e-07,6.230745788782204e-07,1.3593388108652003e-06,1.8790482795103146e-05
3.365276618660917e-07,6.234211072068499e-07,1.3365229941435005e-06,1.8628194665942388e-05
3.3564512955819665e-07,6.235781789043277e-07,1.3132090338816646e-06,1.846076236378217e-05
3.346994618658633e-07,6.235572830260271e-07,1.2894713880852192e-06,1.8288792354309272e-05
3.3368738150638387e-07,6.233770504560221e-07,1.2653922092698077e-06,1.8113011476139708e-05
3.3260778433691373e-07,6.230595113236024e-07,1.24107051586877e-06,1.7934188819469047e-05
3.314615513666969e-07,6.226268492962443e-07,1.216635083823184e-06,1.775307028318208e-05
3.3025045073050406e-07,6.221024261366141e-07,1.1922513058000238e-06,1.7570391477939546e-05
3.2897670526095665e-07,6.215136052428152e-07,1.1681170998608662e-06,1.7386905221211827e-05
3.2764297286428883e-07,6.208926128321876e-07,1.144448833401898e-06,1.720338447628007e-05
3.262526912398313e-07,6.202739003564747e-07,1.121464415278232e-06,1.7020614807718132e-05
3.248108710887935e-07,6.196885474480152e-07,1.0993691358485891e-06,1.6839378017157127e-05
3.2332385839321443e-07,6.191596310733547e-07,1.0783446000150144e-06,1.6660417069962872e-05
3.2179835190864505e-07,6.187019103067125e-07,1.058544947775946e-06,1.6484385066019967e-05
3.2024233725381927e-07,6.18324099739455e-07,1.040104476516447e-06,1.6311808812134106e-05
3.186673599199285e-07,6.180307481689198e-07,1.0231484789831764e-06,1.6143086366393744e-05
3.170887467843133e-07,6.17823150651765e-07,1.0077971450249856e-06,1.597849359006442e-05
3.1552372810589964e-07,6.176991969283329e-07,9.941641868751577e-07,1.5818189901629944e-05
3.139895563944975e-07,6.176524137694695e-07,9.82357323313209e-07,1.5662292974730407e-05
3.125019843339966e-07,6.17671524933246e-07,9.72482646675575e-07,1.551108688059124e-05
3.1107486880474575e-07,6.177406609585065e-07,9.646473749856556e-07,1.5365228445315012e-05
3.0972102586991767e-07,6.178400117540931e-07,9.5895333622676e-07,1.5225724771086765e-05
3.084523982016055e-07,6.179478161580683e-07,9.554812235426836e-07,1.5093744130713987e-05
3.072800340295413e-07,6.180424451013044e-07,9.542756693486365e-07,1.4970504416327133e-05
3.062149845216501e-07,6.181023020951715e-07,9.553397047534934e-07,1.4857226911989688e-05
3.0526824973333077e-07,6.181056922427054e-07,9.586369914236427e-07,1.4755013754185745e-05
3.0444926220787266e-07,6.180344362848823e-07,9.640977510666359e-07,1.4664706148577004e-05
3.037645595889384e-07,6.178790763556052e-07,9.71628622642354e-07,1.458682370379744e-05
3.032175562603168e-07,6.176400823719478e-07,9.811233477839469e-07,1.4521577663101e-05
3.0280967546787054e-07,6.17324002742205e-07,9.924668127185585e-07,1.4468955766919619e-05
3.0254215576597014e-07,6.169377672482719e-07,1.0055344465706475e-06,1.4428846835795953e-05
3.024180326550492e-07,6.164846438695985e-07,1.0201984694300889e-06,1.4401107494229245e-05
3.024440419979107e-07,6.159642024373439e-07,1.0363445379811115e-06,1.4385543453170083e-05
3.026303596659926e-07,6.153763294418097e-07,1.0538903383361362e-06,1.4381853596602396e-05
3.029875856612957e-07,6.147258518529938e-07,1.072796064198309e-06,1.4389580967746778e-05
3.035237633609744e-07,6.140228885213224e-07,1.093061391037488e-06,1.4408111604952322e-05
3.042431210618104e-07,6.13279419809439e-07,1.1147098204036393e-06,1.4436723133525704e-05
3.051457838620882e-07,6.125074682481125e-07,1.1377663815082569e-06,1.4474627888022732e-05
3.0622816434635e-07,6.117191030847432e-07,1.1622384988427113e-06,1.4520987162292509e-05
3.0748454797627787e-07,6.109250214605768e-07,1.1881100428121584e-06,1.4574927309108718e-05
3.0890881474664924e-07,6.101338264018344e-07,1.21534746770599e-06,1.46355599043802e-05
3.104945019159578e-07,6.093541502399371e-07,1.2439055202606714e-06,1.4702026723208862e-05
3.122337379266571e-07,6.085969988386753e-07,1.2737250307784709e-06,1.4773662546722766e-05
3.1411690016970055e-07,6.078769643104145e-07,1.3047271844320824e-06,1.4850196444690388e-05
3.161332173946425e-07,6.072128447588222e-07,1.3368121583384872e-06,1.4931722522513949e-05
3.182713987582614e-07,6.066268637837279e-07,1.3698640947054577e-06,1.5018464739137686e-05
3.205200740769958e-07,6.061415156171522e-07,1.403758050129194e-06,1.5110668534156713e-05
3.228676356365395e-07,6.057745786590892e-07,1.4383656682024157e-06,1.5208672528755893e-05
3.253010394170867e-07,6.055351674187326e-07,1.4735603940886914e-06,1.5312904944206954e-05
3.2780458830009327e-07,6.054232911636147e-07,1.5092250004247412e-06,1.542373713695824e-05
3.3035993890403036e-07,6.054317431380896e-07,1.5452585370313367e-06,1.5541339402675038e-05
3.329477900526694e-07,6.055491218142489e-07,1.5815717252850192e-06,1.566566960980122e-05
3.355498696464768e-07,6.057639286674423e-07,1.6180729789678826e-06,1.5796681502838062e-05
3.3814868979514885e-07,6.060680600931778e-07,1.6546646103293806e-06,1.5934642535667627e-05
3.4072582528162734e-07,6.064588708478278e-07,1.6912547131140773e-06,1.6080240904469772e-05
3.4326146715923144e-07,6.069395604988444e-07,1.7277676738563522e-06,1.6234360333191156e-05
3.4573518949524157e-07,6.075166405464864e-07,1.764138836338707e-06,1.6397741055844333e-05
3.481268763152759e-07,6.081961429940241e-07,1.8002978126880337e-06,1.6570764183554115e-05
3.504178771248138e-07,6.089823445081887e-07,1.8361555125359485e-06,1.6753419362458415e-05
3.525915940333375e-07,6.098794037623149e-07,1.8716021980290455e-06,1.6945388940645486e-05
3.546325682635996e-07,6.108915854373609e-07,1.906512022489032e-06,1.7146128591319794e-05
3.565251476106496e-07,6.120196883117674e-07,1.940749674248502e-06,1.7354871256904557e-05
3.5825323262144006e-07,6.132577124003606e-07,1.974180457321432e-06,1.7570601488766227e-05
3.598006179201597e-07,6.145926689746012e-07,2.006682524222712e-06,1.7792061498686093e-05
3.611510864168572e-07,6.160064236947154e-07,2.0381533810956355e-06,1.8017779480881507e-05
3.6228924321177185e-07,6.17478335536646e-07,2.068505371426409e-06,1.824610567719624e-05
3.632024457376481e-07,6.189865179544197e-07,2.097654482805984e-06,1.847525288670397e-05
3.638820719664209e-07,6.205069373654142e-07,2.125511962661593e-06,1.8703335693361807e-05
3.643231660796196e-07,6.220126241942096e-07,2.1519856130780982e-06,1.89284203924982e-05
3.645230549360647e-07,6.234740558311114e-07,2.176989431448224e-06,1.914858413915323e-05
3.6447961871811425e-07,6.248607365817743e-07,2.2004544202178507e-06,1.936195666422821e-05
3.64190048169911e-07,6.261449240880909e-07,2.222335863268369e-06,1.9566753901934464e-05
3.6365057020696933e-07,6.27306791026772e-07,2.2426141751086203e-06,1.97613435632609e-05
3.6285699305781297e-07,6.283387235755665e-07,2.2612863509117747e-06,1.9944324675403734e-05
3.618062520646036e-07,6.292473672423089e-07,2.278350968266243e-06,2.0114566192141285e-05
3.6049821257002454e-07,6.300517809078806e-07,2.2937959964161137e-06,2.0271224769546247e-05
3.589356449371311e-07,6.307771316292919e-07,2.307596825683681e-06,2.0413774331680616e-05
3.5712286819625074e-07,6.31447357132534e-07,2.319723569025833e-06,2.0541981600790687e-05
3.550659290202779e-07,6.320806507684327e-07,2.33015067177745e-06,2.0655784886289315e-05
3.5277403973766605e-07,6.326880783527764e-07,2.3388630005976497e-06,2.0755152017228792e-05
3.502601698942956e-07,6.332741505190462e-07,2.3458562935003246e-06,2.0839995705026332e-05
3.4754094623929056e-07,6.338389713248086e-07,2.3511333131226773e-06,2.0910160489308906e-05
3.4463596059897623e-07,6.34381220575371e-07,2.354699602624379e-06,2.0965465792085824e-05
3.415659799873065e-07,6.349007398373771e-07,2.356560541217469e-06,2.100577538655386e-05
3.383513041504848e-07,6.35399160550331e-07,2.356719373713145e-06,2.103107681747822e-05
3.350118046870279e-07,6.358772736268575e-07,2.355180174759094e-06,2.1041554302970058e-05
3.315678575521386e-07,6.3633141115902e-07,2.351957713388149e-06,2.1037593941690605e-05
3.280402455263617e-07,6.36752311980431e-07,2.3470865323346862e-06,2.1019702085454305e-05
3.244493824699554e-07,6.371260671770929e-07,2.3406206134115778e-06,2.0988413309979828e-05
3.2081518435151786e-07,6.374354956964457e-07,2.332622578061458e-06,2.0944239422147304e-05
3.171574253531333e-07,6.376615031224854e-07,2.323151412939656e-06,2.0887668968234078e-05
3.134961039349483e-07,6.377844629676897e-07,2.3122594215623815e-06,2.0819241501858288e-05
3.09850747287235e-07,6.377859690988179e-07,2.2999952067343257e-06,2.0739645490779682e-05
3.0623829340040944e-07,6.376501551483686e-07,2.286402998489498e-06,2.0649725306197235e-05
3.026715431294281e-07,6.373635310884844e-07,2.2715198849717343e-06,2.055038414883744e-05
2.991594319623355e-07,6.369136933669209e-07,2.2553792589280647e-06,2.0442460731286146e-05
2.957083350974213e-07,6.362880700149896e-07,2.2380217927085315e-06,2.0326637548861128e-05
2.923228940758558e-07,6.3547395529725e-07,2.2195055280186888e-06,2.020340400415457e-05
2.890059619212345e-07,6.344593314766451e-07,2.199905336232008e-06,2.007306629349485e-05
2.857591060801289e-07,6.332328484439889e-07,2.179302151980069e-06,1.993577746962544e-05
2.8258381214206965e-07,6.317831927226774e-07,2.1577740638379247e-06,1.9791608657629435e-05
2.7948169284363535e-07,6.300986869361417e-07,2.135398883831764e-06,1.964074863491112e-05
2.76453572077045e-07,6.281669822440589e-07,2.1122635843282343e-06,1.948382106235154e-05
2.7349901484403374e-07,6.259755689293158e-07,2.0884698853282303e-06,1.932208348764202e-05
2.7061661774755664e-07,6.235143709600317e-07,2.0641330878397926e-06,1.91573164837077e-05
2.678041849161877e-07,6.207796127261875e-07,2.0393790768258027e-06,1.8991519812323653e-05
2.650589375901433e-07,6.177772675452825e-07,2.014342075732043e-06,1.882668343487939e-05
2.623778405223689e-07,6.145253354192125e-07,1.989159402399688e-06,1.8664812024439625e-05
2.5975743309920746e-07,6.110526011992868e-07,1.9639603156158212e-06,1.850812109307197e-05
2.5719349183577514e-07,6.073926969041377e-07,1.9388536505714325e-06,1.8359118295149187e-05
2.5468103381254964e-07,6.035790003771032e-07,1.9139226007356924e-06,1.8220454802197268e-05
2.5221454636942657e-07,5.996447137425665e-07,1.8892301558148017e-06,1.8094694874567168e-05
2.4978896047218874e-07,5.956235583892192e-07,1.8648308764160587e-06,1.7984153562922238e-05
2.474017781583639e-07,5.915468964513227e-07,1.8407800712758099e-06,1.7890828618514732e-05
2.4505475907154516e-07,5.874404990268761e-07,1.817135036024971e-06,1.7816355610131172e-05
2.427535195845426e-07,5.8332458363957e-07,1.793950650567513e-06,1.7761926817060156e-05
2.405054875265467e-07,5.792156463487269e-07,1.7712745665324012e-06,1.7728217030146374e-05
2.3831779436927296e-07,5.751273412824785e-07,1.7491453569262488e-06,1.771537408439842e-05
2.3619716383550482e-07,5.710705706685204e-07,1.7275921102866943e-06,1.772305916697878e-05
2.3415246818747692e-07,5.670540256545717e-07,1.7066320941098827e-06,1.7750512961829705e-05
2.3219710794145927e-07,5.630861592248497e-07,1.6862686478045936e-06,1.7796651642168906e-05
2.3034847013021922e-07,5.591794730892855e-07,1.666495566426389e-06,1.786016934224987e-05
2.286257101368109e-07,5.55355929511181e-07,1.6473124307089275e-06,1.793960991176059e-05
2.270484955826968e-07,5.516506196067572e-07,1.6287463084838009e-06,1.803342142166346e-05
2.256371507380277e-07,5.48111451107334e-07,1.6108634169257843e-06,1.8140011894552623e-05
2.2441179619046048e-07,5.447941421578581e-07,1.5937591015875108e-06,1.8257768659718427e-05
2.233895684668005e-07,5.417538998816355e-07,1.5775338910811669e-06,1.838502482622247e-05
2.225831918319736e-07,5.390378196287975e-07,1.5622750453227575e-06,1.852003274659011e-05
2.220019157657114e-07,5.366816570508703e-07,1.548057535129866e-06,1.8660998480650304e-05
2.2165184517351052e-07,5.347102495598006e-07,1.5349615628693663e-06,1.8806164850400687e-05
2.215353554012342e-07,5.331391146841747e-07,1.5230916985520785e-06,1.895388303007048e-05
2.2165177026781016e-07,5.319763344081278e-07,1.5125834839411326e-06,1.910262224407898e-05
2.219990728631329e-07,5.312237202429849e-07,1.5035921268906015e-06,1.9250931436339204e-05
2.2257581614869146e-07,5.308763332431708e-07,1.4962704356790566e-06,1.9397404971160448e-05
2.2338285165732642e-07,5.309218835382639e-07,1.4907491785073857e-06,1.9540712251385613e-05
2.2442251135291649e-07,5.313427736335392e-07,1.487125354388731e-06,1.9679723245879645e-05
2.2569507495910267e-07,5.321210251842021e-07,1.485455810568219e-06,1.981364604640868e-05
2.271963196114906e-07,5.332415424162012e-07,1.4857556116087059e-06,1.994205706894085e-05
2.2891779500553513e-07,5.346903200413474e-07,1.4880036703587066e-06,2.006482979976501e-05
2.3084776078256488e-07,5.364515860271588e-07,1.4921531698357834e-06,2.018202763320762e-05
2.3297167645804854e-07,5.385074857265781e-07,1.4981383458556688e-06,2.0293791472775157e-05
2.352734600414783e-07,5.408380342720657e-07,1.5058744940315383e-06,2.040027272561943e-05
2.3773730049666773e-07,5.434196837755887e-07,1.5152564584381614e-06,2.0501646249146965e-05
2.403483932142042e-07,5.462245062705918e-07,1.5261610660748691e-06,2.059812401059943e-05
2.430922961052977e-07,5.492225252649532e-07,1.5384543546793126e-06,2.068988615395573e-05
2.4595358029761246e-07,5.523855170568637e-07,1.5519994601651217e-06,2.0776974862591835e-05
2.489152119885305e-07,5.55687092125782e-07,1.5666622053045613e-06,2.08592518891013e-05
2.519593127705561e-07,5.590992091230907e-07,1.5823168376285087e-06,2.093647600920678e-05
2.5506778152378666e-07,5.625912386628121e-07,1.5988524377576055e-06,2.1008472308768135e-05
2.5822296994071285e-07,5.661345055787522e-07,1.6161755097090912e-06,2.107527872378832e-05
2.614101941707097e-07,5.697092949491779e-07,1.634205898872834e-06,2.113718130584159e-05
2.646196173195252e-07,5.73309290951272e-07,1.6528683239201919e-06,2.1194656020619752e-05
2.678440826828561e-07,5.769407070027807e-07,1.672084120097346e-06,2.1248262362014388e-05
2.710754154377657e-07,5.806168170473007e-07,1.6917647039430344e-06,2.129853225849278e-05
2.743028672990849e-07,5.843502350940883e-07,1.7118062157574601e-06,2.1345903521789565e-05
2.7751333288895946e-07,5.881464651800257e-07,1.7320898035131432e-06,2.1390699588991352e-05
2.806924358018572e-07,5.920012436110379e-07,1.752491842861013e-06,2.1433163071129262e-05
2.8382611625614976e-07,5.959009220314023e-07,1.7728971679526764e-06,2.147362145297165e-05
2.869012117647286e-07,5.998248580809617e-07,1.7932048671902974e-06,2.151277221941049e-05
2.899045582740563e-07,6.037499792347863e-07,1.8133252218550012e-06,2.15518497814376e-05
2.928219814254115e-07,6.076562334760685e-07,1.8331714235005008e-06,2.1592477967668068e-05
2.956380141903512e-07,6.115294350837587e-07,1.8526506126744183e-06,2.163633191108243e-05
2.983362963099848e-07,6.153593633186121e-07,1.8716602054249558e-06,2.1684846516909146e-05
3.009006332976105e-07,6.191354001653304e-07,1.890090757363659e-06,2.173909226190217e-05
3.033165289982535e-07,6.228436070711811e-07,1.9078314887862025e-06,2.1799905274347515e-05
3.055723897118821e-07,6.264665707077457e-07,1.9247766772947376e-06,2.18682287860986e-05
3.076594068550206e-07,6.299843095055279e-07,1.940833745976784e-06,2.1945373342781645e-05
3.095709624186288e-07,6.333743389877796e-07,1.9559315553585025e-06,2.203299328427196e-05
3.1130291980517426e-07,6.366110983736815e-07,1.9700217274629458e-06,2.21328861117215e-05
3.1285324881024623e-07,6.396657568696607e-07,1.983068182895924e-06,2.224678457677157e-05
3.1422005977157414e-07,6.425085192117659e-07,1.9950329971053892e-06,2.23761979136636e-05
3.1540017734929763e-07,6.451163413852329e-07,2.0058695130184657e-06,2.25222879627907e-05
3.163894822235054e-07,6.474827401010488e-07,2.0155245388966084e-06,2.2685769083310668e-05
3.171847318430789e-07,6.496198771235804e-07,2.02394670099714e-06,2.286685915534006e-05
3.1778571809420337e-07,6.51550123807376e-07,2.0310947662561747e-06,2.306530517613528e-05
3.181955069814044e-07,6.53296706904945e-07,2.0369377457801757e-06,2.328044754900786e-05
3.184183633355391e-07,6.548825490984579e-07,2.041446875657968e-06,2.351125590858037e-05
3.1845773280668224e-07,6.563350009785314e-07,2.044588471474901e-06,2.375631993548544e-05
3.183159286731023e-07,6.576887017952495e-07,2.0463230440443934e-06,2.4013843541593007e-05
3.179949415849551e-07,6.58984393714226e-07,2.046608635126883e-06,2.428168327593631e-05
3.174973016436256e-07,6.602651443443677e-07,2.045405566241114e-06,2.4557433736673706e-05
3.1682670715197357e-07,6.615702358658323e-07,2.0426829149859544e-06,2.483854962755597e-05
3.159883781702959e-07,6.629306738701533e-07,2.038429469262353e-06,2.512246787840825e-05
3.149896682464605e-07,6.643707986913993e-07,2.032667792887018e-06,2.540668277843457e-05
3.1384179943301025e-07,6.659116795193789e-07,2.025461024546912e-06,2.5688782808934728e-05
3.125614429388733e-07,6.675699616726354e-07,2.0169036639284328e-06,2.5966479070556125e-05
3.111702406588872e-07,6.693544177728221e-07,2.0071017094222196e-06,2.623760736486051e-05
3.096925063366427e-07,6.71267339245965e-07,1.9961557771037467e-06,2.6500091686381886e-05
3.0815218756855896e-07,6.733126329828126e-07,1.984155396984169e-06,2.6751908561182884e-05
3.06570613653496e-07,6.755026401915607e-07,1.971183006440196e-06,2.6991075672735682e-05
3.0496712545772126e-07,6.778555654483154e-07,1.9573213029784995e-06,2.7215657827714538e-05
3.033618609260622e-07,6.803886578784578e-07,1.9426584629757027e-06,2.7423815977731972e-05
3.017763881151034e-07,6.831167059409442e-07,1.9272879435726148e-06,2.7613886948746227e-05
3.002310146421947e-07,6.86053804860003e-07,1.911301988504819e-06,2.7784398167039324e-05
2.987429673614496e-07,6.892118961306353e-07,1.8947836104736976e-06,2.793400463095481e-05
2.973278431801591e-07,6.925977639553819e-07,1.8778052504031208e-06,2.8061447178422327e-05
2.9600235478551175e-07,6.962126066227922e-07,1.8604352102279159e-06,2.816557659657173e-05
2.9478628105116626e-07,7.000517961717135e-07,1.8427443976345214e-06,2.824539212928275e-05
2.937023761188344e-07,7.041029965625237e-07,1.8248062427345921e-06,2.8300040011990473e-05
2.927732041228891e-07,7.083468909118404e-07,1.8066895336268383e-06,2.8328786464065534e-05
2.920168608134205e-07,7.127612579128666e-07,1.7884532624735486e-06,2.833101249336836e-05
2.914451433596674e-07,7.173229771234855e-07,1.7701521765975086e-06,2.8306260212103546e-05
2.910639887477793e-07,7.220059293445797e-07,1.7518494411500957e-06,2.825434111020517e-05
2.9087431758192603e-07,7.267787448544189e-07,1.7336272603512425e-06,2.8175441779137605e-05
2.908734360097227e-07,7.316055771039238e-07,1.7155888831353448e-06,2.807011264143104e-05
2.910566637581879e-07,7.364488598485832e-07,1.6978487009152798e-06,2.793914269903712e-05
2.9141809651394865e-07,7.412714310031135e-07,1.6805151045262296e-06,2.7783431380348328e-05
2.9195099425110066e-07,7.460365637165091e-07,1.6636763942508958e-06,2.760390629116233e-05
2.92648471945322e-07,7.507065430826345e-07,1.6473960942431498e-06,2.740147443291776e-05
2.935037897713138e-07,7.552414835945372e-07,1.631717062984931e-06,2.7177016415421266e-05
2.9451035014347336e-07,7.595990725627581e-07,1.6166679828671426e-06,2.693141902686582e-05
2.9566319037778693e-07,7.637350054692285e-07,1.6022653549045226e-06,2.666559927017635e-05
2.9696071680573113e-07,7.676038984148213e-07,1.5885118744289563e-06,2.638049732354739e-05
2.984032276363592e-07,7.711598433346393e-07,1.5753964605906626e-06,2.6077123123305718e-05
2.999898959619464e-07,7.743565170226159e-07,1.5628962036969074e-06,2.575675363537473e-05
3.017175759199807e-07,7.77148858607406e-07,1.550978989997044e-06,2.542114773321967e-05
3.035803675059735e-07,7.794965010249031e-07,1.5396087951944848e-06,2.507254083217185e-05
3.055691217899313e-07,7.813657406146813e-07,1.5287528889871348e-06,2.4713429309927552e-05
3.076724892400552e-07,7.827284012889389e-07,1.5183871201132278e-06,2.434635281921697e-05
3.098795120520078e-07,7.835594560022074e-07,1.508500380565609e-06,2.3973844938532348e-05
3.1218237920976684e-07,7.838362876296474e-07,1.4991028272440022e-06,2.3598522905111623e-05
3.14577881219357e-07,7.835409031768802e-07,1.490234933116479e-06,2.322311375474765e-05
3.1706667008445465e-07,7.82662427808069e-07,1.4819674878182494e-06,2.2850357326573488e-05
3.196514667899006e-07,7.811969387068755e-07,1.4743883676801658e-06,2.248291569442267e-05
3.223346815547722e-07,7.791465270640249e-07,1.4675833701312903e-06,2.2123343953871703e-05
3.2511549397210906e-07,7.765191106238105e-07,1.461625590090721e-06,2.1774066977757777e-05
3.279886399754328e-07,7.733271359857882e-07,1.4565801167213056e-06,2.143732015616868e-05
3.3094594082752856e-07,7.695851665004494e-07,1.4525134363901731e-06,2.1115066204637784e-05
3.339789644998167e-07,7.653078675340552e-07,1.4494968655630571e-06,2.0808920227621546e-05
3.3708029104083545e-07,7.605087111797771e-07,1.4476077659199252e-06,2.0520117109909013e-05
3.4024245546167345e-07,7.551999983022698e-07,1.446933096192374e-06,2.024953980349385e-05
3.4345616240811035e-07,7.493943784683084e-07,1.4475678584108283e-06,1.999777891872651e-05
3.467089067316368e-07,7.431059084009281e-07,1.4496003052255992e-06,1.9765171964960905e-05
3.499844992333659e-07,7.363500378695438e-07,1.4530906353479886e-06,1.955180063345907e-05
3.5326366184662867e-07,7.291447375155073e-07,1.4580573925516932e-06,1.935747165617342e-05
3.565250304163664e-07,7.215120417854541e-07,1.4644766864023485e-06,1.9181729949084092e-05
3.5974612466583063e-07,7.134768853459451e-07,1.4722894334980803e-06,1.9023923030956092e-05
3.6290399184798567e-07,7.050649089470634e-07,1.4814092734171008e-06,1.888328591369224e-05
3.6597564411358937e-07,6.963034950958696e-07,1.4917272534287167e-06,1.8758998186638515e-05
3.689388946496505e-07,6.872248787835365e-07,1.503116289599908e-06,1.8650187894850367e-05
3.7177338715316294e-07,6.778664849860176e-07,1.515439332177084e-06,1.8555917883074138e-05
3.7446086758142274e-07,6.682681990575336e-07,1.5285583844633663e-06,1.8475218174621105e-05
3.769847161277825e-07,6.584699008981721e-07,1.5423386327004852e-06,1.840715008919281e-05
3.793296577167429e-07,6.485095579919972e-07,1.5566480162101533e-06,1.8350832738059328e-05
3.8148207113049955e-07,6.38421011231273e-07,1.571357054938248e-06,1.8305416234957253e-05
3.834307167363336e-07,6.282330130529774e-07,1.5863389830924515e-06,1.827002522465429e-05
3.8516689213058744e-07,6.179700091171051e-07,1.6014673318681084e-06,1.824370723442684e-05
3.86683904788688e-07,6.076531018550229e-07,1.6166130041757969e-06,1.8225451289381067e-05
3.879777774744606e-07,5.97301111676772e-07,1.6316444844123017e-06,1.821428005143249e-05
3.890491788130022e-07,5.86932149428834e-07,1.6464304549341259e-06,1.820930502422153e-05
3.89904121859708e-07,5.765651338712294e-07,1.6608442806884004e-06,1.8209684924583397e-05
3.9055228371415093e-07,5.662223151915108e-07,1.6747727701203737e-06,1.8214560927096257e-05
3.910040543287162e-07,5.559322245134766e-07,1.6881237499375357e-06,1.8223043079467085e-05
3.912688431909272e-07,5.457288378150098e-07,1.7008239367456248e-06,1.8234231763373404e-05
3.91355722161871e-07,5.356485412318286e-07,1.7128162432188709e-06,1.824723061541596e-05
3.912740528210733e-07,5.257303004878105e-07,1.724068676699834e-06,1.826113611107726e-05
3.9103224994313305e-07,5.160163956461459e-07,1.7345868463808326e-06,1.827501607100383e-05
3.9063645090142156e-07,5.065497601455983e-07,1.744417218454171e-06,1.8287943830098688e-05
3.9009094644835927e-07,4.973709685237707e-07,1.7536362881022068e-06,1.8299138519889727e-05
3.8940035275236297e-07,4.885166304372086e-07,1.76232764912222e-06,1.830811565578766e-05
3.885731574359382e-07,4.800174463261779e-07,1.770560907884869e-06,1.8314704653790282e-05
3.876238531319154e-07,4.718963958015556e-07,1.778387463913889e-06,1.8318943984590115e-05
3.8657107655566726e-07,4.641683672106797e-07,1.7858503111959926e-06,1.832097236837213e-05
3.854353065134114e-07,4.568413656662853e-07,1.7929937049587459e-06,1.832094907857218e-05
3.842389660428442e-07,4.4991835983168537e-07,1.7998631363996094e-06,1.8318964862691795e-05
3.8300575953301603e-07,4.433982895902791e-07,1.806494914648008e-06,1.8314973439763707e-05
3.8175815347243117e-07,4.3727718396561307e-07,1.8129040069007515e-06,1.83087982421296e-05
3.80516108146386e-07,4.3155042064696605e-07,1.81908072279744e-06,1.83001817076617e-05
3.7929756787019504e-07,4.262136388006701e-07,1.8249962996809085e-06,1.8288814804664002e-05
3.7811816478627296e-07,4.212615972857686e-07,1.830609118956169e-06,1.8274382498764587e-05
3.769897792889087e-07,4.166870162471586e-07,1.8358675843875519e-06,1.8256717625665343e-05
3.759199595971606e-07,4.1248019326418207e-07,1.840713832706803e-06,1.8235983605004995e-05
3.749127043111758e-07,4.086311694320546e-07,1.8450913868421214e-06,1.8212664235809667e-05
3.739694111976314e-07,4.0513373545522925e-07,1.8489544248038936e-06,1.818736366365008e-05
3.730898081823314e-07,4.019855772487312e-07,1.8522756806172927e-06,1.816069201895747e-05
3.7227349701589687e-07,3.9918451739572615e-07,1.855046976005272e-06,1.8133406740806133e-05
3.7152203145936544e-07,3.967268041556041e-07,1.857269457258884e-06,1.8106636340218724e-05
3.708407262803787e-07,3.946076098578381e-07,1.858947432091671e-06,1.808192342978217e-05
3.7023808440777505e-07,3.928201480825424e-07,1.8600970050775387e-06,1.806109947698103e-05
3.6972278151148093e-07,3.913547334419936e-07,1.8607564826122246e-06,1.8046148039762665e-05
3.693019356023286e-07,3.901999339469655e-07,1.8609839647025608e-06,1.803908620769493e-05
3.6898162867129896e-07,3.893439632595043e-07,1.8608455339084637e-06,1.8041839023302938e-05
3.68767501884242e-07,3.887755636766472e-07,1.860403437808533e-06,1.8056127002994785e-05
3.6866519757364997e-07,3.8848654921899686e-07,1.859708518930773e-06,1.808338655603108e-05
3.6868102255838544e-07,3.884761131877872e-07,1.858796450432084e-06,1.8124718861655703e-05
3.688224262857285e-07,3.887529664547601e-07,1.8576862531412769e-06,1.818086216281357e-05
3.6909857450479866e-07,3.893326090645028e-07,1.8563808013842705e-06,1.82521818444918e-05
3.6952072511996043e-07,3.902336380077169e-07,1.8548695957625748e-06,1.833866400920625e-05
3.701009800800732e-07,3.914765933872075e-07,1.8531334674167072e-06,1.8439917664189426e-05
3.7084947453186576e-07,3.930824036903777e-07,1.8511501356880527e-06,1.8555229604743134e-05
3.7177178423652173e-07,3.950698774649857e-07,1.8488984968461743e-06,1.8683693531619168e-05
3.7286758775649535e-07,3.9745496322765843e-07,1.8463600792084511e-06,1.882435865365516e-05
3.7413049683783653e-07,4.0025071051209757e-07,1.8435194244554729e-06,1.897633214375524e-05
3.7554881029342547e-07,4.0346736343152905e-07,1.8403655004447929e-06,1.913880994799453e-05
3.771069058320369e-07,4.0711404835709026e-07,1.836892695827203e-06,1.9311046359384785e-05
3.7878643610658026e-07,4.1120091472029306e-07,1.833099874281094e-06,1.949231324852641e-05
3.805664827638465e-07,4.157388258178654e-07,1.8289886788323886e-06,1.968188809520301e-05
3.8242385045272656e-07,4.2073519702140996e-07,1.824562053093988e-06,1.987905969604753e-05
3.843355062029761e-07,4.261889140214461e-07,1.819822699586633e-06,2.008313156386129e-05
3.8628216976205936e-07,4.3208818583778545e-07,1.814770927645898e-06,2.0293416897067592e-05
3.8825029262749117e-07,4.384112820443695e-07,1.8094026152222626e-06,2.0509223938884963e-05
3.902320382628986e-07,4.4512936350330717e-07,1.803710608772527e-06,2.0729821625520293e-05
3.922239385024488e-07,4.5221067257153606e-07,1.797690034457053e-06,2.0954376025212852e-05
3.9422407423719294e-07,4.596240137191779e-07,1.7913430438704113e-06,2.1181898213257667e-05
3.962296724004425e-07,4.6734083891930436e-07,1.784682834397062e-06,2.141125672561908e-05
3.982375834293225e-07,4.7533622309271604e-07,1.7777417356130653e-06,2.164122608153658e-05
4.0024588768319037e-07,4.83587750579212e-07,1.7705807535543327e-06,2.1870510950667385e-05
4.022535400501436e-07,4.920720345377875e-07,1.763289900763175e-06,2.20977467592496e-05
4.042585204218725e-07,5.007611396621528e-07,1.755974278869788e-06,2.2321508377882307e-05
4.062568482664642e-07,5.096210970089193e-07,1.7487333904593475e-06,2.254033204007425e-05
4.082428345525344e-07,5.186128709407626e-07,1.741648202802016e-06,2.275273023386243e-05
4.102092074823106e-07,5.276960719638767e-07,1.7347846933854817e-06,2.2957179067756446e-05
4.121470331774419e-07,5.368346011632074e-07,1.728207704837896e-06,2.315208888470607e-05
4.140456425817385e-07,5.459993842209747e-07,1.7219919346794491e-06,2.3335798929887368e-05
4.1589197498236437e-07,5.551642532731003e-07,1.7162217776100097e-06,2.3506611863687312e-05
4.1767010251043747e-07,5.642992221358797e-07,1.710979336056712e-06,2.366284939960695e-05
4.1936166580522025e-07,5.73367689960815e-07,1.706328397224342e-06,2.380292382973404e-05
4.2094652837794936e-07,5.823274926584436e-07,1.702305288406524e-06,2.39254152733468e-05
4.2240355226645406e-07,5.91132784033515e-07,1.6989187860989984e-06,2.402910242159361e-05
4.2371208352207867e-07,5.997361032595337e-07,1.696153368932088e-06,2.4112943726614585e-05
4.248538263362747e-07,6.080901214158509e-07,1.6939744066941563e-06,2.417609721494603e-05
4.25813902440031e-07,6.161481108421412e-07,1.6923405354619924e-06,2.421800672926845e-05
4.2658041613127436e-07,6.238642015473321e-07,1.6912229052011563e-06,2.4238476882981933e-05
4.271431338042689e-07,6.311943261213265e-07,1.690615855333621e-06,2.4237676114927803e-05
4.2749233149483073e-07,6.380969613749907e-07,1.690527109508347e-06,2.4216053183321977e-05
4.2761813650537726e-07,6.445339008058629e-07,1.690964804483249e-06,2.4174210904910997e-05
4.275100855032545e-07,6.504722834664946e-07,1.6919425872637238e-06,2.411288328336703e-05
4.2715698762926564e-07,6.558865347803649e-07,1.6934928372637982e-06,2.403306793593096e-05
4.2654746047128137e-07,6.607575565507279e-07,1.6956696480590426e-06,2.3936122894118218e-05
4.2567082512415793e-07,6.650700089043241e-07,1.698541917813479e-06,2.3823689947426514e-05
4.245177397474285e-07,6.688107113836438e-07,1.702183935524326e-06,2.369754065647941e-05
4.2308077780629883e-07,6.719695786322203e-07,1.7066635138924326e-06,2.3559445823395595e-05
4.2135597485773697e-07,6.745432987910223e-07,1.7120267463656882e-06,2.341109257556854e-05
4.193450058212745e-07,6.765391650575422e-07,1.718287200349007e-06,2.3254123390548377e-05
4.170557226807296e-07,6.779739569022991e-07,1.7254254452968326e-06,2.309029652912084e-05
4.1450053479894296e-07,6.788679286316454e-07,1.7333935185689927e-06,2.292158183066419e-05
4.1169443734738325e-07,6.792395468063403e-07,1.7421203162918823e-06,2.2750096763418425e-05
4.086536373641965e-07,6.79103787029219e-07,1.7515190022330128e-06,2.257798323625753e-05
4.053944428829601e-07,6.784724897465427e-07,1.7614922910127674e-06,2.240730042932292e-05
4.0193260350256314e-07,6.773552921906419e-07,1.7719327338544711e-06,2.2239927997788126e-05
3.982834286576021e-07,6.757608423103691e-07,1.7827267611334618e-06,2.207748339112242e-05
3.9446161832426157e-07,6.736985441430811e-07,1.7937688108167316e-06,2.192128957244206e-05
3.904804899540504e-07,6.711823748496515e-07,1.804976379165659e-06,2.177240434766224e-05
3.8635191957535453e-07,6.682368736366934e-07,1.8162952109633529e-06,2.1631670142739773e-05
3.8208761307222536e-07,6.649000170884772e-07,1.827693947710926e-06,2.149975066225794e-05
3.7770126802943174e-07,6.612190826211177e-07,1.8391514140509118e-06,2.1377147327791824e-05
3.732099877149171e-07,6.572446934744753e-07,1.8506412490475913e-06,2.1264180344932793e-05
3.6863346486552463e-07,6.530294817026743e-07,1.8621221542777423e-06,2.1160935821218044e-05
3.639921402894732e-07,6.486293312475236e-07,1.8735393479810279e-06,2.106723598244129e-05
3.593065042001787e-07,6.441016520193772e-07,1.8848324164361443e-06,2.0982690483044283e-05
3.545975895718885e-07,6.395002325339785e-07,1.8959399721143375e-06,2.0906808072955733e-05
3.4988687642211597e-07,6.348715947583437e-07,1.9067985181458104e-06,2.083909708604838e-05
3.4519499652520003e-07,6.302562904763368e-07,1.917339624168058e-06,2.077911666279516e-05
3.40540458628118e-07,6.256911702457705e-07,1.9274911714381024e-06,2.07264975004834e-05
3.359388665450467e-07,6.212079392947286e-07,1.9371828751990084e-06,2.068096897550078e-05
3.314024882260044e-07,6.168302672272872e-07,1.9463487379729143e-06,2.0642391341545005e-05
3.269405563259999e-07,6.125731988604206e-07,1.9549282457733538e-06,2.0610753094213307e-05
3.225598154368928e-07,6.084451559989975e-07,1.9628733017028056e-06,2.058611752488017e-05
3.182650176124285e-07,6.044507983267636e-07,1.9701528798646166e-06,2.05685298942555e-05
3.140609307924083e-07,6.005939310189156e-07,1.9767466620654275e-06,2.055790591705712e-05
3.099554653102343e-07,5.968813166193181e-07,1.9826346515386574e-06,2.055396150735096e-05
3.0596028379650694e-07,5.933253940206877e-07,1.987791936709066e-06,2.055621988413392e-05
3.020882782086297e-07,5.899421667154504e-07,1.992187467551266e-06,2.0564048543527083e-05
2.983514786151808e-07,5.867460036623511e-07,1.9957829435229226e-06,2.0576690317644807e-05
2.947611747710229e-07,5.837474734422144e-07,1.998532774847591e-06,2.0593304368718123e-05
2.9132929288615817e-07,5.809567483620967e-07,2.000384983859079e-06,2.0613019757475526e-05
2.8806925697650105e-07,5.78387788453647e-07,2.0012810048957927e-06,2.0634977684663086e-05
2.849943736151444e-07,5.760574561314435e-07,2.001155546013654e-06,2.0658362656259533e-05
2.821148175008748e-07,5.739804813893159e-07,1.9999384087858747e-06,2.0682456148798688e-05
2.7943626632327317e-07,5.721648908260156e-07,1.9975579748934588e-06,2.0706708359164644e-05
2.769605079565388e-07,5.706099725283175e-07,1.9939444912434646e-06,2.0730781081868888e-05
2.746870840225924e-07,5.693064779889322e-07,1.9890321007188543e-06,2.075452712317801e-05
2.726151985406473e-07,5.682379566862978e-07,1.982760211012664e-06,2.0777898477367868e-05
2.707447349958523e-07,5.673819654816261e-07,1.9750739932338628e-06,2.080081507841965e-05
2.690763068688754e-07,5.667110412892246e-07,1.965923790189606e-06,2.0823062358472136e-05
2.6761097525809305e-07,5.661940435854701e-07,1.955265182576521e-06,2.0844287429958404e-05
2.66350514884882e-07,5.657975526452792e-07,1.9430619494463343e-06,2.0864092798469384e-05
2.652984483429952e-07,5.654869646124037e-07,1.9292912305956938e-06,2.0882127104020608e-05
2.6445985846146984e-07,5.652291258593411e-07,1.913946395565684e-06,2.0898093524831883e-05
2.638399837705559e-07,5.649996059868671e-07,1.8970345986621017e-06,2.091170167528389e-05
2.634448814809146e-07,5.647931320214783e-07,1.8785716961540447e-06,2.0922612189543254e-05
2.632836187836613e-07,5.646296732221141e-07,1.8585802045479599e-06,2.0930414601892668e-05
2.6336797261885605e-07,5.645511739809524e-07,1.8370927031190624e-06,2.0934720388890664e-05
2.637095221416807e-07,5.646111253789407e-07,1.8141565556712037e-06,2.093533550081384e-05
2.6431711719436087e-07,5.648628507261448e-07,1.7898357516673336e-06,2.0932294414998317e-05
2.6519597714696057e-07,5.653527090576779e-07,1.764210346660412e-06,2.0925722426674208e-05
2.6634795960938484e-07,5.661191286359896e-07,1.7373727589066604e-06,2.0915721081813213e-05
2.677733149190671e-07,5.671918707256043e-07,1.7094200408310363e-06,2.0902336600614773e-05
2.694747092482336e-07,5.685890697815883e-07,1.6804465009735229e-06,2.0885545334570745e-05
2.7146061855358965e-07,5.703153094325371e-07,1.6505406090207482e-06,2.086524118889571e-05
2.73743685589988e-07,5.723623691423601e-07,1.619785257976588e-06,2.0841247969873373e-05
2.763355997723372e-07,5.747112198568495e-07,1.5882591546511885e-06,2.0813381706163017e-05
2.792429492660312e-07,5.773340924753147e-07,1.5560380830127457e-06,2.078157221927186e-05
2.8246550858941304e-07,5.801967365675961e-07,1.523195143285855e-06,2.0745988570826746e-05
2.8599784721784593e-07,5.832611065601669e-07,1.489799910967627e-06,2.0707070886649483e-05
2.898335179734565e-07,5.864884337810314e-07,1.4559181108342787e-06,2.066544932903725e-05
2.939670189776745e-07,5.898435680032968e-07,1.4216131360852188e-06,2.0621820603650736e-05
2.98391627670051e-07,5.933000550446758e-07,1.386948653879418e-06,2.0576837871539647e-05
3.030969137750795e-07,5.968423203781063e-07,1.3519903047630786e-06,2.0531024870362467e-05
3.080679100984879e-07,6.004644131703123e-07,1.316805480128097e-06,2.0484730150502365e-05
3.132847920751042e-07,6.041681708825857e-07,1.2814627337332234e-06,2.0438148142776464e-05
3.18722821804541e-07,6.079601327517071e-07,1.2460343173169638e-06,2.0391386692256014e-05
3.243525752308159e-07,6.118471893114591e-07,1.210603698828684e-06,2.0344519003087456e-05
3.301405400787696e-07,6.158343207732372e-07,1.1752742512556384e-06,2.029759570622736e-05
3.3605150176100287e-07,6.199234306180699e-07,1.1401718703337629e-06,2.0250638264050672e-05
3.4205274045641397e-07,6.241105173019753e-07,1.1054385025127577e-06,2.020362790013581e-05
3.4811648419485265e-07,6.283828228804484e-07,1.0712231390070367e-06,2.0156504495209217e-05
3.5421910050344094e-07,6.327182401812739e-07,1.0376800913845872e-06,2.010921359083929e-05
3.6034014955868617e-07,6.370873795783361e-07,1.0049721053319635e-06,2.0061852526109704e-05
3.664618061618061e-07,6.414574658555922e-07,9.732662965897054e-07,2.0014905546146266e-05
3.725666810137511e-07,6.457952322949249e-07,9.427208505022984e-07,1.9969402622602272e-05
3.786353203816429e-07,6.500666478384085e-07,9.134723699093235e-07,1.99268391522002e-05
3.8464545023702285e-07,6.542353858353274e-07,8.856317178236866e-07,1.9888924179670444e-05
3.9057323743350074e-07,6.582624840676694e-07,8.592865961307621e-07,1.985731867843945e-05
3.9639519967736566e-07,6.621073765578161e-07,8.345042093474484e-07,1.9833462427533302e-05
4.0208867113486e-07,6.657305953920482e-07,8.113329752037596e-07,1.981862368785616e-05
4.0763131687004727e-07,6.690976733931174e-07,7.898079383706776e-07,1.9814201293847324e-05
4.1300151947870703e-07,6.721809895319106e-07,7.699604677429377e-07,1.982196011965715e-05
4.1817907731063106e-07,6.749575240439665e-07,7.518287763934105e-07,1.9843914502767397e-05
4.2314538221512096e-07,6.774056842155049e-07,7.354674613652166e-07,1.988203925578494e-05
4.2788396125799386e-07,6.795053992718214e-07,7.209523037413009e-07,1.993809003719061e-05
4.323812485135221e-07,6.812407104393112e-07,7.08373398010267e-07,2.001353280714165e-05
4.3662608301096727e-07,6.826005322925497e-07,6.978185933116214e-07,2.0109481285239388e-05
4.406087972508109e-07,6.835764758894454e-07,6.893635759139568e-07,2.0226618715487368e-05
4.4432218233535567e-07,6.841614717458083e-07,6.83079953445276e-07,2.0365122933724177e-05
4.4776256370628435e-07,6.8435125415655e-07,6.790508976377835e-07,2.052462487431781e-05
4.5092824875763473e-07,6.841464959222893e-07,6.773789495675082e-07,2.0704235324552945e-05
4.538179447526596e-07,6.835538807738544e-07,6.781844532046108e-07,2.0902646493701225e-05
4.5643183026257e-07,6.825861512908085e-07,6.815978455872365e-07,2.111826265011449e-05
4.587731146719733e-07,6.812605112087287e-07,6.877454928211665e-07,2.134929972590716e-05
4.608478346676755e-07,6.795957248599973e-07,6.967314781469802e-07,2.159382453162207e-05
4.6266344195878135e-07,6.776104755020728e-07,7.086232168217698e-07,2.184974995797942e-05
4.6422736693454246e-07,6.753241113552149e-07,7.234476231912924e-07,2.2114833055464623e-05
4.655457746190608e-07,6.727583079595114e-07,7.411947742585439e-07,2.2386704037106712e-05
4.6662258102979843e-07,6.699374172827993e-07,7.618201052177115e-07,2.266292211451327e-05
4.6745925394301175e-07,6.668859229757982e-07,7.852440247715183e-07,2.2941034174422643e-05
4.680552617846901e-07,6.636252329497611e-07,8.113548106685125e-07,2.3218606318134328e-05
4.684090327266776e-07,6.601734323320146e-07,8.400167887104979e-07,2.3493229654193344e-05
4.6851964969054463e-07,6.565472298685307e-07,8.710806658143257e-07,2.376251541275011e-05
4.683881703711033e-07,6.527648727447259e-07,9.043909667382515e-07,2.4024081455483145e-05
4.6801750221162025e-07,6.488504136348915e-07,9.39789922530678e-07,2.427555172169565e-05
4.6741102021707466e-07,6.448361784045559e-07,9.771235844937937e-07,2.4514599037650416e-05
4.665707062941808e-07,6.407597682636293e-07,1.0162520990471735e-06,2.473902217649153e-05
4.6549674807791024e-07,6.366585274013315e-07,1.0570599245940495e-06,2.4946796604249278e-05
4.641897324403041e-07,6.325679451183022e-07,1.0994606870080623e-06,2.5136054061476654e-05
4.6265341174468576e-07,6.285238945342628e-07,1.1433894811408709e-06,2.530503791080375e-05
4.608952075177702e-07,6.245626387130951e-07,1.1887799878060726e-06,2.5452092987741228e-05
4.589245962810417e-07,6.207179820420957e-07,1.2355397464862338e-06,2.5575681407136985e-05
4.56751932390845e-07,6.170199078240483e-07,1.2835406497811542e-06,2.56744064897512e-05
4.543886394207696e-07,6.134948552433625e-07,1.3326247750848424e-06,2.574702855851443e-05
4.518474029497057e-07,6.101651815486967e-07,1.3826205575812554e-06,2.579245638358305e-05
4.491413338316579e-07,6.070476509623123e-07,1.433369445564211e-06,2.5809737158596537e-05
4.462827563238445e-07,6.041518281694473e-07,1.4847533198506597e-06,2.579806776806705e-05
4.4328243175728686e-07,6.014796524867505e-07,1.536706828287548e-06,2.575681944946163e-05
4.4014881927726886e-07,5.990276985320316e-07,1.5892101149593089e-06,2.5685595751650268e-05
4.3688781742355365e-07,5.967911899803357e-07,1.642268572348927e-06,2.5584360622112665e-05
4.335039453260429e-07,5.94767906807862e-07,1.6958868153015296e-06,2.545357007108457e-05
4.3000150976027574e-07,5.929612975286157e-07,1.7500427546127812e-06,2.529416746677932e-05
4.2638448863159643e-07,5.913811595274273e-07,1.8046708003744743e-06,2.510741817328065e-05
4.22656532649785e-07,5.900408813787153e-07,1.8596595293990088e-06,2.4894700905344034e-05
4.188219574904594e-07,5.889528888869232e-07,1.914859235264687e-06,2.465737750241891e-05
4.1488654500054993e-07,5.881248146047701e-07,1.970093301187346e-06,2.439677446557234e-05
4.108569364337253e-07,5.875575838435747e-07,2.025171005946624e-06,2.411422071675437e-05
4.0673949904920344e-07,5.872446647105121e-07,2.079899476281596e-06,2.3811074421259234e-05
4.025404808266285e-07,5.87172462035602e-07,2.1340906947384805e-06,2.348877983015535e-05
3.982670931845938e-07,5.873229089889685e-07,2.187561857979985e-06,2.3149062768030443e-05
3.9392844982887274e-07,5.876779111246609e-07,2.2401354338970363e-06,2.279417124446232e-05
3.895365762604585e-07,5.882233574546977e-07,2.2916445468796694e-06,2.2426892518230595e-05
3.851068610029258e-07,5.88949429841823e-07,2.3419374540850685e-06,2.2050301310505505e-05
3.8065662684826603e-07,5.898466904522093e-07,2.390873392566175e-06,2.1667440407917293e-05
3.762027403791707e-07,5.909031382386388e-07,2.4383123741760293e-06,2.1281118598543267e-05
3.7176001602747393e-07,5.921068995696844e-07,2.484106916613069e-06,2.089396350940517e-05
3.6734035480168266e-07,5.93450555117702e-07,2.5281012287302248e-06,2.0508718760077275e-05
3.629524724546104e-07,5.949313435618936e-07,2.5701364753948813e-06,2.012850507883025e-05
3.5860281477015204e-07,5.965486469479526e-07,2.6100551181419977e-06,1.975681196932467e-05
3.5429746504411e-07,5.983007681017693e-07,2.6477004638677714e-06,1.9397308647609214e-05
3.5004403021446253e-07,6.001810059680382e-07,2.6829150042038325e-06,1.905366399095676e-05
3.458522841988943e-07,6.021753039802758e-07,2.715543009171996e-06,1.872943049022912e-05
3.4173341296459733e-07,6.042622380297579e-07,2.745437482351156e-06,1.842794039159955e-05
3.376996482488988e-07,6.064139001137713e-07,2.7724659339594864e-06,1.8152170045615523e-05
3.3376527712670943e-07,6.085975524757102e-07,2.796511681634309e-06,1.79046096096672e-05
3.299468470188545e-07,6.107777024863649e-07,2.817473911672365e-06,1.7687193605493642e-05
3.262614265148893e-07,6.129183211315071e-07,2.8352683910965207e-06,1.7501276394850774e-05
3.2272599444318146e-07,6.149862645462947e-07,2.8498253043569144e-06,1.734761642311208e-05
3.193584853343163e-07,6.1695506018919e-07,2.8610858975169116e-06,1.7226379951602882e-05
3.161767742391604e-07,6.188056778579757e-07,2.8690056488380677e-06,1.7137183902060432e-05
3.131963032608606e-07,6.205236032337045e-07,2.873563998328497e-06,1.7079175802978366e-05
3.104295119670265e-07,6.220974422213125e-07,2.8747725612918133e-06,1.7051142487153234e-05
3.0788604918908565e-07,6.235234323785649e-07,2.8726743980422938e-06,1.7051628666277998e-05
3.05572687513762e-07,6.24811771356754e-07,2.8673336493832443e-06,1.7079037380342952e-05
3.0349354214564727e-07,6.259884046807447e-07,2.8588262127041765e-06,1.7131695218621067e-05
3.016506588842382e-07,6.2709131750501e-07,2.8472407752784284e-06,1.720789174215275e-05
3.000449002066336e-07,6.281634627091104e-07,2.8326842718551948e-06,1.7305914887079142e-05
2.986757692403079e-07,6.292453002014694e-07,2.8152843018388257e-06,1.7424081413649105e-05
2.9753965320297807e-07,6.303698365923261e-07,2.795188872791264e-06,1.7560757987036897e-05
2.9662876901380956e-07,6.315614376951292e-07,2.772560923095435e-06,1.7714381446616914e-05
2.9593150147366656e-07,6.328372481754204e-07,2.747565479305066e-06,1.7883459847523315e-05
2.95433141957792e-07,6.342078051086895e-07,2.720358066106429e-06,1.8066519097169986e-05
2.951172658467186e-07,6.356757256048218e-07,2.691082026438624e-06,1.8262007143463625e-05
2.9496717644933893e-07,6.372350434842287e-07,2.6598715683119545e-06,1.8468233445914265e-05
2.9496613915182014e-07,6.388719417463107e-07,2.626856100308773e-06,1.868338815089783e-05
2.950971203800468e-07,6.405656631991721e-07,2.592162735015844e-06,1.8905577943317755e-05
2.9534296086536066e-07,6.422907056941086e-07,2.5559140664640897e-06,1.913282265204219e-05
2.95686504523634e-07,6.440212121199652e-07,2.5182260109544045e-06,1.936304588352797e-05
2.961109442517992e-07,6.457347230438159e-07,2.47921274803734e-06,1.959409846797388e-05
2.966012622311071e-07,6.474130200980162e-07,2.438994507659466e-06,1.98238035566538e-05
2.971457129125311e-07,6.490413068014513e-07,2.3976988051807256e-06,2.0050008941064512e-05
2.9773585104867576e-07,6.506067086304056e-07,2.3554545724125856e-06,2.0270648012296303e-05
2.9836566148298176e-07,6.520957868933731e-07,2.31238573818708e-06,2.048381138674064e-05
2.990303869708521e-07,6.534922843779923e-07,2.268610253245812e-06,2.068784952337769e-05
2.997254528673449e-07,6.547769809627711e-07,2.224244949648212e-06,2.088150061782703e-05
3.00447113529462e-07,6.559286880248096e-07,2.179409368175284e-06,2.106395043831702e-05
3.01194593884877e-07,6.569247780817361e-07,2.134223480476861e-06,2.1234740644569306e-05
3.019716919347423e-07,6.577420488297565e-07,2.08880212941249e-06,2.139357443284893e-05
3.0278680036123373e-07,6.583574792462251e-07,2.043250258334796e-06,2.1540149549168148e-05
3.0365066423853133e-07,6.587480323853526e-07,1.997661190327771e-06,2.167412152051099e-05
3.0457369141830466e-07,6.588909448053712e-07,1.9521197581753085e-06,2.1795182151007213e-05
3.055656054142031e-07,6.587646754277917e-07,1.9067071195902382e-06,2.190311904913559e-05
3.066351795501986e-07,6.583507016722196e-07,1.8615015009313488e-06,2.1997795262630068e-05
3.077881055566372e-07,6.576370257544363e-07,1.816577360800937e-06,2.20791126593318e-05
3.0902584148548086e-07,6.566201021384804e-07,1.7720098354744542e-06,2.2147004674554235e-05
3.103463507035129e-07,6.553021325816621e-07,1.7278839416655774e-06,2.2201503936692803e-05
3.1174524617690647e-07,6.536865328336601e-07,1.6843012977166441e-06,2.224287769422308e-05
3.132172740828496e-07,6.517753178044162e-07,1.6413784791706706e-06,2.227166135093348e-05
3.147579367183229e-07,6.495692051746919e-07,1.599237501090335e-06,2.2288507658246103e-05
3.1636384384945093e-07,6.47068781629775e-07,1.5579934211243719e-06,2.229404099676435e-05
3.180312402732162e-07,6.442745581124463e-07,1.517745613131441e-06,2.228893896913805e-05
3.197552821704178e-07,6.411864217186026e-07,1.4785781162779538e-06,2.2274220997027634e-05
3.215321165694357e-07,6.378049370555617e-07,1.4405689348658631e-06,2.2251471192902758e-05
3.23360811244843e-07,6.341358115722458e-07,1.4038029721519041e-06,2.2222787067972586e-05
3.252427656775925e-07,6.301941269398074e-07,1.3683799588441842e-06,2.2190540654707933e-05
3.271803077480731e-07,6.260024939796145e-07,1.3344099266902665e-06,2.2157126242128572e-05
3.291749433832997e-07,6.215852432825508e-07,1.301998898361899e-06,2.2124762010481892e-05
3.312249737488691e-07,6.16965278213801e-07,1.2712348177154538e-06,2.2095360010707e-05
3.3332516152744694e-07,6.121645929488292e-07,1.2421797031460159e-06,2.2070465585308466e-05
3.354702463933956e-07,6.072075244423852e-07,1.2148678572162522e-06,2.205124405748469e-05
3.3765845999293807e-07,6.021237389769283e-07,1.189307660051737e-06,2.203848219643223e-05
3.3989021615858913e-07,5.969455465793784e-07,1.1654845211578331e-06,2.2032590928235362e-05
3.421640087514122e-07,5.917021100492843e-07,1.1433639771960706e-06,2.203361828555918e-05
3.444745414680609e-07,5.864173655275437e-07,1.1228947644459122e-06,2.2041283070204417e-05
3.468136034238641e-07,5.811107295720275e-07,1.1040119266251059e-06,2.2055047631070432e-05
3.491714917989421e-07,5.757970526954153e-07,1.0866411112646794e-06,2.2074236148483325e-05
3.515372987880143e-07,5.704866040421598e-07,1.070703937503793e-06,2.209817261230712e-05
3.5389813529050305e-07,5.65186072274994e-07,1.0561216073506368e-06,2.212631787018185e-05
3.562389093047844e-07,5.598997733601093e-07,1.0428179444521543e-06,2.215836841121365e-05
3.585427533534866e-07,5.546320929621282e-07,1.0307282168407946e-06,2.219425580324384e-05
3.607912765331228e-07,5.493927994999894e-07,1.01981364713167e-06,2.2234058446837045e-05
3.629651102851226e-07,5.442009941855747e-07,1.0100722633436696e-06,2.22778973280459e-05
3.65044562562919e-07,5.390827701368992e-07,1.0015382767746906e-06,2.2325843802453014e-05
3.670096214635194e-07,5.340669054546609e-07,9.942681110883172e-07,2.2377840379101543e-05
3.688405975691092e-07,5.291842238689571e-07,9.883187446178978e-07,2.243366265174e-05
3.7052070978603677e-07,5.244690279996364e-07,9.837334657136451e-07,2.2492945584543657e-05
3.7203865825632037e-07,5.199598869400764e-07,9.805428586418473e-07,2.255524221153019e-05
3.7338874201956575e-07,5.156984901415317e-07,9.787702296701356e-07,2.262004161383145e-05
3.745696056810874e-07,5.11725190084346e-07,9.784313889158495e-07,2.268672774324526e-05
3.755838463108928e-07,5.080730749873503e-07,9.795303996619393e-07,2.2754567551792607e-05
3.7643768992385024e-07,5.047655303756722e-07,9.820556159911473e-07,2.2822781941194502e-05
3.7713924085248884e-07,5.0182015700923e-07,9.859810442566707e-07,2.2890616854073656e-05
3.7769662851391257e-07,4.992549956030195e-07,9.912751744897969e-07,2.2957336473675715e-05
3.7811730317305456e-07,4.970889785631674e-07,9.97908917238808e-07,2.302216290878426e-05
3.784078674456477e-07,4.953362159737401e-07,1.0058539434486072e-06,2.308423369046315e-05
3.7857383071802544e-07,4.940021264286772e-07,1.015074458121655e-06,2.314262289930042e-05
3.786190386619519e-07,4.930857607740294e-07,1.0255214037397266e-06,2.3196392961854628e-05
3.7854531289639146e-07,4.925851407906592e-07,1.0371375751925668e-06,2.324461652020188e-05
3.783527379344954e-07,4.925008061014974e-07,1.049874848529888e-06,2.328636352834852e-05
3.7803988514906813e-07,4.928356816221642e-07,1.063712548892856e-06,2.332067534054493e-05
3.776037654801821e-07,4.935917963244123e-07,1.0786649507513371e-06,2.334655723070232e-05
3.77040221186114e-07,4.947666732951913e-07,1.094774654315761e-06,2.336303750343613e-05
3.763449066833857e-07,4.963534562129229e-07,1.1120962276271407e-06,2.3369267002547214e-05
3.755141120912617e-07,4.983445767430137e-07,1.13067782271717e-06,2.3364550424531605e-05
3.7454484578324757e-07,5.007341735546524e-07,1.1505472670412324e-06,2.3348290580231336e-05
3.7343505702881024e-07,5.0351596440875e-07,1.1717058170255907e-06,2.33199544081924e-05
3.721854641502008e-07,5.06678549423418e-07,1.1941273965893892e-06,2.327910716337748e-05
3.708016713994079e-07,5.102027563863662e-07,1.2177582456914532e-06,2.3225440752881853e-05
3.692937185359214e-07,5.140623896286014e-07,1.2425161222814076e-06,2.3158756318715468e-05
3.676734409075346e-07,5.182260604364834e-07,1.268292690294458e-06,2.307893134727216e-05
3.6595227055290536e-07,5.22658303910637e-07,1.294960689900457e-06,2.29859171085903e-05
3.6414062907020594e-07,5.273209518476068e-07,1.3223816963991e-06,2.2879848839662133e-05
3.622483607744114e-07,5.321761997199585e-07,1.3504092911799976e-06,2.2761242517337783e-05
3.602859386665028e-07,5.3718947364911e-07,1.3788904149130964e-06,2.2631066124551802e-05
3.582664607669228e-07,5.423292073857317e-07,1.4076727002771498e-06,2.249060611975509e-05
3.562067193405086e-07,5.47564044969055e-07,1.4366180794851972e-06,2.234128090823656e-05
3.54125683633487e-07,5.528600221487224e-07,1.4656172696426202e-06,2.218450257687265e-05
3.5204206070571453e-07,5.581794626289829e-07,1.4946020748571346e-06,2.2021607255807574e-05
3.499733968283511e-07,5.634815348018565e-07,1.523551467442679e-06,2.185393879136674e-05
3.47936173429088e-07,5.68723954724744e-07,1.552486684308098e-06,2.168305875312718e-05
3.459452828890382e-07,5.73865790416356e-07,1.5814556590041418e-06,2.1510845711899588e-05
3.440132347186708e-07,5.7886990631709e-07,1.6105114732782254e-06,2.1339393285989448e-05
3.4215041361708854e-07,5.837039594547525e-07,1.6396918473615098e-06,2.117085460899877e-05
3.403671092137568e-07,5.883414656013319e-07,1.6690096565384687e-06,2.100732683517193e-05
3.38676112029232e-07,5.927634504642211e-07,1.6984604276095512e-06,2.0850756687746545e-05
3.3709298368698684e-07,5.969593798681804e-07,1.728037862160074e-06,2.070285111511105e-05
3.356335728095493e-07,6.009270556201714e-07,1.757741955351181e-06,2.056501581549623e-05
3.343113575197484e-07,6.046716918335406e-07,1.7875758354601392e-06,2.0438341543211922e-05
3.3313676757646664e-07,6.082041870974667e-07,1.817537972970737e-06,2.032361371788961e-05
3.321192358962079e-07,6.115382204300311e-07,1.84761469825388e-06,2.022130033434584e-05
3.312697476234289e-07,6.14686116853114e-07,1.8777735256042939e-06,2.013151885300909e-05
3.305999599554759e-07,6.176571158098622e-07,1.907958566511597e-06,2.0054040247644157e-05
3.301191593081037e-07,6.204618708145071e-07,1.9380896713585516e-06,1.9988362069548804e-05
3.298342940232682e-07,6.231194437481057e-07,1.968063892053777e-06,1.9933810293765805e-05
3.297525197583645e-07,6.256589097262293e-07,1.997757419280931e-06,1.9889624230977495e-05
3.2988126439413774e-07,6.281138028403404e-07,2.0270277994429004e-06,1.9855026081606024e-05
3.302259664289644e-07,6.305154729198996e-07,2.0557172034782347e-06,1.982928330117276e-05
3.3078853140720445e-07,6.328895554867396e-07,2.0836568665009803e-06,1.9811751885760576e-05
3.3156656598181164e-07,6.352539720505266e-07,2.1106711988164448e-06,1.980190442182693e-05
3.3255300345076535e-07,6.376183167732285e-07,2.136582002319542e-06,1.9799343059652844e-05
3.337366784355263e-07,6.39985526411386e-07,2.1612149797150427e-06,1.980376194338916e-05
3.351038158878394e-07,6.423540311706791e-07,2.184406744629556e-06,1.981485065312866e-05
3.366396373674737e-07,6.447195119466307e-07,2.206007270542389e-06,1.983218830475496e-05
3.383286475192124e-07,6.47076665734702e-07,2.225877384403478e-06,1.9855188026509874e-05
3.4015344735890225e-07,6.494197804174617e-07,2.243886270154729e-06,1.9883137171552413e-05
3.4209382748318447e-07,6.517413172680713e-07,2.2599104222820743e-06,1.991531145616596e-05
3.4412684652500875e-07,6.540309417533529e-07,2.273832459652101e-06,1.9951045481057735e-05
3.462271679477478e-07,6.562774406243385e-07,2.28554097558118e-06,1.9989688986527825e-05
3.483677412892017e-07,6.584719378855599e-07,2.294931997752747e-06,2.0030513625329127e-05
3.5052211834714645e-07,6.606090090506527e-07,2.301911016759026e-06,2.007265673686448e-05
3.526681187479163e-07,6.626845186299409e-07,2.306396726666252e-06,2.0115135372421148e-05
3.5478957631105063e-07,6.646925433922922e-07,2.3083278225214592e-06,2.015694651725265e-05
3.568750135367301e-07,6.666239347089692e-07,2.307669729845175e-06,2.0197235536744927e-05
3.589159513188453e-07,6.684659918658825e-07,2.304415457780728e-06,2.0235424652921105e-05
3.609055455100342e-07,6.702026337681085e-07,2.29857880101345e-06,2.027121557785033e-05
3.628369758709827e-07,6.718165324142042e-07,2.290185074151992e-06,2.0304533019732448e-05
3.64703392030391e-07,6.732927092336863e-07,2.2792672574899345e-06,2.0335488362603562e-05
3.66499308894625e-07,6.746197385179327e-07,2.265869076270176e-06,2.036433470996776e-05
3.6822181623453434e-07,6.757878503075865e-07,2.2500483749134704e-06,2.0391369349327614e-05
3.6987223833021477e-07,6.767873163973627e-07,2.2318762849132312e-06,2.041680706812831e-05
3.7145647136038645e-07,6.776082293396816e-07,2.2114333522325685e-06,2.0440722821571522e-05
3.729815681189465e-07,6.782414614318407e-07,2.1888043684618963e-06,2.046313888704132e-05
3.744522107138267e-07,6.786811663107973e-07,2.1640741452225853e-06,2.048419097046852e-05
3.758705454121805e-07,6.789269536041701e-07,2.1373259081452626e-06,2.0504240706095625e-05
3.77237523860309e-07,6.78982939082691e-07,2.108641242210176e-06,2.052388340861129e-05
3.785532590821632e-07,6.7885405227423e-07,2.078101132848235e-06,2.054389033831712e-05
3.7981661800198405e-07,6.785431349395144e-07,2.045790215001444e-06,2.056510417694437e-05
3.810260252230721e-07,6.780507338424772e-07,2.011804035111841e-06,2.058827667601108e-05
3.8218108631374007e-07,6.773768096921675e-07,1.9762535462508597e-06,2.061392505252465e-05
3.832828053651586e-07,6.765243290694082e-07,1.939262159630149e-06,2.0642298049048176e-05
3.843328071784007e-07,6.755042311729289e-07,1.9009588472582455e-06,2.0673402233574678e-05
3.853328019741441e-07,6.743390355245944e-07,1.861475237226112e-06,2.0707012838290225e-05
3.862845866655439e-07,6.730631459432117e-07,1.8209489806177312e-06,2.074268121949268e-05
3.8719116893006114e-07,6.717199522044224e-07,1.779527416777833e-06,2.077974920144083e-05
3.880580862234984e-07,6.703562201857789e-07,1.7373666492501304e-06,2.0817366670637345e-05
3.888927574468025e-07,6.690154405623109e-07,1.6946275199894834e-06,2.085455470582588e-05
3.897021777163129e-07,6.677342028106576e-07,1.6514711403233655e-06,2.0890322848415626e-05
3.904913003084489e-07,6.665445790998296e-07,1.608054575737619e-06,2.0923738947751234e-05
3.912627250953058e-07,6.65479260422975e-07,1.5645278864988575e-06,2.095389534560097e-05
3.920163288701533e-07,6.645722463698806e-07,1.5210342672299703e-06,2.0979867646216725e-05
3.9274878346203387e-07,6.638536246268352e-07,1.4777109830269492e-06,2.100072951389216e-05
3.9345413461137746e-07,6.63344137552419e-07,1.4346876953385853e-06,2.101557450212412e-05
3.941249652493757e-07,6.630534882197415e-07,1.392085050193432e-06,2.1023510131799858e-05
3.947531727079469e-07,6.629820253099695e-07,1.3500175935303472e-06,2.1023649086404144e-05
3.953304828861541e-07,6.63124717197577e-07,1.308597309687297e-06,2.1015136561328155e-05
3.958487712524332e-07,6.634754599005854e-07,1.2679316788995754e-06,2.099719041381271e-05
3.963000248694153e-07,6.640295152106853e-07,1.2281188860414543e-06,2.0969096625181254e-05
3.9667631684939273e-07,6.647848649794293e-07,1.1892479931328166e-06,2.093018085039929e-05
3.96970964518972e-07,6.657436437645952e-07,1.1514052683495802e-06,2.087981647972804e-05
3.971807448679603e-07,6.669119387671392e-07,1.1146816200508266e-06,2.081747367229761e-05
3.9730669758954344e-07,6.682973616897831e-07,1.0791762016366615e-06,2.074276632221192e-05
3.973522733247867e-07,6.699054354410529e-07,1.0449928928150191e-06,2.06554574084225e-05
3.973209345670757e-07,6.717355165332882e-07,1.0122302005698356e-06,2.0555432367547813e-05
3.972163111064624e-07,6.73778654011054e-07,9.809714500930552e-07,2.044272510428928e-05
3.9704496347443926e-07,6.760191485365224e-07,9.512839856874487e-07,2.031766259432758e-05
3.968177211926386e-07,6.784383460521582e-07,9.232276720774911e-07,2.0181005965620425e-05
3.965470301871549e-07,6.810174845610324e-07,8.968627017327456e-07,2.0033905724930927e-05
3.962433961905967e-07,6.837369838672652e-07,8.722480733307624e-07,1.9877703703326966e-05
3.9591412294241476e-07,6.865739340786832e-07,8.49432251452766e-07,1.9713726066892254e-05
3.955631318608718e-07,6.895019248315162e-07,8.284447067540525e-07,1.954318702617172e-05
3.9519067992587526e-07,6.924935346338641e-07,8.092942644546131e-07,1.9367351433835862e-05
3.94793822692419e-07,6.955230089443071e-07,7.919716535965895e-07,1.9187911902665068e-05
3.9436750345771903e-07,6.985673384010398e-07,7.764515709229534e-07,1.9007219847944648e-05
3.93905761088584e-07,7.016051962990224e-07,7.626937108532787e-07,1.882815530708007e-05
3.934034879956575e-07,7.046158901134229e-07,7.506448715777109e-07,1.8653817671796847e-05
3.9285810418369274e-07,7.075803421643877e-07,7.402429932794719e-07,1.8487252257560985e-05
3.92269739450216e-07,7.104817298106833e-07,7.314200302511254e-07,1.8331240240431336e-05
3.9164008408115726e-07,7.133040601279752e-07,7.241024544073791e-07,1.8188129968990563e-05
3.9097111443720387e-07,7.160315360937095e-07,7.182136455596084e-07,1.805972725010984e-05
3.902642374884048e-07,7.186510901784134e-07,7.13678210890134e-07,1.794726281102271e-05
3.89519655225448e-07,7.211548659798934e-07,7.104231617909784e-07,1.78514289761125e-05
3.887361024532252e-07,7.235387135804288e-07,7.083760510630966e-07,1.7772482096293125e-05
3.8791129392275406e-07,7.258010393692285e-07,7.07463766904179e-07,1.771039865149161e-05
3.870426612765771e-07,7.27946137059103e-07,7.076116448633766e-07,1.766502311440582e-05
3.8612759341652176e-07,7.299862816468045e-07,7.087408711125076e-07,1.7636155524935346e-05
3.851628594148857e-07,7.319392493435992e-07,7.107660443093437e-07,1.7623600409418947e-05
3.841440520663681e-07,7.33825414708724e-07,7.13595685686194e-07,1.7627214884521827e-05
3.8306654088362477e-07,7.356667674711075e-07,7.171349734896426e-07,1.764694681864815e-05
3.819276876323957e-07,7.374871144499177e-07,7.212905043783877e-07,1.7682835789052758e-05
3.8072827096458076e-07,7.393114581368697e-07,7.259780176200462e-07,1.7734972856954202e-05
3.794717073343001e-07,7.411624858245227e-07,7.311294257272705e-07,1.7803430950412328e-05
3.7816167254223743e-07,7.430560317889523e-07,7.366947252264954e-07,1.7888186809955856e-05
3.7680055444330246e-07,7.449990656794181e-07,7.426396376890197e-07,1.7989061498706498e-05
3.753902469974991e-07,7.469897229402774e-07,7.489408823884366e-07,1.8105673191976614e-05
3.7393356505653953e-07,7.490177219764019e-07,7.555793816932801e-07,1.8237377181669112e-05
3.724338744480261e-07,7.510658621802885e-07,7.625341880969252e-07,1.838322960115707e-05
3.708936278598834e-07,7.531120002146059e-07,7.697821645172727e-07,1.854204859289484e-05
3.693141255518776e-07,7.551304020661838e-07,7.773039735307576e-07,1.8712562931790226e-05
3.676967059272629e-07,7.57094467405827e-07,7.85090496183413e-07,1.889354518931072e-05
3.660437782234234e-07,7.589812152483377e-07,7.93144041478697e-07,1.908386455297586e-05
3.6435858282446434e-07,7.607743931898645e-07,8.014743779492382e-07,1.928248839876248e-05
3.6264412518719704e-07,7.624647851056431e-07,8.100928609817745e-07,1.948847309745684e-05
3.609023536737408e-07,7.640479463264098e-07,8.190063662189135e-07,1.9700952910837668e-05
3.591342339428811e-07,7.655203472537457e-07,8.282116325807705e-07,1.9919122625194338e-05
3.5734104606070683e-07,7.668764571360241e-07,8.376913780103034e-07,2.0142189767534404e-05
3.5552603919675023e-07,7.68107390694523e-07,8.474134393674759e-07,2.0369281117799613e-05
3.536955695493597e-07,7.692000017274795e-07,8.573338561808181e-07,2.0599344587299545e-05
3.518596019452463e-07,7.70136837049484e-07,8.674025496092279e-07,2.0831100484000062e-05
3.5003024262677685e-07,7.708973878282112e-07,8.775667458217453e-07,2.1063051808809065e-05
3.4821871884197503e-07,7.714605640571373e-07,8.877709957245735e-07,2.1293556957599938e-05
3.464338797714314e-07,7.718083722649774e-07,8.979602926740732e-07,2.1520975457646895e-05
3.446823599742443e-07,7.719285394847431e-07,9.080902987048643e-07,2.174382271284245e-05
3.4296846066842406e-07,7.718132783593877e-07,9.181388439326245e-07,2.196081898261943e-05
3.4129380111870773e-07,7.714553850975273e-07,9.281099580021956e-07,2.2170810156343853e-05
3.3965748038849804e-07,7.708456156184358e-07,9.380276760782587e-07,2.237264402006312e-05
3.380564565028975e-07,7.699732443934803e-07,9.479242296917568e-07,2.2565086349065906e-05
3.364857618612091e-07,7.688283031174203e-07,9.578293619328599e-07,2.274680551215219e-05
3.349391926814804e-07,7.674032418725694e-07,9.677648858667136e-07,2.291641481726345e-05
3.334110347488026e-07,7.656927138848913e-07,9.777455558733112e-07,2.307256377881368e-05
3.3189788259363197e-07,7.636919803955825e-07,9.877821380002172e-07,2.3214105868602884e-05
3.303991036795558e-07,7.613973912485134e-07,9.97880744310775e-07,2.3340371163259422e-05
3.289158137516045e-07,7.58810857308361e-07,1.0080418734460536e-06,2.345142400658676e-05
3.2744927826000906e-07,7.559437997156037e-07,1.0182665536487802e-06,2.3548075264359922e-05
3.259994909984371e-07,7.528152039440126e-07,1.0285649209958835e-06,2.3631627955305005e-05
3.245645090583233e-07,7.494457696142594e-07,1.0389558533496655e-06,2.370355982881182e-05
3.231409330341457e-07,7.458557251658294e-07,1.0494562294247678e-06,2.3765296437479158e-05
3.2172512980765727e-07,7.420690554027216e-07,1.0600697097769079e-06,2.381817130056054e-05
3.20314124737615e-07,7.381177575740042e-07,1.0707829708555175e-06,2.3863614802907645e-05
3.189056835984984e-07,7.340406535591356e-07,1.0815672246886914e-06,2.390339102239173e-05
3.174976145684629e-07,7.298792379050606e-07,1.0923807565635858e-06,2.393964312589245e-05
3.160864973005856e-07,7.256738144320281e-07,1.1031721264336806e-06,2.3974752318067426e-05
3.1466698263428914e-07,7.214603489755144e-07,1.1138826864411876e-06,2.4011153920467183e-05
3.132321055138289e-07,7.172696857349041e-07,1.124446728386895e-06,2.40511683677703e-05
3.1177362858776725e-07,7.131290167127463e-07,1.1347918892066263e-06,2.409684025769201e-05
3.1028225809616194e-07,7.090620130464418e-07,1.1448422806230335e-06,2.414980809479007e-05
3.0874862154722684e-07,7.05087910230851e-07,1.1545222308741891e-06,2.4211243653738586e-05
3.0716532871965863e-07,7.012227888987964e-07,1.1637588407444786e-06,2.4281856332760927e-05
3.0552876491962253e-07,6.974828615077389e-07,1.1724838422519517e-06,2.436192292044457e-05
3.038386968788288e-07,6.938879032433086e-07,1.1806336356585748e-06,2.445131392634816e-05
3.020963914593857e-07,6.904617886038753e-07,1.1881468820586036e-06,2.454951103232383e-05
3.003034227072886e-07,6.872277680420688e-07,1.194962639821573e-06,2.4655630489141795e-05
2.984612022160773e-07,6.842022172554244e-07,1.201022695752182e-06,2.4768479732598346e-05
2.9657059192365734e-07,6.813918890637412e-07,1.206278875955605e-06,2.488666092165323e-05
2.946319644518878e-07,6.787949823790421e-07,1.210700555258712e-06,2.5008702195696648e-05
2.9264594963663805e-07,6.764037860140028e-07,1.2142760172988094e-06,2.513318246231811e-05
2.90614374962252e-07,6.74206674097266e-07,1.21700792482325e-06,2.5258831586651144e-05
2.885405029342428e-07,6.721890894056259e-07,1.2189068028519705e-06,2.5384605287733875e-05
2.864286542644804e-07,6.703339130233631e-07,1.2199839735717218e-06,2.550971768964271e-05
2.842842599673605e-07,6.686205874453478e-07,1.2202463020471802e-06,2.56335944717359e-05
2.821143641774643e-07,6.670238798993656e-07,1.2196976766988994e-06,2.575575096526912e-05
