3.592334701856301e-07,1.347098185013661e-06,5.933789312121046e-07,1.2195031857293351e-05
3.622245534494174e-07,1.350849274818117e-06,6.038389835625025e-07,1.2202331730322347e-05
3.653179809415762e-07,1.3537199622285749e-06,6.144244237408579e-07,1.2230156073455075e-05
3.6852309752245975e-07,1.3556885814584906e-06,6.250901501314393e-07,1.2279096263919384e-05
3.718440395827693e-07,1.3567333734868886e-06,6.357921604839825e-07,1.2349402142508055e-05
3.752797627940512e-07,1.356833744193683e-06,6.464848488371985e-07,1.2440986168007405e-05
3.7882575615969146e-07,1.3559702819778327e-06,6.571189970979973e-07,1.2553433033270645e-05
3.824754008654641e-07,1.3541233242350186e-06,6.67642230153579e-07,1.2686007236176483e-05
3.8621974708230403e-07,1.3512735600386108e-06,6.780015545870021e-07,1.2837678795809652e-05
3.900462811259773e-07,1.3474055208253916e-06,6.881463143556521e-07,1.3007183071497912e-05
3.9393895930241096e-07,1.3425104276535805e-06,6.980307289390861e-07,1.3193101290532194e-05
3.978806085492025e-07,1.3365858829766178e-06,7.076151836644854e-07,1.3393952385372079e-05
4.018560370432901e-07,1.3296341289520998e-06,7.168652302507174e-07,1.3608275638402596e-05
4.058528396777422e-07,1.3216635126041335e-06,7.257491997328573e-07,1.3834668145973342e-05
4.098595119061112e-07,1.312696798807558e-06,7.342385402503091e-07,1.4071784170233362e-05
4.138636549357282e-07,1.302782446015264e-06,7.423123213810583e-07,1.4318332729088972e-05
4.1785265219755576e-07,1.2919986849141186e-06,7.499600215639085e-07,1.4573062210225082e-05
4.2181616628372593e-07,1.2804461582327382e-06,7.571781242483352e-07,1.483469966348787e-05
4.2574686972662174e-07,1.2682355757815187e-06,7.639652445599635e-07,1.5101870945749567e-05
4.29637765340806e-07,1.2554775099750522e-06,7.703223267235992e-07,1.5373054752298503e-05
4.334793851025616e-07,1.242275232616393e-06,7.762560881007275e-07,1.5646593630241706e-05
4.3726000479218576e-07,1.2287203801022869e-06,7.817795189844017e-07,1.5920770040722098e-05
4.4096770166737994e-07,1.2148916246590644e-06,7.869091284996986e-07,1.6193916359391432e-05
4.44591072977774e-07,1.2008544901663652e-06,7.916617770361667e-07,1.646448328156642e-05
4.4811851824172726e-07,1.1866619496297874e-06,7.960510839642281e-07,1.6731049036877613e-05
4.5153842885544594e-07,1.1723569846884008e-06,8.000851684888684e-07,1.6992323420224544e-05
4.5483927044115706e-07,1.1579755434340354e-06,8.037693120442057e-07,1.7247175639439034e-05
4.5800817139801543e-07,1.1435469032373468e-06,8.071118086326881e-07,1.749465471413697e-05
4.6103026082644426e-07,1.1290926219543227e-06,8.101284829276005e-07,1.7733943586553972e-05
4.638890949095906e-07,1.1146297636845622e-06,8.128448753508128e-07,1.7964243424141033e-05
4.6656631671500513e-07,1.1001804065662963e-06,8.152955656818209e-07,1.818468119245276e-05
4.690411416482731e-07,1.0857819154376236e-06,8.175184429720323e-07,1.8394320573591216e-05
4.712912248791728e-07,1.071491795792705e-06,8.195460375187933e-07,1.8592243895258767e-05
4.732951368591526e-07,1.0573860623515988e-06,8.214002268965556e-07,1.877764748647024e-05
4.7503463801400545e-07,1.043553786060875e-06,8.230921959134849e-07,1.894996488064091e-05
4.7649444343011997e-07,1.0300905345633191e-06,8.246237996192939e-07,1.9108994700649333e-05
4.776609883266699e-07,1.0170916788559262e-06,8.259882354642764e-07,1.925491606171144e-05
4.785243053843225e-07,1.0046454487138143e-06,8.271716339386724e-07,1.9388147525816102e-05
4.790824964088436e-07,9.928261522976106e-07,8.281553816941612e-07,1.9509136028601813e-05
4.793426581181922e-07,9.816912435124598e-07,8.289173716007039e-07,1.9618187107536097e-05
4.793163679541228e-07,9.712866565472602e-07,8.294328062190606e-07,1.9715399547021922e-05
4.790156969558604e-07,9.616574065875894e-07,8.296758979263294e-07,1.9800687467486312e-05
4.784532535210646e-07,9.528553630226931e-07,8.29622567660202e-07,1.987384292586175e-05
4.776431358694296e-07,9.44940089366346e-07,8.29253202747959e-07,1.993466289702659e-05
4.7660003107234543e-07,9.379728715571066e-07,8.285538491765212e-07,1.9983180580785004e-05
4.753373933344676e-07,9.320064455872579e-07,8.27515798253896e-07,2.0019881935085182e-05
4.7386655807452175e-07,9.270768791107077e-07,8.261344308561971e-07,2.0045721962833238e-05
4.7219705489306534e-07,9.232021330136528e-07,8.244068647605877e-07,2.0061955789583374e-05
4.7033727493562976e-07,9.203832602228723e-07,8.223303031593107e-07,2.006992532739517e-05
4.682956255977666e-07,9.186037451706721e-07,8.19904824284116e-07,2.007089751954005e-05
4.6608234111946963e-07,9.17828554736613e-07,8.171381654074273e-07,2.006608039079133e-05
4.637096587077589e-07,9.180049098702559e-07,8.140464119743833e-07,2.0056867030687882e-05
4.6118923885553997e-07,9.190653732092779e-07,8.106504324446584e-07,2.0045074124099303e-05
4.585303436326085e-07,9.209329487513521e-07,8.069717779790135e-07,2.0032935570565586e-05
4.557416410011324e-07,9.235256669466768e-07,8.030297679137224e-07,2.0022922025706214e-05
4.52833886992151e-07,9.267597658512407e-07,7.988409203515175e-07,2.001755300725826e-05
4.498192662756801e-07,9.305533433184445e-07,7.944215829492427e-07,2.0019244798005772e-05
4.4670831370345364e-07,9.348299713537464e-07,7.897920775891619e-07,2.0030190484755336e-05
4.435085203690358e-07,9.395200491245865e-07,7.849789146309091e-07,2.005227402638021e-05
4.402260581289761e-07,9.445598444256266e-07,7.80013307779084e-07,2.008701737540376e-05
4.368682596669254e-07,9.498884943882363e-07,7.749287585721531e-07,2.013556140162423e-05
4.334435835789528e-07,9.554436277546674e-07,7.697602046165888e-07,2.0198670389342294e-05
4.2995938870001537e-07,9.611594296854969e-07,7.645425879413612e-07,2.0276735799808456e-05
4.2642052679211883e-07,9.66968812192573e-07,7.59307916425937e-07,2.036976816967026e-05
4.2282966289926097e-07,9.728064940602968e-07,7.540832477652196e-07,2.047738815177888e-05
4.1918835899235295e-07,9.786115260844572e-07,7.488906163892613e-07,2.059883540451925e-05
4.154984147117677e-07,9.843288167661957e-07,7.437484545129874e-07,2.0733026993387837e-05
4.1176330830545354e-07,9.89907545857587e-07,7.386734825721157e-07,2.087868476268638e-05
4.079892554588974e-07,9.952978946106873e-07,7.336810784320739e-07,2.103448309388848e-05
4.0418517063115027e-07,1.000450885464196e-06,7.28784385779563e-07,2.1199134621341487e-05
4.00360936804844e-07,1.0053225454906723e-06,7.239938544053139e-07,2.137141058505337e-05
3.965250993867496e-07,1.0098784787636721e-06,7.19317556103719e-07,2.1550170447035865e-05
3.926844070522404e-07,1.0140951786082735e-06,7.147647866907523e-07,2.173441717998448e-05
3.88845294395521e-07,1.0179583672883623e-06,7.103545414491622e-07,2.1923314921158246e-05
3.850153413198687e-07,1.021461287614134e-06,7.06123147350838e-07,2.211614336945693e-05
3.8120350667045777e-07,1.0246047365226601e-06,7.021250583612483e-07,2.2312221707690197e-05
3.774195763904564e-07,1.0273962296847909e-06,6.984278836421894e-07,2.2510823238944878e-05
3.7367389451323524e-07,1.029845140425176e-06,6.951054761740217e-07,2.271110024793985e-05
3.6997706491874e-07,1.0319565683116129e-06,6.922303758227989e-07,2.291206110293223e-05
3.663390455024101e-07,1.033729499694193e-06,6.898659520095118e-07,2.3112590115967967e-05
3.6276825709297927e-07,1.0351611078690182e-06,6.880606715864753e-07,2.331145234733786e-05
3.5927124257097175e-07,1.0362544020316938e-06,6.868465879886219e-07,2.35072882588702e-05
3.558525472654985e-07,1.0370222755664323e-06,6.862405517367692e-07,2.369865176855736e-05
3.5251428944413814e-07,1.0374849364067035e-06,6.862456073597227e-07,2.388409383765874e-05
3.492561485813132e-07,1.0376713384449634e-06,6.868527938767621e-07,2.406222146265643e-05
3.4607677183977586e-07,1.037632185964736e-06,6.880439069172617e-07,2.4231673094752788e-05
3.4297525903392327e-07,1.0374530725787277e-06,6.89792953760236e-07,2.439105393723216e-05
3.399510595622932e-07,1.0372565096266308e-06,6.92065034545844e-07,2.453892334075208e-05
3.3700398356540186e-07,1.037193745887667e-06,6.948156463242065e-07,2.4673858216608286e-05
3.341362040876619e-07,1.037428592049207e-06,6.97993649927574e-07,2.4794557210720903e-05
3.313535339992424e-07,1.0381166754212374e-06,7.015468086762671e-07,2.489996091913161e-05
3.286632678925309e-07,1.0393882717350686e-06,7.054257813428123e-07,2.498934577370181e-05
3.260711930418599e-07,1.041341896918855e-06,7.095847931595706e-07,2.5062311016008e-05
3.2358085114564854e-07,1.0440497460159409e-06,7.139809398761403e-07,2.511865250605118e-05
3.211942142977157e-07,1.0475679639251659e-06,7.185734719886156e-07,2.515823406421321e-05
3.189123077628034e-07,1.0519421042726422e-06,7.23323160286174e-07,2.518095017807476e-05
3.167356926983538e-07,1.0572050184859282e-06,7.281928666976535e-07,2.518675903826626e-05
3.146647545675879e-07,1.0633708886402698e-06,7.33149086317935e-07,2.517571515840148e-05
3.126997742614477e-07,1.070430640785133e-06,7.381625017936344e-07,2.514795981491984e-05
3.108409575204874e-07,1.0783541167291602e-06,7.432077648335147e-07,2.510369782661701e-05
3.0908870497058237e-07,1.0871036469087971e-06,7.482633227250058e-07,2.5043291162583946e-05
3.0744382297001636e-07,1.0966600085735559e-06,7.53309541150586e-07,2.4967473121132864e-05
3.059066970749136e-07,1.107050228378415e-06,7.583256057302441e-07,2.4877431838053946e-05
3.04476297349374e-07,1.118358752802621e-06,7.632900755389788e-07,2.477465192318013e-05
3.0315048976892877e-07,1.1307152626554804e-06,7.681859237641451e-07,2.466067195681628e-05
3.019268437947484e-07,1.1442672743977189e-06,7.730039563636719e-07,2.453690444943305e-05
3.008029118348539e-07,1.1591489937289877e-06,7.777404043352264e-07,2.440464414041185e-05
2.997759434333737e-07,1.175459166272382e-06,7.823913553078041e-07,2.426532227921203e-05
2.9884228086010754e-07,1.193258358876934e-06,7.869487879649023e-07,2.412078751469696e-05
2.979968937884231e-07,1.212583329632317e-06,7.914010998236506e-07,2.3973345325524383e-05
2.972331891433888e-07,1.233464367278356e-06,7.95738304379475e-07,2.3825583907000374e-05
2.965436346284195e-07,1.2559339439148529e-06,7.999574989359117e-07,2.368016298812323e-05
2.959216281620788e-07,1.2800252396058454e-06,8.040622721368132e-07,2.3539653088654692e-05
2.953629266976529e-07,1.3057644959037277e-06,8.080556096447434e-07,2.340642498077772e-05
2.948650932311749e-07,1.3331621828165193e-06,8.119333323804814e-07,2.3282551603463862e-05
2.944264411717053e-07,1.3622082153851506e-06,8.156831888728706e-07,2.3169708931395706e-05
2.940466953454595e-07,1.392873328872536e-06,8.192872451595291e-07,2.306911273570789e-05
2.9372858135430733e-07,1.4251136874635652e-06,8.227245379115018e-07,2.2981516552494344e-05
2.934772411182335e-07,1.4588753910812024e-06,8.259737123244972e-07,2.290724050013907e-05
2.932971918160551e-07,1.4940974738151704e-06,8.29015542995052e-07,2.284619956308517e-05
2.931900471421369e-07,1.5307107039867218e-06,8.318346790119728e-07,2.2797950562998498e-05
2.931541985855156e-07,1.5686310588722016e-06,8.344187311653566e-07,2.2761770387025285e-05
2.931850524322825e-07,1.607751678741955e-06,8.367558674430852e-07,2.273674046106942e-05
2.932754663855562e-07,1.6479369530934015e-06,8.388356417519084e-07,2.2721832433076715e-05
2.934166028172837e-07,1.6890212711861597e-06,8.406515877835871e-07,2.2716009674279848e-05
2.935987223517391e-07,1.7308142230492264e-06,8.422003590325653e-07,2.271832427554351e-05
2.938115541180399e-07,1.7731089594474117e-06,8.434807338141315e-07,2.2727978016662893e-05
2.9404403761120816e-07,1.8156892388262059e-06,8.444989851415507e-07,2.274435078245126e-05
2.942837449500669e-07,1.8583351328237629e-06,8.452767699008264e-07,2.276700256486019e-05
2.945174493865078e-07,1.9008270649022167e-06,8.458536100908463e-07,2.279563874261933e-05
2.947330199729091e-07,1.942945325759346e-06,8.462840988173791e-07,2.283003860641545e-05
2.949202995621307e-07,1.9844663417833246e-06,8.466337158498196e-07,2.286995534974613e-05
2.9507027381136534e-07,2.0251616852127123e-06,8.469730547919276e-07,2.291501139698937e-05
2.951743570433018e-07,2.0648013642173745e-06,8.47369014813776e-07,2.296465937487646e-05
2.952244228502664e-07,2.1031576764726302e-06,8.478776972213054e-07,2.3018261830549452e-05
2.952131255118662e-07,2.140009013830276e-06,8.485454737198258e-07,2.3075212344367372e-05
2.951340690533601e-07,2.17514438305571e-06,8.494154478911764e-07,2.313497379739081e-05
2.9498147415083943e-07,2.2083661377619042e-06,8.505320486575906e-07,2.3197037535906243e-05
2.947500268926908e-07,2.2394903202649705e-06,8.519413583119109e-07,2.3260882748944526e-05
2.944355957267441e-07,2.268347446383361e-06,8.536874179174379e-07,2.332595331819751e-05
2.9403594637250647e-07,2.294785455709301e-06,8.558056255188295e-07,2.3391615768140782e-05
2.9355030131888123e-07,2.318674833760952e-06,8.583169433276179e-07,2.3457089820374302e-05
2.9297822302580987e-07,2.3399148882906145e-06,8.612261930619024e-07,2.35214059583626e-05
2.923188208702988e-07,2.3584388534246044e-06,8.64523771682444e-07,2.358344402264678e-05
2.9157059132849715e-07,2.3742147790474203e-06,8.681877584844431e-07,2.3642041241242397e-05
2.90732080423057e-07,2.387240050557049e-06,8.721854333221326e-07,2.369613368290856e-05
2.898029499725509e-07,2.397531133738954e-06,8.76476285994475e-07,2.374491612489277e-05
2.8878452202443173e-07,2.4051130899550356e-06,8.810162836351189e-07,2.3787975786385542e-05
2.87679222769567e-07,2.410011811001331e-06,8.857598311144974e-07,2.3825310184712035e-05
2.8648942095181196e-07,2.4122508376192247e-06,8.906583538363682e-07,2.3857188460705912e-05
2.8521729834500907e-07,2.4118541462405066e-06,8.956581017242555e-07,2.388392420909772e-05
2.838659485616491e-07,2.4088518403531417e-06,9.006998243195032e-07,2.390569452898011e-05
2.824402324795918e-07,2.403284247668684e-06,9.057206832690883e-07,2.3922494353103127e-05
2.809470959978625e-07,2.395203883032841e-06,9.106571546077772e-07,2.3934193287665633e-05
2.793957478729475e-07,2.3846746960943852e-06,9.154471430735531e-07,2.394059544552067e-05
2.7779736286954785e-07,2.3717676439375515e-06,9.200301190016544e-07,2.394146045813245e-05
2.7616410844549087e-07,2.3565582374392082e-06,9.24345952609074e-07,2.3936576731148755e-05
2.745081817752642e-07,2.339132800831024e-06,9.2833444321402e-07,2.3925940278130468e-05
2.728416424698372e-07,2.3195997949559827e-06,9.319369457235493e-07,2.3909868346185603e-05
2.7117668950934656e-07,2.2980967261876642e-06,9.350991069087809e-07,2.3888895122753743e-05
2.695253693589256e-07,2.274788735441739e-06,9.37772657363976e-07,2.38635468383698e-05
2.678985194685898e-07,2.2498612719409004e-06,9.399153003956728e-07,2.383418226751334e-05
2.6630473507947373e-07,2.2235093809786573e-06,9.414898712102706e-07,2.380104211963471e-05
2.647507667132073e-07,2.195925221026784e-06,9.424647710672407e-07,2.376454513090243e-05
2.632442627961877e-07,2.167288277332826e-06,9.428155091894224e-07,2.372562877079797e-05
2.617960487112765e-07,2.1377630513684458e-06,9.425259458534054e-07,2.368585045765528e-05
2.6041861741604163e-07,2.107501029943063e-06,9.41587671285537e-07,2.364721976711005e-05
2.5912332816066453e-07,2.0766393958390247e-06,9.399975574142535e-07,2.361193842190602e-05
2.579193230664102e-07,2.0452977805870016e-06,9.377564356468456e-07,2.358216859990629e-05
2.568134283253654e-07,2.013580051143296e-06,9.34869382680761e-07,2.3559848765152246e-05
2.5581084734724805e-07,1.981581423110465e-06,9.313462876559784e-07,2.3546555994377648e-05
2.54916422495224e-07,1.9493945375430924e-06,9.272047559942259e-07,2.3543427122928187e-05
2.5413494337215033e-07,1.9171089171689516e-06,9.22474906407385e-07,2.355114365911043e-05
2.5347122332311945e-07,1.8848060267396103e-06,9.172008991410722e-07,2.3569960510929166e-05
2.5293155178702717e-07,1.8525578117459891e-06,9.11437714770095e-07,2.359974418612339e-05
2.525244651940624e-07,1.820430678408184e-06,9.052454659282007e-07,2.363999623029152e-05
2.522588555078613e-07,1.788489685898333e-06,8.986834199395878e-07,2.3689886677652623e-05
2.5214152978142746e-07,1.7567998148738013e-06,8.918071261984315e-07,2.374833596352836e-05
2.5217614769024855e-07,1.7254258179012627e-06,8.846702921009022e-07,2.3814122456310706e-05
2.523634187062313e-07,1.6944319637687375e-06,8.773282681057726e-07,2.388597983608444e-05
2.5270279578456004e-07,1.6638801027058462e-06,8.698395842695916e-07,2.3962690303584106e-05
2.531951471949747e-07,1.633825071804891e-06,8.622649101978458e-07,2.404315936661101e-05
2.5384366619913185e-07,1.6043101582807853e-06,8.54663940111983e-07,2.4126439465248323e-05
2.546518529380359e-07,1.5753652595760858e-06,8.470921518492252e-07,2.421173179580256e-05
2.556213767569881e-07,1.5470077200810962e-06,8.396019057164841e-07,2.4298404841554808e-05
2.567520350859002e-07,1.5192457494144029e-06,8.322469976060131e-07,2.438598821230412e-05
2.580427210486113e-07,1.492083727009194e-06,8.250825176018454e-07,2.447410367176467e-05
2.594918484265289e-07,1.4655263329131712e-06,8.181583416562679e-07,2.45623736283906e-05
2.6109726265945125e-07,1.4395790767222763e-06,8.11513206176425e-07,2.46503450405483e-05
2.628564250079421e-07,1.4142459992903964e-06,8.051730783340189e-07,2.473744818392879e-05
2.6476667989443024e-07,1.3895266036283594e-06,7.991521242260293e-07,2.4823036869267966e-05
2.668249834635118e-07,1.365413721756322e-06,7.934547003599219e-07,2.490648208654916e-05
2.690272168084752e-07,1.3418934901723853e-06,7.880775910906818e-07,2.498720972681273e-05
2.7136750664097533e-07,1.3189467912357348e-06,7.830112326980843e-07,2.5064673389405512e-05
2.738388391967768e-07,1.2965503933734695e-06,7.782411087378239e-07,2.513833444030921e-05
2.764353568297774e-07,1.2746776465709257e-06,7.737511304876625e-07,2.520766343662201e-05
2.791534764636269e-07,1.2532994762590705e-06,7.695257409490701e-07,2.5272128391226285e-05
2.8198999363818715e-07,1.2323847028371515e-06,7.655479788896773e-07,2.533114611917265e-05
2.849395470500201e-07,1.2118994157653558e-06,7.61797212552391e-07,2.5384031008784173e-05
2.8799415726027604e-07,1.1918075835170321e-06,7.58249346292868e-07,2.5430004148188204e-05
2.91144799841487e-07,1.17207399652488e-06,7.548777868071307e-07,2.546826307416303e-05
2.9438362174344376e-07,1.1526694877507966e-06,7.516540355065958e-07,2.5498070635107096e-05
2.9770492926239033e-07,1.13357696616295e-06,7.485477029028066e-07,2.551885560748933e-05
3.011036401384326e-07,1.114793794307155e-06,7.455262808588437e-07,2.55303186209588e-05
3.045734976708889e-07,1.096329074913298e-06,7.425560985815613e-07,2.553247442910852e-05
3.081072791482592e-07,1.0781995430473572e-06,7.396043838451395e-07,2.5525569013876958e-05
3.1169684362252967e-07,1.0604255047031875e-06,7.366409105517925e-07,2.550991197018381e-05
3.153319736127688e-07,1.0430253335902324e-06,7.336390308232123e-07,2.5485724522134475e-05
3.1900029306838466e-07,1.0260101659283902e-06,7.30577151199597e-07,2.5453071755973723e-05
3.226889122798704e-07,1.0093828428302901e-06,7.274397967384952e-07,2.541188090266232e-05
3.2638580978931484e-07,9.931415499476602e-07,7.242166956326109e-07,2.5362002282752372e-05
3.3007957502144126e-07,9.77283565016366e-07,7.209018095534102e-07,2.5303268052109546e-05
3.337585225090245e-07,9.618049441237782e-07,7.174943154299849e-07,2.5235568934925408e-05
3.374104630374912e-07,9.466988356644896e-07,7.139992500617038e-07,2.5158995286584508e-05
3.4102334668101346e-07,9.3195873092887e-07,7.104248366337216e-07,2.507393946506179e-05
3.445864410321219e-07,9.175859264220771e-07,7.06778651676818e-07,2.498100827040166e-05
3.480903302307607e-07,9.035945127427073e-07,7.030678857223743e-07,2.4880816804484264e-05
3.515254007137281e-07,8.900120966402744e-07,6.993030545700228e-07,2.477385106963513e-05
3.5488107247706853e-07,8.768779488709992e-07,6.954990275897738e-07,2.466050468609736e-05
3.581460702814769e-07,8.642373672087711e-07,6.91671666883848e-07,2.454131407319111e-05
3.613087030735917e-07,8.521330181054064e-07,6.878337757433249e-07,2.4417257334714844e-05
3.643571641579674e-07,8.405980581432944e-07,6.839926213930421e-07,2.4289860855048027e-05
3.6727955774946023e-07,8.29653918423976e-07,6.801489840120197e-07,2.416104528178965e-05
3.7006344414126897e-07,8.193127070857195e-07,6.762979001075e-07,2.4032877740525227e-05
3.726954935653731e-07,8.095825231071634e-07,6.724305310135576e-07,2.390737032685741e-05
3.7516148569480283e-07,8.004722683926633e-07,6.685353733233906e-07,2.3786345549296915e-05
3.77446391500896e-07,7.919939780792159e-07,6.645980849262646e-07,2.367133933940149e-05
3.795351938777308e-07,7.841628459898276e-07,6.606010749571276e-07,2.3563517978203103e-05
3.8141477437800214e-07,7.769937539055561e-07,6.565243264051843e-07,2.346362123750436e-05
3.830751673577089e-07,7.704946131214795e-07,6.523478350743714e-07,2.337195341092901e-05
3.8450947246794635e-07,7.646618210260363e-07,6.480545577694216e-07,2.3288419374809227e-05
3.857138594197097e-07,7.59481421416509e-07,6.436329103933129e-07,2.321259313743175e-05
3.866877605379232e-07,7.549330807947786e-07,6.390791858248397e-07,2.314380421667785e-05
3.8743275231044017e-07,7.509927647971875e-07,6.343989018413188e-07,2.3081220068830155e-05
3.879506788296726e-07,7.476335508038084e-07,6.296047236303127e-07,2.302392415444906e-05
3.8824351583871993e-07,7.448252922729198e-07,6.247115930872245e-07,2.297101035656064e-05
3.8831491352115814e-07,7.425333092411182e-07,6.197330928238427e-07,2.2921683502630545e-05
3.881705217898856e-07,7.40717597213457e-07,6.146820019097488e-07,2.2875318132304446e-05
3.8781732113277004e-07,7.393339037475241e-07,6.095734468409356e-07,2.2831452221317083e-05
3.8726482612297703e-07,7.383360114056144e-07,6.044271678711992e-07,2.2789749633398824e-05
3.8652599855388866e-07,7.376780531351329e-07,5.992684458938186e-07,2.2749962102820926e-05
3.856148946735152e-07,7.373165675812841e-07,5.941288314736176e-07,2.2711877839629638e-05
3.8454408485492504e-07,7.372124230640706e-07,5.890452858461103e-07,2.267525560249788e-05
3.833241768074957e-07,7.373317405901269e-07,5.840561236900978e-07,2.263977313164408e-05
3.819639134516657e-07,7.376452277021856e-07,5.791965105178035e-07,2.260500083315531e-05
3.804698133161553e-07,7.381273791713828e-07,5.744966847813e-07,2.257041615598872e-05
3.788457150476863e-07,7.38757580922643e-07,5.69981648949824e-07,2.253549753942582e-05
3.7709266499065953e-07,7.395215200426985e-07,5.65671787958384e-07,2.2499853370653682e-05
3.752092333120197e-07,7.404080867425263e-07,5.615875641608841e-07,2.2463254044057002e-05
3.7319233393106885e-07,7.414040319963875e-07,5.577573278863674e-07,2.242554051692021e-05
3.710381633342343e-07,7.424950956534684e-07,5.542204992211632e-07,2.2386530238335795e-05
3.6874304140358227e-07,7.436732273453171e-07,5.510228068354943e-07,2.2346010554028506e-05
3.66305210675776e-07,7.449409190163797e-07,5.482088209123996e-07,2.2303776107129928e-05
3.637271051494953e-07,7.463090387194826e-07,5.458169814241978e-07,2.2259612167767827e-05
3.6101597260117675e-07,7.477910781403427e-07,5.438802174258096e-07,2.2213214117443765e-05
3.5818403709233186e-07,7.493973031966469e-07,5.42432032575525e-07,2.2164128902142866e-05
3.552496434502194e-07,7.511325419609524e-07,5.415119843368007e-07,2.211177937622916e-05
3.522364075940249e-07,7.529996475390093e-07,5.411660884762485e-07,2.2055570111169192e-05
3.491693122592673e-07,7.550056180056431e-07,5.414444360735348e-07,2.199504921999689e-05
3.460712432157437e-07,7.571659484846225e-07,5.423986280924106e-07,2.193007213050817e-05
3.4296193308433427e-07,7.59505402274583e-07,5.440766894231782e-07,2.1860867412443092e-05
3.398583800584993e-07,7.620543600526388e-07,5.465159919933751e-07,2.178793603091682e-05
3.367755090331934e-07,7.648414195507395e-07,5.497425931204574e-07,2.171184592511856e-05
3.3372655523490204e-07,7.678874005509431e-07,5.537792369218015e-07,2.163305476551796e-05
3.307234257879954e-07,7.712043582910434e-07,5.586542799313154e-07,2.155183938479109e-05
3.277767819888818e-07,7.747957604140321e-07,5.644063333922075e-07,2.1468325710038698e-05
3.2489513790650053e-07,7.786554961280443e-07,5.710822695806299e-07,2.138254998707132e-05
3.2208400206692e-07,7.82769242271691e-07,5.787272134510574e-07,2.1294486842071038e-05
3.193464067004605e-07,7.871190218932551e-07,5.873718896084065e-07,2.1204103011295334e-05
3.166840485436321e-07,7.916872304576963e-07,5.970263409370922e-07,2.1111533434954108e-05
3.140974254945789e-07,7.964564316126431e-07,6.076831460494219e-07,2.101725549488236e-05
3.1158508926335395e-07,8.014048911799995e-07,6.193256328845345e-07,2.09220557033668e-05
3.091436630336464e-07,8.065026688415211e-07,6.319344470009387e-07,2.0826842687456213e-05
3.067686742121912e-07,8.11713081659305e-07,6.454882895272451e-07,2.0732469859981005e-05
3.044552164158409e-07,8.16998675050272e-07,6.599594403871194e-07,2.0639641936531424e-05
3.021986713276153e-07,8.223260645061181e-07,6.75309517175267e-07,2.054901596862242e-05
2.9999550048469054e-07,8.276663969549046e-07,6.914898758917986e-07,2.046149597435192e-05
2.978438660588464e-07,8.329937806949319e-07,7.084460393163002e-07,2.0378432526044545e-05
2.957440518104097e-07,8.382840833275635e-07,7.261244445529972e-07,2.0301540290219808e-05
2.936975133072425e-07,8.43514534383702e-07,7.444796751687659e-07,2.0232685505983824e-05
2.917044869498844e-07,8.486641264597958e-07,7.634778268332864e-07,2.0173709387736268e-05
2.897624632475316e-07,8.53712693682347e-07,7.830921495255943e-07,2.0126296787931755e-05
2.878662964061067e-07,8.586375138625573e-07,8.032927276872604e-07,2.009187100856525e-05
2.860093134001607e-07,8.634110787437969e-07,8.240371592704794e-07,2.007151598582444e-05
2.841861079969068e-07,8.680032341292055e-07,8.45267113146691e-07,2.006593163576109e-05
2.823956569901421e-07,8.723845094087481e-07,8.669099031270668e-07,2.007543295832964e-05
2.806410427625537e-07,8.765255776291166e-07,8.888822005406578e-07,2.0099983914277217e-05
2.789264583509949e-07,8.803942284523399e-07,9.110924314220608e-07,2.0139225157856333e-05
2.772552589385448e-07,8.839543489592882e-07,9.334405733033527e-07,2.0192473479201375e-05
2.7562959463094764e-07,8.871670791345104e-07,9.55819407966592e-07,2.0258729073560643e-05
2.740507058327447e-07,8.899929186538799e-07,9.78119961887683e-07,2.033673696899076e-05
2.725195927542016e-07,8.923957637383492e-07,1.0002376692137188e-06,2.042510103083686e-05
2.710369490266109e-07,8.943485766296629e-07,1.022074615655731e-06,2.052240820284388e-05
2.696021222835672e-07,8.958369252747849e-07,1.043537656514295e-06,2.0627312890580772e-05
2.6821272451776125e-07,8.968573408499649e-07,1.0645373667975494e-06,2.0738558049055856e-05
2.668657345698592e-07,8.974120609027958e-07,1.084990165536686e-06,2.085496925610957e-05
2.6555884295406783e-07,8.975041913215864e-07,1.104818211844823e-06,2.097546893072508e-05
2.6429059559986575e-07,8.971367487483743e-07,1.123945035845784e-06,2.109908617366573e-05
2.6305957792483676e-07,8.963155271407101e-07,1.142293587931282e-06,2.1224919293981927e-05
2.6186372513497486e-07,8.950515711549284e-07,1.1597885900085718e-06,2.1352070955085752e-05
2.607006247417323e-07,8.933605938195221e-07,1.1763576176219364e-06,2.1479587670317925e-05
2.5956919312875073e-07,8.912614819820051e-07,1.1919305501572297e-06,2.160641927315312e-05
2.58471476241328e-07,8.887772569357449e-07,1.2064409377316948e-06,2.173144430342716e-05
2.5741244235599253e-07,8.859364416262666e-07,1.2198290134004872e-06,2.185356796847373e-05
2.5639768098937487e-07,8.827699466810404e-07,1.2320458730589949e-06,2.197179783937592e-05
2.554309676147844e-07,8.793070182680576e-07,1.2430591560337874e-06,2.2085240086616765e-05
2.5451388111702e-07,8.755767397149052e-07,1.25285807242105e-06,2.21930720158804e-05
2.536482479334897e-07,8.716123003570291e-07,1.2614548839246176e-06,2.2294541630094413e-05
2.5283858054819286e-07,8.674520100395767e-07,1.268881200598043e-06,2.238897142269326e-05
2.52091199794418e-07,8.631360120356213e-07,1.2751792932409132e-06,2.2475721793278905e-05
2.514112746479932e-07,8.587015133287065e-07,1.2803926323827882e-06,2.255412579460448e-05
2.508010553313352e-07,8.541810648126366e-07,1.2845627767474323e-06,2.262346435432376e-05
2.5026063654527386e-07,8.496047382231326e-07,1.2877338653474551e-06,2.268301850156881e-05
2.497898920934669e-07,8.450010991233623e-07,1.2899568696720409e-06,2.273217137413985e-05
2.4938935100818055e-07,8.403952731065677e-07,1.291287416646872e-06,2.27705321446279e-05
2.490601047247182e-07,8.358083188380813e-07,1.2917795942802323e-06,2.279805930074151e-05
2.488035841357739e-07,8.312587987665399e-07,1.2914808147269212e-06,2.2815104577277913e-05
2.486213928757344e-07,8.26762970198843e-07,1.2904294130461934e-06,2.2822302364601543e-05
2.485157011076657e-07,8.223328914193709e-07,1.28865434298215e-06,2.2820359524776454e-05
2.4848896443928036e-07,8.179763461153481e-07,1.2861765240416586e-06,2.280988356304328e-05
2.485420946006085e-07,8.136993825148531e-07,1.283010511327936e-06,2.279132373024787e-05
2.486734912079494e-07,8.095071375153616e-07,1.2791648371968193e-06,2.276499032776713e-05
2.48880279326522e-07,8.054030339785932e-07,1.2746426519010091e-06,2.2731080217471656e-05
2.4915935867360675e-07,8.013896770599076e-07,1.2694454026225383e-06,2.2689681972006813e-05
2.495065944823661e-07,7.974709524899177e-07,1.2635776180319543e-06,2.2640817175631382e-05
2.4991634120669014e-07,7.936554322189487e-07,1.2570482537062298e-06,2.2584612175384938e-05
2.5038287289748465e-07,7.899615665003791e-07,1.249869373224302e-06,2.252152628693707e-05
2.5090199275335923e-07,7.864216950802997e-07,1.242058718732453e-06,2.2452396207664003e-05
2.5147145880568287e-07,7.830821557946169e-07,1.2336492013817198e-06,2.237824902880645e-05
2.5209112579789226e-07,7.799983986391836e-07,1.2247001538715371e-06,2.2300069383138374e-05
2.5276319504016317e-07,7.772258531864613e-07,1.215302335402539e-06,2.221868659661383e-05
2.534910717327836e-07,7.748107051883623e-07,1.2055719018553495e-06,2.2134886805226568e-05
2.5427726340272197e-07,7.727862315201084e-07,1.195635206213556e-06,2.2049698772177035e-05
2.551225865156777e-07,7.711755855196169e-07,1.185612771395799e-06,2.1964579221313645e-05
2.5602658869931644e-07,7.699950447974456e-07,1.1756111923324928e-06,2.1881339595892232e-05
2.569880615687006e-07,7.692553294517363e-07,1.165723650415202e-06,2.1801955578701555e-05
2.580057314258231e-07,7.68964474656389e-07,1.1560325698395781e-06,2.1728407254935612e-05
2.5907934301091573e-07,7.691307541299511e-07,1.1466120141762594e-06,2.1662549404618452e-05
2.60210820690007e-07,7.697610160393793e-07,1.137531757081715e-06,2.1605996936717824e-05
2.614045390180072e-07,7.708558794736784e-07,1.1288601292312629e-06,2.1560045944687908e-05
2.6266571621631896e-07,7.724092481384907e-07,1.1206612660433296e-06,2.152564321226392e-05
2.639979413823941e-07,7.744168831501782e-07,1.1129889733650376e-06,2.1503402486047682e-05
2.65401577308087e-07,7.768876376729499e-07,1.105882854328038e-06,2.149364223279596e-05
2.668731098043673e-07,7.798465080094127e-07,1.0993689471046e-06,2.149639384336063e-05
2.684059278124553e-07,7.833278274327548e-07,1.0934631743188236e-06,2.151136620284397e-05
2.6999329181160693e-07,7.873650476266279e-07,1.0881747012332892e-06,2.153792513023313e-05
2.716313283164247e-07,7.91983121632947e-07,1.0835066149901956e-06,2.1575143902447395e-05
2.733191621435607e-07,7.971953521044138e-07,1.0794530528576087e-06,2.162191499409529e-05
2.750563457162169e-07,8.030020391538859e-07,1.075995450536338e-06,2.1677075331659038e-05
2.768407669093683e-07,8.093884647068416e-07,1.0731015526527948e-06,2.173949863252085e-05
2.7867055362739893e-07,8.163236161810416e-07,1.0707267257121227e-06,2.1808133809930247e-05
2.805479865862815e-07,8.23761581439717e-07,1.0688152474462449e-06,2.1882016789241148e-05
2.824794413023844e-07,8.316455071210668e-07,1.0673018144872514e-06,2.1960292860301253e-05
2.844719010364503e-07,8.399124578248326e-07,1.0661138309277391e-06,2.2042232462441027e-05
2.865311675714471e-07,8.484964856438631e-07,1.0651740646580886e-06,2.212719986475102e-05
2.886619107032527e-07,8.573285531224644e-07,1.064403922497941e-06,2.221458140524549e-05
2.908669414107805e-07,8.66335949109012e-07,1.0637263534130908e-06,2.2303712180476528e-05
2.931459490845618e-07,8.754443469213663e-07,1.0630661211802612e-06,2.239382484019341e-05
2.9549596197232525e-07,8.845810727458872e-07,1.0623482985528091e-06,2.2484047857176515e-05
2.979138268845385e-07,8.936760988989506e-07,1.0614978918522843e-06,2.257347833101709e-05
3.0039763311504e-07,9.026602441038362e-07,1.0604410442527964e-06,2.266127084871932e-05
3.0294518826182044e-07,9.114630530116451e-07,1.0591070744276398e-06,2.274665144264934e-05
3.0555177316761787e-07,9.200124142332285e-07,1.0574311323376859e-06,2.2828872390027936e-05
3.0820913621547525e-07,9.282354437319157e-07,1.0553571004304009e-06,2.290717780567217e-05
3.1090508441778326e-07,9.360601487884809e-07,1.0528407952678271e-06,2.2980795178751072e-05
3.1362342590107043e-07,9.434203576671821e-07,1.0498520001059505e-06,2.3048959318626995e-05
3.163448465794825e-07,9.502641333887005e-07,1.0463726580018105e-06,2.311098745193363e-05
3.19048539561208e-07,9.565578339453041e-07,1.0423934023145425e-06,2.3166353220938682e-05
3.217136469244697e-07,9.622798177217564e-07,1.037914352799472e-06,2.321469215381575e-05
3.24319899366316e-07,9.67411010348136e-07,1.0329509285219442e-06,2.325575933567207e-05
3.268486063351536e-07,9.719326336037385e-07,1.027538148716195e-06,2.328937390483705e-05
3.2928507170811845e-07,9.758303702722606e-07,1.0217280131252363e-06,2.331535462894744e-05
3.31620026409978e-07,9.79097829513088e-07,1.0155827550098835e-06,2.3333453873229322e-05
3.338474648888772e-07,9.817354839897488e-07,1.0091697080061345e-06,2.3343304548349484e-05
3.359612264504844e-07,9.837459473825278e-07,1.002557990059368e-06,2.3344419219121906e-05
3.3795382062637765e-07,9.851293610388257e-07,9.958151502651285e-07,2.3336274849267635e-05
3.398167069355624e-07,9.858817327493522e-07,9.890043032087782e-07,2.331844589658208e-05
3.4154048142493125e-07,9.859960899559945e-07,9.821811143087996e-07,2.329069323496228e-05
3.4311616950002165e-07,9.85465552003383e-07,9.75390495024515e-07,2.325295498652385e-05
3.4453746185956696e-07,9.842865612347045e-07,9.686661367412094e-07,2.320526499139083e-05
3.4580170493220547e-07,9.824609196033927e-07,9.620335162231359e-07,2.314767252425853e-05
3.4690936334035287e-07,9.799969475531989e-07,9.555128895059208e-07,2.3080231644237398e-05
3.478626403428468e-07,9.76908446866779e-07,9.491202277872076e-07,2.3003034569475737e-05
3.4866412815319363e-07,9.732111195580086e-07,9.428659834416952e-07,2.291621994971039e-05
3.493164367664373e-07,9.68919870856086e-07,9.367530139471378e-07,2.2819947839978047e-05
3.498217241988911e-07,9.640481735227823e-07,9.307774286283207e-07,2.2714357695109656e-05
3.501807629204973e-07,9.586076091149498e-07,9.24933529129752e-07,2.2599534068784838e-05
3.503931406781498e-07,9.526080324561159e-07,9.192190930569992e-07,2.2475494359088324e-05
3.504579617491168e-07,9.460603073348393e-07,9.136378663484766e-07,2.2342193434888787e-05
3.503736605483585e-07,9.389807794393406e-07,9.081994581073664e-07,2.2199547710095192e-05
3.5013811219680616e-07,9.31393387490621e-07,9.029167641737724e-07,2.2047457721386412e-05
3.497499424921072e-07,9.233268166031612e-07,8.97800442083967e-07,2.1885805899121343e-05
3.49209974173339e-07,9.148098693956993e-07,8.928538011488664e-07,2.1714448527760915e-05
3.48521321008347e-07,9.05870761815352e-07,8.880725552805255e-07,2.153322588894025e-05
3.4768761428122737e-07,8.965421101413097e-07,8.834476086042423e-07,2.134197795064364e-05
3.467110720271668e-07,8.868660106951662e-07,8.789659905988926e-07,2.114054414405373e-05
3.455923175330501e-07,8.768916539990162e-07,8.746095879046097e-07,2.092876518732452e-05
3.443310547130362e-07,8.666674949039551e-07,8.703546103949121e-07,2.0706516866551168e-05
3.429263030716311e-07,8.562364114955304e-07,8.661727364859465e-07,2.0473752875176968e-05
3.413772685415676e-07,8.45635270549907e-07,8.620332363186828e-07,2.0230502596189816e-05
3.3968553724797763e-07,8.348951627937841e-07,8.579063220415724e-07,1.9976832782261265e-05
3.378566506443996e-07,8.240420180926398e-07,8.53766408176797e-07,1.971283297225491e-05
3.358992489679557e-07,8.130988282056045e-07,8.49591910226806e-07,1.9438624468461247e-05
3.3382331273803485e-07,8.020876869267237e-07,8.453626353129442e-07,1.9154356834245464e-05
3.316398235205873e-07,7.910291661071542e-07,8.41060845225411e-07,1.8860206678870472e-05
3.293608582689015e-07,7.799402583665776e-07,8.366773124034181e-07,1.85564006182366e-05
3.26998813058913e-07,7.688338332713666e-07,8.322151795027605e-07,1.8243249864820875e-05
3.2456560326925995e-07,7.577194468003614e-07,8.276863115960732e-07,1.7921185795140757e-05
3.220720262844106e-07,7.46603895824743e-07,8.231037073310364e-07,1.7590793044043672e-05
3.1952708841946175e-07,7.354915561221181e-07,8.184757800023327e-07,1.7252823767537975e-05
3.169378223848449e-07,7.243847002895207e-07,8.138042340637364e-07,1.690816975753037e-05
3.1430974167664425e-07,7.132841801137764e-07,8.090845533878327e-07,1.6557792241385204e-05
3.1164838075544424e-07,7.021915060884936e-07,8.043075688072139e-07,1.6202652422719272e-05
3.089620447718205e-07,6.911113288870279e-07,7.994610703865124e-07,1.5843702991302307e-05
3.062640924513455e-07,6.800519609808764e-07,7.94532470031182e-07,1.5481956644919e-05
3.035734709882303e-07,6.690256714455511e-07,7.895135775487655e-07,1.5118551212305106e-05
3.009144998106173e-07,6.580525092805825e-07,7.844047262365516e-07,1.4754716881533594e-05
2.983165356060778e-07,6.471633680310859e-07,7.792144192903256e-07,1.4391686293844315e-05
2.958114424918169e-07,6.363953733480554e-07,7.739548620606159e-07,1.4030648182704541e-05
2.934289099254884e-07,6.257837648929503e-07,7.686368651862258e-07,1.3672766590352648e-05
2.911939350309348e-07,6.153584341286459e-07,7.63267725900303e-07,1.3319256815485425e-05
2.891274880170462e-07,6.051456890992925e-07,7.578540836894815e-07,1.297148877338563e-05
2.872471021159483e-07,5.951710681109468e-07,7.524075852402444e-07,1.263102548998126e-05
2.855667765712002e-07,5.854595242870127e-07,7.46948169106892e-07,1.229953604993998e-05
2.840977501280352e-07,5.760332785148332e-07,7.415023505891996e-07,1.1978634657764454e-05
2.8284956347585567e-07,5.669103753574437e-07,7.360988680207137e-07,1.1669744074926393e-05
2.818297903431561e-07,5.581041641633618e-07,7.307656195641795e-07,1.1374061141158674e-05
2.81042624857759e-07,5.496232350511753e-07,7.255282765590406e-07,1.1092657469602303e-05
2.804877174389309e-07,5.41473691687303e-07,7.204084294911655e-07,1.0826649688901206e-05
2.8015981235713317e-07,5.33662985870559e-07,7.154224694609744e-07,1.0577300308519555e-05
2.800491871737209e-07,5.262018482570502e-07,7.105831422046828e-07,1.0345984131977583e-05
2.8014293925683605e-07,5.191034996738848e-07,7.059022227561281e-07,1.0134078157769556e-05
2.80426193554546e-07,5.123821804061775e-07,7.013941834129756e-07,9.942861165175173e-06
2.808825077207511e-07,5.060540397196293e-07,6.970817212816758e-07,9.773457490931441e-06
2.814945083226809e-07,5.001407004113451e-07,6.929994312002073e-07,9.626802385452867e-06
2.82245070959093e-07,4.946718626050885e-07,6.891920482433834e-07,9.503614297105199e-06
2.831176707319065e-07,4.896848347593207e-07,6.85709080774104e-07,9.40442566582092e-06
2.840955845581306e-07,4.852208180600926e-07,6.825983813456791e-07,9.329729581862043e-06
2.851610504787493e-07,4.81318294467287e-07,6.79901156493216e-07,9.28015653141688e-06
2.862949267306107e-07,4.780070441954168e-07,6.776527811563172e-07,9.256485390658693e-06
2.874769044715875e-07,4.7530591370834246e-07,6.758881426765189e-07,9.259452117664427e-06
2.886867686793055e-07,4.732233056809306e-07,6.746442410519901e-07,9.289521348472498e-06
2.8990636263498287e-07,4.7175917497189217e-07,6.739581040673213e-07,9.346764953684983e-06
2.9112066729184453e-07,4.7090729990314493e-07,6.738641532596353e-07,9.430924631224213e-06
2.923171208645518e-07,4.706552474673334e-07,6.743928755281517e-07,9.541680562495396e-06
2.9348463334458907e-07,4.709831939226967e-07,6.75568420243214e-07,9.678955520315919e-06
2.9461462718822736e-07,4.718655876978215e-07,6.774040091879659e-07,9.84300348806883e-06
2.9570307877231784e-07,4.732759531596697e-07,6.798985091303958e-07,1.0034282990457474e-05
2.9675063031085354e-07,4.751922294520649e-07,6.830371255136725e-07,1.0253297004715467e-05
2.977611404386231e-07,4.776001909157843e-07,6.867956274689996e-07,1.0500473057108698e-05
2.987402536205995e-07,4.804934488803704e-07,6.911458577998304e-07,1.0776056450789667e-05
2.996938035311937e-07,4.838702193190693e-07,6.96059851597384e-07,1.108001491321754e-05
3.006265249502087e-07,4.877282725524764e-07,7.015116962574227e-07,1.1411988353216816e-05
3.01541903597934e-07,4.920600797708074e-07,7.074770980150239e-07,1.1771302932862456e-05
3.0244246762408234e-07,4.968500608232563e-07,7.139299824089517e-07,1.2157016830481293e-05
3.033302342526637e-07,5.020742799484945e-07,7.208403442253747e-07,1.2567934309679296e-05
3.042074772419576e-07,5.07701559161953e-07,7.281784307600769e-07,1.3002564582079593e-05
3.050772199477943e-07,5.13695054324925e-07,7.359202894070141e-07,1.3459068651468275e-05
3.059434461745779e-07,5.20013617728131e-07,7.440479866167631e-07,1.3935246580434744e-05
3.068109823003201e-07,5.26612806361494e-07,7.525475347758955e-07,1.4428591097831567e-05
3.076847132617574e-07,5.334460064011678e-07,7.614086797529821e-07,1.4936414703484256e-05
3.085693451761348e-07,5.404657786191946e-07,7.706249266671256e-07,1.5456016333725905e-05
3.094704360172671e-07,5.476257593252879e-07,7.80191909512872e-07,1.5984810900190445e-05
3.1039526037571193e-07,5.548847718744241e-07,7.901037556142764e-07,1.6520379734905546e-05
3.113529084778601e-07,5.622139587905061e-07,8.003489400992939e-07,1.7060474138040396e-05
3.123540650061481e-07,5.696030281083153e-07,8.109099537487809e-07,1.7602994533637758e-05
3.134101308649314e-07,5.770591317006449e-07,8.217686969862919e-07,1.814593234573543e-05
3.145319311405294e-07,5.845981329081384e-07,8.329125920438712e-07,1.8687301976742388e-05
3.157285960859699e-07,5.922360744098727e-07,8.443338756174552e-07,1.922510527763964e-05
3.1700709657796177e-07,5.999865568200982e-07,8.560212629488504e-07,1.975732004814564e-05
3.1837354036089283e-07,6.078617680006734e-07,8.679511755041622e-07,2.028188533704316e-05
3.198350238134008e-07,6.158725024994216e-07,8.800849158011137e-07,2.0796686078329638e-05
3.2139931246670287e-07,6.240258474822221e-07,8.92371656360663e-07,2.129955043111162e-05
3.2307312455533444e-07,6.323225473763856e-07,9.047526910665e-07,2.178825332978036e-05
3.248613907787809e-07,6.407555894921932e-07,9.171639441961695e-07,2.226052860519412e-05
3.2676704680425226e-07,6.493097544977974e-07,9.295376042909136e-07,2.271411233525129e-05
3.287900926396613e-07,6.579621233013403e-07,9.418029193336409e-07,2.3146818827476982e-05
3.3092696734131714e-07,6.666831092075785e-07,9.538853427979936e-07,2.3556605841380288e-05
3.331713822449655e-07,6.75437339521616e-07,9.657061603608807e-07,2.3941580162172142e-05
3.3551526536265213e-07,6.841853284814223e-07,9.771841430853054e-07,2.4299958455788456e-05
3.37948814079486e-07,6.928860358519231e-07,9.88237563346455e-07,2.463003924540729e-05
3.404608072192037e-07,7.014979101129707e-07,9.987855902018044e-07,2.4930209916809453e-05
3.4303882980215393e-07,7.099777997876856e-07,1.0087502816764148e-06,2.5198989224211468e-05
3.456681302847599e-07,7.182808047161196e-07,1.018059618089744e-06,2.543511729627208e-05
3.483306063881631e-07,7.263621281690812e-07,1.0266501195083604e-06,2.5637675860121468e-05
3.510061541316079e-07,7.34178675277381e-07,1.034467015234759e-06,2.5806142815461663e-05
3.536762068202965e-07,7.416901190493609e-07,1.0414616858891922e-06,2.5940309272965265e-05
3.563261205200826e-07,7.48859331575712e-07,1.0475892976467221e-06,2.604013046664816e-05
3.5894365819890726e-07,7.556509557872542e-07,1.0528081298819507e-06,2.610563437415034e-05
3.615160843117322e-07,7.620297254279604e-07,1.057078936109939e-06,2.6136918389973694e-05
3.6402909855735776e-07,7.67961207326267e-07,1.0603650846689631e-06,2.6134175698929795e-05
3.6646719461570477e-07,7.73414889760751e-07,1.0626361854550122e-06,2.609769618817225e-05
3.688147142525728e-07,7.78365974248305e-07,1.0638743005578856e-06,2.602786707106358e-05
3.710571746633707e-07,7.827935439927849e-07,1.0640776772456418e-06,2.5925280259390144e-05
3.7318163686398686e-07,7.866780054401061e-07,1.0632584142589062e-06,2.57909597980736e-05
3.7517637904761574e-07,7.900009214312773e-07,1.0614365909898614e-06,2.562650681181559e-05
3.770308086740971e-07,7.92748455309257e-07,1.0586368050788091e-06,2.543400304447596e-05
3.787350710210639e-07,7.949176985659493e-07,1.0548912705932542e-06,2.521577684113721e-05
3.802795880672985e-07,7.965201962776678e-07,1.0502481931040514e-06,2.4974198025375145e-05
3.816554452970086e-07,7.975778026954509e-07,1.0447778625984621e-06,2.4711594659422945e-05
3.8285464066281526e-07,7.981153431401759e-07,1.03856886369802e-06,2.443038020606428e-05
3.838694147280456e-07,7.981579447419692e-07,1.0317157118093331e-06,2.413332347998071e-05
3.84691862408844e-07,7.977337274790404e-07,1.0243068497895605e-06,2.382368003726871e-05
3.8531418445087006e-07,7.968774985008802e-07,1.0164190541754171e-06,2.350506162060535e-05
3.8572893367380025e-07,7.956324742547065e-07,1.0081180217764255e-06,2.3181204577370137e-05
3.859294246910557e-07,7.940493053223873e-07,9.99461914546828e-07,2.285578549117585e-05
3.8591029970075975e-07,7.921829157164076e-07,9.9050412936124e-07,2.253230358672833e-05
3.8566823338062784e-07,7.90087869179886e-07,9.812953570196514e-07,2.221400594298448e-05
3.852026188593921e-07,7.878147925030145e-07,9.718872143793301e-07,2.1903829795141816e-05
3.845151327291483e-07,7.854112619280405e-07,9.6233567931024e-07,2.160435990222202e-05
3.8360875724937404e-07,7.829253515248874e-07,9.527005810986748e-07,2.1317816821261328e-05
3.8248815294065783e-07,7.804080940256951e-07,9.430408518616495e-07,2.1046056381950054e-05
3.8116082236375546e-07,7.779152140419936e-07,9.334096306618065e-07,2.079053817312289e-05
3.796369782399283e-07,7.75507441802722e-07,9.238544035391556e-07,2.05522777019646e-05
3.779280469864082e-07,7.732465091978859e-07,9.144224898004595e-07,2.033184215806555e-05
3.760464518099192e-07,7.71188244166106e-07,9.051656680019841e-07,2.0129416796900883e-05
3.740080491420375e-07,7.693777926697388e-07,8.961390759924841e-07,1.9944923935796663e-05
3.718340562958984e-07,7.678504962336868e-07,8.873972842751023e-07,1.9778162687956452e-05
3.6954964505322036e-07,7.666369278767495e-07,8.789922385201364e-07,1.962893457179139e-05
3.671813276533258e-07,7.657654627871452e-07,8.709724322530701e-07,1.9497119230647453e-05
3.6475534605390687e-07,7.652590239726065e-07,8.633804303624068e-07,1.9382690824286195e-05
3.6229633731187844e-07,7.651313253723625e-07,8.562505343229955e-07,1.928570240240212e-05
3.598269312333179e-07,7.65386871186184e-07,8.496114682520723e-07,1.9206262836865505e-05
3.57369102617556e-07,7.660218932614715e-07,8.434924145980126e-07,1.9144509357255726e-05
3.549449546456493e-07,7.670241939583416e-07,8.379255212087726e-07,1.910056064979448e-05
3.5257594380003363e-07,7.683730834305705e-07,8.329433882097986e-07,1.9074422833068672e-05
3.502818208405915e-07,7.7004006088156e-07,8.285743345208255e-07,1.906587383525992e-05
3.4807937262582106e-07,7.719903208012524e-07,8.248376322762737e-07,1.9074426700256835e-05
3.4598142372019665e-07,7.741856420015231e-07,8.217405559245522e-07,1.909940152598012e-05
3.4399714828256817e-07,7.765904366149615e-07,8.192774072831194e-07,1.91400023247714e-05
3.421332223441842e-07,7.791801321989647e-07,8.174310584321006e-07,1.9195332746044367e-05
3.403944077858692e-07,7.819457895202994e-07,8.161783292707652e-07,1.926439888696081e-05
3.387832352466056e-07,7.84891383146088e-07,8.154954524791937e-07,1.9346141396212824e-05
3.373000380497972e-07,7.880260708835154e-07,8.153592497469724e-07,1.9439465764828047e-05
3.359435487351986e-07,7.913551475849331e-07,8.157464838233028e-07,1.954321839724218e-05
3.347110537136416e-07,7.948740126482544e-07,8.166349723013869e-07,1.9656118780112614e-05
3.3359824245771124e-07,7.98567255156967e-07,8.180056086553884e-07,1.9776714733379528e-05
3.32599203983921e-07,8.024105863138023e-07,8.198429587010679e-07,1.9903391871418808e-05
3.3170629063861497e-07,8.063745128426109e-07,8.22133559027315e-07,2.003443249562384e-05
3.309098633001941e-07,8.104307862531576e-07,8.24862389311688e-07,2.016813421330196e-05
3.301986180275805e-07,8.145582342139927e-07,8.280087442567776e-07,2.030296843132089e-05
3.295607466851681e-07,8.187417519504279e-07,8.315431135198315e-07,2.0437695145526043e-05
3.2898556313292926e-07,8.229664947184903e-07,8.354265100043794e-07,2.057135872339644e-05
3.2846484588053396e-07,8.272146590231897e-07,8.396127703488739e-07,2.070316800117872e-05
3.279922691863041e-07,8.314655374040003e-07,8.440521829693601e-07,2.0832341112840163e-05
3.2756101298402493e-07,8.356974324292028e-07,8.486934428070227e-07,2.095800950121798e-05
3.2716243155065644e-07,8.398910156599201e-07,8.534831409248305e-07,2.107920177829808e-05
3.2678713013476304e-07,8.440293614100973e-07,8.58364639923092e-07,2.1194856985514566e-05
3.2642698868287e-07,8.480939399430988e-07,8.63277882994832e-07,2.1303850092182204e-05
3.260761680717518e-07,8.52063393363371e-07,8.681607019469343e-07,2.1405107618231932e-05
3.2573008324018607e-07,8.559177722868929e-07,8.729518642297839e-07,2.1497857551696657e-05
3.253836664391283e-07,8.596443391998459e-07,8.775948188971716e-07,2.1581835349382544e-05
3.2503094346278855e-07,8.632405075510414e-07,8.820396012539709e-07,2.1657234047330026e-05
3.246651750009209e-07,8.667121328915954e-07,8.862419251015674e-07,2.172447208492825e-05
3.242781947346451e-07,8.700686050117512e-07,8.90161587181908e-07,2.178397980458029e-05
3.238602127322228e-07,8.733175851839493e-07,8.93761983068128e-07,2.183611922837251e-05
3.23401333545544e-07,8.764619109413202e-07,8.970096858735241e-07,2.188133001424657e-05
3.22893647836344e-07,8.794989347518356e-07,8.998724538375255e-07,2.192044146537699e-05
3.223326020434284e-07,8.824203982814579e-07,9.023168454986106e-07,2.195485498180175e-05
3.217172932637222e-07,8.852130237434204e-07,9.043075614141908e-07,2.198643540496734e-05
3.210493090652417e-07,8.878607986414939e-07,9.058084027239828e-07,2.2017263718850573e-05
3.203312375377029e-07,8.903466883506571e-07,9.067848414169098e-07,2.204943391330786e-05
3.1956671985012176e-07,8.926530362664378e-07,9.072084105042149e-07,2.208492942911331e-05
3.187606021051626e-07,8.94764301931851e-07,9.0705989440793e-07,2.2125537026043083e-05
3.1791748985077247e-07,8.966719661562305e-07,9.063290702852592e-07,2.21727664866675e-05
3.1704058531714077e-07,8.983757876371448e-07,9.05014589724528e-07,2.222778295364509e-05
3.1613152778217933e-07,8.9987977380996e-07,9.031268035941915e-07,2.2291372664824164e-05
3.151902166437767e-07,9.011881788308409e-07,9.00690464493446e-07,2.2363948079658772e-05
3.14215896102495e-07,9.023052291888368e-07,8.977446507356694e-07,2.244556256516824e-05
3.132098906025079e-07,9.032365582860684e-07,8.943412066702258e-07,2.253590487592353e-05
3.121773417244944e-07,9.039903734112616e-07,8.905434038134445e-07,2.263431308100252e-05
3.1112689996881837e-07,9.045792394759508e-07,8.864230995193338e-07,2.273985783177812e-05
3.100699086966628e-07,9.050243589571491e-07,8.820533700990476e-07,2.285147431998187e-05
3.090197262272762e-07,9.05361138022848e-07,8.774997831200331e-07,2.2968099655937312e-05
3.0799042596803176e-07,9.056395680741436e-07,8.728175355749279e-07,2.3088775372813888e-05
3.069948799292538e-07,9.059175828703972e-07,8.680549224493574e-07,2.3212679405392247e-05
3.060440594943945e-07,9.062536564648476e-07,8.63257349305163e-07,2.3339110025635573e-05
3.0514918733771894e-07,9.067013759659856e-07,8.584685626815753e-07,2.3467472952711985e-05
3.0432445075549697e-07,9.073044781453442e-07,8.537291562134996e-07,2.3597272159400642e-05
3.0358600269285414e-07,9.080942261112987e-07,8.490734536773602e-07,2.3728071582353726e-05
3.029481758832959e-07,9.090903470159971e-07,8.445275918554017e-07,2.3859424071381096e-05
3.024211673362197e-07,9.10302801614055e-07,8.401117348786846e-07,2.399079667248042e-05
3.020105335091288e-07,9.117341201127548e-07,8.358452011326654e-07,2.412151854366351e-05
3.0171722047564786e-07,9.133842536016392e-07,8.317494038077445e-07,2.425077779952624e-05
3.015387238894607e-07,9.152558230580864e-07,8.278460179331386e-07,2.4377670173151322e-05
3.014710689545736e-07,9.173554597723335e-07,8.241529927719922e-07,2.450123656586325e-05
3.015097991174285e-07,9.196920571703888e-07,8.206825548978356e-07,2.4620454750189302e-05
3.016498769640984e-07,9.222752414877113e-07,8.174428167016201e-07,2.473424264093443e-05
3.0188594707552233e-07,9.251120343119026e-07,8.144400103501356e-07,2.4841505525749443e-05
3.022132232245192e-07,9.282008653751337e-07,8.11677605585948e-07,2.4941175264004848e-05
3.0262835473510407e-07,9.315279652944846e-07,8.09153140002563e-07,2.5032208350435612e-05
3.0312900214296907e-07,9.350676968442827e-07,8.068568876722887e-07,2.5113604694612025e-05
3.037118662268355e-07,9.38784222725334e-07,8.047749473403487e-07,2.5184486526173686e-05
3.043722297170054e-07,9.426336973453028e-07,8.028949857552695e-07,2.524416121244447e-05
3.051066165121264e-07,9.465669994056631e-07,8.012112452930345e-07,2.529211919450885e-05
3.059150654076169e-07,9.505320373141479e-07,7.997283585455454e-07,2.532800589702453e-05
3.0679987490476516e-07,9.544744920834492e-07,7.984647548031535e-07,2.5351583517782465e-05
3.077628762897133e-07,9.583372000294042e-07,7.974543441575378e-07,2.5362669159064604e-05
3.0880419557556856e-07,9.620595333566895e-07,7.967457704783369e-07,2.536106622416009e-05
3.099216794664329e-07,9.65578313389249e-07,7.964000676911399e-07,2.5346545591843288e-05
3.111099787665357e-07,9.688314323014595e-07,7.964858787779944e-07,2.531892267126612e-05
3.123603959856725e-07,9.717620521011691e-07,7.970709001449817e-07,2.527818013030807e-05
3.1366223922265e-07,9.743202347436156e-07,7.982113865695755e-07,2.52245278010474e-05
3.1500464638955307e-07,9.76464773036789e-07,7.999451869251522e-07,2.5158370393453988e-05
3.163769846321991e-07,9.781663845391784e-07,8.022927985874736e-07,2.5080219940641485e-05
3.177680686406907e-07,9.79406302610797e-07,8.052640019498594e-07,2.499061769763103e-05
3.191657796013672e-07,9.801710649086584e-07,8.088630561407856e-07,2.489016909227553e-05
3.2055742272552774e-07,9.804496485830944e-07,8.130896211041111e-07,2.4779653166928616e-05
3.2193051928603694e-07,9.802314650622574e-07,8.179382960290759e-07,2.466004235661816e-05
3.232728918263363e-07,9.79503875671715e-07,8.23399330652961e-07,2.453244191955931e-05
3.2457178829586e-07,9.782531085407358e-07,8.294599603740255e-07,2.439803573009213e-05
3.2581401798802644e-07,9.764688877680401e-07,8.361050292917648e-07,2.4258012826631877e-05
3.26987251793888e-07,9.741495437892708e-07,8.433175970498411e-07,2.4113468401818696e-05
3.280805431240519e-07,9.713054660684848e-07,8.51080449541058e-07,2.396532204081106e-05
3.2908386454237597e-07,9.679591159243828e-07,8.593778108053484e-07,2.3814263179623096e-05
3.2998767708533e-07,9.64141961924635e-07,8.681983563973613e-07,2.366072279146693e-05
3.307829569027981e-07,9.598908644016294e-07,8.775393188377544e-07,2.350488059332175e-05
3.314611391635751e-07,9.552437321777162e-07,8.874064653376406e-07,2.3346702298766115e-05
3.320134751077169e-07,9.502356964925537e-07,8.978076632574999e-07,2.318598236608857e-05
3.3243087778363065e-07,9.448995434644251e-07,9.087439861699499e-07,2.302237563316197e-05
3.3270479607624396e-07,9.392685195533321e-07,9.202044539859646e-07,2.2855419852935927e-05
3.328284614109732e-07,9.333778672824869e-07,9.32169899766946e-07,2.2684559453293962e-05
3.327983872119958e-07,9.272644127455124e-07,9.446249678242927e-07,2.250918394585675e-05
3.3261463777449257e-07,9.209636818765652e-07,9.575686129205514e-07,2.232867941726087e-05
3.3227850963398235e-07,9.14508353631954e-07,9.710152098496502e-07,2.2142465574435974e-05
3.31789991495499e-07,9.079345007547926e-07,9.849875415631269e-07,2.195001310287644e-05
3.3114743875074766e-07,9.012922780300218e-07,9.995057665098872e-07,2.1750876375129625e-05
3.3034910339207394e-07,8.946494579258499e-07,1.0145760642008592e-06,2.154474179253452e-05
3.293951260258942e-07,8.880831448038847e-07,1.0301836480329482e-06,2.133143933754621e-05
3.282881206111477e-07,8.816670913078359e-07,1.0462918577162257e-06,2.111090074077098e-05
3.270324780669364e-07,8.754655816726713e-07,1.0628457892884164e-06,2.0883106019562937e-05
3.256347502043567e-07,8.695369225345152e-07,1.0797775343776889e-06,2.0648049265201418e-05
3.2410393914100244e-07,8.639382812715425e-07,1.0970092737874924e-06,2.040573427806096e-05
3.22449391527704e-07,8.587240332691607e-07,1.114453673110617e-06,2.015621149237785e-05
3.2067885814248944e-07,8.539409693262945e-07,1.1320142641517021e-06,1.9899634601408773e-05
3.18798869177896e-07,8.496263169174435e-07,1.1495881884828413e-06,1.963628252086789e-05
3.168155894611137e-07,8.458077383509576e-07,1.1670714875561182e-06,1.936652818717585e-05
3.147349749881413e-07,8.425042370449013e-07,1.1843630122839974e-06,1.909078619296738e-05
3.125629085103301e-07,8.397283353686526e-07,1.2013634777665456e-06,1.880948206518298e-05
3.103057083606602e-07,8.374869457835895e-07,1.2179724496420414e-06,1.8523096201741254e-05
3.0797072568158423e-07,8.357806232871247e-07,1.234086755038342e-06,1.823226008193183e-05
3.055666611281063e-07,8.346042913834168e-07,1.2496003382040708e-06,1.7937760664166964e-05
3.031034492418834e-07,8.339506156636933e-07,1.264406128824417e-06,1.7640418825022837e-05
3.005915875040937e-07,8.338137130476112e-07,1.2784001031572396e-06,1.734098510660582e-05
2.9804111744909037e-07,8.341892163839852e-07,1.291484428238636e-06,1.704013849997389e-05
2.954612560407495e-07,8.350706361638651e-07,1.3035674508556299e-06,1.6738565127369026e-05
2.9286167681216376e-07,8.364460568228215e-07,1.314562593640157e-06,1.643705261002118e-05
2.902543228573424e-07,8.382968180759083e-07,1.324388801535508e-06,1.6136509109527806e-05
2.876533704587615e-07,8.405977236478248e-07,1.3329725473244092e-06,1.5837907846207434e-05
2.8507397711017016e-07,8.43319521514723e-07,1.34024997487179e-06,1.5542264126826857e-05
2.8253190748517143e-07,8.464331766582733e-07,1.3461677510027606e-06,1.5250657476819409e-05
2.800431923825472e-07,8.499125271816394e-07,1.3506843037698237e-06,1.4964216540308304e-05
2.776226115075292e-07,8.537324625665498e-07,1.353774543512409e-06,1.4684062310638673e-05
2.75282480180875e-07,8.578642886602867e-07,1.3554344813745053e-06,1.4411255658055493e-05
2.73032857870485e-07,8.622735945284542e-07,1.3556792730128316e-06,1.4146747396235238e-05
2.708820780606555e-07,8.66923315576889e-07,1.3545354975210426e-06,1.3891326044081055e-05
2.688372010855679e-07,8.717794319772129e-07,1.3520352383805548e-06,1.3645603614389778e-05
2.6690575171149306e-07,8.768150947295578e-07,1.3482177069108674e-06,1.3410043052405506e-05
2.6509909434671807e-07,8.820094585294157e-07,1.3431349660434031e-06,1.3184962224318898e-05
2.6343440564293836e-07,8.873418391456177e-07,1.3368531288508877e-06,1.297050186787915e-05
2.619318865809012e-07,8.927883976672026e-07,1.3294458733928035e-06,1.276662106861936e-05
2.606094722595243e-07,8.983263899259999e-07,1.3209854012589814e-06,1.2573186934605788e-05
2.594804688005385e-07,9.039433080862025e-07,1.3115378907125388e-06,1.2390182441618926e-05
2.585547070711101e-07,9.096448346652152e-07,1.3011650886364598e-06,1.221788735839292e-05
2.5783938989702826e-07,9.154554407860157e-07,1.2899277287344584e-06,1.2056842515565675e-05
2.5733833070860837e-07,9.214094460219326e-07,1.2778878397346271e-06,1.1907728469234268e-05
2.570514498985273e-07,9.275385331758085e-07,1.2651109905958333e-06,1.177136504215459e-05
2.569751375216744e-07,9.338655728437971e-07,1.2516669591118877e-06,1.1648714916462614e-05
2.571026791578048e-07,9.404068577307553e-07,1.2376262547450184e-06,1.1540776870522654e-05
2.574249635548542e-07,9.471747522784524e-07,1.2230556088142944e-06,1.144846744667704e-05
2.579317445033233e-07,9.541761932025879e-07,1.2080172121906318e-06,1.1372549313287865e-05
2.5861210112831587e-07,9.614108295841455e-07,1.1925729255889964e-06,1.131358058293376e-05
2.594537634976422e-07,9.688708021810579e-07,1.176791131372298e-06,1.1271875674212615e-05
2.604427834580232e-07,9.765405920920028e-07,1.1607506044785666e-06,1.1247483400657974e-05
2.615640757965371e-07,9.84397011044365e-07,1.1445371768437217e-06,1.12401794695524e-05
2.6280325616802085e-07,9.924091722966509e-07,1.128235414017455e-06,1.1249467574572997e-05
2.6414929212613397e-07,1.000538063711715e-06,1.1119208617801458e-06,1.1274590899876473e-05
2.6559483380696346e-07,1.008738658690283e-06,1.0956560960578895e-06,1.1314558783740105e-05
2.6713357280048237e-07,1.0169661166269959e-06,1.079490211627487e-06,1.136819659071122e-05
2.6875792479947164e-07,1.0251820020921962e-06,1.063460794478067e-06,1.1434206150398904e-05
2.704583448343776e-07,1.033355189634976e-06,1.0475983772280675e-06,1.1511202083409047e-05
2.722238551773827e-07,1.041457115856615e-06,1.03193040077784e-06,1.1597735147459656e-05
2.740447979842517e-07,1.049457507584044e-06,1.0164809246013008e-06,1.1692345230998586e-05
2.7591623230073644e-07,1.0573240481015466e-06,1.0012688379450378e-06,1.1793625503790782e-05
2.7783789674755226e-07,1.0650218646470742e-06,9.863077207463815e-07,1.1900249825758294e-05
2.798109453831513e-07,1.0725109695150729e-06,9.716059381847736e-07,1.2010969810275184e-05
2.8183496122225485e-07,1.0797457138413728e-06,9.571677633644406e-07,1.212460756373262e-05
2.839067439867212e-07,1.0866785604561114e-06,9.429971726441427e-07,1.2240047832917556e-05
2.860203574241327e-07,1.093264830188284e-06,9.29103231150058e-07,1.2356243731824818e-05
2.8816808187254875e-07,1.0994636646054769e-06,9.155052054328812e-07,1.2472253966927126e-05
2.90341739323908e-07,1.105235391300202e-06,9.022354367973312e-07,1.2587277834547418e-05
2.925329207870036e-07,1.110539942731605e-06,8.893392399106259e-07,1.2700627625868442e-05
2.947319799736265e-07,1.115337587213934e-06,8.7687086337659e-07,1.2811646213033115e-05
2.969274838823169e-07,1.1195886331102615e-06,8.648848202107439e-07,1.2919639119577588e-05
2.9910682176752074e-07,1.1232519852073284e-06,8.534266304674406e-07,1.3023871352123802e-05
3.012578061872625e-07,1.1262850116488858e-06,8.425281477731041e-07,1.312364431211901e-05
3.033712386232037e-07,1.1286440336913784e-06,8.322077674145238e-07,1.3218412301262196e-05
3.054427988948765e-07,1.130284504894045e-06,8.224726437064266e-07,1.3307826187217018e-05
3.0747253392648285e-07,1.1311617402642031e-06,8.133205213808613e-07,1.3391645175453085e-05
3.094634221725017e-07,1.1312326563570891e-06,8.047408790790156e-07,1.3469614323099334e-05
3.1142175512924625e-07,1.1304591308851816e-06,7.967175401619454e-07,1.3541429775355904e-05
3.133607338966091e-07,1.1288125785739328e-06,7.892332785107329e-07,1.3606803376129207e-05
3.1530460488008327e-07,1.1262766049607149e-06,7.822732719908323e-07,1.3665562343622587e-05
3.1728753048008344e-07,1.1228459134510686e-06,7.758260464421231e-07,1.371769400493249e-05
3.1934792235098874e-07,1.1185246724704149e-06,7.69883930834856e-07,1.3763294327186389e-05
3.2152354261214644e-07,1.1133265565095665e-06,7.644432308048377e-07,1.3802479298451984e-05
3.238471953538473e-07,1.107273136195745e-06,7.595021147840967e-07,1.3835333259567182e-05
3.263424642135582e-07,1.100391094151522e-06,7.550573905467852e-07,1.3861915605277514e-05
3.290224082683531e-07,1.0927131333228045e-06,7.511028434119194e-07,1.3882317659523135e-05
3.31891772266644e-07,1.0842807631530122e-06,7.476288252400114e-07,1.3896737527990537e-05
3.3494998678519967e-07,1.075143681580862e-06,7.446229671802855e-07,1.3905514659673492e-05
3.3819241019348656e-07,1.065355129460987e-06,7.420719966987136e-07,1.3909083845444702e-05
3.416104560897583e-07,1.054966826156833e-06,7.399628333061742e-07,1.3907867232270746e-05
3.451922834313084e-07,1.044026675806899e-06,7.382821039446994e-07,1.3902177592508831e-05
3.489232560532195e-07,1.0325789094646987e-06,7.370138644804223e-07,1.3892196481456556e-05
3.527855748524519e-07,1.0206658433967044e-06,7.361363339976603e-07,1.3878016207368021e-05
3.5675865148732866e-07,1.0083303308524036e-06,7.356202960202991e-07,1.3859695868171158e-05
3.6082472359712075e-07,9.956163943011416e-07,7.354296761732659e-07,1.3837337120023291e-05
3.6498379267781966e-07,9.825673707118477e-07,7.35522635508432e-07,1.3811240202064545e-05
3.692682337418867e-07,9.692242111392895e-07,7.358533824538011e-07,1.3782086722969439e-05
3.7374193900546543e-07,9.556272935994088e-07,7.363755518978669e-07,1.3750961579423795e-05
3.7848770023359217e-07,9.418213807516764e-07,7.370459402798324e-07,1.3719165805121872e-05
3.8359445680536716e-07,9.278591526117753e-07,7.378273864259102e-07,1.3687967941909351e-05
3.8914646173757293e-07,9.138016954401148e-07,7.386904246968649e-07,1.3658442168290155e-05
3.9521441521963393e-07,8.997185550551574e-07,7.396126705122052e-07,1.3631508810447785e-05
4.018499828569742e-07,8.856879653023098e-07,7.405764683020309e-07,1.360820646274626e-05
4.09084817675561e-07,8.717963497655573e-07,7.415684900834348e-07,1.3589989824758403e-05
4.169337909650083e-07,8.581356389229849e-07,7.425835533528751e-07,1.3578791357498344e-05
4.2539898216892404e-07,8.447964465103285e-07,7.436292109990747e-07,1.3576846109248054e-05
4.344722181947877e-07,8.318620023407372e-07,7.447259329205444e-07,1.3586452754594773e-05
4.441360811680782e-07,8.194110250970341e-07,7.459018861262436e-07,1.360977161865636e-05
4.543633265290929e-07,8.075269618154874e-07,7.471847489430694e-07,1.364867303568392e-05
4.6511678173656396e-07,7.963031436925336e-07,7.485943385822976e-07,1.3704631617074158e-05
4.7635119920806407e-07,7.858395488892047e-07,7.501391385824744e-07,1.3778663122443586e-05
4.880156215726289e-07,7.762355615054935e-07,7.518161206139837e-07,1.387130580186434e-05
5.000569809935272e-07,7.675841657135956e-07,7.536125653147363e-07,1.3982648918856354e-05
5.124258665616779e-07,7.599682970822877e-07,7.555106865752849e-07,1.4112383144941363e-05
5.250808212793233e-07,7.534563377387412e-07,7.57493305964727e-07,1.4259834954861083e-05
5.37988396587725e-07,7.480964567376505e-07,7.595462570782587e-07,1.4423999591294629e-05
5.511204695206787e-07,7.439137110898095e-07,7.616574726411634e-07,1.4603607973705016e-05
5.644508769407917e-07,7.40910978972391e-07,7.638160560092309e-07,1.4797220802746994e-05
5.779526709202135e-07,7.390709640503443e-07,7.66011873898472e-07,1.5003337877330611e-05
5.915967396669517e-07,7.383586989425216e-07,7.682356295053776e-07,1.5220512645259656e-05
6.053511053030404e-07,7.387256213351338e-07,7.704805920748197e-07,1.5447430036434227e-05
6.191796886995529e-07,7.401145427769776e-07,7.72744629385041e-07,1.5682925682803908e-05
6.330404073340767e-07,7.424643331994208e-07,7.750310794921856e-07,1.5925975184413643e-05
6.468845994517495e-07,7.457135194572716e-07,7.773477822502279e-07,1.617566822932466e-05
6.606595289874589e-07,7.498027624187615e-07,7.797029583021348e-07,1.6431149837047682e-05
6.743108274006717e-07,7.546766848634556e-07,7.821016270363864e-07,1.669153558167271e-05
6.877817676564696e-07,7.602840574472044e-07,7.845477604946093e-07,1.6955846504629752e-05
7.010122962214379e-07,7.665757566199931e-07,7.870499465088355e-07,1.7222984604277073e-05
7.13941418684095e-07,7.735017546683445e-07,7.896250594638646e-07,1.7491738203173305e-05
7.265116020305693e-07,7.810085535552529e-07,7.92296660568232e-07,1.7760826408983403e-05
7.386705015818919e-07,7.890382925179024e-07,7.950881692765628e-07,1.8028961744930467e-05
7.503692423910068e-07,7.975298808349095e-07,7.980156204457344e-07,1.8294867738231345e-05
7.61561008569496e-07,8.064209093141694e-07,8.010856278246861e-07,1.8557250092231306e-05
7.722007160272124e-07,8.156487666949875e-07,8.042986363450618e-07,1.881477989036421e-05
7.822446622331699e-07,8.251504691954611e-07,8.076540526984879e-07,1.9066117764240146e-05
7.916513112034925e-07,8.348614313295495e-07,8.111548342343478e-07,1.9309959972720064e-05
8.003840207485555e-07,8.447150588179347e-07,8.148081660467433e-07,1.9545106620811498e-05
8.084141039495196e-07,8.546454247091572e-07,8.186215370972115e-07,1.977055769774656e-05
8.157222678127288e-07,8.645901110663266e-07,8.225990342062079e-07,1.9985567446242473e-05
8.222980565823612e-07,8.744893092669928e-07,8.267385695232456e-07,2.0189615969232075e-05
8.281383448341313e-07,8.842831620929153e-07,8.310279976595999e-07,2.0382342554907572e-05
8.332458938181134e-07,8.939108281952328e-07,8.354430146911062e-07,2.0563450594644397e-05
8.376278122318418e-07,9.033128209464066e-07,8.399485325364671e-07,2.0732593813948694e-05
8.412935402279341e-07,9.124360533682173e-07,8.445016363435402e-07,2.088931924135487e-05
8.44253146480893e-07,9.212380877485208e-07,8.490557083713193e-07,2.1033107927419396e-05
8.465176372381194e-07,9.296870515908415e-07,8.535648720820825e-07,2.1163473050048142e-05
8.48100458726368e-07,9.377568835288948e-07,8.579862412708576e-07,2.128005422012525e-05
8.490166965013794e-07,9.454217887868941e-07,8.622809326451048e-07,2.1382665625875367e-05
8.492799808510401e-07,9.526546558594088e-07,8.664164236428303e-07,2.1471287131730727e-05
8.489002680705788e-07,9.594289327977757e-07,8.703693991751675e-07,2.154601097734996e-05
8.478842558391019e-07,9.65719793177453e-07,8.741297492701523e-07,2.160698597892832e-05
8.462383755163645e-07,9.71503615587927e-07,8.777075780616287e-07,2.1654445872608443e-05
8.439719117811689e-07,9.767573453792186e-07,8.811379138667524e-07,2.1688813352854143e-05
8.410974468183973e-07,9.8145801260557e-07,8.844764821703388e-07,2.171072015447012e-05
8.376291099878013e-07,9.855825587009763e-07,8.877897122006178e-07,2.1720907057283842e-05
8.335811898804433e-07,9.89107968179614e-07,8.911460654670269e-07,2.1720125588276505e-05
8.289682725083952e-07,9.92010938487287e-07,8.946090170788366e-07,2.1709071171823248e-05
8.238053481528565e-07,9.94267704734679e-07,8.98230927279694e-07,2.168831812021388e-05
8.181066386251652e-07,9.958555902156981e-07,9.020528082089165e-07,2.16582786105502e-05
8.118844918004526e-07,9.967573251169304e-07,9.061110016400223e-07,2.1619207488794667e-05
8.051497635094301e-07,9.969681005636552e-07,9.104438379843096e-07,2.1571231761598693e-05
7.979130936975129e-07,9.965013653873129e-07,9.150945255928652e-07,2.1514368059049405e-05
7.901855137714704e-07,9.95386848618545e-07,9.201121789223131e-07,2.14485236114124e-05
7.819782775806683e-07,9.936610363007346e-07,9.255516205051924e-07,2.1373505346826485e-05
7.733029179051428e-07,9.913593686132774e-07,9.314695292765457e-07,2.1289046497152075e-05
7.641718717286131e-07,9.885177548108237e-07,9.379149213566654e-07,2.119483333659154e-05
7.545997136182305e-07,9.85180466007367e-07,9.449185556461084e-07,2.109052167192808e-05
7.446046022769005e-07,9.814055937402002e-07,9.52490145953924e-07,2.097576475197864e-05
7.342089620765074e-07,9.772631572203385e-07,9.606230402607094e-07,2.0850269468918213e-05
7.234387799859514e-07,9.72827113202437e-07,9.692974335347506e-07,2.071383791251588e-05
7.123220597876359e-07,9.68166360653669e-07,9.784791060254498e-07,2.056634094898177e-05
7.008874612605483e-07,9.633402419638573e-07,9.881185683010384e-07,2.0407655252593866e-05
6.891640267015307e-07,9.583991592736099e-07,9.9815458701e-07,2.023763281053276e-05
6.771820804255604e-07,9.533855443297651e-07,1.0085208518941766e-06,2.005610964790385e-05
6.649730254957527e-07,9.483330820795904e-07,1.0191514170787982e-06,1.986292048201553e-05
6.525671966484225e-07,9.432687944181853e-07,1.0299813978018658e-06,1.9657907593152412e-05
6.399926860034954e-07,9.38220568982674e-07,1.0409434830170412e-06,1.944093335488168e-05
6.272765457838019e-07,9.332249685344241e-07,1.0519655496083949e-06,1.921189685563392e-05
6.144471482609342e-07,9.283292205001836e-07,1.0629740976462668e-06,1.8970751367688506e-05
6.015361970887217e-07,9.235865978497378e-07,1.0739016141582786e-06,1.8717534206223125e-05
5.885786541456631e-07,9.190503801395037e-07,1.0846921174667015e-06,1.845240132784321e-05
5.756103655002116e-07,9.147744686363388e-07,1.095301177284918e-06,1.8175630798440213e-05
5.626657124733013e-07,9.108227881133119e-07,1.1056901407930948e-06,1.7887586981644558e-05
5.497770267961404e-07,9.072803009121826e-07,1.115819180259881e-06,1.75886810640005e-05
5.369747307441447e-07,9.042571962128685e-07,1.1256454487745352e-06,1.72793713838599e-05
5.242868724811682e-07,9.018833248601166e-07,1.1351254680207159e-06,1.6960201374806645e-05
5.117391135064726e-07,9.002950082431179e-07,1.1442166097126317e-06,1.6631815666459512e-05
4.993560346870543e-07,8.996185788922096e-07,1.152877746045018e-06,1.629493638045817e-05
4.871619556507192e-07,8.999570397986429e-07,1.1610719652618414e-06,1.5950342976181233e-05
4.75180587571924e-07,9.013852688743631e-07,1.1687692180439952e-06,1.5598859397160005e-05
4.6343488705116493e-07,9.039515443993934e-07,1.1759436215083091e-06,1.524134382573284e-05
4.5194722077759e-07,9.076792235727616e-07,1.1825667963860545e-06,1.4878717287560818e-05
4.407405989518371e-07,9.125669220380386e-07,1.1886043296243972e-06,1.4512009693724084e-05
4.2984108257207213e-07,9.185889169591505e-07,1.1940178951428986e-06,1.4142339000748452e-05
4.192778432093955e-07,9.256970349137712e-07,1.1987701038707286e-06,1.3770837027914426e-05
4.0908129215785257e-07,9.3382441487975e-07,1.202828013210498e-06,1.3398656876944392e-05
3.9928370777962925e-07,9.428915065002564e-07,1.2061628755316592e-06,1.3027109213938185e-05
3.899203234560876e-07,9.528147232689852e-07,1.2087478752865052e-06,1.2657780893351692e-05
3.8102625862761065e-07,9.63515254796031e-07,1.2105568492832258e-06,1.2292499798098826e-05
3.726315111542818e-07,9.749220103297137e-07,1.211564035432745e-06,1.193319505814738e-05
3.6475848568219573e-07,9.869673450744155e-07,1.2117438914425422e-06,1.1581756795297275e-05
3.574219790176465e-07,9.995821690125328e-07,1.2110710152995711e-06,1.123992479861658e-05
3.506297795458508e-07,1.0126942550129197e-06,1.209520296768964e-06,1.0909217583733908e-05
3.443838898671693e-07,1.0262269081684052e-06,1.2070680187857297e-06,1.0590909736634493e-05
3.386822770990241e-07,1.040096441506478e-06,1.2036940333958806e-06,1.0286031823104454e-05
3.3351987486911896e-07,1.0542105596742917e-06,1.1993830578720225e-06,9.995374506111103e-06
3.288883810072348e-07,1.0684698988248177e-06,1.1941249447484078e-06,9.719519422613053e-06
3.247756381605052e-07,1.0827724772614037e-06,1.187916269578226e-06,9.458958648313104e-06
3.211656529477818e-07,1.0970186026640456e-06,1.1807620600879485e-06,9.214306224185339e-06
3.1803947241320464e-07,1.1111134382737957e-06,1.172674216140112e-06,8.986442734170338e-06
3.153758854860497e-07,1.1249656303820422e-06,1.1636676808224623e-06,8.776453631803125e-06
3.131515868681e-07,1.1384846898632558e-06,1.153758000142045e-06,8.585462428926599e-06
3.113416989624177e-07,1.1515815245995458e-06,1.1429613128367552e-06,8.414580527442547e-06
3.099209200040002e-07,1.1641703584265815e-06,1.1312952451961388e-06,8.265044255139807e-06
3.0886432520389364e-07,1.176168051389234e-06,1.1187789495920794e-06,8.138359544272438e-06
3.081469416355452e-07,1.187493340941628e-06,1.1054325370294888e-06,8.036267373399746e-06
3.077428856404053e-07,1.198070043319746e-06,1.0912789394079694e-06,7.960581154295824e-06
3.076253194132514e-07,1.2078321452990898e-06,1.0763503262495266e-06,7.91302918949245e-06
3.0776688371360713e-07,1.2167274079956156e-06,1.0606947808993755e-06,7.895136427864985e-06
3.081396540633329e-07,1.2247193331689736e-06,1.0443773032629563e-06,7.908144537709117e-06
3.0871476166375665e-07,1.231786025243732e-06,1.0274767936487691e-06,7.952970850636674e-06
3.0946248754235217e-07,1.237914929038617e-06,1.0100834072333666e-06,8.030179224886584e-06
3.103529259666245e-07,1.243096901736801e-06,9.922948171066209e-07,8.139943459119082e-06
3.113567565282437e-07,1.2473222724957205e-06,9.742091066946216e-07,8.282025167628404e-06
3.12445983236442e-07,1.2505794210376423e-06,9.559188073395986e-07,8.45578814779243e-06
3.1359493591363e-07,1.2528564260509478e-06,9.375113484931534e-07,8.660230534475224e-06
3.1478112904031033e-07,1.2541449502292056e-06,9.190730512347095e-07,8.894001593369921e-06
3.15984857868274e-07,1.2544452791462714e-06,9.006907898917558e-07,9.155413252145889e-06
3.171886591393547e-07,1.2537704992672056e-06,8.824507005573004e-07,9.442489588802314e-06
3.183786608360997e-07,1.252146402026309e-06,8.644361005367525e-07,9.753062870509967e-06
3.195463031883478e-07,1.2496070455384568e-06,8.467255705367312e-07,1.0084888024153149e-05
3.2068810473378173e-07,1.246188821696406e-06,8.293918449278702e-07,1.0435745509583333e-05
3.218051536997007e-07,1.2419257816159242e-06,8.125016858030995e-07,1.0803506367460278e-05
3.2290451704962394e-07,1.2368483464225064e-06,7.961166650736199e-07,1.1186150723779448e-05
3.240008986252485e-07,1.2309837752231943e-06,7.802956902345466e-07,1.1581752614753814e-05
3.251164491562346e-07,1.224355168300012e-06,7.65099383898786e-07,1.1988440002394118e-05
3.262778800661907e-07,1.2169801762055798e-06,7.50594258148875e-07,1.2404332941194087e-05
3.275107912962088e-07,1.2088720717643877e-06,7.368539428212857e-07,1.282747764194433e-05
3.288352033033248e-07,1.2000431134255794e-06,7.239562492917165e-07,1.3255799505141805e-05
3.3026709837607825e-07,1.1905083396548722e-06,7.119762309442363e-07,1.3687085807606474e-05
3.318237878815798e-07,1.1802870041817892e-06,7.009796775447132e-07,1.4119014178472693e-05
3.335271153270609e-07,1.169400798711866e-06,6.910265484063604e-07,1.4549243697500916e-05
3.354046041322631e-07,1.1578732499718835e-06,6.821854534335916e-07,1.4975524106532169e-05
3.374930191994133e-07,1.145734111317568e-06,6.745466538650881e-07,1.5395746109867568e-05
3.3984233088915593e-07,1.1330238546419041e-06,6.682220257444525e-07,1.5807924628292967e-05
3.4251454674223373e-07,1.11979125488895e-06,6.633314366036835e-07,1.621015856887282e-05
3.45579036444812e-07,1.1060866095057366e-06,6.599839459337922e-07,1.6600609407099785e-05
3.491093372853788e-07,1.0919580515655271e-06,6.582629567914268e-07,1.697751520486413e-05
3.531827967947486e-07,1.0774518992153765e-06,6.58218910077431e-07,1.7339211801924765e-05
3.5788241471113455e-07,1.062613207849997e-06,6.598689922025592e-07,1.7684126337421846e-05
3.632986643911289e-07,1.047485429242641e-06,6.632014032732579e-07,1.801074979524675e-05
3.695275474726456e-07,1.0321099464825753e-06,6.681808092212112e-07,1.8317634364039042e-05
3.766637368811888e-07,1.0165251450457944e-06,6.747521264406003e-07,1.8603441979559242e-05
3.847906381454432e-07,1.0007651868756929e-06,6.828417963017529e-07,1.8867036668243783e-05
3.9397027383047754e-07,9.848597794546606e-07,6.923584513180097e-07,1.9107606225259305e-05
4.042378779711947e-07,9.68835769077825e-07,7.031949510214299e-07,1.9324744836746852e-05
4.156043164120678e-07,9.527202400799463e-07,7.152311282302169e-07,1.9518399996284408e-05
4.2806364416648276e-07,9.365431007518198e-07,7.283369206622369e-07,1.968870380005664e-05
4.4160136704527245e-07,9.203385070819641e-07,7.423785219943372e-07,1.983582210239755e-05
4.562014619973527e-07,9.041488838637352e-07,7.572292188615042e-07,1.995989951277406e-05
4.718518589416286e-07,8.880313086200281e-07,7.727813987152397e-07,2.00610690124921e-05
4.885474010339625e-07,8.720579019477646e-07,7.889518425216061e-07,2.0139472287926807e-05
5.062900360637391e-07,8.563073318799355e-07,8.056756593632242e-07,2.0195282069616557e-05
5.250884635000278e-07,8.408553712738487e-07,8.228934104477718e-07,2.0228793076581312e-05
5.44958180282314e-07,8.257705755341939e-07,8.405397117265024e-07,2.024061512252342e-05
5.659203778167232e-07,8.11113799692761e-07,8.585388162201181e-07,2.023181391820701e-05
5.879990925229128e-07,7.969390477672959e-07,8.768073657885456e-07,2.020384328609497e-05
6.112165217759585e-07,7.832945398357558e-07,8.952603516258421e-07,2.0158355684125188e-05
6.35585524057601e-07,7.702239801116492e-07,9.138182594844299e-07,2.009703813321969e-05
6.611005633492852e-07,7.577683074193624e-07,9.324142099759048e-07,2.0021521308773324e-05
6.877310631322574e-07,7.459672457217827e-07,9.509974660085895e-07,1.993344304172208e-05
7.154194902463035e-07,7.348596794035362e-07,9.695323881456915e-07,1.983467946110796e-05
7.440834777977336e-07,7.244814041178638e-07,9.879935648863438e-07,1.972751715913685e-05
7.736198425093848e-07,7.148599819373466e-07,1.0063568364738359e-06,1.9614588319338283e-05
8.039089940139577e-07,7.060102416431127e-07,1.0245914665979382e-06,1.9498670367524555e-05
8.348190158371669e-07,6.979339246331612e-07,1.0426597600195022e-06,1.9382508880257518e-05
8.662079232329397e-07,6.906230414108432e-07,1.0605211927006723e-06,1.9268711349780223e-05
8.979247218619629e-07,6.840646351329905e-07,1.0781345992109577e-06,1.9159690486016468e-05
9.298122871717523e-07,6.782443614079142e-07,1.0954565172265342e-06,1.90576185789918e-05
9.617126583140288e-07,6.731470182707151e-07,1.1124377782118952e-06,1.896437952391353e-05
9.93473647997197e-07,6.687546949420006e-07,1.1290212196202828e-06,1.888153328417159e-05
1.0249550480414721e-06,6.650446509422394e-07,1.1451415085117621e-06,1.8810303539271037e-05
1.056031448199066e-06,6.619896046071405e-07,1.1607264027440435e-06,1.875157140110363e-05
1.0865906929996264e-06,6.59561451961177e-07,1.1756987926249198e-06,1.870585110185415e-05
1.1165296482629906e-06,6.57734765750805e-07,1.189979284352473e-06,1.867326744115285e-05
1.145749971427446e-06,6.564874005867917e-07,1.2034891900267514e-06,1.865358080868801e-05
1.1741557195852527e-06,6.558007198835581e-07,1.2161529561406502e-06,1.864627420117612e-05
1.2016515915764348e-06,6.556613775765103e-07,1.2278983698339194e-06,1.8650679428637865e-05
1.2281412778005008e-06,6.560633742360569e-07,1.2386548057245026e-06,1.8666090697065584e-05
1.2535275977004844e-06,6.570088985974387e-07,1.2483519742315873e-06,1.869181688605352e-05
1.277713693854027e-06,6.585062132417396e-07,1.2569207626152192e-06,1.8727194400697365e-05
1.3006040157134376e-06,6.605641006533925e-07,1.264296278721854e-06,1.8771613416600084e-05
1.3221059970218414e-06,6.631896517675953e-07,1.2704219899768403e-06,1.8824548540740914e-05
1.3421315676001706e-06,6.663956712021226e-07,1.2752513057223943e-06,1.8885565284665624e-05
1.360597241257465e-06,6.702103619698785e-07,1.2787453312449623e-06,1.8954305270501323e-05
1.3774244337541672e-06,6.746790095234628e-07,1.280872293691889e-06,1.9030437109698435e-05
1.3925410665633058e-06,6.798572076950025e-07,1.2816114532072098e-06,1.9113563824227373e-05
1.4058834260018783e-06,6.857989519454016e-07,1.2809555234727594e-06,1.9203150050825232e-05
1.417397265838715e-06,6.925440071010318e-07,1.2789072720328465e-06,1.9298528881003632e-05
1.427038371074977e-06,7.001115140336411e-07,1.2754745807866795e-06,1.9398949588125515e-05
1.434773286789014e-06,7.085015331105263e-07,1.2706689460170937e-06,1.950360666955048e-05
1.4405796970004404e-06,7.176981004579644e-07,1.264506651431842e-06,1.961164855782456e-05
1.4444462067524863e-06,7.276694898204072e-07,1.2570105375483401e-06,1.972218967235262e-05
1.4463716226481829e-06,7.3836893522752e-07,1.2482112724864241e-06,1.9834335348100868e-05
1.4463626560454375e-06,7.497395528075656e-07,1.2381460302188207e-06,1.994719890315838e-05
1.4444310747547374e-06,7.617210138824824e-07,1.2268554310474026e-06,2.005991292891053e-05
1.4405930873858255e-06,7.742532885567735e-07,1.2143827462660406e-06,2.0171686047461567e-05
1.4348706121277228e-06,7.872766820341968e-07,1.2007751616269626e-06,2.0281886143738687e-05
1.4272923321311694e-06,8.007293735612761e-07,1.1860845594187722e-06,2.039005598740068e-05
1.4178944767933525e-06,8.145435117490481e-07,1.1703681584641683e-06,2.0495844404242464e-05
1.4067223649495443e-06,8.286424490838876e-07,1.1536884849717257e-06,2.0598916093130928e-05
1.3938319510775987e-06,8.429418277596445e-07,1.1361114021884717e-06,2.0698875513435212e-05
1.379289721763046e-06,8.573536559060096e-07,1.1177037241516698e-06,2.0795211021477046e-05
1.3631707335108445e-06,8.71789589457748e-07,1.0985328374164172e-06,2.088729511739964e-05
1.345555031599058e-06,8.861616095047043e-07,1.0786695410133995e-06,2.097445366947369e-05
1.3265235606878808e-06,9.003814011214865e-07,1.0581910183435402e-06,2.105603496419743e-05
1.3061559242549706e-06,9.143605151319287e-07,1.0371791705517592e-06,2.1131428505212336e-05
1.2845305815352465e-06,9.280142704923172e-07,1.0157161928488862e-06,2.1200058495626e-05
1.2617259415097708e-06,9.412710818166e-07,9.938829548546663e-07,2.126136872452477e-05
1.2378207841635005e-06,9.54083546341315e-07,9.717621642101543e-07,2.131483093750868e-05
1.2128938180673398e-06,9.66435592182539e-07,9.494444326839327e-07,2.136007694426673e-05
1.1870235008097605e-06,9.78342537491353e-07,9.270327407331364e-07,2.1397085138225305e-05
1.1602885028987468e-06,9.8984248880588e-07,9.04640887287776e-07,2.1426174186729982e-05
1.132768359757538e-06,1.0009812529485373e-06,8.823855752277269e-07,2.144784472980753e-05
1.104544038653555e-06,1.0117987795621723e-06,8.603767354559887e-07,2.146269286862481e-05
1.0756976860387806e-06,1.0223230691960232e-06,8.387118366290409e-07,2.147136462820655e-05
1.0463114284895296e-06,1.0325698036719007e-06,8.174756080378092e-07,2.1474465979245544e-05
1.0164663587624326e-06,1.042543824542018e-06,7.967422990590655e-07,2.1472492787151387e-05
9.8624230069744e-07,1.0522400286536536e-06,7.765782980821661e-07,2.146582852722481e-05
9.557180030868836e-07,1.061643111972321e-06,7.570445603967674e-07,2.1454772828940906e-05
9.249712990279401e-07,1.0707277907298476e-06,7.381980219759306e-07,2.1439546808702842e-05
8.940791239835783e-07,1.0794604112613154e-06,7.200940520443701e-07,2.142026835635122e-05
8.631173466715807e-07,1.087802025391208e-06,7.027927478999213e-07,2.1396928948169967e-05
8.321600034069713e-07,1.095712859397014e-06,6.863644536179709e-07,2.1369386819629145e-05
8.012786386568435e-07,1.103157387305104e-06,6.70887057858374e-07,2.1337369709105868e-05
7.705437295841826e-07,1.1101090233933858e-06,6.564361224726339e-07,2.1300482184046623e-05
7.400272337061374e-07,1.1165521304498169e-06,6.430776769625103e-07,2.1258226823594963e-05
7.098023002277837e-07,1.1224798735971042e-06,6.308699096290981e-07,2.121004704416606e-05
6.799399895660283e-07,1.1278903369136615e-06,6.198673547601015e-07,2.1155369334846645e-05
6.505070905213637e-07,1.132783981182049e-06,6.101186281156168e-07,2.1093625401793686e-05
6.215662293981114e-07,1.13716200754144e-06,6.016592834447947e-07,2.1024264875327666e-05
5.931757144632757e-07,1.141023635283253e-06,5.945085459068326e-07,2.0946763198596293e-05
5.653885815448693e-07,1.144363771427858e-06,5.886747365809117e-07,2.0860621419871697e-05
5.382525908169266e-07,1.1471730901684772e-06,5.841656200700408e-07,2.0765363543616816e-05
5.118109194070283e-07,1.1494386673059129e-06,5.809964699969107e-07,2.0660543513620126e-05
4.861021875799496e-07,1.1511443666579895e-06,5.791915434478675e-07,2.0545773467443523e-05
4.6116024145639417e-07,1.1522731760369159e-06,5.787786500624797e-07,2.042075956336837e-05
4.370145672255053e-07,1.1528106373150346e-06,5.797792572756917e-07,2.0285323645852712e-05
4.13691200888509e-07,1.1527460510724222e-06,5.821985607778224e-07,2.0139411107653282e-05
3.912143515780676e-07,1.1520729741118028e-06,5.860205698723151e-07,1.9983082840844747e-05
3.696090500824845e-07,1.150792096751575e-06,5.912093526493847e-07,1.9816490433526287e-05
3.489030567281088e-07,1.14891347970664e-06,5.977135235487053e-07,1.9639842827033872e-05
3.291255680273213e-07,1.1464537820124785e-06,6.05472156452353e-07,1.945337678374236e-05
3.1030345054327056e-07,1.1434298995368434e-06,6.144204225004665e-07,1.925738426031916e-05
2.924587712951199e-07,1.1398540349160678e-06,6.244923168552176e-07,1.9052301287038297e-05
2.756090810141658e-07,1.1357324548845707e-06,6.35620537435184e-07,1.883873209594269e-05
2.597682136985532e-07,1.131066773639983e-06,6.47735922069487e-07,1.861736425968632e-05
2.4494671550390803e-07,1.1258572978044891e-06,6.607684923626181e-07,1.8388889716183405e-05
2.3115248939960532e-07,1.1201077217850831e-06,6.746505302613337e-07,1.815398483882024e-05
2.1839118754412799e-07,1.1138291352258304e-06,6.893202551252427e-07,1.7913335678056233e-05
2.0666652824733935e-07,1.107042326142952e-06,7.047244942231096e-07,1.7667707911856714e-05
1.9598114775962078e-07,1.0997772365323666e-06,7.208197992525251e-07,1.7417993163620652e-05
1.8633682495222693e-07,1.092068744979925e-06,7.375699041803294e-07,1.7165154332027487e-05
1.777323269777508e-07,1.0839508999651377e-06,7.549379463040286e-07,1.6910112990362498e-05
1.70160799393557e-07,1.0754526847755734e-06,7.728806048025594e-07,1.6653685959964582e-05
1.6361146533245976e-07,1.0665973131062884e-06,7.913522773387424e-07,1.6396631905485488e-05
1.580751414712315e-07,1.05740620190244e-06,8.103137302476777e-07,1.6139788473415982e-05
1.5354686983045224e-07,1.0479072585067214e-06,8.297349351197378e-07,1.5884201110290404e-05
1.500221969838285e-07,1.0381446662586859e-06,8.495913572546409e-07,1.563113345665387e-05
1.4749129552133405e-07,1.0281856670058769e-06,8.698571383107062e-07,1.5381953414186583e-05
1.4593641601349958e-07,1.0181216437957444e-06,8.90496477062764e-07,1.5137973416965496e-05
1.4533279416144256e-07,1.0080640409379013e-06,9.114566428331534e-07,1.4900316808399525e-05
1.4564972926911069e-07,9.981352504985884e-07,9.326666001996547e-07,1.4669853745123789e-05
1.468507612468681e-07,9.884555529053677e-07,9.540404106864253e-07,1.4447205566549066e-05
1.488940552409983e-07,9.791335944341677e-07,9.754821524133598e-07,1.4232785072364826e-05
1.5173344517639474e-07,9.702662559172483e-07,9.968900320600893e-07,1.4026887081351972e-05
1.5532049241925738e-07,9.619425592506895e-07,1.0181592223062934e-06,1.3829882911716807e-05
1.596077006221486e-07,9.542449801298343e-07,1.0391843301128822e-06,1.3642434567237041e-05
1.6455073377230234e-07,9.472492983518512e-07,1.0598617244740226e-06,1.3465526896234716e-05
