8.732561310427168e-07,4.350674307997512e-07,4.3681884933768384e-07,1.6311571204704487e-05
8.511233440789553e-07,4.359207125866948e-07,4.3877045888590824e-07,1.62027566687778e-05
8.297010126118341e-07,4.3682401822571716e-07,4.407583847405301e-07,1.6114264492435168e-05
8.091033556550662e-07,4.377664155426571e-07,4.4278723869848364e-07,1.6047062177043147e-05
7.894463126605882e-07,4.3873663288828534e-07,4.4485817643960923e-07,1.6001812573673487e-05
7.708536997835519e-07,4.397230644675723e-07,4.4696939601768247e-07,1.597911201339094e-05
7.534488014589462e-07,4.4071318106903803e-07,4.4911668677893715e-07,1.597991564544515e-05
7.373406726806711e-07,4.4169304130022575e-07,4.5129370152210533e-07,1.6005700160537895e-05
7.22616614895222e-07,4.4264803989322387e-07,4.534911860982784e-07,1.605822347812746e-05
7.093416244270356e-07,4.4356445542800114e-07,4.55696474083593e-07,1.613918331717199e-05
6.975623856132029e-07,4.444304907480109e-07,4.578949143712329e-07,1.6249988721606473e-05
6.873126030762617e-07,4.452358737539424e-07,4.6007266481055536e-07,1.639161926650271e-05
6.786176171983596e-07,4.459706750880146e-07,4.6221863413264646e-07,1.6564525749672916e-05
6.714998608179901e-07,4.4662494932059267e-07,4.643243243996351e-07,1.6768573184168744e-05
6.659841476415872e-07,4.471898224671582e-07,4.6638261594832134e-07,1.7003042068243396e-05
6.620974838797076e-07,4.4765893292301844e-07,4.683866876387067e-07,1.726668656385603e-05
6.598630018434424e-07,4.4802846543863677e-07,4.7032959239630634e-07,1.755780913657309e-05
6.592932599868763e-07,4.482962062295214e-07,4.7220431183721226e-07,1.787431575426065e-05
6.603849174140762e-07,4.4846136411956093e-07,4.740032868951847e-07,1.82137718064117e-05
6.631165638112722e-07,4.4852448617831146e-07,4.757177736352456e-07,1.8573478971020767e-05
6.674541757492235e-07,4.48486137923553e-07,4.773379774215356e-07,1.895054601035481e-05
6.73360648637189e-07,4.483452696104257e-07,4.78854347693266e-07,1.9341938574091958e-05
6.807992410197225e-07,4.4809882307364646e-07,4.802598931803657e-07,1.9744515298858992e-05
6.897285718183528e-07,4.477423551625856e-07,4.815507819051443e-07,2.0155054057639247e-05
7.000961310926557e-07,4.4727049001280744e-07,4.827234880884064e-07,2.057029758992229e-05
7.118363241424151e-07,4.466770229793542e-07,4.837717204721782e-07,2.0987040561365306e-05
7.248714699424677e-07,4.4595487505745154e-07,4.846862218377607e-07,2.140221858855902e-05
7.39112451513283e-07,4.45095996086541e-07,4.854563386502789e-07,2.181295026325372e-05
7.544621213261932e-07,4.440916125729818e-07,4.860709748404485e-07,2.2216532490211842e-05
7.708246508722028e-07,4.429328400702837e-07,4.865190977224275e-07,2.2610424956879292e-05
7.881151527921099e-07,4.416112246686789e-07,4.8679092633632e-07,2.2992240609058044e-05
8.062603789306848e-07,4.401190082358573e-07,4.868794084870423e-07,2.3359731154321398e-05
8.251905507492322e-07,4.384499009867012e-07,4.867823335721492e-07,2.3710791020302962e-05
8.448340404413737e-07,4.3660115445927363e-07,4.865042002486557e-07,2.4043489203576032e-05
8.65122153597637e-07,4.34575615705801e-07,4.860544118153404e-07,2.4356074854769862e-05
8.859945575274305e-07,4.323820596779632e-07,4.854428041482886e-07,2.464694837781849e-05
9.073948941527235e-07,4.300339840543558e-07,4.846772001641551e-07,2.491464120847017e-05
9.292635697451113e-07,4.275476258083625e-07,4.837640440439686e-07,2.515781978993304e-05
9.515387839238348e-07,4.2493986697011386e-07,4.82709803082448e-07,2.537529606037856e-05
9.741604142272751e-07,4.222277375685602e-07,4.815206923628346e-07,2.556601413875725e-05
9.970669062617285e-07,4.194316230409151e-07,4.802005656412918e-07,2.5729025306007995e-05
1.0201899916760773e-06,4.1658000515950986e-07,4.787495171518254e-07,2.5863494317204082e-05
1.043455456925763e-06,4.1370948434435076e-07,4.77164605269912e-07,2.5968738067035195e-05
1.0667867513960968e-06,4.1085968168370363e-07,4.754414917107439e-07,2.604428255368807e-05
1.090106923839575e-06,4.0806884264752176e-07,4.73575318936281e-07,2.608996212362144e-05
1.1133416348731085e-06,4.0537157791130145e-07,4.715605000764085e-07,2.610605088863641e-05
1.1364238178703079e-06,4.027967542981543e-07,4.693906715476353e-07,2.609331591745542e-05
1.159293767232021e-06,4.003666048763805e-07,4.6706053931946144e-07,2.605291193199425e-05
1.1818928470616168e-06,3.980980026084407e-07,4.6457064894518597e-07,2.5986178078679432e-05
1.2041599700009846e-06,3.9600391079272103e-07,4.619313736812995e-07,2.589444691474696e-05
1.2260354532003357e-06,3.9409415356101436e-07,4.591602958202095e-07,2.5778940936089965e-05
1.247464243466714e-06,3.92376078331356e-07,4.562761754763315e-07,2.5640767193675493e-05
1.2683946224723892e-06,3.9085475942130544e-07,4.5329763543081177e-07,2.5480948562795748e-05
1.2887754542140636e-06,3.895335800738963e-07,4.5024670199306285e-07,2.530047219417249e-05
1.30855334698426e-06,3.884159318806631e-07,4.471522193980703e-07,2.5100441538234523e-05
1.327673901896803e-06,3.8750612142793726e-07,4.4405163864066885e-07,2.4882336092735307e-05
1.346088268450565e-06,3.8680820338126906e-07,4.4099189591284246e-07,2.464815811486524e-05
1.3637557155192858e-06,3.8632440620741685e-07,4.38028495325638e-07,2.440028225296355e-05
1.3806377036126158e-06,3.860549899143081e-07,4.3522181398069153e-07,2.4141134289357237e-05
1.3966907846903843e-06,3.859980391567574e-07,4.326320687662314e-07,2.387294461287182e-05
1.4118643239399587e-06,3.861477614430472e-07,4.3031548891883677e-07,2.3597713602199485e-05
1.426101765140887e-06,3.8649378855830577e-07,4.283223332802404e-07,2.331743727409324e-05
1.4393419164264353e-06,3.870227145594321e-07,4.2669618878302713e-07,2.303446542420554e-05
1.451519449273103e-06,3.8771927042968825e-07,4.254737898445916e-07,2.2751696634690366e-05
1.4625665775964609e-06,3.8856563087302814e-07,4.246836225383341e-07,2.247249033390941e-05
1.4724165065049443e-06,3.8954051988125293e-07,4.243438265601258e-07,2.2200440640543724e-05
1.4810067230093032e-06,3.9062002412394593e-07,4.2446214159084404e-07,2.1939147680867363e-05
1.4882811112480612e-06,3.917793394269989e-07,4.2503750467918977e-07,2.169202733611657e-05
1.4941914174199904e-06,3.929940840919812e-07,4.260622240570216e-07,2.146217528032608e-05
1.4986975672246597e-06,3.9424228258281657e-07,4.2752617545860636e-07,2.1252277989911678e-05
1.5017668031718475e-06,3.955067620362401e-07,4.294221346720758e-07,2.106455563136349e-05
1.5033729623839114e-06,3.9677515955329367e-07,4.317487264142122e-07,2.090072455506381e-05
1.5034959570586648e-06,3.9803814100819675e-07,4.3450909239040525e-07,2.0761960355615147e-05
1.5021228307262732e-06,3.992886631005044e-07,4.3770670766694203e-07,2.064886570061449e-05
1.4992525757724883e-06,4.0052195724821077e-07,4.413423779869121e-07,2.056147172325983e-05
1.4949001694363032e-06,4.017346422464479e-07,4.454136895597766e-07,2.049928547680029e-05
1.489093668031741e-06,4.0292340872855923e-07,4.4991382621228e-07,2.0461376682712694e-05
1.4818683553630782e-06,4.0408484534270757e-07,4.54828898791776e-07,2.044649208844957e-05
1.4732646762114113e-06,4.0521656513858344e-07,4.601366227122675e-07,2.0453183073217287e-05
1.4633282288709347e-06,4.0631796202471035e-07,4.6580762346595343e-07,2.0479921490519932e-05
1.4521085161978927e-06,4.0738989540245e-07,4.7180780529671365e-07,2.052517087014448e-05
1.4396573505855454e-06,4.0843464330092796e-07,4.780999281458452e-07,2.058741374080257e-05
1.426028145153723e-06,4.094569061840354e-07,4.846434448690447e-07,2.0665169858477398e-05
1.4112759907665298e-06,4.104644029122829e-07,4.913935025668532e-07,2.0757017564531035e-05
1.39545710949222e-06,4.114663395015657e-07,4.983013188151455e-07,2.0861603306277205e-05
1.3786277103658735e-06,4.1247045655182047e-07,5.053158602488782e-07,2.097762677082644e-05
1.3608459256830514e-06,4.134813215492722e-07,5.123852312436601e-07,2.1103784978795155e-05
1.3421785057401104e-06,4.145022736087046e-07,5.19457954007318e-07,2.1238688370370602e-05
1.3227070213887708e-06,4.15539606401569e-07,5.264839681244932e-07,2.1380831182594705e-05
1.302525855975493e-06,4.1660336226416827e-07,5.334144994496927e-07,2.1528644467792678e-05
1.281733010123994e-06,4.177030365892421e-07,5.402018362688155e-07,2.168054251823739e-05
1.2604245724094507e-06,4.188435002071704e-07,5.467993085268167e-07,2.183491970712819e-05
1.2386981331327142e-06,4.20024870250115e-07,5.531603815030892e-07,2.199014808212169e-05
1.2166587266758213e-06,4.212441265771497e-07,5.592380228182476e-07,2.214460912843175e-05
1.1944199478803785e-06,4.2249565560234397e-07,5.649861686718278e-07,2.229673390602489e-05
1.1720992689368338e-06,4.237710644228196e-07,5.70362899390197e-07,2.2445000820381445e-05
1.1498105621609271e-06,4.2505926279957924e-07,5.753335901531658e-07,2.258791245940205e-05
1.1276572395658523e-06,4.263466842412257e-07,5.798719836184604e-07,2.272405888530483e-05
1.105729295811435e-06,4.27618032965385e-07,5.839585604082418e-07,2.285229251989801e-05
1.084104740228276e-06,4.2885803668938425e-07,5.875780463085745e-07,2.297187000734947e-05
1.0628524933102779e-06,4.300532200031729e-07,5.907174430441701e-07,2.308243038698248e-05
1.0420349360148144e-06,4.311939198321053e-07,5.933642147449436e-07,2.318385647758628e-05
1.0217094904469537e-06,4.322780855363432e-07,5.955050118742978e-07,2.327612922304986e-05
1.0019285356928178e-06,4.3331412775069094e-07,5.971258327125787e-07,2.335921409335325e-05
9.827380479627457e-07,4.343180433869957e-07,5.982135035496416e-07,2.343298518938696e-05
9.641765132831615e-07,4.3530667135018814e-07,5.987582774835063e-07,2.349721487537352e-05
9.462752854072409e-07,4.3629369639075786e-07,5.987562292631003e-07,2.355162844659771e-05
9.290607055502668e-07,4.3729043468630903e-07,5.982094145589418e-07,2.359594874911633e-05
9.125575564558209e-07,4.3830777192972726e-07,5.971245325936036e-07,2.3629880162375502e-05
8.967907888665643e-07,4.3935623219636794e-07,5.955121142745861e-07,2.3653076403344807e-05
8.817839572978764e-07,4.4044439290174856e-07,5.933867061335901e-07,2.366519401560383e-05
8.675573616703009e-07,4.415773807401992e-07,5.907666997159889e-07,2.36660946954436e-05
8.541278752491632e-07,4.4275681600476606e-07,5.876730947298112e-07,2.365604568287772e-05
8.415099650527148e-07,4.4398148205949995e-07,5.841290476593566e-07,2.363568231626073e-05
8.297154478439194e-07,4.4524699228035535e-07,5.801603360681507e-07,2.360581896745664e-05
8.187505306365459e-07,4.4654480607864647e-07,5.757957785758947e-07,2.3567374208851145e-05
8.086148158584325e-07,4.478621866252717e-07,5.710685040982765e-07,2.3521393356788003e-05
7.993045532038996e-07,4.49183907290007e-07,5.660161900905166e-07,2.346901032720001e-05
7.908146027572229e-07,4.5049573852456477e-07,5.606783045311039e-07,2.341136282767806e-05
7.831363380170336e-07,4.5178809139517815e-07,5.550933706033174e-07,2.3349531297517265e-05
7.762542448568995e-07,4.5305640278059463e-07,5.492981452454851e-07,2.3284500753505938e-05
7.701442572338815e-07,4.5429775796229174e-07,5.433277871470149e-07,2.321712621658092e-05
7.647747155853755e-07,4.555088311279247e-07,5.372166712059273e-07,2.314810488616285e-05
7.601089731074206e-07,4.566882639645146e-07,5.3099831718159e-07,2.307796888090173e-05
7.561104988506806e-07,4.5783986620115616e-07,5.247039034266757e-07,2.300709246599359e-05
7.527500624751517e-07,4.5897268178026713e-07,5.183617782969017e-07,2.2935700993323995e-05
7.50008394804979e-07,4.6009827408293065e-07,5.119983886424246e-07,2.286388023525668e-05
7.478709965365314e-07,4.612278637209898e-07,5.056389528923562e-07,2.2791584071660824e-05
7.463218666730078e-07,4.62370204312724e-07,4.993077204649839e-07,2.2718644758339985e-05
7.453410257505157e-07,4.635297592791679e-07,4.930280704047835e-07,2.264478446965706e-05
7.44903085501074e-07,4.647070203194985e-07,4.868222540867535e-07,2.2569611755691972e-05
7.449762840731954e-07,4.659009204655475e-07,4.807118684610887e-07,2.2492617142978933e-05
7.455237573404578e-07,4.671092480121644e-07,4.7471966450925596e-07,2.241319300528176e-05
7.465049670457332e-07,4.683270138198248e-07,4.688707433902251e-07,2.233066057751052e-05
7.478773245208708e-07,4.6954665001523896e-07,4.631921424425064e-07,2.2244292410068163e-05
7.496030407074043e-07,4.7075998416188076e-07,4.577123444714129e-07,2.2153348638096185e-05
7.516588983914914e-07,4.7195903828971423e-07,4.524606203179144e-07,2.2057128448564853e-05
7.540376248475115e-07,4.731353136700444e-07,4.4746466290789526e-07,2.1955016126341723e-05
7.567388800937465e-07,4.742797617297732e-07,4.4274795873119105e-07,2.184650592512676e-05
7.597615188927927e-07,4.75383826913995e-07,4.383289678603892e-07,2.1731208220572118e-05
7.63102747232373e-07,4.7643954555850524e-07,4.3422075694683743e-07,2.1608849980239835e-05
7.667573721919298e-07,4.774383160839047e-07,4.304302256710818e-07,2.147926919040248e-05
7.707134570307913e-07,4.783699081947015e-07,4.269587562907232e-07,2.134238730723625e-05
7.74949087433515e-07,4.792222075857941e-07,4.238037881739979e-07,2.1198173159417207e-05
7.794347680836661e-07,4.799812131438646e-07,4.2095973285375867e-07,2.104666238142298e-05
7.84140366445696e-07,4.806319897227568e-07,4.1842028776388813e-07,2.088804267908093e-05
7.890395874845651e-07,4.811607820932979e-07,4.1618257716690603e-07,2.0722687338101653e-05
7.941066283517705e-07,4.815557573505378e-07,4.142486163975515e-07,2.0551061778815052e-05
7.99309679511985e-07,4.818058413207406e-07,4.126218091275345e-07,2.0373598435535267e-05
8.046097298319977e-07,4.819012199892856e-07,4.113020903543538e-07,2.019065030523481e-05
8.099666025224966e-07,4.818363993812117e-07,4.1028415486858784e-07,2.000254439777248e-05
8.15345570922912e-07,4.816123787605075e-07,4.0955927943533825e-07,1.9809688541254126e-05
8.207170535276893e-07,4.812354265037655e-07,4.0911840987577076e-07,1.9612622605791627e-05
8.260529849389599e-07,4.807133435973426e-07,4.089536422917653e-07,1.941195923282512e-05
8.313269039450678e-07,4.80052386919958e-07,4.0905669019109947e-07,1.920828049150625e-05
8.365152604398034e-07,4.7925634842948e-07,4.094167244631432e-07,1.900207524678908e-05
8.415978370539393e-07,4.783263201305285e-07,4.100203538272508e-07,1.8793766728341127e-05
8.465578639954755e-07,4.772608816537592e-07,4.108525966685243e-07,1.8583834033045143e-05
8.513786061881998e-07,4.7605796672658044e-07,4.118966463901849e-07,1.8372944031738777e-05
8.560391501111423e-07,4.7471722015484316e-07,4.131326822809345e-07,1.816197628548393e-05
8.605174278522789e-07,4.732400660752674e-07,4.14537705108728e-07,1.795191966970587e-05
8.648010503574318e-07,4.7162791995127323e-07,4.1608757762525184e-07,1.774371229806584e-05
8.68897910747139e-07,4.6988126318535844e-07,4.177602978494345e-07,1.753810608107491e-05
8.728364827772798e-07,4.679999959026641e-07,4.195386615766352e-07,1.7335615663031467e-05
8.76656450871442e-07,4.659840879845578e-07,4.214110273886279e-07,1.7136560603565654e-05
8.804041586339989e-07,4.6383458919320834e-07,4.233692384591836e-07,1.6941163527345713e-05
8.841376354099831e-07,4.6155489654826354e-07,4.254043186913696e-07,1.6749693964226113e-05
8.879266033523882e-07,4.591505410108979e-07,4.275029810988678e-07,1.6562670812074825e-05
8.918410923309675e-07,4.5662695102339705e-07,4.2964700426452847e-07,1.6381012566210298e-05
8.959407148451858e-07,4.539876678499285e-07,4.3181486770181256e-07,1.620596585617653e-05
9.002711391155794e-07,4.512343262296428e-07,4.339838197128086e-07,1.6038861324590726e-05
9.048639435855896e-07,4.483674093315132e-07,4.361306783261637e-07,1.5880882741502593e-05
9.097413862567907e-07,4.4538669161219566e-07,4.382315978835578e-07,1.5732956535412033e-05
9.149287244308764e-07,4.422910706941592e-07,4.402620768323677e-07,1.5595856196182938e-05
9.204665278029213e-07,4.3907864634283716e-07,4.4219750651679776e-07,1.5470517598325487e-05
9.264117601302116e-07,4.357470400846669e-07,4.440139203808203e-07,1.5358297166602484e-05
9.32826063767112e-07,4.322933081431429e-07,4.456883816845949e-07,1.526094521954111e-05
9.397643167857627e-07,4.2871405421156286e-07,4.4719907596056566e-07,1.5180396029697656e-05
9.472772328645436e-07,4.2500601661883345e-07,4.485260491707698e-07,1.511855925981057e-05
9.55423803272921e-07,4.2116690480566476e-07,4.496527312235099e-07,1.5077157029907433e-05
9.642768632217787e-07,4.1719597207761437e-07,4.505672425567816e-07,1.5057599983355631e-05
9.739177204133629e-07,4.130933418327074e-07,4.5126224964025223e-07,1.5060911858542755e-05
9.844394979594044e-07,4.088588289102294e-07,4.5173350880941373e-07,1.5087702230121203e-05
9.959629894394436e-07,4.044921611015342e-07,4.519790654236946e-07,1.5138167718524466e-05
1.0086331046046329e-06,3.999949205350799e-07,4.519994892058821e-07,1.5212100751512316e-05
1.0225913688684048e-06,3.9537238965403105e-07,4.5179767363491534e-07,1.5308893485012393e-05
1.0379569577945079e-06,3.9063366328409135e-07,4.5137798017449296e-07,1.542754204032196e-05
1.0548248275295872e-06,3.857907764260437e-07,4.5074515874139936e-07,1.5566681937114104e-05
1.0732694967471492e-06,3.808583457023112e-07,4.499033664771224e-07,1.5724675627024952e-05
1.093349812129052e-06,3.758535657587839e-07,4.488565622828447e-07,1.5899735288988206e-05
1.1151101008031102e-06,3.707950947129325e-07,4.476105330915464e-07,1.6090047193271975e-05
1.1385734595593223e-06,3.657011257796564e-07,4.4617341943989745e-07,1.62938660709049e-05
1.1637300128326395e-06,3.605888383695889e-07,4.4455339594846104e-07,1.6509559081341245e-05
1.1905282053028444e-06,3.5547490609692995e-07,4.427570410917507e-07,1.6735606931446475e-05
1.2188746721566989e-06,3.5037518897411585e-07,4.407899462433402e-07,1.6970590961153932e-05
1.2486412537690564e-06,3.453045650297958e-07,4.3865743750558455e-07,1.7213179122378513e-05
1.2796767403685725e-06,3.40278120436696e-07,4.3636484711782496e-07,1.746209312114185e-05
1.311821389938465e-06,3.353122613849944e-07,4.3391824408123093e-07,1.7716038310172222e-05
1.3449164963919395e-06,3.3042461273952484e-07,4.313251642265407e-07,1.7973622213727206e-05
1.3788028731021428e-06,3.256331140312545e-07,4.285951209589371e-07,1.8233330707020264e-05
1.413314383368447e-06,3.2095487639648827e-07,4.2574062340871953e-07,1.8493604659248666e-05
1.4482777173099972e-06,3.1640528257615943e-07,4.227780008403406e-07,1.8752962011486984e-05
1.4835199398120868e-06,3.119974812086728e-07,4.197276578241354e-07,1.9010046385033133e-05
1.518873490917903e-06,3.077421131599991e-07,4.1661417157364577e-07,1.9263566280160145e-05
1.5541726261560344e-06,3.0364737460977145e-07,4.134646393190693e-07,1.9512214338845692e-05
1.5892472725924603e-06,2.9971951101499075e-07,4.1030538805665716e-07,1.9754650452000625e-05
1.623920853050514e-06,2.9596339292322677e-07,4.071605471707338e-07,1.9989534835762986e-05
1.6580151212205108e-06,2.9238344620362766e-07,4.040526596287496e-07,2.0215542883632863e-05
1.6913616085015088e-06,2.889867951700864e-07,4.010028048895109e-07,2.0431344196720613e-05
1.7238106231378296e-06,2.8578849804752413e-07,3.980305815730099e-07,2.063558978716693e-05
1.7552290907076789e-06,2.828133260988738e-07,3.9515439517916324e-07,2.082694214417088e-05
1.7854913602776543e-06,2.800908985830592e-07,3.9239115458424504e-07,2.1004151645344957e-05
1.8144722547592681e-06,2.7764979426836057e-07,3.89756569357929e-07,2.1166150915690687e-05
1.8420465685334504e-06,2.755149572472179e-07,3.87266676429881e-07,2.1312142833751488e-05
1.8680928492939911e-06,2.737070607130739e-07,3.849377539383369e-07,2.1441664894219188e-05
1.8924971015242245e-06,2.722447967122249e-07,3.8278406842661797e-07,2.1554576586598363e-05
1.9151563577052365e-06,2.711502592516157e-07,3.808169339320376e-07,2.1650950118242126e-05
1.935981881153192e-06,2.704522584781136e-07,3.7904546462878496e-07,2.1730921813464845e-05
1.954899003624635e-06,2.701837487272169e-07,3.774763027322772e-07,2.179457942271176e-05
1.97184373086838e-06,2.7037524565411164e-07,3.761130720026792e-07,2.1841929123823113e-05
1.986757878156654e-06,2.710491407850097e-07,3.7495742123165094e-07,2.187291836594744e-05
1.9995862879449383e-06,2.7221743733828845e-07,3.7400942950335456e-07,2.1887459702890784e-05
2e-07,2.7388181523419924e-07,3.732659189348803e-07,2.18854787283644e-05
2e-07,2.760348117706065e-07,3.727192360315621e-07,2.1867082351670634e-05
2e-07,2.786616268293389e-07,3.723579770033772e-07,2.18327971867012e-05
2e-07,2.817417838813917e-07,3.7216850594172393e-07,2.1783652883796845e-05
2e-07,2.852497986039928e-07,3.721357874577842e-07,2.172103441299954e-05
2e-07,2.891548968719886e-07,3.7224342027911437e-07,2.164643137274875e-05
2e-07,2.934211145198545e-07,3.7247525258594906e-07,2.1561226581547167e-05
2e-07,2.9800877665780765e-07,3.728202243825281e-07,2.1466683376620585e-05
2e-07,3.028764862750276e-07,3.732771803144348e-07,2.1364201675826295e-05
2e-07,3.079825486070069e-07,3.738545022265713e-07,2.125562197978373e-05
1.995483019949365e-06,3.132864187547034e-07,3.745641331211693e-07,2.1143292967973317e-05
1.9819372456447e-06,3.187511206108175e-07,3.7541499999710154e-07,2.1029905972357886e-05
1.966363573046228e-06,3.243453219022917e-07,3.764099487789622e-07,2.0918268067907328e-05
1.948846840385089e-06,3.300425728212386e-07,3.7754583475687647e-07,2.0811106584841963e-05
1.929471985367765e-06,3.35818429216457e-07,3.7881494435365704e-07,2.071092715449904e-05
1.908322225693536e-06,3.4164799565443594e-07,3.802062805583649e-07,2.0619924602056065e-05
1.885478343081965e-06,3.475043498027772e-07,3.817057489372761e-07,2.0539924720039397e-05
1.861018027172673e-06,3.533577301734143e-07,3.832961346539756e-07,2.047235061104877e-05
1.8350170298071998e-06,3.5917577609296827e-07,3.849582762285124e-07,2.0418231275672228e-05
1.8075526061988e-06,3.6492462611390117e-07,3.866725754764389e-07,2.037823248658902e-05
1.7787060822614368e-06,3.705716147767195e-07,3.8841963518859097e-07,2.035265829718584e-05
1.7485628490301663e-06,3.7608978864861776e-07,3.901817058458102e-07,2.0341432385025632e-05
1.7172161604632491e-06,3.8146003663543464e-07,3.9194575369508404e-07,2.0344126323720426e-05
1.6847758618909463e-06,3.866681493932161e-07,3.937047299347902e-07,2.0360058480413398e-05
1.6513692640452014e-06,3.917013878168457e-07,3.954559504764106e-07,2.0388420490573088e-05
1.617129532661874e-06,3.965472935520496e-07,3.9720038589474367e-07,2.0428389891903795e-05
1.5821842565980437e-06,4.0119252568980204e-07,3.9894313012618496e-07,2.047920886407254e-05
1.5466543470455003e-06,4.0562217165031033e-07,4.006914129961164e-07,2.0540218628002607e-05
1.5106617951102708e-06,4.098210132338539e-07,4.024513691743152e-07,2.0610865462993908e-05
1.474339084947509e-06,4.137763328073307e-07,4.042274788685028e-07,2.069069775055917e-05
1.4378327913006275e-06,4.174809549910515e-07,4.060239003687877e-07,2.0779347139838683e-05
1.4012985104315577e-06,4.20933829351465e-07,4.0784444091962827e-07,2.087648432207469e-05
1.3648907919975168e-06,4.241383520224646e-07,4.0969048900075453e-07,2.0981744047357805e-05
1.3287549029825656e-06,4.271012438649953e-07,4.115592252007021e-07,2.109463027803993e-05
1.29302387695106e-06,4.298311588478735e-07,4.1344377707155657e-07,2.121447715159815e-05
1.2578184860549671e-06,4.323360754541179e-07,4.1533418420302097e-07,2.134052428438238e-05
1.2232476262509631e-06,4.3462166135041457e-07,4.172178678329661e-07,2.1472024925422105e-05
1.1894118060628088e-06,4.366913567794589e-07,4.190804770919058e-07,2.1608277971840706e-05
1.1564119889442238e-06,4.3854729227403775e-07,4.209087278474328e-07,2.1748590132747806e-05
1.1243554756193005e-06,4.4019104654257755e-07,4.226931561434744e-07,2.189223649965383e-05
1.0933511230773195e-06,4.416230920729585e-07,4.244272823539469e-07,2.203845437108159e-05
1.0635026060394042e-06,4.428418166784147e-07,4.261052454758015e-07,2.2186432909169708e-05
1.0349069629675777e-06,4.438438196755208e-07,4.277207439770905e-07,2.2335257366335904e-05
1.0076528381629888e-06,4.4462526484003725e-07,4.29265951623983e-07,2.248385286120639e-05
9.81818602553262e-07,4.4518284490328654e-07,4.307303850586888e-07,2.263098719615145e-05
9.574734573514762e-07,4.455140208532745e-07,4.3210112525452203e-07,2.277533048834574e-05
9.346761722078876e-07,4.456189461813404e-07,4.3336395457448814e-07,2.291555728701677e-05
9.134695228855952e-07,4.45504162789231e-07,4.3450493558465326e-07,2.305048450061004e-05
8.938764954075902e-07,4.451835308834506e-07,4.355118020824065e-07,2.317920098339239e-05
8.759023384363705e-07,4.4467572294802323e-07,4.363736486740785e-07,2.3301117822133414e-05
8.595397660013685e-07,4.440020961788417e-07,4.370792330304368e-07,2.3415908021362092e-05
8.447747194489628e-07,4.4318553936699275e-07,4.3761582779811926e-07,2.352335516073187e-05
8.315921355270569e-07,4.422487357061493e-07,4.3796941848040506e-07,2.3623176832944755e-05
8.199770355186494e-07,4.412120237786088e-07,4.381256310314764e-07,2.3714914919435884e-05
8.099109435316796e-07,4.400916905896363e-07,4.3807038442580137e-07,2.3797916089607448e-05
8.01372050741867e-07,4.3889919409415865e-07,4.377905365867628e-07,2.3871359039323777e-05
7.943400646713085e-07,4.3764197912794313e-07,4.372752888913149e-07,2.3934338098604972e-05
7.887974824230077e-07,4.363260363622986e-07,4.3651710084988497e-07,2.3986063862566e-05
7.847243723493101e-07,4.3495849312307856e-07,4.355110406792485e-07,2.402611840074754e-05
7.820918919725776e-07,4.335479685821521e-07,4.342536542309988e-07,2.405455985886328e-05
7.808583195371453e-07,4.321032078521457e-07,4.327427937897235e-07,2.4071801221207213e-05
7.809680376945411e-07,4.306323787882052e-07,4.3097914985693253e-07,2.407839752257565e-05
7.823554851863559e-07,4.291430741631632e-07,4.289685325478106e-07,2.4074878221114646e-05
7.849534735375509e-07,4.2764158341141063e-07,4.2672255366949293e-07,2.4061733745127678e-05
7.886983062058476e-07,4.261316195555883e-07,4.2425685903197656e-07,2.4039636747366136e-05
7.935262753588084e-07,4.246136151524735e-07,4.215883210924311e-07,2.400974789876926e-05
7.993662058267417e-07,4.2308512941088967e-07,4.187329718248206e-07,2.3973816697054503e-05
8.061354300378285e-07,4.215423980521483e-07,4.15705766925419e-07,2.3934025777255467e-05
8.137401825003838e-07,4.199825688259906e-07,4.125222379901546e-07,2.389275036284437e-05
8.220786260459527e-07,4.184050720741119e-07,4.092004351530288e-07,2.385236214295824e-05
8.31046576970476e-07,4.1681088552571456e-07,4.057608925722778e-07,2.381510610674966e-05
8.405451960034484e-07,4.1520064147598255e-07,4.02225496159749e-07,2.378302664742404e-05
8.50487602796738e-07,4.1357343430932773e-07,3.986190505162238e-07,2.3757916827176386e-05
8.607997148383144e-07,4.1192688705005477e-07,3.9497220108981703e-07,2.3741281099399083e-05
8.714140470487402e-07,4.102575155680332e-07,3.913202111865144e-07,2.373430221533681e-05
8.822646358328234e-07,4.085611810347797e-07,3.876992195001962e-07,2.3737806805787025e-05
8.932907749764574e-07,4.068346456770689e-07,3.8414515470450346e-07,2.375222747856557e-05
9.044440302557439e-07,4.050769983561937e-07,3.806939788881565e-07,2.377757106788859e-05
9.156891226355541e-07,4.0328879584136527e-07,3.7738033796001477e-07,2.381342504283468e-05
9.269988797346036e-07,4.014703365071415e-07,3.7423582958394187e-07,2.3859022757985136e-05
9.383476065946423e-07,3.9962088739796526e-07,3.7128833027502256e-07,2.3913356648849623e-05
9.497046332420332e-07,3.977382781283431e-07,3.6856149736628144e-07,2.397531276974419e-05
9.61030608530684e-07,3.9581900011223116e-07,3.6607416626347544e-07,2.4043779181118698e-05
9.722784067289894e-07,3.9385976205466496e-07,3.638407795499336e-07,2.411769256447883e-05
9.833972740949952e-07,3.918603324139336e-07,3.61872576403619e-07,2.4196057793917387e-05
9.943376315903586e-07,3.8982564609613594e-07,3.60178403607711e-07,2.4277984510942678e-05
1.0050529012190258e-06,3.8776457879044364e-07,3.587655119749475e-07,2.4362714295916894e-05
1.0154982534774826e-06,3.856863012672232e-07,3.57640939893533e-07,2.444959839832269e-05
1.0256306015825695e-06,3.835977612915193e-07,3.5681203184697353e-07,2.4538038499262038e-05
1.0354100073204722e-06,3.815038261831903e-07,3.562844311085878e-07,2.462741234077711e-05
1.0448012945784648e-06,3.794088307554339e-07,3.5605916040729706e-07,2.4716991916766665e-05
1.0537773586992096e-06,3.77317202362889e-07,3.561318919417025e-07,2.480590402901373e-05
1.0623203654840455e-06,3.7523300198134044e-07,3.564952698789699e-07,2.4893166216191666e-05
1.0704164439238334e-06,3.731599997120236e-07,3.5714191868004273e-07,2.4977729822531444e-05
1.0780484191024193e-06,3.7110152283624783e-07,3.5806437403066884e-07,2.505847316567588e-05
1.0851924622513521e-06,3.6905953915932406e-07,3.5925265629319573e-07,2.513418861462042e-05
1.0918202087119891e-06,3.6703526321928095e-07,3.606942684472328e-07,2.5203617120506493e-05
1.0979056207821421e-06,3.65031062499074e-07,3.6237676455809863e-07,2.526549635397844e-05
1.103431521240723e-06,3.63050466386989e-07,3.642887927718319e-07,2.5318578687071953e-05
1.1083904403177209e-06,3.6109619667573815e-07,3.664187003775802e-07,2.53616894415102e-05
1.1127814190006169e-06,3.591696443035985e-07,3.6875362491879245e-07,2.5393884497246108e-05
1.1166062440506808e-06,3.572729373752188e-07,3.712808714604949e-07,2.541459100261064e-05
1.1198661091216384e-06,3.554102673013092e-07,3.739888073973153e-07,2.542359145654533e-05
1.1225619177796732e-06,3.5358644131071687e-07,3.768650283172686e-07,2.542088525940025e-05
1.1246996273569859e-06,3.5180482173161537e-07,3.7989544571838214e-07,2.5406547133386347e-05
1.1262940597383528e-06,3.500672929714109e-07,3.8306661994944454e-07,2.5380628365015698e-05
1.1273659571779579e-06,3.483777798651212e-07,3.8636754360985066e-07,2.534309740724768e-05
1.1279360596882489e-06,3.467475020817871e-07,3.897879460629528e-07,2.529385014650572e-05
1.1280230727978405e-06,3.4519630492162143e-07,3.933149292837421e-07,2.523280628370893e-05
1.127648660241657e-06,3.437479446860229e-07,3.969309933615046e-07,2.51600170467019e-05
1.1268449034319551e-06,3.424237679173938e-07,4.0061439552187367e-07,2.50757074976038e-05
1.125653869844532e-06,3.412396120185384e-07,4.0434158716488313e-07,2.498025628404297e-05
1.124117315570874e-06,3.402067730514535e-07,4.080909993883392e-07,2.487413642027613e-05
1.1222690515718335e-06,3.393345015340081e-07,4.1184550839402266e-07,2.4757895992144282e-05
1.1201381981962655e-06,3.386315907053152e-07,4.15591449078301e-07,2.463227239266345e-05
1.1177558278184956e-06,3.3810679484747146e-07,4.1931611975246397e-07,2.449830627675783e-05
1.1151576271241213e-06,3.3776773242378426e-07,4.2300760378773467e-07,2.435726891940974e-05
1.1123849033065394e-06,3.376184339060231e-07,4.266567996813349e-07,2.421053054017105e-05
1.1094842648371098e-06,3.376579930167302e-07,4.3025720015635317e-07,2.4059520641785565e-05
1.1065035723616805e-06,3.3788115887310925e-07,4.338012387367814e-07,2.3905678458246875e-05
1.103489471900394e-06,3.382788107182056e-07,4.3727724341229277e-07,2.375033773781889e-05
1.1004888767733931e-06,3.3883816341897557e-07,4.4066908191148404e-07,2.359462525230281e-05
1.0975470960279604e-06,3.395444742429855e-07,4.439572045278666e-07,2.343940439862073e-05
1.0947027807851362e-06,3.403830868274741e-07,4.4712055874894935e-07,2.3285250374236512e-05
1.0919867629633451e-06,3.413392708266788e-07,4.501390492051172e-07,2.31324595403815e-05
1.0894264311198524e-06,3.423966419686822e-07,4.529947445081622e-07,2.298109220207758e-05
1.0870542715476142e-06,3.4353655739529717e-07,4.5567122047953366e-07,2.2831019862428768e-05
1.0849138697191255e-06,3.447389854744958e-07,4.58153133120201e-07,2.2681957667857872e-05
1.0830557525165235e-06,3.4598340253497117e-07,4.604274729753828e-07,2.253349997125309e-05
1.0815289693214053e-06,3.472487264248505e-07,4.624852186027346e-07,2.238517008082349e-05
1.080376866205499e-06,3.4851342266100076e-07,4.6432130308122255e-07,2.2236473510890384e-05
1.0796344866211436e-06,3.497568073462904e-07,4.6593272050634773e-07,2.2086935157711808e-05
1.0793240246803363e-06,3.5096003748002785e-07,4.6731702707328084e-07,2.1936092800148816e-05
1.0794503974091935e-06,3.521057445770429e-07,4.684725970253988e-07,2.178346029659596e-05
1.0799999135498102e-06,3.531783657459196e-07,4.693999007648575e-07,2.162851327976261e-05
1.0809423973348872e-06,3.5416559541911567e-07,4.701025328493868e-07,2.1470706067477803e-05
1.0822367486817365e-06,3.5505836383691603e-07,4.7058608845751466e-07,2.1309487759478907e-05
1.083841267410783e-06,3.558491709297066e-07,4.708555278208725e-07,2.1144302235768774e-05
1.0857247638571478e-06,3.565307146506908e-07,4.709144548271449e-07,2.097458183451695e-05
1.0878681112684491e-06,3.570951717512944e-07,4.707661285204893e-07,2.079975226935766e-05
1.090254675032513e-06,3.575342594466432e-07,4.7041359441275815e-07,2.0619260683966838e-05
1.0928635469272752e-06,3.578405515901704e-07,4.6985885458844297e-07,2.0432626929408947e-05
1.0956751214769859e-06,3.580085965986924e-07,4.691019730545245e-07,2.023949358908166e-05
1.0986781872467906e-06,3.5803519984659185e-07,4.6814055398997966e-07,2.0039638800168336e-05
1.1018654407739969e-06,3.579207018656453e-07,4.66969904429968e-07,1.9832945057811992e-05
1.105223357394555e-06,3.57670301197601e-07,4.6558412969803494e-07,1.9619351313222853e-05
1.1087281097801149e-06,3.5729250245424425e-07,4.639784825345093e-07,1.939884009553008e-05
1.1123465255541305e-06,3.567964690428005e-07,4.6215133540907077e-07,1.9171505431262852e-05
1.1160372099241328e-06,3.5619188223954633e-07,4.6010385919478864e-07,1.893764582983272e-05
1.1197529300510746e-06,3.554894148092203e-07,4.578395534363902e-07,1.869775380972577e-05
1.1234458014478114e-06,3.546990530164882e-07,4.5536533037453614e-07,1.8452402679992977e-05
1.127072856980176e-06,3.538285669401525e-07,4.5269152497892215e-07,1.8202148745241147e-05
1.1305966557956312e-06,3.5288429035847617e-07,4.498303285768238e-07,1.7947496682439073e-05
1.133979368232657e-06,3.518736621305162e-07,4.46795390986174e-07,1.7688923430811212e-05
1.1371768493734565e-06,3.5080782162162106e-07,4.436020548553542e-07,1.7426935686874582e-05
1.1401382861833365e-06,3.4970200781900875e-07,4.402660158431404e-07,1.71620780913249e-05
1.1428106751172962e-06,3.485740315307484e-07,4.3680152989191435e-07,1.6894872797900635e-05
1.145146285524316e-06,3.474424818006206e-07,4.3322218272313536e-07,1.6625779240076647e-05
1.1471096518046342e-06,3.463249538722568e-07,4.295449795926491e-07,1.6355233231524505e-05
1.1486782664871408e-06,3.4523681710019106e-07,4.2579357641705976e-07,1.6083758304959368e-05
1.149836912474647e-06,3.441911664145841e-07,4.2199637666793204e-07,1.5812113182994346e-05
1.1505720633934487e-06,3.4320012690383395e-07,4.181814142848886e-07,1.5541391224745375e-05
1.150870700328434e-06,3.422774041541122e-07,4.1437249153890757e-07,1.527298412712425e-05
1.1507228092628306e-06,3.414405975727053e-07,4.1058843771323686e-07,1.5008414959167706e-05
1.1501232742573828e-06,3.4071164366659515e-07,4.068449632400866e-07,1.4749129510693814e-05
1.1490696256635463e-06,3.401144663257407e-07,4.031568974281616e-07,1.449634630461244e-05
1.1475575297248542e-06,3.3967027045067097e-07,3.99538427907749e-07,1.4251010975886254e-05
1.1455781019761442e-06,3.393940142411639e-07,3.960015576144107e-07,1.401382034493182e-05
1.1431180956625123e-06,3.392944499234024e-07,3.925547733180489e-07,1.3785271058917878e-05
1.1401614226162374e-06,3.3937616840568927e-07,3.892037337638297e-07,1.356576649810704e-05
1.1366900792595222e-06,3.39641793820413e-07,3.859550915720999e-07,1.3355816454672282e-05
1.1326841505979829e-06,3.4009285832929694e-07,3.8282166021472923e-07,1.3156189672663547e-05
1.1281231369963813e-06,3.407286333035175e-07,3.798241878984104e-07,1.2967849130006705e-05
1.1229892349231308e-06,3.415446619851563e-07,3.769876479303872e-07,1.2791751611219831e-05
1.117268693890528e-06,3.4253261035213254e-07,3.743366056478501e-07,1.2628696013554025e-05
1.1109497480768723e-06,3.4368097421756497e-07,3.7189475895568147e-07,1.247929595484612e-05
1.1040207035487102e-06,3.449758625411874e-07,3.6968623890974974e-07,1.234413647810857e-05
1.096470160732458e-06,3.46401472482918e-07,3.677336559818524e-07,1.2224075889500305e-05
1.0882894463582927e-06,3.479404679026684e-07,3.6605408292482595e-07,1.2120434841081692e-05
1.0794777448450574e-06,3.4957501681660663e-07,3.646576122276735e-07,1.2034920501359413e-05
1.070048284167163e-06,3.5128808804867905e-07,3.635494116867574e-07,1.1969424928377836e-05
1.0600309873128915e-06,3.530638475567961e-07,3.6273266813801005e-07,1.192584716456286e-05
1.0494684048758207e-06,3.548868473892972e-07,3.622106597633613e-07,1.1905959400035174e-05
1.0384083800189712e-06,3.567405422044364e-07,3.619871356922911e-07,1.1911302966043793e-05
1.026898785286408e-06,3.5860662514107365e-07,3.6206504248910216e-07,1.1943096209339488e-05
1.0149845826533872e-06,3.604659521940247e-07,3.624461160348932e-07,1.2002150933323378e-05
1.0027061634214874e-06,3.6229927747546504e-07,3.63132294733647e-07,1.2088834287114404e-05
9.900997235535752e-07,3.640866816871434e-07,3.6412692067372907e-07,1.2203091213687485e-05
9.771993614163805e-07,3.658071468719096e-07,3.654344293576456e-07,1.234447291584129e-05
9.640391021955549e-07,3.674388149539103e-07,3.670588502115871e-07,1.25121376708627e-05
9.506548562519266e-07,3.6895913781755904e-07,3.6900268845943866e-07,1.270487428090053e-05
9.37087784833198e-07,3.703451592336645e-07,3.7126629461388985e-07,1.2921183541862255e-05
9.233876700798252e-07,3.715744850831957e-07,3.738467179237421e-07,1.3159388119795767e-05
9.096122722699447e-07,3.726269853173549e-07,3.767377038054051e-07,1.3417744077248782e-05
8.958210700380526e-07,3.7348670401504923e-07,3.799312760864663e-07,1.369452873473441e-05
8.8206750792687e-07,3.7414251698865406e-07,3.83418156286571e-07,1.3988070276790738e-05
8.68395602656123e-07,3.7458697947722114e-07,3.8718676196960133e-07,1.4296740147951285e-05
8.548415711719434e-07,3.748152866116768e-07,3.91223151510227e-07,1.4618952037255218e-05
8.414371471303561e-07,3.748255437755601e-07,3.955127175693795e-07,1.4953151120342716e-05
8.282123833759288e-07,3.746187254152939e-07,4.00041939495724e-07,1.529776864094363e-05
8.1519665223696e-07,3.7419753434008887e-07,4.047979543754664e-07,1.5651160861383966e-05
8.024171386077384e-07,3.735660492408842e-07,4.0976643284227466e-07,1.60115540585166e-05
7.898972223008579e-07,3.7273130791112116e-07,4.14930522901299e-07,1.637701453101814e-05
7.776576387551331e-07,3.7170507462331647e-07,4.202714225746245e-07,1.6745473816524074e-05
7.657191733384798e-07,3.7050406463123713e-07,4.2577026112447406e-07,1.711479262484207e-05
7.541031315655807e-07,3.6914913373225323e-07,4.3141229400454024e-07,1.748280089005157e-05
7.428285107514949e-07,3.676646260297013e-07,4.371901831661974e-07,1.7847309693040147e-05
7.319102559311819e-07,3.6607798207806985e-07,4.431016784819478e-07,1.820614288024539e-05
7.213623275578713e-07,3.644181321323632e-07,4.4914428674786703e-07,1.8557197150369305e-05
7.112017492334028e-07,3.627125319528395e-07,4.553115703744065e-07,1.889849426997708e-05
7.014488224660382e-07,3.609852483821842e-07,4.6159164407883217e-07,1.922818600879549e-05
6.921248300475283e-07,3.5925707836471904e-07,4.6796773958679926e-07,1.9544521011419644e-05
6.832511128727766e-07,3.575461432146535e-07,4.744205629737841e-07,1.9845831394780773e-05
6.748520721492185e-07,3.5586744668538605e-07,4.809301275729624e-07,2.0130567575020195e-05
6.669592518670529e-07,3.5423227933556277e-07,4.874755045430388e-07,2.0397363625167125e-05
6.596096699586054e-07,3.526495598588719e-07,4.940342984840511e-07,2.0645127159460868e-05
6.528404193910395e-07,3.511280790768305e-07,5.00583145767529e-07,2.087314564404335e-05
6.466874651044306e-07,3.4967799224360034e-07,5.07097628677639e-07,2.10811329493484e-05
6.411861993641875e-07,3.483133244786921e-07,5.135510120414163e-07,2.126914074671756e-05
6.363670957421006e-07,3.4705501233705733e-07,5.199137255027053e-07,2.143738063368826e-05
6.322492851386085e-07,3.459306918224836e-07,5.261557905706509e-07,2.158607699182354e-05
6.28838939267069e-07,3.4497090660699885e-07,5.322509210827072e-07,2.17154241295054e-05
6.261342191899911e-07,3.442047601881672e-07,5.381774203697814e-07,2.182562481815124e-05
6.241331305491364e-07,3.4365748651786147e-07,5.439147125204073e-07,2.1916932502680042e-05
6.228384136834874e-07,3.433499690754283e-07,5.494397837213625e-07,2.198965048624135e-05
6.222565497487085e-07,3.432981982778164e-07,5.547266217110728e-07,2.204413897868468e-05
6.223938208683304e-07,3.4351251939817554e-07,5.597480597115047e-07,2.20809395675526e-05
6.23253240391894e-07,3.4399963327694785e-07,5.644777132101015e-07,2.2100953112833485e-05
6.248335616993952e-07,3.44767395893042e-07,5.688902309083777e-07,2.210544472040505e-05
6.271313546261004e-07,3.458268541868261e-07,5.729603869091405e-07,2.2095857269920607e-05
6.301437574357878e-07,3.471890088288932e-07,5.766630418299471e-07,2.207361249402041e-05
6.338670102223478e-07,3.488615439686919e-07,5.799745249506063e-07,2.204001310866726e-05
6.382931518435772e-07,3.508498010578575e-07,5.828733524887031e-07,2.19963244052802e-05
6.434092042190299e-07,3.5315942501526364e-07,5.853391814542757e-07,2.194404381240209e-05
6.491958238431699e-07,3.5579675607168756e-07,5.873521333482825e-07,2.1885137689673588e-05
6.556239380272389e-07,3.587664595807786e-07,5.888938255173134e-07,2.182201867737431e-05
6.626541989245819e-07,3.620678898589626e-07,5.899487170504286e-07,2.1757337009827548e-05
6.702406503344827e-07,3.656923289887976e-07,5.90504693769216e-07,2.1693778933516846e-05
6.78334001378383e-07,3.696228853022921e-07,5.905527659957098e-07,2.163392421304352e-05
6.868819173788806e-07,3.7383654984279095e-07,5.900860212720445e-07,2.158013039269342e-05
6.958289172552421e-07,3.7830598454177937e-07,5.890996007595078e-07,2.1534434752544658e-05
7.051182187601476e-07,3.829996497160425e-07,5.875925463304857e-07,2.1498488884856768e-05
7.146936635331841e-07,3.8788129859130094e-07,5.855686598226589e-07,2.1473539502059478e-05
7.244995289816894e-07,3.929102706951296e-07,5.83035386199509e-07,2.146044953011309e-05
7.34480743480561e-07,3.98042955031676e-07,5.800034665760976e-07,2.145971958117311e-05
7.445877895126555e-07,4.0323479362819046e-07,5.76487556749189e-07,2.147148036278142e-05
7.547822109635037e-07,4.0844150911983726e-07,5.725056607280177e-07,2.1495483398854165e-05
7.650335418032834e-07,4.1361922571881536e-07,5.680771218183476e-07,2.153113084943556e-05
7.753103718794931e-07,4.1872438279985977e-07,5.632208454249982e-07,2.157756175091357e-05
7.855761391547864e-07,4.237139869166088e-07,5.579553439771138e-07,2.163378488641981e-05
7.957913633350537e-07,4.285462163251354e-07,5.52299731799094e-07,2.1698808783456214e-05
8.059160485034442e-07,4.331807718111207e-07,5.462736069552785e-07,2.177171253758884e-05
8.159087667268873e-07,4.375785488152753e-07,5.39896357481321e-07,2.185165975287837e-05
8.257259271980298e-07,4.4170154167482995e-07,5.331881156567829e-07,2.1937910994632832e-05
8.353244636225908e-07,4.455140118768263e-07,5.261720382205146e-07,2.2029860454637705e-05
8.446648031724869e-07,4.489848823388816e-07,5.188753954337347e-07,2.2127053483370907e-05
8.537105343756714e-07,4.5208934213749273e-07,5.113296533388878e-07,2.222913922555313e-05
8.624268737758567e-07,4.548076385513955e-07,5.035720284563938e-07,2.2335772780685386e-05
8.707823936082004e-07,4.5712289267764427e-07,4.956477274624586e-07,2.2446515637751845e-05
8.787546852156401e-07,4.590210217491678e-07,4.876090774332918e-07,2.2560791184142623e-05
8.863350159216946e-07,4.604930903138214e-07,4.795112790651422e-07,2.2677921302510752e-05
8.935283960345571e-07,4.615381357586778e-07,4.714089078172353e-07,2.279717885739447e-05
9.003534067382616e-07,4.6216432854396353e-07,4.6335456036179895e-07,2.291778478282642e-05
9.06841769230389e-07,4.623885092806451e-07,4.553971784186598e-07,2.303887724053101e-05
9.130303187702715e-07,4.622347286913474e-07,4.4757986764134035e-07,2.315950546342041e-05
9.18950200105993e-07,4.617311208827877e-07,4.3993982710299864e-07,2.3278640474190545e-05
9.246239540884295e-07,4.609065092009504e-07,4.3251056451878823e-07,2.339517270740101e-05
9.300672945048909e-07,4.5978983136022224e-07,4.2532314566132243e-07,2.350791251720601e-05
9.352887078096348e-07,4.5841162935367603e-07,4.1840468998570156e-07,2.361562263092601e-05
9.40289647158602e-07,4.568039818547001e-07,4.117760967606839e-07,2.371707212996041e-05
9.450687418780657e-07,4.5499896466840904e-07,4.0545145296559617e-07,2.381109865638444e-05
9.496261543158742e-07,4.530281913709177e-07,3.9943914657134316e-07,2.3896688382861167e-05
9.539631416900008e-07,4.5092296677835904e-07,3.9374331833062136e-07,2.397308658135419e-05
9.58077378831499e-07,4.4871354381216715e-07,3.8836525270410404e-07,2.4039893363663707e-05
9.619591605340203e-07,4.4642740964707783e-07,3.8330457586660097e-07,2.4097044919850893e-05
9.65592419033984e-07,4.44087395575595e-07,3.785591629837664e-07,2.4144664676354136e-05
9.68959426708803e-07,4.417107223621193e-07,3.741239215254607e-07,2.418287382883491e-05
9.720450492623958e-07,4.393092557737137e-07,3.6998993091042267e-07,2.421165719561483e-05
9.748380652088145e-07,4.3689097909517563e-07,3.661444505974507e-07,2.423083178267091e-05
9.773300911607693e-07,4.3446211381424597e-07,3.625716915044282e-07,2.424008806558262e-05
9.795131181018043e-07,4.320284374993581e-07,3.592539696802393e-07,2.423903624187612e-05
9.813772868451015e-07,4.295952689440957e-07,3.561727394670157e-07,2.4227250407790115e-05
9.82910959390459e-07,4.271671183719837e-07,3.5330934111550435e-07,2.420438663287697e-05
9.841025256507851e-07,4.247484401018728e-07,3.506452407109472e-07,2.417036432514085e-05
9.849418408837237e-07,4.2234447178816773e-07,3.4816203863399145e-07,2.4125431742263197e-05
9.854195328398948e-07,4.199604866290504e-07,3.4584174817643577e-07,2.4070032312569905e-05
9.855248779702371e-07,4.176013177314914e-07,3.4366713846757765e-07,2.400460694606021e-05
9.852467140520406e-07,4.152718640814167e-07,3.4162225980602734e-07,2.3929499228582065e-05
9.845796418122557e-07,4.129767878733021e-07,3.396928031461045e-07,2.3845079091702232e-05
9.835322056988e-07,4.107206363890265e-07,3.378652727193865e-07,2.375206779660257e-05
9.821332148685949e-07,4.085089507026002e-07,3.361261111875433e-07,2.3651810402428603e-05
9.804356703210708e-07,4.063476565248754e-07,3.344627555550301e-07,2.3546261719394096e-05
9.78518694363277e-07,4.042414388188546e-07,3.328656894639249e-07,2.343776060485164e-05
9.764836097463214e-07,4.021945483313455e-07,3.313289074498579e-07,2.332879432876369e-05
9.744405314320568e-07,4.0021371800297647e-07,3.298494807033734e-07,2.32218234064178e-05
9.72493358250062e-07,3.983098783793177e-07,3.284285272763484e-07,2.311913727606195e-05
9.707345547456495e-07,3.964967827519379e-07,3.270718320720961e-07,2.302272891708544e-05
9.692474570402945e-07,3.9478774857769604e-07,3.257879884410811e-07,2.2934223228216586e-05
9.68106830303941e-07,3.931935397627526e-07,3.24585832949863e-07,2.285487276999102e-05
9.673755962907792e-07,3.917230432657405e-07,3.234731813229207e-07,2.278557736416705e-05
9.671007903061532e-07,3.9038543840418476e-07,3.224566995209643e-07,2.2726881660067106e-05
9.673118160536872e-07,3.8919147165078356e-07,3.21542260534547e-07,2.26789529472938e-05
9.680223916349656e-07,3.881532602130122e-07,3.2073585437037484e-07,2.264158882822351e-05
9.692330981046136e-07,3.872836594768385e-07,3.200447565542624e-07,2.2614281290674155e-05
9.709311027258474e-07,3.865952016385686e-07,3.1947852891992946e-07,2.259630947648061e-05
9.730898887374479e-07,3.8609846382695867e-07,3.1904961952194904e-07,2.258684996681932e-05
9.756732898423705e-07,3.8580109399034634e-07,3.187728183968638e-07,2.258510147966204e-05
9.786421956014805e-07,3.857076360988418e-07,3.1866384605981746e-07,2.259036844934985e-05
9.819588191653488e-07,3.858193630130975e-07,3.1873761598303344e-07,2.260206014469021e-05
9.855872206543975e-07,3.8613474115035356e-07,3.1900602199397375e-07,2.261964261124741e-05
9.894926120790859e-07,3.8665070269176883e-07,3.194762831064816e-07,2.2642592115676705e-05
9.936402828513269e-07,3.8736279713555204e-07,3.201506755148557e-07,2.2670341743818724e-05
9.979939162426751e-07,3.882632944911371e-07,3.210273719804443e-07,2.2702213837525385e-05
1.0025160281748147e-06,3.893398238351925e-07,3.221019278318487e-07,2.273737772713835e-05
1.007173638010174e-06,3.905771563397811e-07,3.2336782156875573e-07,2.2774857696991198e-05
1.0119454668957536e-06,3.9196035088739155e-07,3.248155952321537e-07,2.281358624554512e-05
1.0168232879961417e-06,3.9347527261983965e-07,3.264327971951469e-07,2.285249661874825e-05
1.0218071150551547e-06,3.9510639659412024e-07,3.282052346404083e-07,2.289060526950631e-05
1.0268989003824408e-06,3.968353825211921e-07,3.3011755527101515e-07,2.2927018459538225e-05
1.0320969275181944e-06,3.9864151273461045e-07,3.321528885111815e-07,2.296087610758153e-05
1.0373925191400923e-06,4.005024685695957e-07,3.342930115354889e-07,2.299130030361637e-05
1.0427714430958522e-06,4.0239470212124843e-07,3.365188265675356e-07,2.3017391450325696e-05
1.0482179754388495e-06,4.042938049804888e-07,3.388105816598763e-07,2.303825177227575e-05
1.053716810438598e-06,4.061751471039335e-07,3.4114979561368453e-07,2.3052986620497813e-05
1.0592530237410108e-06,4.0801487468650047e-07,3.435237321245569e-07,2.306069882440232e-05
1.0648119132200548e-06,4.097921013981961e-07,3.4592792994741967e-07,2.306053722871388e-05
1.0703767429424276e-06,4.1149103847934473e-07,3.483627473639868e-07,2.305179350029696e-05
1.075924394578077e-06,4.130997713805216e-07,3.508275779228709e-07,2.303399512089994e-05
1.081423128670197e-06,4.146068385457109e-07,3.5331780271288464e-07,2.300699908386336e-05
1.0868336635486177e-06,4.1599994329554856e-07,3.558240754807972e-07,2.2971080955702998e-05
1.0921104729295322e-06,4.172678141200663e-07,3.5833252288101506e-07,2.2926926138893783e-05
1.0972022045600849e-06,4.1840279327285976e-07,3.6082575093109543e-07,2.2875479582688158e-05
1.1020524951940143e-06,4.194019885976428e-07,3.6328404564335976e-07,2.2817726204235894e-05
1.1066017737928295e-06,4.202672870532824e-07,3.656862196913555e-07,2.2754498998126825e-05
1.1107904280371719e-06,4.2100443224104827e-07,3.680101518719368e-07,2.268639021136692e-05
1.1145623836108549e-06,4.216202963876813e-07,3.702337145684437e-07,2.2613775479965882e-05
1.117866455295033e-06,4.221199099862013e-07,3.723369711819221e-07,2.253687585738188e-05
1.1206551369828206e-06,4.2250524184952935e-07,3.7430512453852493e-07,2.245581282269953e-05
1.1228839082530798e-06,4.227750203776141e-07,3.7613008408863936e-07,2.237073389490608e-05
1.124512756385054e-06,4.2292482650940134e-07,3.7780952351376025e-07,2.228202092208165e-05
1.1255071737819428e-06,4.2294767429685296e-07,3.79345232999662e-07,2.2190385746847712e-05
1.1258364582695689e-06,4.228351205323109e-07,3.807422440521232e-07,2.209674652858336e-05
1.125472573430503e-06,4.225784741584336e-07,3.82007299767929e-07,2.2002029033574522e-05
1.1243929517127265e-06,4.2216986240282436e-07,3.8314639934586743e-07,2.1907029179686427e-05
1.122584772187893e-06,4.216036866138047e-07,3.841632387224614e-07,2.1812396142363854e-05
1.1200459551119066e-06,4.208775002870439e-07,3.850592737471336e-07,2.1718820098846466e-05
1.11678181144828e-06,4.199906576784881e-07,3.858350175635953e-07,2.1627341221888887e-05
1.1128003579246342e-06,4.189420767083382e-07,3.864914194517466e-07,2.1539493261024706e-05
1.108110145358498e-06,4.177294968910944e-07,3.870307765983564e-07,2.14571946106704e-05
1.1027221569302748e-06,4.1635122141002395e-07,3.8745681844282364e-07,2.138256193253836e-05
1.0966537808813379e-06,4.1480926147192246e-07,3.877729699074737e-07,2.1317757402453973e-05
1.0899311054608564e-06,4.1311045198152353e-07,3.879804310058717e-07,2.126485825871073e-05
1.0825869011276837e-06,4.112643923204849e-07,3.8807829685381787e-07,2.122574638847293e-05
1.074655893554714e-06,4.092810390176453e-07,3.880646811006951e-07,2.120204162920021e-05
1.066173013897566e-06,4.071694307309201e-07,3.879377362680833e-07,2.11950736171349e-05
1.0571772898233663e-06,4.049371403555161e-07,3.8769758409847947e-07,2.120586881330363e-05
1.047716338151795e-06,4.025911016782847e-07,3.8734832407294134e-07,2.123513809560915e-05
1.0378458118079133e-06,4.0013901125632476e-07,3.868972714125214e-07,2.1283240511880515e-05
1.027626764870345e-06,3.975891599928492e-07,3.863525610272311e-07,2.1350119332793115e-05
1.0171263128394293e-06,3.949500257690761e-07,3.8572245830896687e-07,2.1435262090115727e-05
1.0064185562894932e-06,3.9223149592381297e-07,3.850159811656262e-07,2.1537746514969186e-05
9.955816589775938e-07,3.894453963791157e-07,3.842436490023264e-07,2.1656378472895968e-05
9.846939719341157e-07,3.8660346707791577e-07,3.834191452192546e-07,2.1789857988975725e-05
9.738300688888555e-07,3.837150933123561e-07,3.8256065785912594e-07,2.193689690665021e-05
9.6305452177977e-07,3.80786933497743e-07,3.816892692894143e-07,2.2096268991342052e-05
9.524170057746879e-07,3.77823419119746e-07,3.808255134571137e-07,2.2266827103014204e-05
9.419523430518944e-07,3.7482720997570383e-07,3.799868366039653e-07,2.2447505953160733e-05
9.316835644017513e-07,3.7180016847948434e-07,3.7918622857186474e-07,2.2637302571664064e-05
9.216258661198938e-07,3.687439391869904e-07,3.784316526627911e-07,2.283525175150542e-05
9.117902599126457e-07,3.656594371866344e-07,3.7772658381467367e-07,2.304041567142599e-05
9.021853495086114e-07,3.625468812628232e-07,3.770713025100879e-07,2.3251862190453972e-05
8.928165704106415e-07,3.594064251699476e-07,3.7646366952012883e-07,2.34685986176624e-05
8.836840213456408e-07,3.5623846209985793e-07,3.758991722537336e-07,2.3689487575669045e-05
8.747812242392574e-07,3.5304429419389945e-07,3.7537206298383546e-07,2.391320990173359e-05
8.660970382052185e-07,3.498263712549517e-07,3.7487780801974203e-07,2.4138291791809493e-05
8.576219656594002e-07,3.4658717883435717e-07,3.744143194359845e-07,2.436316086656993e-05
8.49355455410004e-07,3.433285001875323e-07,3.7398161959655023e-07,2.4586203649952287e-05
8.413082307856746e-07,3.400517157075881e-07,3.735811748314593e-07,2.480582642716935e-05
8.335021898614672e-07,3.367584493622339e-07,3.7321449214187953e-07,2.502049279508728e-05
8.259734150588078e-07,3.3345200226627923e-07,3.7288176558204593e-07,2.522868256021089e-05
8.187751902197403e-07,3.301395562330895e-07,3.725815505397189e-07,2.542881586821285e-05
8.119757424178748e-07,3.268335847005845e-07,3.7231040492850975e-07,2.561925587320995e-05
8.056500904894921e-07,3.2355079251596734e-07,3.72062558947455e-07,2.579841406053215e-05
7.998744056240083e-07,3.203091670988662e-07,3.71830810371366e-07,2.596490180292098e-05
7.947307855481915e-07,3.171259166748618e-07,3.716080854982815e-07,2.6117671939362642e-05
7.903097723609278e-07,3.140172657649576e-07,3.7138754267035995e-07,2.6256102279760146e-05
7.866974851493174e-07,3.109988452644002e-07,3.711611300247053e-07,2.637996950553107e-05
7.839604307520599e-07,3.080864532130621e-07,3.709189503914512e-07,2.648929254337408e-05
7.821436460289291e-07,3.052966315358255e-07,3.706499290712782e-07,2.658412005650735e-05
7.812769835337071e-07,3.026455244131512e-07,3.703429038057715e-07,2.666440256881814e-05
7.813777790398599e-07,3.001474856673723e-07,3.69987904783186e-07,2.6729995227548662e-05
7.824481377797027e-07,2.9781570340556745e-07,3.695763109298246e-07,2.6780703223647304e-05
7.844725976236279e-07,2.9566293722553136e-07,3.6909931771073883e-07,2.681630774525889e-05
7.87419865170595e-07,2.9370010700538925e-07,3.6854662834880727e-07,2.683659203032497e-05
7.912467628442839e-07,2.919344660864916e-07,3.6790658074063687e-07,2.6841418225649306e-05
7.95900762305903e-07,2.9036984748067844e-07,3.6716730012321844e-07,2.683088067726849e-05
8.013203772554834e-07,2.890085449710672e-07,3.6631783626717775e-07,2.6805416387282362e-05
8.074363693389365e-07,2.878523083581796e-07,3.6534851033221397e-07,2.6765724165145955e-05
8.141755191971456e-07,2.8690160133923986e-07,3.6425140614645937e-07,2.6712566743263933e-05
8.214639263895009e-07,2.8615465736384614e-07,3.6302123280698687e-07,2.664662709898839e-05
8.292277252384846e-07,2.8560784253026786e-07,3.6165484565147783e-07,2.6568518921069008e-05
8.373929611642001e-07,2.852574969452904e-07,3.6014992846091034e-07,2.647901006993368e-05
8.458844586504444e-07,2.8510132536828984e-07,3.5850505661582976e-07,2.6379334022648275e-05
8.546240422269099e-07,2.85138897993124e-07,3.567208370640691e-07,2.627130416232702e-05
8.635325166104863e-07,2.853725626524199e-07,3.548000349966596e-07,2.615716503678564e-05
8.725338066267334e-07,2.858069930052415e-07,3.527461432147406e-07,2.6039359418618758e-05
8.815542462769483e-07,2.8644715865222425e-07,3.50561940543624e-07,2.592033332978753e-05
8.905182868328121e-07,2.872974222283512e-07,3.4824908789892466e-07,2.580238958293887e-05
8.993469086650416e-07,2.883609242163625e-07,3.458083550785389e-07,2.5687576060745692e-05
9.079593243133644e-07,2.896382553267831e-07,3.4324008181806466e-07,2.557760268887901e-05
9.162759932632135e-07,2.9112748040080535e-07,3.405452344601472e-07,2.5473807779301488e-05
9.242235217790793e-07,2.928253490225692e-07,3.377269991965884e-07,2.5377188519098066e-05
9.31742017929932e-07,2.947273208233535e-07,3.347911637049404e-07,2.5288438288406245e-05
9.387930480972423e-07,2.968261739919042e-07,3.317447263939999e-07,2.5207922110761586e-05
9.453632640205713e-07,2.991105832877825e-07,3.28594815891258e-07,2.513562964721068e-05
9.51459513950281e-07,3.015649116832541e-07,3.2534875058719485e-07,2.5071180188589456e-05
9.5710217055521e-07,3.04170564747286e-07,3.220143578337818e-07,2.5013888021887946e-05
9.623262947360297e-07,3.069079128959486e-07,3.1860076633982293e-07,2.496288068270553e-05
9.671844820279943e-07,3.097579615860951e-07,3.151193962122901e-07,2.491724393874604e-05
9.717417032144422e-07,3.127033483522092e-07,3.115832726906081e-07,2.4876124478576207e-05
9.760652406930612e-07,3.157281769716536e-07,3.080050721287602e-07,2.48387639417012e-05
9.802157471138709e-07,3.1881702394862454e-07,3.043959451162457e-07,2.4804509791068986e-05
9.842418170781835e-07,3.21954164164674e-07,3.007653278527124e-07,2.477283116468385e-05
9.881781408006694e-07,3.2512393876343125e-07,2.971218700730538e-07,2.474331512056169e-05
9.920450939485123e-07,3.283116667777472e-07,2.934753696061536e-07,2.471562516713449e-05
9.95849127601474e-07,3.3150418087228733e-07,2.898380406736577e-07,2.4689437716271435e-05
9.995840062504595e-07,3.346912826546918e-07,2.8622411698655836e-07,2.4664375899278795e-05
1.0032317688117166e-06,3.378686766227091e-07,2.8264834884056346e-07,2.463995477700341e-05
1.0067639965074918e-06,3.410391059237956e-07,2.7912523571272715e-07,2.461557232331441e-05
1.0101438835906616e-06,3.4420943608349035e-07,2.756704958014241e-07,2.4590565693855505e-05
1.0133280001948259e-06,3.4738684246109045e-07,2.7230334795374733e-07,2.456427257964477e-05
1.016268185827998e-06,3.5057696008118074e-07,2.690469767412063e-07,2.4536029983233883e-05
1.018914501919163e-06,3.5378325811805357e-07,2.659265725014474e-07,2.450513502280597e-05
1.0212177252044431e-06,3.57007290623426e-07,2.6296623558739943e-07,2.447082208252152e-05
1.023129964469506e-06,3.602490200404943e-07,2.601863773317566e-07,2.4432279757805662e-05
1.0246044742623e-06,3.6350605189233865e-07,2.576027814542203e-07,2.4388752188022816e-05
1.025595336364265e-06,3.667732674067788e-07,2.552272416723824e-07,2.433971400611952e-05
1.026056932467399e-06,3.700435339306028e-07,2.530684598666688e-07,2.428497856299757e-05
1.0259445105387577e-06,3.733077786070312e-07,2.511325685123953e-07,2.4224671440657228e-05
1.0252160838462117e-06,3.7655454306299684e-07,2.494241176927669e-07,2.415914293373388e-05
1.0238335494070077e-06,3.797705621662562e-07,2.4794810918337513e-07,2.408886168591246e-05
1.0217626843002298e-06,3.829421141419896e-07,2.4671208143052937e-07,2.4014291853365728e-05
1.018974202469213e-06,3.860568758149411e-07,2.4572648699558037e-07,2.393578248941961e-05
1.0154452640048678e-06,3.891069440782417e-07,2.4500226972743376e-07,2.3853500140258103e-05
1.0111587524883823e-06,3.9209101613529937e-07,2.445477666575717e-07,2.376743585627099e-05
1.0061018768577655e-06,3.950124841808881e-07,2.443695932628981e-07,2.367750387586112e-05
1.000267023830875e-06,3.978746802781247e-07,2.4447686065747827e-07,2.358367878876379e-05
9.93653501120579e-07,4.006776919333429e-07,2.44883314754305e-07,2.3486079122558106e-05
9.862691428089671e-07,4.0341816209015226e-07,2.456059880694942e-07,2.338496287962096e-05
9.781318353263245e-07,4.0608987025016616e-07,2.46661968721085e-07,2.328065441822492e-05
9.692676561080371e-07,4.086836622636334e-07,2.4806466296908805e-07,2.3173440972808765e-05
9.597056453342063e-07,4.111873192389175e-07,2.498212341249838e-07,2.3063523403572104e-05
9.494742934904101e-07,4.135858447940696e-07,2.519319206478284e-07,2.2951074118648262e-05
9.38601049772983e-07,4.1586184932457345e-07,2.5439066986718945e-07,2.2836322881962428e-05
9.271128016963169e-07,4.179960195140525e-07,2.571858389604819e-07,2.271956916544977e-05
9.150367474381701e-07,4.199683380983784e-07,2.60300822007905e-07,2.260112441306541e-05
9.024022467489701e-07,4.2175995881034e-07,2.6371704565109227e-07,2.2481241278515515e-05
8.89243712780154e-07,4.233551205925245e-07,2.6742032227200827e-07,2.2360057386854447e-05
8.756039988167595e-07,4.247433407000659e-07,2.714068114332706e-07,2.2237557755890177e-05
8.615370842965643e-07,4.2592065168214223e-07,2.756839851513051e-07,2.2113562731150235e-05
8.471069800742802e-07,4.268877685067663e-07,2.802665900410284e-07,2.1987739207213972e-05
8.323812403717318e-07,4.2764672863655297e-07,2.851716657186477e-07,2.185962560241384e-05
8.174235707554928e-07,4.2819884917576144e-07,2.904148253251747e-07,2.1728666089872846e-05
8.022928594933298e-07,4.2854392150253526e-07,2.960066108692079e-07,2.159424072936339e-05
7.870527179389035e-07,4.2867992523309605e-07,3.0194893021433487e-07,2.1455684137332506e-05
7.717849597355829e-07,4.286037335998544e-07,3.082333510370812e-07,2.131230676714188e-05
7.565918670139805e-07,4.2831253445463814e-07,3.148418857676809e-07,2.1163424550184383e-05
7.41585759514235e-07,4.2780483699704685e-07,3.217492884987152e-07,2.1008391958945487e-05
7.268798135289508e-07,4.2708015063059173e-07,3.289250558833889e-07,2.084662374237308e-05
7.125833972096456e-07,4.261378073791421e-07,3.3633435385648463e-07,2.067758260374004e-05
6.987959673550355e-07,4.2497710855053635e-07,3.4393894185325167e-07,2.0500748139579364e-05
6.856028339232454e-07,4.2359913794468653e-07,3.516986798472034e-07,2.0315609013065e-05
6.730769547208023e-07,4.220080171915678e-07,3.5957335641805246e-07,2.0121689037004187e-05
6.612807797796275e-07,4.202106554382858e-07,3.675255277088802e-07,1.991859178771638e-05
6.502644083409571e-07,4.182164516339749e-07,3.7552431131202104e-07,1.9706050965974832e-05
6.40065317999292e-07,4.1603758606972573e-07,3.835483151399167e-07,1.948397974640398e-05
6.307109416249468e-07,4.13688285690224e-07,3.915866053080078e-07,1.9252516010631408e-05
6.222193381107321e-07,4.1118308366897494e-07,3.9963684946715397e-07,1.901206112224192e-05
6.145989105807775e-07,4.085359399729785e-07,4.076999040391046e-07,1.8763296535034297e-05
6.078506646671532e-07,4.0576070053637297e-07,4.157742360162789e-07,1.850715320408445e-05
6.019699245449981e-07,4.028722743217874e-07,4.2385547804542775e-07,1.8244741784813265e-05
5.969448346155895e-07,3.998875199537025e-07,4.319399929735247e-07,1.7977280207705587e-05
5.927557105068868e-07,3.9682611131329934e-07,4.4002596371756976e-07,1.7706020840165388e-05
5.893770987297235e-07,3.9371166472339954e-07,4.481103563880885e-07,1.7432164567265216e-05
5.86778564763546e-07,3.9057045073322674e-07,4.561862636658597e-07,1.7156796976412894e-05
5.849236450760868e-07,3.8742745380160116e-07,4.642424634115824e-07,1.6880867566315203e-05
5.837702318374669e-07,3.8430344258336203e-07,4.7226283897003726e-07,1.660518193680623e-05
5.83272074040035e-07,3.812148315189378e-07,4.802252348849364e-07,1.6330415865522846e-05
5.833800356275854e-07,3.781763984096632e-07,4.881015407578404e-07,1.6057176557012075e-05
5.840435699848112e-07,3.752045555229765e-07,4.958597678545847e-07,1.5786088182857268e-05
5.852113360419424e-07,3.7231676430975397e-07,5.034672604418973e-07,1.5517889350915893e-05
5.868301403425554e-07,3.695277666135039e-07,5.108930239314191e-07,1.5253520945279825e-05
5.888439895957535e-07,3.668472946230849e-07,5.181085606373544e-07,1.4994134262038433e-05
5.911945343573375e-07,3.642810411552982e-07,5.250888955274236e-07,1.4741009638802357e-05
5.93822858192898e-07,3.6183343406397033e-07,5.318133993346275e-07,1.4495439177612182e-05
5.966733302650772e-07,3.5950942765430935e-07,5.38264213217811e-07,1.4258596707757144e-05
5.996982297978896e-07,3.573149797240176e-07,5.444235947780512e-07,1.4031451366639624e-05
6.028591391873227e-07,3.552575885263547e-07,5.502734978065918e-07,1.3814812614370355e-05
6.06124656241795e-07,3.5334520457255906e-07,5.557969127890244e-07,1.3609455246889095e-05
6.094667314920568e-07,3.515832995681441e-07,5.609777779684038e-07,1.3416165890877444e-05
6.128568760020587e-07,3.499732132740087e-07,5.657993978954825e-07,1.3235662623595572e-05
6.162646020369221e-07,3.485125605242547e-07,5.702437395483118e-07,1.3068476136923086e-05
6.19658958582311e-07,3.4719678452088537e-07,5.742916322923151e-07,1.291488788381711e-05
6.230104514756207e-07,3.460208792838693e-07,5.779228155089322e-07,1.2774946067755976e-05
6.26293402609594e-07,3.4498013653142426e-07,5.811161277510359e-07,1.2648510241026462e-05
6.294891115511651e-07,3.440707413581762e-07,5.838500244115284e-07,1.253529462893825e-05
6.325855126527935e-07,3.4329048814366565e-07,5.861031915705349e-07,1.2434958596295712e-05
6.355733110038307e-07,3.426377621698393e-07,5.87855542230713e-07,1.2347278428375686e-05
6.38444289127289e-07,3.421093807819873e-07,5.890900072116711e-07,1.22722872973623e-05
6.411927259648892e-07,3.416995476818479e-07,5.897948571116569e-07,1.2210238099418291e-05
6.438159859907274e-07,3.413999587709786e-07,5.899653698292321e-07,1.2161433268321886e-05
6.463124485423e-07,3.412001316450306e-07,5.89603790770067e-07,1.2126063136918225e-05
6.486787311104857e-07,3.4108794522997734e-07,5.887181725863841e-07,1.2104137442277424e-05
6.50908727443526e-07,3.410505814887465e-07,5.873209469662479e-07,1.2095581546067955e-05
6.529951551815606e-07,3.410753226454062e-07,5.854267160459885e-07,1.2100498019630295e-05
6.549320762595935e-07,3.41149483389251e-07,5.83049613849124e-07,1.2119398686437847e-05
6.567153057575568e-07,3.412599757720945e-07,5.802017753972565e-07,1.2153200439018394e-05
6.583403132464639e-07,3.41393916874507e-07,5.768932277983509e-07,1.2203036693983265e-05
6.598002485204173e-07,3.415397779317605e-07,5.73132878924552e-07,1.2270062740026276e-05
6.610847849449579e-07,3.4168718913771576e-07,5.689307881455172e-07,1.2355310709809304e-05
6.621794029617116e-07,3.418256817785428e-07,5.643006145353416e-07,1.245956315200235e-05
6.630658795216764e-07,3.419440979167906e-07,5.592597477270043e-07,1.2583245676405326e-05
6.637238972775646e-07,3.4203109902652824e-07,5.538276008966421e-07,1.2726371121062812e-05
6.641326874836255e-07,3.4207588435821574e-07,5.480254073672035e-07,1.2888540630228093e-05
6.642733129964488e-07,3.4206910306655426e-07,5.41877975075546e-07,1.3068980000942668e-05
6.64133006245435e-07,3.4200403384257457e-07,5.35414611954739e-07,1.326659295439537e-05
6.63708984490774e-07,3.418763137687905e-07,5.286673363822256e-07,1.3480014320055265e-05
6.630078600052515e-07,3.416820806212816e-07,5.216675094779142e-07,1.370766434219825e-05
6.620432237065128e-07,3.41416662150559e-07,5.144441823468208e-07,1.3947815635425296e-05
6.608360066215939e-07,3.4107469870914823e-07,5.070256421038636e-07,1.4198675823708264e-05
6.594160148914443e-07,3.4065126488076164e-07,4.994414458353656e-07,1.4458494106535846e-05
6.578210213654028e-07,3.4014340991808827e-07,4.917224281792809e-07,1.4725666440980965e-05
6.560925814010419e-07,3.395516094484609e-07,4.839002488226578e-07,1.4998783591123335e-05
6.542699265415911e-07,3.388799961646877e-07,4.76007750801235e-07,1.527662183030178e-05
6.523853354901577e-07,3.381348203729565e-07,4.6807846954568033e-07,1.5558113137195978e-05
6.50463381677868e-07,3.3732325496772625e-07,4.6014500151569613e-07,1.5842291118607047e-05
6.485226324809088e-07,3.36454266744958e-07,4.522378160369386e-07,1.6128198467376443e-05
6.465770572531322e-07,3.355396529723734e-07,4.4438451879164286e-07,1.641479290680101e-05
6.446367815987721e-07,3.3459264941200827e-07,4.3660890346812857e-07,1.6700900123735902e-05
6.427096357463522e-07,3.3362543964535644e-07,4.2893052120856746e-07,1.6985217687659485e-05
6.408027947156628e-07,3.326489618582835e-07,4.213652829676946e-07,1.7266355277030177e-05
6.38922289022729e-07,3.316748771978395e-07,4.139267638476054e-07,1.7542881426078303e-05
6.370710902886302e-07,3.3071622329114105e-07,4.066276283842224e-07,1.7813336981097412e-05
6.352483729710585e-07,3.297854887142518e-07,3.994800651823368e-07,1.807623855499102e-05
6.334506972244655e-07,3.2889259886926764e-07,3.924952255837244e-07,1.833011859640725e-05
6.316743295574407e-07,3.280440970170244e-07,3.85682592721448e-07,1.857359403370033e-05
6.299172116468606e-07,3.2724304930849226e-07,3.7904952734033384e-07,1.8805441338873545e-05
6.281783007918028e-07,3.264904581228277e-07,3.72601574420797e-07,1.9024628025451064e-05
6.264542390227938e-07,3.2578744211801254e-07,3.663434363201907e-07,1.923024342938122e-05
6.247375812880887e-07,3.251355685505022e-07,3.602796096389833e-07,1.942138886215241e-05
6.230199270079333e-07,3.245353825782573e-07,3.544147123272281e-07,1.9597134943030585e-05
6.212967401553757e-07,3.239851833911309e-07,3.487534050821452e-07,1.9756554899769795e-05
6.19568201228332e-07,3.2348090615093067e-07,3.432996330884736e-07,1.989880706358509e-05
6.178364860985003e-07,3.230165453097677e-07,3.380560708536248e-07,2.002327021909229e-05
6.161039130867057e-07,3.2258446522981467e-07,3.330242438293847e-07,2.0129666474011365e-05
6.143720215610864e-07,3.221759179635443e-07,3.282046657535679e-07,2.0218044872381925e-05
6.126393572912653e-07,3.217821498791968e-07,3.235969358211096e-07,2.0288628522519308e-05
6.10899660356374e-07,3.213953910516003e-07,3.1920020896422764e-07,2.0341671289640988e-05
6.091427226032852e-07,3.2100889758217745e-07,3.150144397015672e-07,2.037742121066652e-05
6.073570165511188e-07,3.206162710893571e-07,3.1104227674641127e-07,2.0396158890208054e-05
6.055320092870491e-07,3.202109346002221e-07,3.0728947022121004e-07,2.0398226289566685e-05
6.03659078934441e-07,3.197866926072995e-07,3.037631916792063e-07,2.0384000400350478e-05
6.017329370284451e-07,3.193394821111784e-07,3.0047066304017537e-07,2.0353872462756032e-05
5.997546956031191e-07,3.188693549342737e-07,2.9741850721912664e-07,2.0308368094017946e-05
5.977325240849913e-07,3.183814307183844e-07,2.946121267789687e-07,2.024837269027728e-05
5.956778685027861e-07,3.1788422297013013e-07,2.9205595783101485e-07,2.017520903537415e-05
5.93601069509531e-07,3.1738596916709964e-07,2.897541518548828e-07,2.009048154112176e-05
5.915093402324692e-07,3.1689245502189145e-07,2.877097165271312e-07,1.9995852815039867e-05
5.894065841875121e-07,3.164074070839118e-07,2.8592226206958297e-07,1.989288854949887e-05
5.872934193710673e-07,3.159335989723254e-07,2.8438655254330356e-07,1.9783067229337383e-05
5.851669946894344e-07,3.154738950992665e-07,2.8309257349792926e-07,1.966801276096932e-05
5.83021808187986e-07,3.150324626615538e-07,2.820264642756812e-07,1.9549761915251768e-05
5.808512770230247e-07,3.146158605821421e-07,2.8117230508197364e-07,1.943078612304963e-05
5.786480016014084e-07,3.1423310432432025e-07,2.805141344596312e-07,1.931378426874116e-05
5.764033791601152e-07,3.138941698815045e-07,2.8003676880106933e-07,1.920145791582524e-05
5.741093242692453e-07,3.1360834446317216e-07,2.7972552039612897e-07,1.9096352374636968e-05
5.717614312278554e-07,3.13383621417298e-07,2.7956607374729424e-07,1.9000733661607724e-05
5.693605362427207e-07,3.132271826493986e-07,2.795448994841357e-07,1.8916490151814725e-05
5.669123159643151e-07,3.131475361097035e-07,2.796505374400617e-07,1.884508071508708e-05
5.644267942718056e-07,3.131559628448938e-07,2.798751409412798e-07,1.8787549534055937e-05
5.619178874614206e-07,3.1326385180568576e-07,2.802138536187582e-07,1.8744587618704755e-05
5.594015252510589e-07,3.134786353724397e-07,2.806631533118052e-07,1.871657756491477e-05
5.568939489363936e-07,3.138027337654965e-07,2.8122093830060266e-07,1.870358246064042e-05
5.544137673301776e-07,3.142344694257584e-07,2.818863750690928e-07,1.8705318457135687e-05
5.519864537235948e-07,3.1476861952531684e-07,2.826577859100956e-07,1.8721176563492335e-05
5.496456486103941e-07,3.153968325305847e-07,2.835305147239094e-07,1.8750304476296984e-05
5.474289901987771e-07,3.1610796291370085e-07,2.844961270595171e-07,1.8791720371804136e-05
5.453719510946377e-07,3.1688821465590855e-07,2.855425823875526e-07,1.8844439302589227e-05
5.435036478474927e-07,3.177216753470041e-07,2.866547535452637e-07,1.890757524480031e-05
5.418453497846996e-07,3.185909567146145e-07,2.878152769519758e-07,1.8980375112458688e-05
5.404116355631828e-07,3.194776851897796e-07,2.8900609727520783e-07,1.9062204591483296e-05
5.39215790493361e-07,3.2036334087248484e-07,2.902109914916682e-07,1.9152533780801595e-05
5.382774586034039e-07,3.212307288731803e-07,2.9141901383601434e-07,1.925091754055579e-05
5.376243193795702e-07,3.220662547914758e-07,2.926263742808916e-07,1.9356941586216422e-05
5.372851575448698e-07,3.228616099172488e-07,2.938339983124576e-07,1.9470149382706524e-05
5.372827360643531e-07,3.2361246461051325e-07,2.9504315548177565e-07,1.9589989142797965e-05
5.376326499131382e-07,3.2431550818208513e-07,2.962531624592837e-07,1.9715783617368195e-05
5.383463144882539e-07,3.2496721316762536e-07,2.9746139316244656e-07,1.9846711891055866e-05
5.394356287462528e-07,3.2556400194859984e-07,2.986644191494656e-07,1.9981821255725708e-05
5.409172866065689e-07,3.2610206943007524e-07,2.9986029240795424e-07,2.0120074120012883e-05
5.428130121695304e-07,3.2657713376432037e-07,3.010508840658588e-07,2.02603960723878e-05
5.451439603894072e-07,3.269847016956265e-07,3.022410794319121e-07,2.0401698678731867e-05
5.479230428899816e-07,3.273213053524813e-07,3.0343545026336285e-07,2.054289108334618e-05
5.511514962162902e-07,3.275860310839417e-07,3.046370916566092e-07,2.0682882509180397e-05
5.548216903084512e-07,3.2778082732233163e-07,3.058484059088699e-07,2.0820543614213557e-05
5.589221706968894e-07,3.27910799528273e-07,3.070709302642124e-07,2.0954650412509173e-05
5.634415955861027e-07,3.2798515618270174e-07,3.0830536495718514e-07,2.1083875265718547e-05
5.683723943801205e-07,3.280157961844886e-07,3.095522347247125e-07,2.120682946244916e-05
5.7371299221551e-07,3.2801349807279017e-07,3.108115894331057e-07,2.132213846043601e-05
5.794650464802805e-07,3.279857898157873e-07,3.120826240191717e-07,2.1428564830902545e-05
5.856278177409008e-07,3.2793765361985603e-07,3.1336422409050284e-07,2.1525147471672926e-05
5.92195363223249e-07,3.278736745885174e-07,3.146550247841597e-07,2.161123815915739e-05
5.9915685502097e-07,3.27800054936076e-07,3.159523847966737e-07,2.1686391067635406e-05
6.064977893454026e-07,3.277244042285725e-07,3.172516063271565e-07,2.1750233462454142e-05
6.142026619625611e-07,3.2765405404475816e-07,3.185463112129269e-07,2.180243861434246e-05
6.22258569715919e-07,3.275955216354652e-07,3.198302486003164e-07,2.184275672984765e-05
6.30657134838041e-07,3.2755579798497036e-07,3.21099240134452e-07,2.1871011700025312e-05
6.393928205404826e-07,3.275447327685724e-07,3.223510386477953e-07,2.188706105016912e-05
6.484577389568069e-07,3.2757630048102667e-07,3.235841375746474e-07,2.1890779846482687e-05
6.578369823747246e-07,3.2766704170375746e-07,3.2479725934180787e-07,2.1882157725637785e-05
6.675078746058278e-07,3.2783327218232787e-07,3.259889598400397e-07,2.186149349869664e-05
6.774416043987326e-07,3.280899643119985e-07,3.271577167489936e-07,2.1829480484211944e-05
6.876058184813475e-07,3.284526190302463e-07,3.2830322708813426e-07,2.178707357788781e-05
6.979689700035641e-07,3.289390976763781e-07,3.294276613412322e-07,2.1735276242450085e-05
7.085068691607297e-07,3.2956744665616377e-07,3.3053517891627326e-07,2.1674993652205265e-05
7.192075239130239e-07,3.303521278210137e-07,3.316302763043734e-07,2.1607033513236404e-05
7.300672695179068e-07,3.313035233819375e-07,3.327172051665594e-07,2.1532304312823408e-05
7.410816426064304e-07,3.3243060185480106e-07,3.33800670118758e-07,2.145207260768672e-05
7.522416857981103e-07,3.3374343301471263e-07,3.348864292369801e-07,2.1368030116339228e-05
7.635346918997381e-07,3.352537204405867e-07,3.359812716279781e-07,2.128215380747866e-05
7.749427051323666e-07,3.369740053827291e-07,3.370919082546747e-07,2.119653081565057e-05
7.864399049698244e-07,3.389171944453887e-07,3.3822324078420054e-07,2.1113220948627767e-05
7.979918842002305e-07,3.410976777996711e-07,3.3937754562833036e-07,2.103412929051604e-05
8.095568276826366e-07,3.4353340540209424e-07,3.4055459241444194e-07,2.096088182315718e-05
8.210883444918255e-07,3.462458696557312e-07,3.417522751220304e-07,2.0894733969447005e-05
8.325386696731026e-07,3.4925588565931355e-07,3.429676393043613e-07,2.0836541631537938e-05
8.438602294846341e-07,3.5257799956815894e-07,3.441979744739112e-07,2.0786786273689546e-05
8.550054390844369e-07,3.562179726929226e-07,3.454420916369589e-07,2.074561359546272e-05
8.659264309119482e-07,3.601732814754249e-07,3.4670042337394556e-07,2.0712866952877635e-05
8.765783614206606e-07,3.644345634398071e-07,3.4797274736196997e-07,2.068813879704905e-05
8.869272522517639e-07,3.6898735666549437e-07,3.492558370792796e-07,2.0670850585376503e-05
8.96954802695911e-07,3.73813599858029e-07,3.5054283613152725e-07,2.066033142501041e-05
9.066545653455038e-07,3.788926749581206e-07,3.5182368440058396e-07,2.065587898301493e-05
9.160267377051263e-07,3.8420144080412284e-07,3.5308618597815907e-07,2.065681347846875e-05
9.250773254645748e-07,3.8971319873789203e-07,3.543169181749408e-07,2.0662511104347355e-05
9.338159329339766e-07,3.953977912569967e-07,3.5550116656826977e-07,2.0672400556488848e-05
9.422516152383663e-07,4.0122329727635385e-07,3.566231329246314e-07,2.068596223987919e-05
9.503920144632777e-07,4.071575303330047e-07,3.5766773739666367e-07,2.070276012208652e-05
9.582428981914152e-07,4.1316985110941503e-07,3.586226892395244e-07,2.0722454178280104e-05
9.658068981339978e-07,4.192328822891944e-07,3.5947831623654265e-07,2.0744743835348506e-05
9.73086225385905e-07,4.253210629258161e-07,3.602255311152394e-07,2.076927249198268e-05
9.800861237591693e-07,4.3140796211530457e-07,3.6085488967376797e-07,2.0795552833394528e-05
9.868126876970615e-07,4.374668698093579e-07,3.6135798115527293e-07,2.0822962980708028e-05
9.93268224756038e-07,4.4347313580583255e-07,3.6173025650151574e-07,2.0850827960161937e-05
9.994489975605995e-07,4.4940491159950505e-07,3.6197396957915423e-07,2.087851391050395e-05
1.0053440589568045e-06,4.552425995190785e-07,3.6209928222692583e-07,2.090545444881673e-05
1.010934545212458e-06,4.609683755977789e-07,3.621221725274982e-07,2.093113051472433e-05
1.0161966357667885e-06,4.6656573595720855e-07,3.62060690592559e-07,2.095505699116174e-05
1.021107876066537e-06,4.7201841666355236e-07,3.6193217531091135e-07,2.0976785325400264e-05
1.0256505426380794e-06,4.773100027611064e-07,3.617521925188424e-07,2.099589770576033e-05
1.029810308362801e-06,4.824249803511411e-07,3.615350968898364e-07,2.101195976089325e-05
1.033574888768124e-06,4.873488771416343e-07,3.612956578431393e-07,2.1024454181789363e-05
1.036932792255072e-06,4.920675069277704e-07,3.610500296681946e-07,2.1032765531488282e-05
1.0398704471881159e-06,4.965670187298678e-07,3.6081552769113346e-07,2.103624037734141e-05
1.0423714429677592e-06,5.008333626307558e-07,3.606105000954511e-07,2.103429502840092e-05
1.0444201718167751e-06,5.04851035408145e-07,3.604544558787801e-07,2.1026546780290585e-05
1.0460061619159709e-06,5.086037259108532e-07,3.6036717336618474e-07,2.1012927650651032e-05
1.0471253354910737e-06,5.120774018943621e-07,3.60366484676534e-07,2.099369387310579e-05
1.0477788391932414e-06,5.15263931327532e-07,3.604667921866996e-07,2.096929234681407e-05
1.0479720191623938e-06,5.18162363765906e-07,3.606807612481433e-07,2.0940170779754988e-05
1.0477127170378963e-06,5.207759085474895e-07,3.6102369577122323e-07,2.0906657280026958e-05
1.04700745061573e-06,5.231070646041738e-07,3.61517044361019e-07,2.086894904147212e-05
1.0458587340820792e-06,5.251548623390559e-07,3.6218694009774607e-07,2.082715309229684e-05
1.0442655368124814e-06,5.269145768017856e-07,3.630579144930594e-07,2.0781314937429457e-05
1.0422251852947494e-06,5.283786735595295e-07,3.641475128819009e-07,2.0731437474745007e-05
1.0397361638059154e-06,5.295386457438598e-07,3.6546535597246936e-07,2.0677572343000158e-05
1.0368009971122512e-06,5.303871327240707e-07,3.670140667520539e-07,2.062001623335167e-05
1.0334270489605974e-06,5.309189508632015e-07,3.687900107941372e-07,2.055944114968146e-05
1.0296252259447524e-06,5.311307173248715e-07,3.707843617413477e-07,2.049679783849509e-05
1.0254099931940522e-06,5.3101984620574e-07,3.729836560029877e-07,2.04330988936748e-05
1.020801133394279e-06,5.305835783757433e-07,3.7536993743196117e-07,2.0369251801126995e-05
1.0158233893711359e-06,5.298195951981139e-07,3.779233132822822e-07,2.030601228174406e-05
1.0105049634010422e-06,5.287281484997815e-07,3.806268701587885e-07,2.0244126264031922e-05
1.0048772807324811e-06,5.273124771039981e-07,3.834690936458035e-07,2.0184594053107275e-05
9.989735266981895e-07,5.255770798065518e-07,3.86441201906435e-07,2.012879715968528e-05
9.92825705944999e-07,5.235266831886465e-07,3.8953303328108006e-07,2.007839250172735e-05
9.864624130983294e-07,5.21166690803929e-07,3.927309658938e-07,2.003513923646785e-05
9.79907347235215e-07,5.185047405543087e-07,3.9601720443048294e-07,2.000078199872272e-05
9.731801567290968e-07,5.15552704232984e-07,3.993697784862036e-07,1.997696988031545e-05
9.66299622374725e-07,5.12326777513151e-07,4.0276413998026903e-07,1.996516148967028e-05
9.592836260883466e-07,5.088451689981279e-07,4.0617591268460114e-07,1.996651854610028e-05
9.52145094885474e-07,5.051257258685004e-07,4.09582931203147e-07,1.998183902672332e-05
9.448896530433628e-07,5.01184697185535e-07,4.1296672092892593e-07,2.0011557768507232e-05
9.375170076375273e-07,4.970368580142846e-07,4.163141219172524e-07,2.005577700380683e-05
9.300248157086188e-07,4.926969363469532e-07,4.19616665859154e-07,2.0114272738031494e-05
9.224132071883828e-07,4.881804635166276e-07,4.2286733174650113e-07,2.0186474636013184e-05
9.146875587725867e-07,4.83502805957585e-07,4.260583431697913e-07,2.0271461956203508e-05
9.068614491022943e-07,4.786776202820722e-07,4.2918127796032367e-07,2.036800670103583e-05
8.989594846366881e-07,4.73715877430529e-07,4.3222846239066926e-07,2.0474665336419847e-05
8.910135723049665e-07,4.686256928088765e-07,4.351942961636963e-07,2.0589896922145305e-05
8.830560020360693e-07,4.634128189368117e-07,4.38074569527657e-07,2.071216646866116e-05
8.751180024238777e-07,4.580812684241677e-07,4.4086512718501387e-07,2.084000895798439e-05
8.672309398468888e-07,4.526337574947672e-07,4.4356232250256216e-07,2.0972073596666425e-05
8.594250180817391e-07,4.4707217085863505e-07,4.4616377834407856e-07,2.1107171679359747e-05
8.517280448570547e-07,4.4139844491947834e-07,4.486680619489009e-07,2.124431136798152e-05
8.441683986203036e-07,4.3561553721506356e-07,4.510740320753873e-07,2.138268913645561e-05
8.367792982880784e-07,4.2972748909157307e-07,4.5338107073348534e-07,2.1521634156890784e-05
8.295971417125534e-07,4.237390897139242e-07,4.555903254925886e-07,2.166051277954092e-05
8.22655406693446e-07,4.1765671114181865e-07,4.5770420202276546e-07,2.179862133845419e-05
8.159814109581065e-07,4.1148940840997603e-07,4.597235531774409e-07,2.193514916872334e-05
8.095969609974548e-07,4.052484306950739e-07,4.616460006865113e-07,2.2069234738481408e-05
8.035205332141628e-07,3.9894586419086044e-07,4.634661579014217e-07,2.220002164009961e-05
7.977707109446022e-07,3.9259363415745225e-07,4.651761974183639e-07,2.2326671958968912e-05
7.923685998299849e-07,3.862031849140702e-07,4.667672050295802e-07,2.2448375280651348e-05
7.873347770104377e-07,3.797862879947409e-07,4.6823179384080466e-07,2.256436136486441e-05
7.826836079496715e-07,3.733566256078697e-07,4.6956553003685247e-07,2.2673894897621445e-05
7.78421918225467e-07,3.669305691387295e-07,4.7076511516300105e-07,2.277623354819017e-05
7.745517766880776e-07,3.605266098229225e-07,4.718254798764967e-07,2.287057161011713e-05
7.710751222478613e-07,3.541647956466528e-07,4.7273852992870036e-07,2.2956029037290505e-05
7.6800032967698e-07,3.4786641786667054e-07,4.734937192229249e-07,2.303170499322384e-05
7.653449366098185e-07,3.416529893123749e-07,4.740798709466137e-07,2.3096766918059065e-05
7.631291019207386e-07,3.355461537040402e-07,4.74487089949356e-07,2.3150559891941573e-05
7.613675039745827e-07,3.295699711811941e-07,4.7470739153412104e-07,2.3192729135363158e-05
7.600691139959909e-07,3.2375225868115267e-07,4.7473421763972456e-07,2.322328533385613e-05
7.592420723398401e-07,3.1812284342170984e-07,4.745624429794879e-07,2.3242529911159148e-05
7.58896318553847e-07,3.127114564537573e-07,4.7419005170809383e-07,2.3250880353890545e-05
7.590422245780024e-07,3.075467248184252e-07,4.736204176455819e-07,2.324872492585013e-05
7.596871945813824e-07,3.0265529277914533e-07,4.728630761802468e-07,2.323636862615028e-05
7.608319325676224e-07,2.980604616281456e-07,4.7193207398574885e-07,2.321402500524477e-05
7.624703558055666e-07,2.937804003891194e-07,4.7084319031056974e-07,2.318180094083599e-05
7.645958785358051e-07,2.89827520485001e-07,4.696127924924279e-07,2.3139692972323763e-05
7.672076417142181e-07,2.862098692008256e-07,4.6825915789485473e-07,2.3087690773079292e-05
7.703085978687559e-07,2.829323849717953e-07,4.66803823035219e-07,2.30260268025661e-05
7.738978168635519e-07,2.7999678318834227e-07,4.652709601025508e-07,2.2955386999502614e-05
7.779679664178865e-07,2.7740094657026104e-07,4.6368641265385533e-07,2.2876877633586528e-05
7.825140718689947e-07,2.7513816706190284e-07,4.620780289699189e-07,2.279181558877856e-05
7.875450914458528e-07,2.731968885844309e-07,4.6047481048766823e-07,2.2701511495453572e-05
7.930843466799984e-07,2.7156232701306014e-07,4.589030249102122e-07,2.2607139876606197e-05
7.991580306294894e-07,2.7022010652074236e-07,4.5738247846647436e-07,2.250981691599905e-05
8.057857271667367e-07,2.6915919810548394e-07,4.5592580446605643e-07,2.241088868197657e-05
8.129805647552441e-07,2.683709984395716e-07,4.5453953021968576e-07,2.2312151890988308e-05
8.207505333868712e-07,2.678461244334648e-07,4.5322538746527386e-07,2.2215798572632426e-05
8.290935602250595e-07,2.675725494689875e-07,4.519814339652361e-07,2.2124194427751802e-05
8.379910278721108e-07,2.6753533553647837e-07,4.5080274413275186e-07,2.203966631963116e-05
8.474070736277327e-07,2.677173842624875e-07,4.496825983979023e-07,2.196435791630476e-05
8.57294885684609e-07,2.6810101154952823e-07,4.4861420420319674e-07,2.190014328728692e-05
8.676055900411442e-07,2.6866842709321105e-07,4.4759116532141707e-07,2.184857095716521e-05
8.782926588187479e-07,2.694004787930868e-07,4.466070205416992e-07,2.1810832817548315e-05
8.893084400642734e-07,2.702759447455985e-07,4.456555287123909e-07,2.1787773516913526e-05
9.005984895772129e-07,2.712723137866878e-07,4.447317006260876e-07,2.1779935080717717e-05
9.121000615610777e-07,2.7236653544470164e-07,4.4383255300117597e-07,2.1787595349497345e-05
9.237428855753604e-07,2.7353510160347573e-07,4.429564670418403e-07,2.1810763966719685e-05
9.354494043904569e-07,2.7475421329504426e-07,4.421013495225837e-07,2.1849143136701307e-05
9.471362980664558e-07,2.760006440166415e-07,4.4126304792270143e-07,2.190209185628934e-05
9.587177670581514e-07,2.772534874291075e-07,4.4043446751293746e-07,2.1968644023853026e-05
9.701078767450695e-07,2.78496115264672e-07,4.396051430190344e-07,2.204760322166288e-05
9.812210723960049e-07,2.797170491319869e-07,4.387616401466013e-07,2.2137667740867386e-05
9.919731150222185e-07,2.809091712771627e-07,4.3788862104601754e-07,2.223752467563455e-05
1.0022842175604984e-06,2.820682843394792e-07,4.3696938414435635e-07,2.2345910807383704e-05
1.0120820803151505e-06,2.8319205346157405e-07,4.359856657678797e-07,2.246165354721201e-05
1.0213008401503515e-06,2.842785427514813e-07,4.3491795720813477e-07,2.2583669268618092e-05
1.0298777967695616e-06,2.8532441962140736e-07,4.337474006083129e-07,2.271091623865475e-05
1.037754047661866e-06,2.863247206452942e-07,4.3245860141468563e-07,2.2842345888222204e-05
1.0448797658451927e-06,2.872743182403049e-07,4.310407121825852e-07,2.297686582489983e-05
1.0512205641793887e-06,2.8816905501542e-07,4.2948561053842075e-07,2.3113296323885396e-05
1.0567629060300638e-06,2.89005335089466e-07,4.277858396876865e-07,2.325035409318148e-05
1.0615149662489368e-06,2.8977969247290245e-07,4.259344156903586e-07,2.3386689382318608e-05
1.0654994289217443e-06,2.90490380020463e-07,4.239255781585835e-07,2.3520921508484976e-05
1.068743412612965e-06,2.911395080492021e-07,4.217553873682009e-07,2.365164724870533e-05
1.071274733224716e-06,2.9173247291727855e-07,4.1942184371363076e-07,2.377745760279912e-05
1.073124704822135e-06,2.922752856368034e-07,4.1692469814712994e-07,2.3896972750915062e-05
1.0743302710211793e-06,2.927728635164373e-07,4.1426528540304105e-07,2.400887353905709e-05
1.0749314176811602e-06,2.932287223024886e-07,4.114461891372133e-07,2.4111900334147103e-05
1.0749660014196376e-06,2.9364554731920683e-07,4.084708852051714e-07,2.4204825844576888e-05
1.0744677835745687e-06,2.940269292681685e-07,4.05344578737459e-07,2.428644826393773e-05
1.073470206759598e-06,2.9437951317803404e-07,4.020766153433175e-07,2.435562429979086e-05
1.0720109950277823e-06,2.947143262685232e-07,3.9868226685444616e-07,2.4411344143588447e-05
1.070131960774991e-06,2.9504721462744997e-07,3.9518219535232065e-07,2.4452855686114527e-05
1.0678734770865551e-06,2.953986869093629e-07,3.9160040026202203e-07,2.4479802478137767e-05
1.0652677466181378e-06,2.957920828025239e-07,3.8796127282938316e-07,2.449227466670343e-05
