5.037228773996672e-07,1.5585408352225037e-06,4.524806024115195e-07,2.9611882772208955e-05
5.055605912183238e-07,1.5570171697641086e-06,4.5645860711507083e-07,2.974049532539284e-05
5.072579861177647e-07,1.55539978431721e-06,4.60282187562004e-07,2.9870050446145752e-05
5.088178805468796e-07,1.553694167530646e-06,4.639523724990082e-07,2.999916622615351e-05
5.102447176555968e-07,1.5519110065321904e-06,4.674693734391235e-07,3.012645634762453e-05
5.115476897177197e-07,1.550055728641597e-06,4.708326213144695e-07,3.0250546469731483e-05
5.127429553456828e-07,1.5481208591061462e-06,4.740404587641122e-07,3.0370102554267378e-05
5.13854432869671e-07,1.546087187629059e-06,4.770902477546488e-07,3.0483820676344417e-05
5.149119307661786e-07,1.5439312616606672e-06,4.799792329134402e-07,3.059037602132105e-05
5.159454582648914e-07,1.5416299331201241e-06,4.82705028984956e-07,3.0688391139673935e-05
5.169792984659856e-07,1.5391609052499556e-06,4.85265126007676e-07,3.077646068496423e-05
5.180303594253888e-07,1.5365046551661903e-06,4.876563275290724e-07,3.085323873933697e-05
5.191095227960012e-07,1.5336469850724854e-06,4.898739636855914e-07,3.091759080953972e-05
5.202230381433256e-07,1.5305785981366146e-06,4.919106128963093e-07,3.096877446142817e-05
5.213739026993384e-07,1.527291259405521e-06,4.937559822917409e-07,3.100655277203675e-05
5.225637317905148e-07,1.5237724065977837e-06,4.953990503708601e-07,3.1031157453879655e-05
5.237942023377898e-07,1.5200013471331288e-06,4.968310406237329e-07,3.104310527954636e-05
5.250660108358211e-07,1.5159492992279448e-06,4.980464457876331e-07,3.104294303961753e-05
5.263759047318393e-07,1.511582635882183e-06,4.990415015736101e-07,3.103104695237367e-05
5.277157662289971e-07,1.5068675756867668e-06,4.998124362540073e-07,3.100756539194563e-05
5.29074809902274e-07,1.5017773626330538e-06,5.003552548397623e-07,3.0972452437429495e-05
5.304415468179206e-07,1.4963002808501519e-06,5.006666281559628e-07,3.0925516415572576e-05
5.318038463804723e-07,1.4904401493701015e-06,5.007442691079488e-07,3.086655645235956e-05
5.331498608920478e-07,1.4842084632917772e-06,5.005865174462844e-07,3.079565997923744e-05
5.344712373627147e-07,1.4776185698792426e-06,5.001924574981878e-07,3.07134600427031e-05
5.357650744178517e-07,1.470686769912685e-06,4.99562341854946e-07,3.0621100041895175e-05
5.3703216015833e-07,1.4634351133499839e-06,4.986974920284375e-07,3.051998918616011e-05
5.382736731707103e-07,1.4558898978389059e-06,4.97600477683883e-07,3.041156010931699e-05
5.394897816022507e-07,1.4480766835404864e-06,4.962754445025739e-07,3.0297115564728968e-05
5.406807143781081e-07,1.4400205364037932e-06,4.947269833974182e-07,3.017787341589159e-05
5.41847660915035e-07,1.4317561614512957e-06,4.929580896204745e-07,3.0055248044927117e-05
5.429928615261035e-07,1.4233379299507331e-06,4.909704007472681e-07,2.9931118912112245e-05
5.441204426202196e-07,1.4148377928190358e-06,4.887685087772079e-07,2.980784790035221e-05
5.4523644652541e-07,1.4063325745216162e-06,4.863647190015212e-07,2.968811322362121e-05
5.463462314092994e-07,1.3978898009068416e-06,4.837786893688021e-07,2.9574711968825165e-05
5.474517900317907e-07,1.3895605785924959e-06,4.810329919120944e-07,2.947038621464131e-05
5.485519158446877e-07,1.3813871742216974e-06,4.78149881839594e-07,2.9377694728484058e-05
5.496449918864792e-07,1.3734250753551917e-06,4.7515049963836927e-07,2.929893142096674e-05
5.507322686148078e-07,1.3657644540928358e-06,4.72054878658916e-07,2.9236069901822346e-05
5.518186939730799e-07,1.358533504793e-06,4.688815692820115e-07,2.9190725649289128e-05
5.529101781022221e-07,1.3518816508180086e-06,4.656467877823117e-07,2.9164135091191357e-05
5.540099030068155e-07,1.3459548385026943e-06,4.6236515517249824e-07,2.9157133404873437e-05
5.551167395051876e-07,1.340876989524804e-06,4.5905253511114137e-07,2.9170105072275926e-05
5.562258308959562e-07,1.3367425430546702e-06,4.5572765131747686e-07,2.9202916992819283e-05
5.57329634297349e-07,1.3336152895270494e-06,4.5241064969022463e-07,2.925488480958407e-05
5.584197421820452e-07,1.3315302219621588e-06,4.4912034794912893e-07,2.932481950228339e-05
5.594910019031072e-07,1.3304975126451216e-06,4.4587211199314707e-07,2.9411162960581586e-05
5.605460813785587e-07,1.3305050101110892e-06,4.426766999480918e-07,2.951215915991709e-05
5.615977844826675e-07,1.3315184664836094e-06,4.3953969621948565e-07,2.9625978853906562e-05
5.626689147124055e-07,1.3334827437823222e-06,4.3646158070856296e-07,2.9750790771729932e-05
5.637891183197797e-07,1.3363252761383048e-06,4.334388186674404e-07,2.988483694877757e-05
5.649892447110729e-07,1.3399605659883185e-06,4.3046605965002316e-07,3.0026515125310155e-05
5.662962072601132e-07,1.3442954782781617e-06,4.2753855445161893e-07,3.017441667239613e-05
5.677293108531764e-07,1.3492373549812802e-06,4.246535465167267e-07,3.0327300921020533e-05
5.692980073538322e-07,1.354705127387315e-06,4.218104196863997e-07,3.048402445016024e-05
5.710022007365961e-07,1.3606381212250362e-06,4.190098209414289e-07,3.0643437837994604e-05
5.728343072099215e-07,1.366996798151594e-06,4.1625183023839505e-07,3.080427910423866e-05
5.747809246554884e-07,1.3737569863033773e-06,4.135343983294932e-07,3.0965130335333976e-05
5.768235357189608e-07,1.38090380247427e-06,4.108538630595542e-07,3.1124446163888965e-05
5.789393137441113e-07,1.388427017095823e-06,4.082078442615266e-07,3.1280586172831864e-05
5.811029290583438e-07,1.3963153714267469e-06,4.055996210293426e-07,3.1431830007315087e-05
5.832887429364348e-07,1.4045491841458677e-06,4.030412378658138e-07,3.1576418593239136e-05
5.85473168123015e-07,1.4130957944633004e-06,4.0055172434375946e-07,3.1712634298527396e-05
5.87637376028589e-07,1.4219153483375662e-06,3.98151923421739e-07,3.183884766755585e-05
5.897681507321631e-07,1.4309749893697309e-06,3.9586140246709426e-07,3.1953466169125766e-05
5.918548379013523e-07,1.4402566276795308e-06,3.9369874205658003e-07,3.205485964055714e-05
5.938849211196595e-07,1.4497497995669253e-06,3.916815614199836e-07,3.2141378462193194e-05
5.958425159375754e-07,1.4594387765716869e-06,3.8982458536517993e-07,3.221145488970358e-05
5.977099964135403e-07,1.46929727976663e-06,3.881383394658748e-07,3.226372498098584e-05
5.994700329208991e-07,1.4792926048494284e-06,3.866295133595336e-07,3.229717953694797e-05
6.011067610333481e-07,1.4893890749403468e-06,3.8530090507477563e-07,3.2311316478108954e-05
6.026064050409203e-07,1.4995440554555373e-06,3.8415102375965145e-07,3.230615351904047e-05
6.039580665434183e-07,1.509703475814018e-06,3.831747199072064e-07,3.2282039130401204e-05
6.051544756009984e-07,1.5198046890278617e-06,3.8236369915153453e-07,3.223938855154317e-05
6.06190907959236e-07,1.529783022829632e-06,3.817063141495144e-07,3.2178506835141763e-05
6.070619693511474e-07,1.5395772419570585e-06,3.811880558613912e-07,3.209955215162149e-05
6.077596198324411e-07,1.5491347353590901e-06,3.807926068635704e-07,3.2002582494782676e-05
6.082750622633554e-07,1.5584133466924688e-06,3.805022817727451e-07,3.188760066444565e-05
6.086014559579731e-07,1.5673772047136931e-06,3.8029811203016064e-07,3.17546206352799e-05
6.087331702819913e-07,1.5759929845425547e-06,3.8016023284974396e-07,3.16038788233598e-05
6.086633845640542e-07,1.5842282818344469e-06,3.8006882122283346e-07,3.143612146608754e-05
6.08383711329568e-07,1.5920463866858804e-06,3.8000543186489255e-07,3.1252700937370244e-05
6.078846597442912e-07,1.5994004354794044e-06,3.7995380668925035e-07,3.105542239610309e-05
6.071552559672814e-07,1.6062337357186878e-06,3.7989985764482884e-07,3.0846303521815804e-05
6.061828413925121e-07,1.612484083933067e-06,3.798314511853386e-07,3.062735920474546e-05
6.049539195191604e-07,1.618089371048222e-06,3.7973809688660274e-07,3.0400514962954088e-05
6.034564916719265e-07,1.6229991025032444e-06,3.796114156125569e-07,3.016776160625403e-05
6.016828034281394e-07,1.6271888250783453e-06,3.794467564844866e-07,2.9931427623325983e-05
5.996298751664097e-07,1.63066148722225e-06,3.79243220074525e-07,2.9694285079156042e-05
5.972976370950951e-07,1.6334320115846131e-06,3.790012529974465e-07,2.9459440609580017e-05
5.946870626461587e-07,1.6355124276848023e-06,3.7872082167964686e-07,2.9230174420846008e-05
5.91800690555495e-07,1.6369136662474947e-06,3.7840126783609843e-07,2.900980767732393e-05
5.886455035350732e-07,1.6376630330832568e-06,3.780420290070304e-07,2.88015794427755e-05
5.8523458402913e-07,1.6378197332105204e-06,3.776446269559042e-07,2.8608523796291718e-05
5.815856777897187e-07,1.637472358618884e-06,3.7721551707051203e-07,2.843336375575107e-05
5.777193393261757e-07,1.6367241489186897e-06,3.7676750969042907e-07,2.8278427407445393e-05
5.736581488381646e-07,1.635680743428934e-06,3.763183966202266e-07,2.8145580440409064e-05
5.694254971841208e-07,1.6344421943977596e-06,3.75887603380269e-07,2.8036182335738007e-05
5.65043493300523e-07,1.6330954747116199e-06,3.7549262947775283e-07,2.795106256323592e-05
5.605314472507924e-07,1.6317088714560568e-06,3.751471185979919e-07,2.7890493529934465e-05
5.559063050145687e-07,1.6303303486235904e-06,3.7486201575186e-07,2.785417456923563e-05
5.511845162912937e-07,1.628989521951517e-06,3.746487349324832e-07,2.7841282883162038e-05
5.463826583549761e-07,1.6277006141855733e-06,3.745208933955285e-07,2.7850601685644873e-05
5.41515417835131e-07,1.6264641786484606e-06,3.7449325443107467e-07,2.788067316893316e-05
5.365935602663481e-07,1.6252678515432409e-06,3.7457956810443813e-07,2.792992708779941e-05
5.316245321318532e-07,1.6240870146392915e-06,3.7479112169808657e-07,2.7996768844094927e-05
5.266137797647831e-07,1.6228882353839625e-06,3.751360821137589e-07,2.8079643741766985e-05
5.215650131053684e-07,1.62163667941372e-06,3.7561944519757596e-07,2.8177093307803942e-05
5.164823955048715e-07,1.620302881540373e-06,3.7624403949465287e-07,2.8287781925112958e-05
5.113755148019624e-07,1.6188651107945308e-06,3.770106958392482e-07,2.8410468290434388e-05
5.06262097037175e-07,1.6173071243379127e-06,3.779164390739532e-07,2.8543926548230953e-05
5.011659993037771e-07,1.6156139380146617e-06,3.789536376758368e-07,2.868684280645708e-05
4.96114571768695e-07,1.6137705464862666e-06,3.801115036460261e-07,2.8837744246809748e-05
4.911386810274102e-07,1.6117639482290384e-06,3.813782366774102e-07,2.8995021721034442e-05
4.862731566166601e-07,1.6095831396157414e-06,3.827418710371241e-07,2.915700901410304e-05
4.815548373258061e-07,1.6072148458059178e-06,3.841895156803825e-07,2.9322030079090868e-05
4.770198314020877e-07,1.604638962245637e-06,3.8570774697899343e-07,2.9488419872851747e-05
4.727026997617358e-07,1.601827506100285e-06,3.8728558019152143e-07,2.965456097533155e-05
4.6863693426377325e-07,1.5987459633428127e-06,3.889166945911349e-07,2.9818913329650484e-05
4.6485428618509943e-07,1.595354022900022e-06,3.9059796074452955e-07,2.9979996344808705e-05
4.613818054213197e-07,1.5916070132873128e-06,3.923258935543732e-07,3.013631863156468e-05
4.582391987696388e-07,1.5874616317320475e-06,3.940944548948412e-07,3.0286305663741853e-05
4.5544008212934636e-07,1.582883907035254e-06,3.95895124001195e-07,3.0428306117979138e-05
4.5299515343739213e-07,1.5778538179323413e-06,3.9771759692826034e-07,3.056069286068991e-05
4.50912902289939e-07,1.5723637881206737e-06,3.995497238934261e-07,3.0682004410995205e-05
4.4919850537712745e-07,1.5664118300011419e-06,4.013768666208932e-07,3.079111176655553e-05
4.478539191518278e-07,1.5599940420392245e-06,4.031815835252527e-07,3.08873852879392e-05
4.4687854688424814e-07,1.5531016855081716e-06,4.0494413074192963e-07,3.0970742819377945e-05
4.462685202716315e-07,1.545723389593559e-06,4.0664363717180216e-07,3.1041510829123653e-05
4.460163514044234e-07,1.537849791476347e-06,4.0825928401572864e-07,3.1100160897539545e-05
4.4611301768077325e-07,1.529477433682671e-06,4.0977099371532954e-07,3.114704451294005e-05
4.465497938598877e-07,1.5206103723628704e-06,4.1115964073250494e-07,3.1182264541364895e-05
4.47317644550947e-07,1.5112603798328502e-06,4.1240675522612773e-07,3.120571181697645e-05
4.484062927710514e-07,1.501445655696943e-06,4.134941030891025e-07,3.121713453321473e-05
4.4980421456877135e-07,1.491186832950304e-06,4.144038121309337e-07,3.1216191356470715e-05
4.5149879617897045e-07,1.4805029780038329e-06,4.1511892414218347e-07,3.120263931808889e-05
4.534763206751057e-07,1.4694141276596104e-06,4.156235975397244e-07,3.1176665020554996e-05
4.557215825913943e-07,1.4579491143271096e-06,4.159030435940541e-07,3.113907136570671e-05
4.5821694406561786e-07,1.4461465923492148e-06,4.159439486804897e-07,3.109115940341571e-05
4.609416071648168e-07,1.434045794287338e-06,4.157349184812712e-07,3.103446868896438e-05
4.6387308689625616e-07,1.4216782527624599e-06,4.152668533419968e-07,3.097054399286357e-05
4.669909761852666e-07,1.409069707015515e-06,4.145339505168764e-07,3.090080742717041e-05
4.702797457321641e-07,1.396253288877436e-06,4.135345510536254e-07,3.082667000944378e-05
4.737281106468968e-07,1.3832860455883644e-06,4.122717874516581e-07,3.074983634954593e-05
4.773259694280755e-07,1.3702524903250094e-06,4.107541758546272e-07,3.0672481304698666e-05
4.81062708666154e-07,1.3572518525433794e-06,4.0899416773080567e-07,3.0597175002993344e-05
4.849297650560025e-07,1.3443855837886522e-06,4.0700510621070344e-07,3.052671625761604e-05
4.889250018359217e-07,1.3317536181195426e-06,4.0479947843631523e-07,3.046396798186828e-05
4.9305296373388e-07,1.3194528282177946e-06,4.023888141805784e-07,3.0411689014052387e-05
4.973193938815134e-07,1.3075744427159476e-06,3.997843399543871e-07,3.037238783494624e-05
5.017260361189363e-07,1.2962004287093622e-06,3.969979990689156e-07,3.034824956214916e-05
5.062705597668151e-07,1.2853972260006635e-06,3.9404246220185424e-07,3.034113455400522e-05
5.109484695535374e-07,1.2752103378207485e-06,3.9092987174883925e-07,3.035258844747927e-05
5.157525699448318e-07,1.2656654057364898e-06,3.876716471473e-07,3.0383811498582843e-05
5.206710708737122e-07,1.2567724693099676e-06,3.842797858993036e-07,3.043557547398267e-05
5.256875243825323e-07,1.24852752006419e-06,3.807672078334906e-07,3.0508125475325903e-05
5.307821204690711e-07,1.24091365125825e-06,3.771463182467801e-07,3.0601122460340636e-05
5.359328187939783e-07,1.2339032050668462e-06,3.734274550325277e-07,3.071364956441067e-05
5.411169028858604e-07,1.2274580615888729e-06,3.696186874328345e-07,3.084429034526615e-05
5.463124405175827e-07,1.2215305653398329e-06,3.657270124448168e-07,3.099128800712998e-05
5.514978717785996e-07,1.2160676198876709e-06,3.6176010912314033e-07,3.1152748756607825e-05
5.566496391491257e-07,1.2110134816893305e-06,3.57728254647873e-07,3.132681794090053e-05
5.617398006605648e-07,1.2063081799766607e-06,3.5364588180922725e-07,3.151179630405946e-05
5.667354137668811e-07,1.2018860915758163e-06,3.4953081297281534e-07,3.170620058438694e-05
5.715993818754017e-07,1.197680944551877e-06,3.45400935021626e-07,3.19087662893361e-05
5.762917698586039e-07,1.193635820768914e-06,3.4127149048761055e-07,3.21183973098247e-05
5.807714330744443e-07,1.1897081626529142e-06,3.371549454271428e-07,3.233408709582417e-05
5.849982652515425e-07,1.1858636647250092e-06,3.330622011759798e-07,3.255482163537268e-05
5.889358474319532e-07,1.1820665770245342e-06,3.2900353232012355e-07,3.2779465847773855e-05
5.92552715123968e-07,1.1782780126166695e-06,3.2498919048078233e-07,3.3006684632592496e-05
5.958213600726605e-07,1.174462326122685e-06,3.2103077646595173e-07,3.323495153209452e-05
5.987168265711289e-07,1.1705912703776248e-06,3.171423915563051e-07,3.3462612353236923e-05
6.012167417663532e-07,1.1666402103166492e-06,3.133390721586885e-07,3.368794155475104e-05
6.033026843131523e-07,1.162582084418742e-06,3.096338962197152e-07,3.390917570254701e-05
6.049613053271275e-07,1.158386934087259e-06,3.060367200547153e-07,3.412455047455543e-05
6.061842716009475e-07,1.1540282889726128e-06,3.025543360799593e-07,3.4332338068661935e-05
6.069673824321287e-07,1.1494912421557428e-06,2.991908401137645e-07,3.453082950671906e-05
6.073095365397988e-07,1.1447747470220184e-06,2.959481536053761e-07,3.471826786051734e-05
6.072129782826433e-07,1.1398877825846251e-06,2.9282768812356674e-07,3.489280222863094e-05
6.066846483586461e-07,1.1348453502190945e-06,2.898330832368181e-07,3.505249885746119e-05
6.057365043103598e-07,1.1296652710369318e-06,2.8697151105884e-07,3.5195432789773546e-05
6.043851766307757e-07,1.1243668789571986e-06,2.8425248131640616e-07,3.531988247119038e-05
6.026520474882066e-07,1.1189760672087118e-06,2.816855316078614e-07,3.542456670878341e-05
6.005623851586292e-07,1.1135297986383915e-06,2.7927805303264515e-07,3.550876399272653e-05
5.981429031628532e-07,1.1080693048899706e-06,2.7703455571637467e-07,3.557220427072824e-05
5.954190659122592e-07,1.1026289562433588e-06,2.749572288815689e-07,3.561480816828664e-05
5.924142683065618e-07,1.09723370872578e-06,2.730460419312137e-07,3.563646417572574e-05
5.891517745809215e-07,1.0919048773278459e-06,2.7129841059127336e-07,3.563696019277743e-05
5.856566091425655e-07,1.0866679215331972e-06,2.697101829989435e-07,3.561602451842898e-05
5.81955713439087e-07,1.0815579672189343e-06,2.682783990301842e-07,3.5573372823410314e-05
5.780787157723407e-07,1.0766199490244414e-06,2.6700298728153875e-07,3.550874832016671e-05
5.740595565839811e-07,1.0719028427259337e-06,2.6588553450776894e-07,3.5422073974015384e-05
5.699365538398055e-07,1.067450967207892e-06,2.649277941809116e-07,3.5313754312363235e-05
5.657500812547227e-07,1.0632978703141475e-06,2.6413173664610617e-07,3.518488246815174e-05
5.615387436319528e-07,1.0594666912610915e-06,2.635009764147518e-07,3.503713788285494e-05
5.573365734757703e-07,1.0559735670247466e-06,2.630433493708297e-07,3.487250437236464e-05
5.53173767306035e-07,1.052828982189548e-06,2.627715093398727e-07,3.469301118495284e-05
5.490798639599625e-07,1.050039514434089e-06,2.6269936579890344e-07,3.450057521046345e-05
5.450861652440968e-07,1.0476154033152616e-06,2.6283777102524773e-07,3.4297069952474355e-05
5.412256628358843e-07,1.0455817035497295e-06,2.6319263934997285e-07,3.4084624976363644e-05
5.375304373027051e-07,1.0439812522932829e-06,2.637647133093041e-07,3.3865837964395317e-05
5.340290466295135e-07,1.0428626828922272e-06,2.6454986841079697e-07,3.3643697844134024e-05
5.307476689923494e-07,1.04226390576848e-06,2.6554033504877536e-07,3.3421373297844205e-05
5.277141035289679e-07,1.042204509319677e-06,2.667267932680069e-07,3.320203292946807e-05
5.249588149630082e-07,1.0426920379582126e-06,2.6810015110362875e-07,3.298871716354152e-05
5.225108102208896e-07,1.043742032933686e-06,2.6965286410822227e-07,3.2784243071739755e-05
5.203941380413393e-07,1.045398192644522e-06,2.7137997349919844e-07,3.259112605873192e-05
5.186295925134757e-07,1.0477342252055873e-06,2.732789951436297e-07,3.241150982152345e-05
5.172376876988207e-07,1.0508408129706244e-06,2.753493039154181e-07,3.224712021471629e-05
5.162385609841975e-07,1.0548117614243263e-06,2.775916874367141e-07,3.209925439998811e-05
5.156500043490421e-07,1.059733100603362e-06,2.800068958061945e-07,3.196878671806413e-05
5.154859290496656e-07,1.0656744208616629e-06,2.825932516220124e-07,3.1856165949430434e-05
5.157568295438502e-07,1.0726835335058049e-06,2.8534497584044354e-07,3.176139094121566e-05
5.16472814893634e-07,1.080786904670263e-06,2.8825225032215534e-07,3.1683986409313586e-05
5.176467578528736e-07,1.0899940537704477e-06,2.913020978371995e-07,3.162304024776294e-05
5.192944831857569e-07,1.1002981513370457e-06,2.944784996998033e-07,3.157733652361957e-05
5.214314841209141e-07,1.1116723472337756e-06,2.977625763047514e-07,3.154553477254488e-05
5.240676180657119e-07,1.1240693195094051e-06,3.0113438487878045e-07,3.152631937949969e-05
5.27203008355516e-07,1.1374246947542404e-06,3.045746546550585e-07,3.151849686006196e-05
5.308278453910807e-07,1.1516594291237426e-06,3.080643099177393e-07,3.1521053320332475e-05
5.349238792831046e-07,1.1666806604874343e-06,3.11583245727873e-07,3.153316919831637e-05
5.394643959566735e-07,1.1823859824035403e-06,3.151102421521538e-07,3.1554184419716446e-05
5.444139667813836e-07,1.1986751830514415e-06,3.186236657084988e-07,3.1583527533167024e-05
5.497307124256254e-07,1.2154630365041432e-06,3.221021511669057e-07,3.162060816236084e-05
5.553706152821291e-07,1.2326819186120011e-06,3.255250219605158e-07,3.166468777761508e-05
5.612895216574778e-07,1.2502747586205709e-06,3.288726325035928e-07,3.171484724208564e-05
5.67440957398914e-07,1.268187305054351e-06,3.321266397957688e-07,3.177009402058641e-05
5.737742265069921e-07,1.2863635379753329e-06,3.352701497710509e-07,3.1829438669892027e-05
5.802356473147469e-07,1.30474263353498e-06,3.382879544644199e-07,3.1891848104863814e-05
5.867703075184571e-07,1.3232569949501556e-06,3.4116691283480957e-07,3.19561880541328e-05
5.933222208132824e-07,1.34183224114577e-06,3.438957826637484e-07,3.2021243293839363e-05
5.998343716681183e-07,1.360389000698147e-06,3.4646429245705273e-07,3.20857726586763e-05
6.062502165966039e-07,1.3788484496395149e-06,3.4886332209459997e-07,3.214851468442199e-05
6.12516142050422e-07,1.3971403934256756e-06,3.51086761585288e-07,3.220817574622418e-05
6.18584505260016e-07,1.4152039595756202e-06,3.5313227530512655e-07,3.2263526479834886e-05
6.244152558384401e-07,1.432978592175582e-06,3.549997187639385e-07,3.2313589398242256e-05
6.299732906807554e-07,1.4503961165721824e-06,3.566891909467504e-07,3.235774801943741e-05
6.352243251036757e-07,1.4673801964505092e-06,3.582004037350821e-07,3.2395706854734464e-05
6.401333157483232e-07,1.4838504502483468e-06,3.595334835007937e-07,3.2427386238886475e-05
6.446644118088256e-07,1.4997276029427434e-06,3.6068985674388206e-07,3.2452810879463504e-05
6.487811436675496e-07,1.5149369973817397e-06,3.616722630603411e-07,3.2471974137228274e-05
6.524484437448227e-07,1.5294088090461995e-06,3.6248459244213297e-07,3.2484705678852825e-05
6.556373593826496e-07,1.5430794753016527e-06,3.631315043595495e-07,3.2490628912569025e-05
6.583286188433567e-07,1.5558997873764828e-06,3.636184644133624e-07,3.248921837817785e-05
6.605104113099788e-07,1.5678439072307258e-06,3.639532144151515e-07,3.247987985984525e-05
6.621728039137564e-07,1.5789087173866013e-06,3.641462671815568e-07,3.246200267250144e-05
6.633045486680109e-07,1.58910209912363e-06,3.642086705401042e-07,3.2434982094297536e-05
6.638933778087871e-07,1.5984293680876063e-06,3.6414929685329684e-07,3.2398285209654685e-05
6.639276030257813e-07,1.6068865281679589e-06,3.639741063829736e-07,3.235164866591236e-05
6.633971114503264e-07,1.6144598316096613e-06,3.636876080459191e-07,3.2295239393378224e-05
6.622936695380183e-07,1.6211288434810516e-06,3.6329480522362817e-07,3.2229548016586204e-05
6.606124027668933e-07,1.6268720095061785e-06,3.628020704615982e-07,3.2155211230757216e-05
6.583545608234318e-07,1.631670870556439e-06,3.6221722203886844e-07,3.2073012523328026e-05
6.555291180436526e-07,1.6355099927968364e-06,3.6154936925131033e-07,3.19839105634516e-05
6.521520755398579e-07,1.6383790475472739e-06,3.608084964053636e-07,3.18889578812193e-05
6.482441767848311e-07,1.6402858810480032e-06,3.6000482461578265e-07,3.178919281571469e-05
6.438290978195428e-07,1.641270213435244e-06,3.5914838209566066e-07,3.1685548554632205e-05
6.389342248463699e-07,1.6413979712900758e-06,3.582492939545749e-07,3.157876267395352e-05
6.335926043252488e-07,1.640741624778261e-06,3.5731817226757867e-07,3.146931097206848e-05
6.278432585558782e-07,1.6393691146876913e-06,3.56365326389824e-07,3.135740431823692e-05
6.217294000338061e-07,1.637350756668442e-06,3.55399278679554e-07,3.124302833467459e-05
6.152956695488594e-07,1.6347763955425337e-06,3.544269155206311e-07,3.1125974073813496e-05
6.085863792762205e-07,1.6317657723522381e-06,3.534560848479251e-07,3.1005859233522364e-05
6.016455936150981e-07,1.6284614945810748e-06,3.524977152249249e-07,3.088216441936966e-05
5.945171933704307e-07,1.6250121198425754e-06,3.5156467482281513e-07,3.075428782468178e-05
5.872432544035295e-07,1.6215576788642953e-06,3.506702162754294e-07,3.062160881559282e-05
5.798621067172682e-07,1.6182211990212342e-06,3.498295415333032e-07,3.048352255081137e-05
5.724096553606809e-07,1.6151037524039103e-06,3.4906070383753145e-07,3.033941429490213e-05
5.649235068974071e-07,1.6122816373922042e-06,3.483813185698722e-07,3.0188623234989827e-05
5.57443276475056e-07,1.6098067479792214e-06,3.478053851594582e-07,3.0030450834252284e-05
5.500055037346201e-07,1.6077082231866297e-06,3.473431784266044e-07,2.986418671405932e-05
5.426401617856776e-07,1.6059932406363034e-06,3.47002094161275e-07,2.968912747478949e-05
5.353726111086923e-07,1.6046493203829682e-06,3.467881922915998e-07,2.950460690757964e-05
5.282280104210263e-07,1.6036486133087048e-06,3.467082301295331e-07,2.9310043452229688e-05
5.212341568374813e-07,1.6029522848009512e-06,3.46768978999432e-07,2.9104999908340508e-05
5.144213656730143e-07,1.6025143534281294e-06,3.469738992976361e-07,2.8889248979933832e-05
5.07820104473081e-07,1.6022833093432751e-06,3.473212504822907e-07,2.8662812998815656e-05
5.014576390792436e-07,1.6022014453190828e-06,3.478045395264144e-07,2.8425938688902666e-05
4.95355377572777e-07,1.6022056815424948e-06,3.484130824545275e-07,2.8179020326949243e-05
4.895277557734918e-07,1.6022314829414275e-06,3.491326109461124e-07,2.7922514527290404e-05
4.839828818685194e-07,1.6022166090370512e-06,3.499470930480737e-07,2.765686843803364e-05
4.787248607000822e-07,1.6021019784055753e-06,3.508402528756186e-07,2.738251289519985e-05
4.7375619638914355e-07,1.6018312197009838e-06,3.517953232030414e-07,2.7099929090383217e-05
4.690802614548917e-07,1.601351301120402e-06,3.527945014451343e-07,2.6809663948435944e-05
4.647048564065301e-07,1.6006124650802066e-06,3.538189237939256e-07,2.651224437149501e-05
4.6064423860217906e-07,1.599565414764272e-06,3.5484860563855866e-07,2.620809380722615e-05
4.569169517245557e-07,1.598158904771524e-06,3.5586274938231185e-07,2.5897529287206656e-05
4.53540980019008e-07,1.59634138082094e-06,3.56841213322777e-07,2.5580860827991543e-05
4.505295398430486e-07,1.594067991056416e-06,3.5776671995303135e-07,2.5258535858086247e-05
4.478894409232504e-07,1.5913096026637206e-06,3.5862574193551114e-07,2.4931179868908107e-05
4.456213521975078e-07,1.58805414246073e-06,3.5940723350038094e-07,2.4599520760010888e-05
4.437210669541436e-07,1.5842988074012268e-06,3.601011832401841e-07,2.426434755825296e-05
4.42182574584011e-07,1.580042955107861e-06,3.6069846672377625e-07,2.3926533788767e-05
4.4100139291865987e-07,1.575286355132697e-06,3.611918662705072e-07,2.358704084783097e-05
4.401748048633546e-07,1.5700302154342825e-06,3.61576939822972e-07,2.32468880109969e-05
4.397002918297607e-07,1.564276867010983e-06,3.6185113801197257e-07,2.290710312741e-05
4.395749239555376e-07,1.5580264462041694e-06,3.6201271277693746e-07,2.256864402996554e-05
4.39794928583869e-07,1.551273734135636e-06,3.620613357725365e-07,2.223232965838377e-05
4.403552075795069e-07,1.5440090321162247e-06,3.619986564093074e-07,2.189885524172169e-05
4.412510973210229e-07,1.536226969085966e-06,3.618275919793589e-07,2.1568867993323627e-05
4.4248261594396574e-07,1.527940784358614e-06,3.615517033932156e-07,2.1242983754005443e-05
4.440573484849628e-07,1.5191874064946326e-06,3.611748765029011e-07,2.0921720836446812e-05
4.459881056616559e-07,1.5100156342108239e-06,3.6070045323888616e-07,2.0605467718182408e-05
4.482865091276239e-07,1.5004701431237308e-06,3.6013063557292383e-07,2.0294603466643602e-05
4.509579536989715e-07,1.4905858545268142e-06,3.59467389457486e-07,1.998976829440599e-05
4.540006753000797e-07,1.4803922855361531e-06,3.5871364618950684e-07,1.96920461780097e-05
4.5740616258793247e-07,1.4699195019691126e-06,3.578726402963006e-07,1.940283658871281e-05
4.6115846368295834e-07,1.4592002345158566e-06,3.569459688682246e-07,1.912363727109719e-05
4.652338722582205e-07,1.4482676815650776e-06,3.5593261213058896e-07,1.8856013419482085e-05
4.696030820909553e-07,1.437152423546317e-06,3.5482949361466044e-07,1.8601603386862803e-05
4.7423572478603937e-07,1.4258841471258483e-06,3.5363324245156505e-07,1.836201614293961e-05
4.791052194538489e-07,1.4145004665105374e-06,3.5234270473392367e-07,1.8138721638852087e-05
4.841919738448605e-07,1.4030543961185424e-06,3.5096052778003393e-07,1.7932988432134603e-05
4.894857150708123e-07,1.3916112066561153e-06,3.494927411298164e-07,1.7745832296787425e-05
4.949867304722129e-07,1.380240456625005e-06,3.4794760772208785e-07,1.7577969548634413e-05
5.007026180872765e-07,1.3690129871546872e-06,3.463344071603377e-07,1.7429804126126802e-05
5.066410798533926e-07,1.3580067208474977e-06,3.4466164082403323e-07,1.7301448555354412e-05
5.128039279892644e-07,1.3473199033931265e-06,3.429355273364851e-07,1.719274752611308e-05
5.191847732711896e-07,1.3370766186356459e-06,3.411599174494857e-07,1.7103304586038905e-05
5.257689693836375e-07,1.3274137853061392e-06,3.3933801215400145e-07,1.7032525969299028e-05
5.325343818903188e-07,1.3184626280524723e-06,3.374751982617743e-07,1.697967290739005e-05
5.39453143371874e-07,1.3103362988896922e-06,3.35580287835428e-07,1.6943907359773512e-05
5.464939902709557e-07,1.3031217892730523e-06,3.336639971391981e-07,1.692429886459882e-05
5.536237689043333e-07,1.2968768623497888e-06,3.3173763935755785e-07,1.691978043429764e-05
5.608086375624445e-07,1.2916353620451322e-06,3.2981401832467697e-07,1.6929120612931982e-05
5.680155384825575e-07,1.287415289577415e-06,3.279079318818012e-07,1.69509623929083e-05
5.752122037781308e-07,1.2842192561036185e-06,3.260343706610878e-07,1.6983882394686853e-05
5.823657620604497e-07,1.2820290225146142e-06,3.24207623333152e-07,1.7026422605172336e-05
5.894416557530264e-07,1.2808044214122532e-06,3.224440250385632e-07,1.7077115054030328e-05
5.964034748162711e-07,1.280488075455992e-06,3.2076478438395893e-07,1.7134525243096703e-05
6.032146133909231e-07,1.2810114142834672e-06,3.191943895329262e-07,1.719729111961763e-05
6.098409261137028e-07,1.2822998091318869e-06,3.1775589583920445e-07,1.7264135935985927e-05
6.162517077801454e-07,1.284276586595616e-06,3.164670500184205e-07,1.7333869247655183e-05
6.224187183834417e-07,1.2868693353268952e-06,3.153389705102213e-07,1.7405368907567333e-05
6.283147476137807e-07,1.2900181260819028e-06,3.143774436909865e-07,1.7477527421993312e-05
6.339132981342081e-07,1.2936771662027462e-06,3.1358658349140874e-07,1.7549197254663068e-05
6.391900759993957e-07,1.297809738141075e-06,3.1297338342717763e-07,1.7619194672308386e-05
6.44125222430836e-07,1.30238491491818e-06,3.12549573028088e-07,1.7686386042692855e-05
6.487050165138877e-07,1.3073761817976171e-06,3.1232867231549266e-07,1.7749786998587154e-05
6.529216313799622e-07,1.3127579932138228e-06,3.123213360599489e-07,1.7808570521782005e-05
6.567709789637296e-07,1.3185028277674535e-06,3.125329122597845e-07,1.7862016720763886e-05
6.602513212081375e-07,1.3245823966425078e-06,3.129637706803103e-07,1.790949639957712e-05
6.633626277412946e-07,1.3309697009873334e-06,3.136111160930974e-07,1.7950461902765744e-05
6.661043459510482e-07,1.3376378537088369e-06,3.1447027906712857e-07,1.7984436612720854e-05
6.684732109792172e-07,1.3445591964398464e-06,3.1553471521289784e-07,1.8011067642388426e-05
6.704640009728125e-07,1.3517056068571257e-06,3.167971771372878e-07,1.8030186064248622e-05
6.720719052725879e-07,1.3590440994217957e-06,3.18253597262286e-07,1.8041770235666198e-05
6.732942667465416e-07,1.366529537150401e-06,3.199061113926418e-07,1.804584874596805e-05
6.74132641137641e-07,1.3741035479136349e-06,3.2176241255923493e-07,1.8042448129046178e-05
6.745949598892179e-07,1.381701244153514e-06,3.2383347376530947e-07,1.8031640020265898e-05
6.746947351364789e-07,1.3892580464206677e-06,3.2613044273209384e-07,1.8013666610632168e-05
6.744475072991955e-07,1.396710787111056e-06,3.286609660655349e-07,1.7989049178537328e-05
6.738678555107261e-07,1.4039951846785362e-06,3.314276485812914e-07,1.7958590778724325e-05
6.729678569235082e-07,1.4110436503936447e-06,3.344282736322579e-07,1.792326833754073e-05
6.717562916196594e-07,1.4177843789914615e-06,3.376555717234812e-07,1.7884055489077373e-05
6.702390108457204e-07,1.4241433721612548e-06,3.4109708484581514e-07,1.7841755131689848e-05
6.684201110339504e-07,1.4300524985833219e-06,3.4473638910494344e-07,1.7796943108717678e-05
6.663027528243378e-07,1.4354599389910097e-06,3.485555421103821e-07,1.775001723778032e-05
6.63889972686512e-07,1.4403327366378937e-06,3.525363909231012e-07,1.7701261232296322e-05
6.611852637760222e-07,1.4446491092999848e-06,3.566592095149789e-07,1.7650944989873857e-05
6.581917324075743e-07,1.4483887465648804e-06,3.609009123934305e-07,1.759955796835719e-05
6.549109046952203e-07,1.4515279876180443e-06,3.652351079173561e-07,1.7548066851058e-05
6.513430927899468e-07,1.454040831093513e-06,3.6963370492544866e-07,1.7497944720588154e-05
6.474898269225636e-07,1.455902747927606e-06,3.740683420992124e-07,1.7450964086526314e-05
6.433574571966565e-07,1.4570935005245562e-06,3.785106255374245e-07,1.7408946424476634e-05
6.389584883910729e-07,1.457598600690644e-06,3.8293251030049283e-07,1.737356761363935e-05
6.343081739266307e-07,1.457412956323152e-06,3.8730731248834963e-07,1.7346312892198143e-05
6.294198749111243e-07,1.4565482405619537e-06,3.916100806442357e-07,1.732869600110127e-05
6.243038031254422e-07,1.455037723654452e-06,3.958182044969733e-07,1.7322579303671264e-05
6.189685921317855e-07,1.4529305145568814e-06,3.999129220980455e-07,1.7330271151352743e-05
6.134228498423154e-07,1.4502771912002912e-06,4.038802291869561e-07,1.73543731776396e-05
6.076763506443021e-07,1.4471181811363387e-06,4.0771054611604157e-07,1.7397567378289984e-05
6.017419945380188e-07,1.443485253685914e-06,4.1139675563343773e-07,1.7462431132362768e-05
5.956377381425334e-07,1.4394179479425257e-06,4.149313161096024e-07,1.7551284578550752e-05
5.893864189044565e-07,1.4349819936896748e-06,4.183044592765375e-07,1.7666073102753627e-05
5.830132511314341e-07,1.430271350470202e-06,4.2150400621746923e-07,1.780829104903786e-05
5.765433086006523e-07,1.4253952490869674e-06,4.2451674673868133e-07,1.7978966240078562e-05
5.700014837666456e-07,1.4204654079002963e-06,4.273302329009282e-07,1.817869432132716e-05
5.634152980633135e-07,1.4155863832655974e-06,4.2993282329710714e-07,1.840765228269124e-05
5.568181437847311e-07,1.4108462725850345e-06,4.323128205820423e-07,1.866555800871416e-05
5.502492022979022e-07,1.40631171160523e-06,4.344589628377294e-07,1.8951623944179057e-05
5.4374954534588e-07,1.4020286403176217e-06,4.363613957201818e-07,1.9264542034288605e-05
5.373583379624728e-07,1.3980256051904677e-06,4.380120394963968e-07,1.960251731475985e-05
5.311117115018118e-07,1.3943171544693123e-06,4.394053264218281e-07,1.9963380139872642e-05
5.250424192399762e-07,1.3909054132581538e-06,4.405383987122304e-07,2.034475802767876e-05
5.191780558440764e-07,1.3877813505947158e-06,4.414098967738858e-07,2.0744222952006388e-05
5.135390666640803e-07,1.3849282133205283e-06,4.4201945452921847e-07,2.1159363966307128e-05
5.08138913356489e-07,1.3823236570414562e-06,4.4236846324179153e-07,2.15878273907108e-05
5.029861464868396e-07,1.3799385808459236e-06,4.424604134827053e-07,2.2027362487729595e-05
4.980861477260539e-07,1.377735953614164e-06,4.4230072652065154e-07,2.247582317603688e-05
4.934415686470544e-07,1.3756719303985257e-06,4.418965142647749e-07,2.2931088875825368e-05
4.890525429973464e-07,1.3737007302338766e-06,4.4125579912824526e-07,2.339096292913611e-05
4.849171143553617e-07,1.3717812558727082e-06,4.403875948758611e-07,2.385311078610636e-05
4.810306587700427e-07,1.3698796709584736e-06,4.3930370589220094e-07,2.4315049949942586e-05
4.773843282977496e-07,1.3679665704785223e-06,4.3801913993271817e-07,2.4774202412991625e-05
4.7396469297787076e-07,1.366011741983863e-06,4.365499656141211e-07,2.5227988085655272e-05
4.707556493682251e-07,1.3639798551884564e-06,4.3491121967535927e-07,2.567388727073379e-05
4.677407153247345e-07,1.361829802272736e-06,4.331161426901968e-07,2.610944464078771e-05
4.6490357668770276e-07,1.3595164626255328e-06,4.3117666661037856e-07,2.653226129226316e-05
4.6222752617585754e-07,1.3569929360168743e-06,4.291046890424594e-07,2.694001835763204e-05
4.5969582680034636e-07,1.354217627720337e-06,4.2691258113781204e-07,2.733050363328427e-05
4.572931529417985e-07,1.3511662231099642e-06,4.2461287971916454e-07,2.7701593064671636e-05
4.550062709327859e-07,1.3478364400792574e-06,4.222189228385375e-07,2.8051221306141662e-05
4.528236856231436e-07,1.3442393963240006e-06,4.197455909022536e-07,2.8377411417655877e-05
4.5073625214915237e-07,1.3403863383988192e-06,4.172085837956741e-07,2.8678359876819312e-05
4.4873885767565014e-07,1.3362809729453267e-06,4.146237343707368e-07,2.895252452752884e-05
4.4683054706961744e-07,1.3319193273007429e-06,4.1200763894779726e-07,2.919871320271369e-05
4.450121526520073e-07,1.3272930274679097e-06,4.093790308508368e-07,2.9416180272388123e-05
4.432838726084297e-07,1.322392817645442e-06,4.067594393261761e-07,2.960466111806554e-05
4.4164470866387283e-07,1.317211207389274e-06,4.0417169448845023e-07,2.9764279530251222e-05
4.400930032827128e-07,1.3117448697898302e-06,4.016380903131835e-07,2.989535726833105e-05
4.386267794239155e-07,1.3059980070874552e-06,3.991817300854089e-07,2.999821635567404e-05
4.372437935799533e-07,1.2999839088155844e-06,3.9682913877336653e-07,3.007306306012965e-05
4.3594150065722177e-07,1.29372304617981e-06,3.9460858569022953e-07,3.0119980859376906e-05
4.347162666901802e-07,1.2872398303293169e-06,3.9254495193911406e-07,3.0138982625732e-05
4.335621673658017e-07,1.2805590334179138e-06,3.90656714378253e-07,3.0130097892023803e-05
4.3247097303191254e-07,1.273702581996072e-06,3.889557056457002e-07,3.009358464442311e-05
4.3143350953154575e-07,1.266687075911743e-06,3.874474033706673e-07,3.0030253849985986e-05
4.3044092979014337e-07,1.2595238391063382e-06,3.861320961032601e-07,2.994164248344577e-05
4.294848382636282e-07,1.2522244100087872e-06,3.8500744307269895e-07,2.982987564320274e-05
4.285568210410745e-07,1.2448077222244677e-06,3.840716247675654e-07,2.969736757920411e-05
4.276486768168349e-07,1.2373013694377477e-06,3.833255854772397e-07,2.954655172220381e-05
4.267533978042665e-07,1.2297383053169227e-06,3.8277249783536796e-07,2.937976619800635e-05
4.258650964798534e-07,1.2221620326304338e-06,3.824148662224475e-07,2.9199410323538604e-05
4.249775321389303e-07,1.2146420633245782e-06,3.822519020244489e-07,2.900827018162641e-05
4.240833758735638e-07,1.20727665028786e-06,3.8227915037692685e-07,2.880968516343125e-05
4.231753379338461e-07,1.200171564424462e-06,3.82490538096169e-07,2.8607431269962432e-05
4.222488132316414e-07,1.1934163239223343e-06,3.828806055235156e-07,2.8405486645564222e-05
4.2130379169577545e-07,1.1870780469701702e-06,3.8344514187803077e-07,2.820781870305171e-05
4.203432409860481e-07,1.1812115137508805e-06,3.8418097443557603e-07,2.801821397049704e-05
4.1937010319349603e-07,1.1758711471463005e-06,3.8508481385602176e-07,2.784014646953221e-05
4.183874323453919e-07,1.1711114449404828e-06,3.8615118570879824e-07,2.7676698021714367e-05
4.1740115157333284e-07,1.1669788421522465e-06,3.873716452329268e-07,2.75305360045947e-05
4.1642121481434063e-07,1.1635063887565807e-06,3.8873604962425506e-07,2.740391256856717e-05
4.154601222661874e-07,1.1607124395591877e-06,3.902339144242473e-07,2.7298636762194685e-05
4.1453138895266314e-07,1.1585995320589006e-06,3.9185407250187814e-07,2.7216014349068586e-05
4.136492754630189e-07,1.1571539260938907e-06,3.935834048916528e-07,2.715678708558337e-05
4.1282849729623593e-07,1.1563482095549526e-06,3.9540597624436025e-07,2.7121099669788668e-05
4.120827565727297e-07,1.1561461592015e-06,3.973024532819487e-07,2.7108531707052544e-05
4.114230528236657e-07,1.1565075233664042e-06,3.992503916818401e-07,2.711822089444264e-05
4.108571966504786e-07,1.1573928138040628e-06,4.0122612593551456e-07,2.7149028606233505e-05
4.1039004193705577e-07,1.158766258027149e-06,4.0320672398274615e-07,2.7199668199698465e-05
4.100231793684403e-07,1.1605936892477205e-06,4.0517032482882706e-07,2.726877447684989e-05
4.0975445821381843e-07,1.1628372329802535e-06,4.070956778243705e-07,2.735495383602837e-05
4.095784721243596e-07,1.1654507023211972e-06,4.0896260112019603e-07,2.745685215808695e-05
4.094872653872357e-07,1.1683772394167265e-06,4.107529814774874e-07,2.7573216111095563e-05
4.0947022825454066e-07,1.1715493651038854e-06,4.124510462941832e-07,2.7702896991092714e-05
4.0951479460406535e-07,1.1748907147440138e-06,4.1404363435220384e-07,2.7844803552923656e-05
4.0960939567644904e-07,1.1783186134246471e-06,4.1552057033487136e-07,2.799783487629393e-05
4.0974648649816976e-07,1.1817472746068396e-06,4.168734004123616e-07,2.816079378978352e-05
4.099233209830054e-07,1.185092026452959e-06,4.180937150755387e-07,2.833232357188419e-05
4.101407986030851e-07,1.1882740735945502e-06,4.191733970184016e-07,2.851092737927171e-05
4.1040147831807817e-07,1.1912221057377311e-06,4.201053290465552e-07,2.869502557636828e-05
4.107090561251133e-07,1.1938696056902049e-06,4.2088460007915703e-07,2.88829873994476e-05
4.110706869736428e-07,1.1961525008082612e-06,4.2151308191974286e-07,2.9073161416904743e-05
4.1149938327484275e-07,1.19800906529103e-06,4.220037076826335e-07,2.926392347401012e-05
4.1201298080839184e-07,1.1993816518369443e-06,4.2237772485082676e-07,2.945368163816997e-05
4.126303094107253e-07,1.2002212242344736e-06,4.226578417393448e-07,2.964079483960092e-05
4.1336952141582474e-07,1.2004910154228993e-06,4.22864919694209e-07,2.982347905319345e-05
4.142508902077548e-07,1.20016590653695e-06,4.2301894154517424e-07,2.9999802415119666e-05
4.1529956777692867e-07,1.1992315432702849e-06,4.231400699412699e-07,3.0167773342730603e-05
4.165437703942937e-07,1.1976851883533904e-06,4.2324762239257853e-07,3.0325472804026923e-05
4.180099635485545e-07,1.195535489540694e-06,4.2335836725968215e-07,3.0471218396257405e-05
4.197195935645302e-07,1.1928001081457657e-06,4.234861993993679e-07,3.0603743079218056e-05
4.2168838288940097e-07,1.1895007036005899e-06,4.236427796529033e-07,3.0722283050373214e-05
4.2392557418767465e-07,1.1856569975847423e-06,4.2383736201153005e-07,3.082647761568289e-05
4.2643280806336406e-07,1.1812844548476445e-06,4.2407596362254353e-07,3.091613833260542e-05
4.292056992728456e-07,1.176396808505185e-06,4.243613214622979e-07,3.099104584285755e-05
4.322385187111842e-07,1.1710149021598348e-06,4.2469386689163497e-07,3.1050872042890836e-05
4.3552781109209443e-07,1.1651811415824054e-06,4.250732542780381e-07,3.109519118584307e-05
4.3907234658792897e-07,1.158966312698184e-06,4.2550015968585437e-07,3.112349481560232e-05
4.4287134503167803e-07,1.1524577238500857e-06,4.2597810510331384e-07,3.113522079374024e-05
4.469234644650998e-07,1.1457395698047528e-06,4.2651463448034116e-07,3.1129933362773544e-05
4.512274182256754e-07,1.1388846390447887e-06,4.27120331737656e-07,3.110767238990838e-05
4.5578455655554104e-07,1.131959724421862e-06,4.2780521071287887e-07,3.106918981715649e-05
4.606024150334774e-07,1.1250317690730189e-06,4.285746255795335e-07,3.101586801145489e-05
4.6569674229817077e-07,1.1181656680136073e-06,4.294273863610485e-07,3.094946428951403e-05
4.710891913103256e-07,1.1114170236554943e-06,4.3035654265899364e-07,3.087184192381656e-05
4.767995752848938e-07,1.104828983671355e-06,4.313513158668167e-07,3.078475801515557e-05
4.828374431262905e-07,1.0984383792683372e-06,4.3239923771006784e-07,3.0689894033054074e-05
4.891993647286501e-07,1.0922880705933682e-06,4.334880448250553e-07,3.058915896866933e-05
4.958714132108281e-07,1.0864353987799051e-06,4.3460582053508006e-07,3.0484933522044146e-05
5.028319663778549e-07,1.0809491879295379e-06,4.3573930224441005e-07,3.0380050196181688e-05
5.100527837947513e-07,1.075899757052544e-06,4.368724880060938e-07,3.027764566629702e-05
5.175004762471372e-07,1.0713524887923566e-06,4.3798689294088575e-07,3.0181002602022626e-05
5.251401858453331e-07,1.0673749607189844e-06,4.3906306526208546e-07,3.009337100296884e-05
5.329386777100029e-07,1.0640574885938428e-06,4.400818980456705e-07,3.001777758530304e-05
5.408632255720121e-07,1.0615255150292273e-06,4.4102569210118133e-07,2.9956877087517248e-05
5.48878240442902e-07,1.059926000302186e-06,4.41879911408584e-07,2.9912891730023706e-05
5.569443984811595e-07,1.0593997968736606e-06,4.426336929004629e-07,2.988762528970923e-05
5.650218327151001e-07,1.0600607313388494e-06,4.432781239715767e-07,2.9882473571580323e-05
5.730743502724292e-07,1.0619873978051494e-06,4.4380536864971e-07,2.9898374825496285e-05
5.810703384807139e-07,1.0652233051782197e-06,4.442093703802493e-07,2.993574004074813e-05
5.889801773521839e-07,1.0697793460913565e-06,4.4448574440955536e-07,2.999441870646616e-05
5.967735348066479e-07,1.0756358613899887e-06,4.446312935135432e-07,3.0073696188868312e-05
6.044188743812428e-07,1.0827457381248206e-06,4.446442221254033e-07,3.017233782058652e-05
6.118846175661763e-07,1.0910393193354704e-06,4.445238141437628e-07,3.028872283289179e-05
6.19140335253231e-07,1.1004308759878252e-06,4.4427065357978535e-07,3.0421031672496283e-05
6.261578537744699e-07,1.1108247058893841e-06,4.4388871226723135e-07,3.05674060480218e-05
6.329115156099551e-07,1.1221162399326264e-06,4.433863435038392e-07,3.07260729521682e-05
6.393761549589316e-07,1.1341897353691914e-06,4.427744032288742e-07,3.089544868088933e-05
6.45524515121619e-07,1.1469209995468737e-06,4.4206339994123383e-07,3.1074186652934016e-05
6.513266695674805e-07,1.1601875677444698e-06,4.4126159352655536e-07,3.126113456696814e-05
6.567513721179365e-07,1.1738785311475271e-06,4.4037494649225596e-07,3.145522592037436e-05
6.617675135888803e-07,1.187895529164617e-06,4.394082706952985e-07,3.1655355710660994e-05
6.663442090118015e-07,1.2021464865096294e-06,4.383661023062441e-07,3.1860273771279704e-05
6.704503752529549e-07,1.2165410478197778e-06,4.3725304641811247e-07,3.2068543218053966e-05
6.740551431041763e-07,1.2309927980954637e-06,4.3607367763062393e-07,3.2278590064286696e-05
6.771283247195999e-07,1.2454248124391844e-06,4.348323989022605e-07,3.2488770397718016e-05
6.796405636498636e-07,1.2597699569474528e-06,4.3353398191376457e-07,3.269738646648347e-05
6.815643091940273e-07,1.2739636487397082e-06,4.3218369809816806e-07,3.290268980981145e-05
6.828754151364022e-07,1.2879389926260685e-06,4.3078619847354095e-07,3.3102916830631294e-05
6.835550722488503e-07,1.3016317466676908e-06,4.2934474876383967e-07,3.329632524695336e-05
6.835930542576621e-07,1.3149871612510885e-06,4.2786236983151174e-07,3.3481176425769644e-05
6.829899586968528e-07,1.3279576412389277e-06,4.26343933344468e-07,3.365567349556004e-05
6.817544187602197e-07,1.3404938019449252e-06,4.2479620005591653e-07,3.381795723578818e-05
6.798976647703991e-07,1.3525396044233497e-06,4.232254012377585e-07,3.396627146971762e-05
6.774315298321434e-07,1.3640352569326212e-06,4.216351479856207e-07,3.4099255330796335e-05
6.743700267032079e-07,1.374921663700015e-06,4.2002563939124276e-07,3.4216147464564545e-05
6.707296910472888e-07,1.385140462857685e-06,4.183937941489297e-07,3.431676069630549e-05
6.665277269409372e-07,1.3946327144048305e-06,4.167341798586578e-07,3.440129978979794e-05
6.617817901914168e-07,1.4033431210987998e-06,4.150398513560537e-07,3.447014226525166e-05
6.565129098616655e-07,1.4112308409087774e-06,4.133027412233903e-07,3.452363539914538e-05
6.507478954614361e-07,1.418278228183444e-06,4.115143594082985e-07,3.4561965251708196e-05
6.4451842175398e-07,1.4244869110621247e-06,4.096669992958951e-07,3.4585140258715824e-05
6.37858896879964e-07,1.4298650008093848e-06,4.077543385802032e-07,3.459305019031325e-05
6.308052526184428e-07,1.4344191414769169e-06,4.0577046859345396e-07,3.45855273558978e-05
6.233943700575643e-07,1.4381549684537028e-06,4.037087449781435e-07,3.4562371181265444e-05
6.156639002573366e-07,1.4410787249320678e-06,4.0156285785710967e-07,3.4523406886759164e-05
6.076514740878391e-07,1.4431962111938299e-06,3.9932947107784524e-07,3.4468697645336e-05
5.993927553058657e-07,1.44451368284935e-06,3.970095377585896e-07,3.4398792346986306e-05
5.909206943809447e-07,1.4450426247664636e-06,3.946078691322639e-07,3.431473263614644e-05
5.822674872721345e-07,1.444801645576441e-06,3.921322237597671e-07,3.4217821949399813e-05
5.734666395198981e-07,1.4438123668615719e-06,3.895919625036704e-07,3.4109442042128184e-05
5.645522980069091e-07,1.4420953033361981e-06,3.8699721883160756e-07,3.399109910852722e-05
5.555571796685904e-07,1.4396728811092975e-06,3.843592384580464e-07,3.3864567153648196e-05
5.465122566345138e-07,1.4365814136980862e-06,3.8168946646939564e-07,3.373189583366994e-05
5.374493697299109e-07,1.4328819007342713e-06,3.789971774489828e-07,3.359526629693418e-05
5.284055420301786e-07,1.4286583652592275e-06,3.7628901575858594e-07,3.345682042521651e-05
5.194264096609565e-07,1.4240128682569798e-06,3.735707869415132e-07,3.331853971682293e-05
5.105668237798584e-07,1.419065864526191e-06,3.7084864390057704e-07,3.318218912339524e-05
5.018888208547036e-07,1.4139498001196681e-06,3.681282716169485e-07,3.3049283637507505e-05
4.934583856638628e-07,1.4087939130915209e-06,3.654132731558951e-07,3.292102988269045e-05
4.853424154311183e-07,1.4037137935402723e-06,3.627045924832361e-07,3.2798272144928703e-05
4.7760684394653e-07,1.3988081113040647e-06,3.600016332531463e-07,3.268149923493653e-05
4.7031454751842526e-07,1.394157375828728e-06,3.5730536459744525e-07,3.2570908885674325e-05
4.6352108028972885e-07,1.3898229848588456e-06,3.5462176569761107e-07,3.246648240182939e-05
4.572703607431025e-07,1.3858456534696828e-06,3.5196152355827063e-07,3.2368025018919064e-05
4.5159376042157403e-07,1.3822447168955494e-06,3.493362222289824e-07,3.227515538605425e-05
4.46512457514509e-07,1.3790214871080892e-06,3.46755282673948e-07,3.218727011332552e-05
4.4204076515196626e-07,1.3761640560714372e-06,3.4422503823929285e-07,3.210353804815805e-05
4.3818842429637633e-07,1.3736482329766348e-06,3.417494712908029e-07,3.202294585469588e-05
4.349606010291665e-07,1.3714362085314869e-06,3.3933215573731067e-07,3.194435246072597e-05
4.3235719599319037e-07,1.3694780554252413e-06,3.369780123601462e-07,3.1866530920710556e-05
4.3037361865073317e-07,1.3677177973120405e-06,3.3469352066560177e-07,3.178822979951656e-05
4.290008670906812e-07,1.366102419782822e-06,3.324854369091661e-07,3.170826313581992e-05
4.2822415865835975e-07,1.3645886759201276e-06,3.303599045305435e-07,3.16256014135164e-05
4.280238240659032e-07,1.3631422357832235e-06,3.283225932863051e-07,3.1539419265776926e-05
4.283783801239932e-07,1.3617300815727872e-06,3.263783104265388e-07,3.1449059279935415e-05
4.292668935502518e-07,1.360313485856192e-06,3.2453066955374477e-07,3.135393630843711e-05
4.3067124645911255e-07,1.3588472576117285e-06,3.2278289780977537e-07,3.1253453493379134e-05
4.325777901143491e-07,1.3572827965798292e-06,3.211379146023901e-07,3.1146968422280325e-05
4.3497534812573464e-07,1.3555708972970578e-06,3.195974877402247e-07,3.103382979783973e-05
4.378505459244706e-07,1.3536651201151837e-06,3.1816270301039357e-07,3.091347120256893e-05
4.411844194889228e-07,1.351524693352126e-06,3.168345577514976e-07,3.0785470643483534e-05
4.449520258021311e-07,1.3491129601241705e-06,3.156130467833881e-07,3.064952438700757e-05
4.491251961391901e-07,1.3463928300701868e-06,3.144974006893413e-07,3.0505374433601197e-05
4.5367741125453827e-07,1.3433242896950774e-06,3.134881377027501e-07,3.0352731742566883e-05
4.5858661990600025e-07,1.3398663892744309e-06,3.125876134864377e-07,3.0191245464823573e-05
4.6383307741766775e-07,1.3359848761739723e-06,3.1179816073602057e-07,3.002054772802777e-05
4.693961056299885e-07,1.331663296966655e-06,3.111199101939415e-07,2.9840314513914386e-05
4.752546997552408e-07,1.3269087459037742e-06,3.1055008144554204e-07,2.9650274010273803e-05
4.813894651984011e-07,1.3217460241330105e-06,3.100838656052485e-07,2.945016484156285e-05
4.877807153476422e-07,1.3162055779120916e-06,3.097157496834116e-07,2.9239709697044563e-05
4.944041139866967e-07,1.3103136469984642e-06,3.094402463920645e-07,2.9018691054656447e-05
5.012282276656978e-07,1.3040879992471597e-06,3.092520963327123e-07,2.878713598421955e-05
5.08214391377561e-07,1.2975413387783342e-06,3.0914632356136234e-07,2.854548817102343e-05
5.153175289246953e-07,1.2906884573183723e-06,3.091178505255573e-07,2.829463209347722e-05
5.224874514797371e-07,1.2835472103351117e-06,3.0916081539002446e-07,2.8035751686148803e-05
5.296700334842229e-07,1.2761345872310119e-06,3.0926827527946026e-07,2.777009881646902e-05
5.368082939483635e-07,1.2684677841972558e-06,3.094328052030835e-07,2.7498776269507506e-05
5.438449100023549e-07,1.260571246574984e-06,3.096479552445429e-07,2.7222630592309724e-05
5.507260627275196e-07,1.2524833195725719e-06,3.099096581184441e-07,2.6942259795344102e-05
5.57403609961684e-07,1.2442564371550671e-06,3.102166184961131e-07,2.665808493336893e-05
5.638352331962154e-07,1.2359488392408192e-06,3.1056941633936265e-07,2.6370530725357118e-05
5.699845792703174e-07,1.2276142905713996e-06,3.10969368358686e-07,2.6080351250324732e-05
5.758208944730596e-07,1.2192981823349449e-06,3.1141811481670324e-07,2.578888790719061e-05
5.813202958994696e-07,1.2110385194398045e-06,3.119174206965456e-07,2.549802966786448e-05
5.864726564777111e-07,1.2028650092383104e-06,3.124686054671127e-07,2.5209965432468367e-05
5.912885600410554e-07,1.194796185925112e-06,3.130717108626601e-07,2.492692791503528e-05
5.957966512937309e-07,1.1868384774690184e-06,3.137251687535965e-07,2.465101257489212e-05
6.000331587363352e-07,1.1789897395720668e-06,3.144263346530971e-07,2.438415962586941e-05
6.040329988621196e-07,1.1712503025060855e-06,3.151721150308052e-07,2.412835580833587e-05
6.078257408619797e-07,1.1636385482317012e-06,3.1595955022405984e-07,2.388588970222736e-05
6.114351462484419e-07,1.1561963756070657e-06,3.1678735269967806e-07,2.365943173568108e-05
6.148816718972379e-07,1.148976642337183e-06,3.176575724621233e-07,2.345193375472144e-05
6.181843660258068e-07,1.142027532239122e-06,3.185747219604841e-07,2.326646470753225e-05
6.213586637549515e-07,1.135393344350771e-06,3.195434895356394e-07,2.310603141752685e-05
6.244131302706435e-07,1.129131420509688e-06,3.2056801326808117e-07,2.2973397291757644e-05
6.273496658390743e-07,1.123326072729047e-06,3.216512440307221e-07,2.287092939259824e-05
6.301663466611421e-07,1.1180850122933322e-06,3.2279318779532827e-07,2.280051611556777e-05
6.328588716406479e-07,1.1135245553725452e-06,3.2399002619054013e-07,2.276356810767748e-05
6.354200973086457e-07,1.109754069913554e-06,3.2523446201266997e-07,2.27610430724642e-05
6.378416816424885e-07,1.1068628200141763e-06,3.265163966494025e-07,2.2793419928535114e-05
6.401179023596304e-07,1.104913671430943e-06,3.278240099917425e-07,2.286063213503676e-05
6.422466350301898e-07,1.1039437494578456e-06,3.2914454819191885e-07,2.2962020216797865e-05
6.44227045560647e-07,1.1039656152077565e-06,3.3046399877824805e-07,2.309633008542361e-05
6.460570783243425e-07,1.104967564191679e-06,3.317667112926632e-07,2.3261782124762328e-05
6.477312636790489e-07,1.1069151637440894e-06,3.3303582601967416e-07,2.3456233525567082e-05
6.492396342851635e-07,1.1097544803701117e-06,3.342539024559035e-07,2.3677371181074647e-05
6.505687598386029e-07,1.1134167797369032e-06,3.3540395021264077e-07,2.392284166877468e-05
6.517030563383688e-07,1.117822858459743e-06,3.3647137822456105e-07,2.419032299873089e-05
6.52625042454107e-07,1.1228861230173657e-06,3.3744520059186147e-07,2.447759774059293e-05
6.533155299481556e-07,1.1285159808228836e-06,3.383170157689976e-07,2.478261588672498e-05
6.537541262067338e-07,1.134620997158057e-06,3.390790545738093e-07,2.510348939888604e-05
6.539198356211266e-07,1.1411101379445923e-06,3.3972298496922285e-07,2.5438421091455443e-05
6.537922683336878e-07,1.1478918723680307e-06,3.402400036147465e-07,2.578561046373045e-05
6.533533042192783e-07,1.1548726454707516e-06,3.4062194783230443e-07,2.614315807057184e-05
6.525876419952929e-07,1.1619577201624776e-06,3.408621537072877e-07,2.6509017213035518e-05
6.51482506637921e-07,1.1690556108521531e-06,3.40955186517223e-07,2.68810355236156e-05
6.500283487377321e-07,1.1760841840749195e-06,3.408967295218953e-07,2.7257019160815868e-05
6.48219412379663e-07,1.1829734126986991e-06,3.406850140892434e-07,2.763475045962675e-05
6.460529450923324e-07,1.1896618934164871e-06,3.403223124580067e-07,2.8011997181147276e-05
6.435280186163865e-07,1.1960910783346315e-06,3.398142945199624e-07,2.838655419456717e-05
6.406443485261467e-07,1.2022015271449212e-06,3.391679096343347e-07,2.875629197488048e-05
6.374017624874576e-07,1.207933022051993e-06,3.383897775368706e-07,2.9119159445091828e-05
6.338013189467598e-07,1.21322783068607e-06,3.374853961669654e-07,2.9473154248226558e-05
6.298471895220727e-07,1.218032762223931e-06,3.36458820343436e-07,2.981638485740269e-05
6.255471023563034e-07,1.2222988230293042e-06,3.353132898639143e-07,3.014726486980926e-05
6.209115716119701e-07,1.2259805615705636e-06,3.340524390552055e-07,3.046467373957848e-05
6.15954207099445e-07,1.229035888358682e-06,3.326806202890701e-07,3.076794599318094e-05
6.106927650135411e-07,1.2314285706276468e-06,3.312023078410079e-07,3.105673118713258e-05
6.051490377308051e-07,1.2331322798454123e-06,3.2962182910444496e-07,3.13308204904191e-05
5.993489084099655e-07,1.2341299732993128e-06,3.279433511039689e-07,3.1589978830301994e-05
5.933250880698177e-07,1.234409131952507e-06,3.261704634418141e-07,3.1833802847291854e-05
5.871191866776178e-07,1.2339581978654494e-06,3.243062983958416e-07,3.2061671603292656e-05
5.807779040995375e-07,1.2327659488876819e-06,3.223546926829972e-07,3.227281972324996e-05
5.7434627555132e-07,1.2308264507980528e-06,3.203214042776445e-07,3.246644802955564e-05
5.678644879963935e-07,1.228149618227566e-06,3.182150160601417e-07,3.2641789752637407e-05
5.61368657193749e-07,1.2247667547885934e-06,3.160468837563181e-07,3.279811587909278e-05
5.548921428244311e-07,1.2207229927569764e-06,3.138293283087003e-07,3.2934727606402266e-05
5.484667323181616e-07,1.216064841062664e-06,3.11573297204513e-07,3.305108551229203e-05
5.421239774921707e-07,1.2108350894069636e-06,3.092873839910865e-07,3.3147057026021756e-05
5.358956531376781e-07,1.2050753864534972e-06,3.069787722381486e-07,3.3222979986378195e-05
5.298144522778828e-07,1.198827862105292e-06,3.046544925992875e-07,3.3279509541685644e-05
5.23915394488756e-07,1.192131599326543e-06,3.0232101865793227e-07,3.3317538261428694e-05
5.182345929914282e-07,1.1850192375933395e-06,2.9998336919842325e-07,3.333821060348187e-05
5.128050806222593e-07,1.1775201956690686e-06,2.976457052311668e-07,3.334286275027051e-05
5.076536488387534e-07,1.1696719197238103e-06,2.953126430228299e-07,3.3332892455601017e-05
5.028000691703559e-07,1.1615340606417885e-06,2.92989747247622e-07,3.330964269710042e-05
4.982577892726044e-07,1.1531936501708814e-06,2.9068315937509205e-07,3.327432447956452e-05
4.94036230136386e-07,1.1447554661307845e-06,2.883988919170118e-07,3.322796026900318e-05
4.901436316566176e-07,1.1363278357191393e-06,2.8614194860695964e-07,3.317134124876977e-05
4.865873057106023e-07,1.1280176088741915e-06,2.839158257194221e-07,3.310501741854167e-05
4.833710202205962e-07,1.1199401269935764e-06,2.817229714155041e-07,3.302931344967285e-05
4.804929906579467e-07,1.112235308138573e-06,2.795655463279041e-07,3.294433346008086e-05
4.779463214430503e-07,1.1050703223385008e-06,2.7744614047497003e-07,3.2849955190125235e-05
4.7572024487911613e-07,1.0986245515104326e-06,2.753684749815851e-07,3.274586377409745e-05
4.7380035554701826e-07,1.0930693797135257e-06,2.733370901066249e-07,3.263163968042932e-05
4.721683133260578e-07,1.0885517909394073e-06,2.71356457522805e-07,3.2506838798911544e-05
4.7080173246660365e-07,1.0851863485526952e-06,2.694311431133537e-07,3.237100529980242e-05
4.6967409552846526e-07,1.083056534309451e-06,2.6756670251782926e-07,3.222364345471643e-05
4.687551186361207e-07,1.0822198293652764e-06,2.657700495728344e-07,3.206421389301582e-05
4.680119410127743e-07,1.082710926678356e-06,2.640487114385626e-07,3.189216319103756e-05
4.674102753429715e-07,1.0845422545910714e-06,2.624094495322379e-07,3.1706954738347874e-05
4.669147982470088e-07,1.0877041919571458e-06,2.6085787667824807e-07,3.1508087893501454e-05
4.664899472922557e-07,1.0921670860394922e-06,2.594004029432873e-07,3.129511015663674e-05
4.661020337169727e-07,1.0978848812383595e-06,2.5804780703540576e-07,3.106762899958362e-05
4.657208494350147e-07,1.1047984115895231e-06,2.568174449105484e-07,3.082534197805217e-05
4.653193482176686e-07,1.1128366945066126e-06,2.5573141099527664e-07,3.056809412569863e-05
4.6487301444299525e-07,1.1219185995658765e-06,2.5481195470531823e-07,3.0295927644004303e-05
4.6436027463821534e-07,1.131958489244817e-06,2.540788931133769e-07,3.0009085824668122e-05
4.637644019041178e-07,1.1428726662174808e-06,2.535507802479048e-07,2.9707967039878278e-05
4.6307725342712486e-07,1.1545799687811695e-06,2.53245692273393e-07,2.939305640807846e-05
4.623011341271522e-07,1.1669958719514649e-06,2.5317931273513787e-07,2.9064908093126453e-05
4.614459403237139e-07,1.180026125561795e-06,2.5336345346272724e-07,2.872422241905169e-05
4.6052590660921604e-07,1.1935657437101872e-06,2.5380588924884937e-07,2.837190918413765e-05
4.5955889338006345e-07,1.2075038952905451e-06,2.5451017041913123e-07,2.800900379278269e-05
4.5856613699989425e-07,1.2217307849301971e-06,2.554774249942934e-07,2.763650814718664e-05
4.5757065768153704e-07,1.2361411212592572e-06,2.567095378339666e-07,2.7255309281709478e-05
4.5659431495144365e-07,1.2506323086974177e-06,2.5820883270275426e-07,2.686621963699829e-05
4.556555820442424e-07,1.2651034529812159e-06,2.599750703046544e-07,2.647010988135604e-05
4.5476913504549036e-07,1.279460728907584e-06,2.6200453423621465e-07,2.6068023790674083e-05
4.5394564475527497e-07,1.293622751957782e-06,2.642905272784699e-07,2.566114935079969e-05
4.531909400654211e-07,1.3075183326565663e-06,2.668230688664543e-07,2.5250674846476085e-05
4.5250528297753627e-07,1.3210803074343949e-06,2.695894957259361e-07,2.4837662386830525e-05
4.5188412491507206e-07,1.3342411428259723e-06,2.7257607344546e-07,2.442303994562611e-05
4.513212135873504e-07,1.3469318538911881e-06,2.7576831804817185e-07,2.400775002441658e-05
4.508127099380105e-07,1.359083631617198e-06,2.79150081865553e-07,2.3592974908285706e-05
4.503604563748879e-07,1.3706291472316612e-06,2.827027030633909e-07,2.318025549081818e-05
4.4997462519259464e-07,1.3815037317520201e-06,2.8640498448328264e-07,2.277140138403573e-05
4.496761674304533e-07,1.3916477099730495e-06,2.9023406061839004e-07,2.2368257691162618e-05
4.494976728834445e-07,1.401007160466717e-06,2.9416643369358247e-07,2.1972475304143838e-05
4.4948111029332076e-07,1.4095353702181203e-06,2.981782861619418e-07,2.1585400596142278e-05
4.496722995767271e-07,1.4171988725173481e-06,3.022454152205131e-07,2.1208090497051348e-05
4.501139052172354e-07,1.4239810873033138e-06,3.063454044711795e-07,2.0841381878802136e-05
4.508401723628792e-07,1.4298762988325742e-06,3.1046184397044184e-07,2.0486001293144547e-05
4.518757942259197e-07,1.4348807991049583e-06,3.145853233343723e-07,2.014278753718366e-05
4.5323771342288074e-07,1.4389925896011903e-06,3.187095201052679e-07,1.9812972709025488e-05
4.5493601548205187e-07,1.4422184624239688e-06,3.2282691594395556e-07,1.949828962250439e-05
4.569734194909953e-07,1.4445777916523762e-06,3.2692689088501345e-07,1.920082063933234e-05
4.593466394080365e-07,1.4461007388501938e-06,3.309955265832764e-07,1.892274231498685e-05
4.6204892204536713e-07,1.4468255120172497e-06,3.350165167219324e-07,1.8666093174037107e-05
4.650694352014901e-07,1.4467947168865682e-06,3.3897256074620447e-07,1.843263034473845e-05
4.6839054760384216e-07,1.4460559300778949e-06,3.4284729255716964e-07,1.8223926543102446e-05
4.71988080535105e-07,1.4446719133078838e-06,3.466277044658566e-07,1.8041698011831822e-05
4.7583450541268957e-07,1.442726584131815e-06,3.5030477451293357e-07,1.7888023204829323e-05
4.799015302239356e-07,1.4403150629896875e-06,3.538718868917089e-07,1.7765259264845426e-05
4.841624187650374e-07,1.4375287561336662e-06,3.5732384118535403e-07,1.767582121694906e-05
4.885951174779237e-07,1.434447373361717e-06,3.606568353561217e-07,1.7621995507965108e-05
4.931841394008979e-07,1.4311412781824932e-06,3.638677174794175e-07,1.760581637486677e-05
4.979206686416828e-07,1.4276843921369775e-06,3.6695276425305745e-07,1.7628970641769866e-05
5.028013644039662e-07,1.4241659032885682e-06,3.6990790291119534e-07,1.769270554556051e-05
5.078251135572547e-07,1.4206871803541075e-06,3.7273087012391283e-07,1.7797760523983575e-05
5.129891702405892e-07,1.4173483782188768e-06,3.754227993122924e-07,1.7944353683711905e-05
5.182875308665479e-07,1.4142362602544912e-06,3.779881795909483e-07,1.813220819186492e-05
5.237113958752682e-07,1.4114174749320378e-06,3.804351712845456e-07,1.8360573522919525e-05
5.292501447789706e-07,1.4089363490611583e-06,3.827762067316952e-07,1.8628215456100384e-05
5.348928587237977e-07,1.4068149865505659e-06,3.8502687970641506e-07,1.8933383289459013e-05
5.406291157248371e-07,1.4050552235252326e-06,3.872034364324074e-07,1.927379895098595e-05
5.464475262292445e-07,1.403644133778221e-06,3.8932153847429855e-07,1.964672239984231e-05
5.523338522346232e-07,1.4025632342978625e-06,3.91396356783395e-07,2.004910084722572e-05
5.582697435500049e-07,1.4017957790683326e-06,3.9344103480631904e-07,2.047773984583678e-05
5.642318386205383e-07,1.4013257889076777e-06,3.954638592719871e-07,2.0929429147789908e-05
5.701924914610565e-07,1.401131018985654e-06,3.974671653484158e-07,2.1401031112465198e-05
5.761214303406757e-07,1.4011770535205385e-06,3.994483405515179e-07,2.188955676420104e-05
5.819864348668618e-07,1.4014162093636957e-06,4.014009521156712e-07,2.2392186871251487e-05
5.877533589591776e-07,1.4017908106276842e-06,4.033150307267718e-07,2.290619847895834e-05
5.933861002157057e-07,1.4022388654328704e-06,4.051773463892781e-07,2.3428848589070723e-05
5.988466867624536e-07,1.4027001681245387e-06,4.069721026801929e-07,2.3957295285020442e-05
6.040958084941503e-07,1.4031204318279091e-06,4.086822205915385e-07,2.4488578161831304e-05
6.09094261862023e-07,1.403450660969445e-06,4.1029217696035045e-07,2.501965208410212e-05
6.138059176631756e-07,1.4036424615868015e-06,4.1179074788751246e-07,2.5547451665165444e-05
6.182003741133156e-07,1.4036438121638423e-06,4.1317045969040963e-07,2.606893073188035e-05
6.222533915038472e-07,1.4033986546404437e-06,4.1442572179870953e-07,2.658106424788975e-05
6.259477855212604e-07,1.4028513790433478e-06,4.15552935012681e-07,2.708086169362341e-05
6.292766450796584e-07,1.4019537503699472e-06,4.165504770668953e-07,2.7565406367601e-05
6.322449197103185e-07,1.400667785776216e-06,4.1741734233255687e-07,2.8031897659712658e-05
6.348651237861015e-07,1.3989628718770676e-06,4.181526693164288e-07,2.8477730982831172e-05
6.371504300006328e-07,1.3968120699709428e-06,4.1875607981096564e-07,2.8900623199854773e-05
6.39112327480619e-07,1.3941895453161699e-06,4.192278906521019e-07,2.9298682527087043e-05
6.407623367019839e-07,1.3910685624034244e-06,4.1956921390181755e-07,2.96704002734464e-05
6.4211204987267e-07,1.3874221204459398e-06,4.1978109550537704e-07,3.001463930922696e-05
6.43170963851659e-07,1.3832263247482506e-06,4.198628892320035e-07,3.0330612444424462e-05
6.439456054516193e-07,1.378462642214433e-06,4.198117319762798e-07,3.061779611502713e-05
6.444419445477057e-07,1.3731166331715529e-06,4.1962422224040045e-07,3.0875789033134353e-05
6.446690254630248e-07,1.3671748663792329e-06,4.1929957521417297e-07,3.1104192245998125e-05
6.446393528329443e-07,1.3606240358835536e-06,4.1884175436234457e-07,3.1302593238297936e-05
6.44365446024894e-07,1.3534559870757374e-06,4.182585800590353e-07,3.1470643830846284e-05
6.438560513365732e-07,1.3456797238973051e-06,4.175590099956704e-07,3.1608130824103124e-05
6.431147237171332e-07,1.3373330185307337e-06,4.1675109530343703e-07,3.171499504301075e-05
6.421417579127229e-07,1.328480666663568e-06,4.1584149190382344e-07,3.179132816563153e-05
6.40937761674072e-07,1.3191997722722769e-06,4.148366139188621e-07,3.183735328436497e-05
6.395049681301525e-07,1.3095677665780785e-06,4.137449026201956e-07,3.185340583749849e-05
6.378455076180295e-07,1.2996621053041883e-06,4.1257781084636004e-07,3.1839940642708776e-05
6.359595933303525e-07,1.2895646506331086e-06,4.113486397987111e-07,3.179752430544461e-05
6.338457894825003e-07,1.2793611574948729e-06,4.100713155057901e-07,3.172677969577161e-05
6.315037808244269e-07,1.2691373403338944e-06,4.0875995680509954e-07,3.1628321272435273e-05
6.289377189372185e-07,1.2589785251493678e-06,4.0742901644778854e-07,3.150272250548748e-05
6.261571592981239e-07,1.2489702161087395e-06,4.060942503622603e-07,3.1350523213766024e-05
6.231759130162655e-07,1.2391952381521422e-06,4.047734853600655e-07,3.117226661604318e-05
6.200106873092611e-07,1.2297356987443598e-06,4.0348497822948633e-07,3.0968546447715764e-05
6.166808750214521e-07,1.2206814921254594e-06,4.022435443097353e-07,3.0740039252342405e-05
6.132096399474501e-07,1.2121312865088965e-06,4.010578349350461e-07,3.048749621920948e-05
6.09623442967821e-07,1.2041822491684208e-06,3.9993056366119814e-07,3.021170061071896e-05
6.059491311373828e-07,1.1969219219290034e-06,3.9885997906431753e-07,2.9913438188786986e-05
6.022108060104087e-07,1.1904342158824853e-06,3.978410179795107e-07,2.959349831782581e-05
5.984272095940727e-07,1.184813486647829e-06,3.968666121046743e-07,2.925267590842542e-05
5.946108646195686e-07,1.1801665437173194e-06,3.959292049986176e-07,2.889176930747945e-05
5.907715818628264e-07,1.1765987066321916e-06,3.950214338834081e-07,2.851159543828244e-05
5.869232015595433e-07,1.1742005375375092e-06,3.9413600383557255e-07,2.8113016250671636e-05
5.830870992538519e-07,1.1730417670474756e-06,3.932654895138896e-07,2.769694372431286e-05
5.792894801887728e-07,1.1731664027237572e-06,3.924024351342165e-07,2.7264306731781825e-05
5.755581908211937e-07,1.1745886890754671e-06,3.9153981282640296e-07,2.681600540443376e-05
5.719220512633578e-07,1.1772930953983977e-06,3.906711318510672e-07,2.635289076857922e-05
5.684088278238113e-07,1.181237941375576e-06,3.897895696840607e-07,2.587577634586539e-05
5.650420658696723e-07,1.1863598172349614e-06,3.888872005564839e-07,2.5385457504444887e-05
5.618398467298456e-07,1.1925766940973116e-06,3.8795554228009597e-07,2.4882724435535475e-05
5.588143098262683e-07,1.1997921093283786e-06,3.8698661121509945e-07,2.436839277855517e-05
5.559709086558558e-07,1.2079022297630385e-06,3.8597359093197644e-07,2.384336515839657e-05
5.533088410746121e-07,1.21680105086182e-06,3.849111522305063e-07,2.3308690514508045e-05
5.508228486242975e-07,1.2263805494352215e-06,3.837950840638515e-07,2.2765596025547595e-05
5.485043985174444e-07,1.2365295257170276e-06,3.826216031812412e-07,2.221548783108928e-05
5.463412578663126e-07,1.2471344045756952e-06,3.813871209014918e-07,2.1659908439537642e-05
5.443171969295325e-07,1.2580808367404728e-06,3.800886812723541e-07,2.1100458819687008e-05
5.424135768375332e-07,1.2692540742367829e-06,3.7872570456751926e-07,2.05387214107282e-05
5.406128615909704e-07,1.2805398963977505e-06,3.77302438905585e-07,1.9976218177807465e-05
5.389024288104111e-07,1.2918303975957751e-06,3.758287763770585e-07,1.9414415533682595e-05
5.372765426931897e-07,1.3030319431825337e-06,3.743188022768649e-07,1.8854735879414e-05
5.357370416257361e-07,1.3140672171892998e-06,3.727886450221885e-07,1.8298532858005946e-05
5.34293632931772e-07,1.3248700658988626e-06,3.712545165574749e-07,1.7747062888579088e-05
5.329616020371395e-07,1.335377613227241e-06,3.697308588573752e-07,1.720149999924497e-05
5.317580409745094e-07,1.3455236166690211e-06,3.6822985555891047e-07,1.666300318454111e-05
5.307004238533654e-07,1.3552364379520357e-06,3.667638809405185e-07,1.6132826604240033e-05
5.29806559360521e-07,1.3644417389635781e-06,3.6534926019765227e-07,1.561240860705707e-05
5.290946492833385e-07,1.3730653573210886e-06,3.640082311600465e-07,1.5103357614620031e-05
5.285831051757306e-07,1.3810343274836724e-06,3.627677294726885e-07,1.4607338526502526e-05
5.282878453895344e-07,1.3882798939698116e-06,3.616551218022576e-07,1.4125924429270682e-05
5.282186563990822e-07,1.3947434870731248e-06,3.6069316888327647e-07,1.3660489510049887e-05
5.283781708247607e-07,1.4003791754903678e-06,3.598976813492782e-07,1.3212240106277705e-05
5.287630269506657e-07,1.405149434227767e-06,3.592785620686445e-07,1.2782407608802534e-05
5.293655982348504e-07,1.4090202653838242e-06,3.588419119434482e-07,1.2372446943858255e-05
5.301752542271782e-07,1.411960193559447e-06,3.5859177061959253e-07,1.198406066678173e-05
5.311790219692089e-07,1.4139404990251406e-06,3.585320530002577e-07,1.1619056625792454e-05
5.323619982977379e-07,1.4149343086351747e-06,3.5866829205601367e-07,1.1279165418829969e-05
5.337069143063028e-07,1.4149162846420376e-06,3.590074397843352e-07,1.0965906951146718e-05
5.351937713848851e-07,1.4138659283481219e-06,3.5955512690002775e-07,1.0680523078704563e-05
5.368005058294312e-07,1.4117760446777203e-06,3.6031243826154215e-07,1.0423944153373813e-05
5.385032652939573e-07,1.408661240137869e-06,3.6127493829618103e-07,1.0196792244598973e-05
5.402757131388007e-07,1.4045565327404029e-06,3.6243395493065537e-07,9.999521764147301e-06
5.420887001236265e-07,1.3995070946086599e-06,3.63778374466867e-07,9.832730036535418e-06
5.439118991512319e-07,1.3935609463553749e-06,3.652953157596491e-07,9.697402560955825e-06
5.457160936121818e-07,1.386767212262405e-06,3.6696933095281684e-07,9.59485212324295e-06
5.474730409298329e-07,1.3791738543517822e-06,3.6878215390053173e-07,9.526450165083985e-06
5.49153967730967e-07,1.370825764436781e-06,3.707138001925564e-07,9.493365040961833e-06
5.507291967120975e-07,1.3617671201259671e-06,3.7274350282740776e-07,9.496406906035676e-06
5.521691994482284e-07,1.3520479550057443e-06,3.748505737910138e-07,9.53610214962016e-06
5.534484474399294e-07,1.3417346924880446e-06,3.770155304437857e-07,9.613025162134308e-06
5.545507760663568e-07,1.330918117144585e-06,3.7921978258829544e-07,9.72810190599942e-06
5.554696373249868e-07,1.3197072583088758e-06,3.814437655014683e-07,9.882626152833342e-06
5.562022353806334e-07,1.3082119721845194e-06,3.836662152740548e-07,1.0078082069184545e-05
5.567451106771652e-07,1.2965295981115631e-06,3.8586589735553725e-07,1.0315952956396252e-05
5.570955808367876e-07,1.2847458797158085e-06,3.880239300109534e-07,1.0597554495928996e-05
5.572559599673974e-07,1.272952013358447e-06,3.9012454208559433e-07,1.0923889071851967e-05
5.572353769452128e-07,1.2612677630789265e-06,3.921541038348432e-07,1.1295532302624985e-05
5.570468316417393e-07,1.2498492498734535e-06,3.9409969751546717e-07,1.1712565102217588e-05
5.567026415758104e-07,1.238873677917903e-06,3.959489521107985e-07,1.2174568343991448e-05
5.562127435982337e-07,1.228515823108781e-06,3.9769210048073885e-07,1.268066190274496e-05
5.555847394051539e-07,1.2189307044489263e-06,3.9932471857989423e-07,1.3229514336990468e-05
5.548230864338479e-07,1.2102474996343657e-06,4.0084845083352657e-07,1.3819282586710574e-05
5.539289071037275e-07,1.202572177451064e-06,4.0226915184724286e-07,1.4447544524548386e-05
5.529015994686872e-07,1.195988426196937e-06,4.03594265926685e-07,1.511131582491736e-05
5.51740499234419e-07,1.1905536678701369e-06,4.048313222293747e-07,1.5807175944313653e-05
5.504449461627184e-07,1.1862980046152391e-06,4.0598695916601097e-07,1.6531456348166122e-05
5.490132957763081e-07,1.1832268070230724e-06,4.070655241711636e-07,1.7280412107547832e-05
5.474429480550362e-07,1.1813216475150931e-06,4.08069405604169e-07,1.805031809342364e-05
5.457328161287478e-07,1.1805411754929843e-06,4.090015971189705e-07,1.8837498462521272e-05
5.438872148950457e-07,1.180824576869181e-06,4.0986689614363844e-07,1.9638329764149988e-05
5.419188240731869e-07,1.1820980408596977e-06,4.106706229851625e-07,2.0449223104627455e-05
5.398500683087072e-07,1.1842865625774653e-06,4.114175327751642e-07,2.126658615213881e-05
5.377118914953958e-07,1.187327170496019e-06,4.121121391744693e-07,2.2086792960504864e-05
5.355378209713522e-07,1.1911717770406791e-06,4.127589064716929e-07,2.290616721397684e-05
5.333566298814519e-07,1.1957765769241009e-06,4.1336156916120315e-07,2.3720971473949726e-05
5.311893765426707e-07,1.2010891351476835e-06,4.1392276224873245e-07,2.452743929065888e-05
5.290500351716821e-07,1.2070422264584127e-06,4.144443358105475e-07,2.532185059711817e-05
5.269462510938115e-07,1.2135542001286395e-06,4.149279952173713e-07,2.610057568099619e-05
5.24879909289323e-07,1.2205339456076479e-06,4.1537557612511407e-07,2.686008350757885e-05
5.228477687164225e-07,1.2278862178683418e-06,4.157881381405864e-07,2.759697247191775e-05
5.208423279689253e-07,1.2355126846068516e-06,4.1616530315219653e-07,2.830802482807513e-05
5.188539498779044e-07,1.2433140497222104e-06,4.165056525598651e-07,2.8990253017890136e-05
5.168738519047703e-07,1.2512009080320258e-06,4.1680689635600657e-07,2.9640900932510108e-05
5.148969189388562e-07,1.2591049703535606e-06,4.1706625463395274e-07,3.025739440660852e-05
5.129244973922085e-07,1.2669757452805997e-06,4.1728165602095905e-07,3.0837304763523537e-05
5.109663601799681e-07,1.2747660058128125e-06,4.174522378781754e-07,3.1378375315303043e-05
5.090404209403698e-07,1.2824214262072882e-06,4.175769793718658e-07,3.187858968799492e-05
5.071705675145654e-07,1.2898798737535142e-06,4.176528170216771e-07,3.233626201695868e-05
5.053838468300867e-07,1.2970749019948395e-06,4.176745544257699e-07,3.275017234560723e-05
5.037072388459712e-07,1.3039385786915225e-06,4.1763620690279564e-07,3.3119703832184143e-05
5.021643004033707e-07,1.3104064154983532e-06,4.1753170649912354e-07,3.344485354171685e-05
5.00773837390232e-07,1.3164281099841543e-06,4.173551923708361e-07,3.3726081657285536e-05
4.995511749014205e-07,1.3219777806467269e-06,4.171026325258322e-07,3.39640875035025e-05
4.985086541294353e-07,1.3270538266178986e-06,4.1677366605832685e-07,3.4159607276599005e-05
4.976535189287844e-07,1.331669491430823e-06,4.1637069867878103e-07,3.4313288914712326e-05
4.96985783947449e-07,1.3358424483284654e-06,4.158962439369984e-07,3.442564924992933e-05
4.964988560069558e-07,1.3395861441860243e-06,4.153514260987778e-07,3.449709343207846e-05
4.961821726965249e-07,1.342902993216831e-06,4.147354974012476e-07,3.4528033023282065e-05
4.960225453776868e-07,1.3457821280994062e-06,4.1404619835136965e-07,3.4519162183900986e-05
4.960030517878865e-07,1.3482019131534802e-06,4.132819461743498e-07,3.447176730236739e-05
4.961028232575859e-07,1.350135864353803e-06,4.124442347173319e-07,3.438781947614071e-05
4.963009042752765e-07,1.3515616133420756e-06,4.115369813457069e-07,3.42698148536394e-05
4.965820942261704e-07,1.352468280864665e-06,4.1056342515333327e-07,3.4120516326258426e-05
4.969389810240642e-07,1.3528560856595609e-06,4.095247752635961e-07,3.3942720652243895e-05
4.973678995423522e-07,1.3527315398615955e-06,4.0842129737263345e-07,3.37392014217388e-05
4.978634887437581e-07,1.3521085009908793e-06,4.0725300499560966e-07,3.351292794995068e-05
4.98416768220766e-07,1.3510147655277258e-06,4.0601945370817535e-07,3.326735503245932e-05
4.990161692188785e-07,1.3494936944064769e-06,4.047197765387554e-07,3.300647848025137e-05
4.996485276759517e-07,1.347601519290127e-06,4.0335312194131863e-07,3.2734655665014336e-05
5.002986348637154e-07,1.3454065845744866e-06,4.019189509597615e-07,3.245637963262795e-05
5.009484326916826e-07,1.3429859695267113e-06,4.0041659128154687e-07,3.217610080683507e-05
5.015779691728222e-07,1.3404182098070092e-06,3.988447028668918e-07,3.1898092558850496e-05
5.021682929381198e-07,1.3377774133304763e-06,3.972013790056818e-07,3.162633851948913e-05
5.027037605599128e-07,1.3351285629428214e-06,3.9548409769031034e-07,3.136444377580593e-05
5.031716752163482e-07,1.3325248590349795e-06,3.9368952538379576e-07,3.1115588667718245e-05
5.035603718051177e-07,1.330008629197357e-06,3.918139312247404e-07,3.088251326128048e-05
5.038577320024184e-07,1.3276106335000215e-06,3.898534913736666e-07,3.066749076538653e-05
5.0405042371311e-07,1.3253465699935443e-06,3.878039990959996e-07,3.047227125814389e-05
5.041237120373996e-07,1.3232163587755029e-06,3.8566086179351786e-07,3.029801694230559e-05
5.04061957758056e-07,1.3212069650711613e-06,3.834194619100096e-07,3.014527179960692e-05
5.038498345021018e-07,1.3192968267978777e-06,3.8107546308886257e-07,3.0014021488990252e-05
5.034737458195785e-07,1.3174619902054005e-06,3.7862544591656635e-07,2.9903854614291866e-05
5.029221311792513e-07,1.315680876766977e-06,3.760682658679392e-07,2.981414763637558e-05
5.021850894388371e-07,1.3139331298805677e-06,3.73406448067275e-07,2.9744186335368164e-05
5.012561294460985e-07,1.3121940989341154e-06,3.706462310759818e-07,2.96932176025519e-05
5.001352030344263e-07,1.3104315775782186e-06,3.6779630307030726e-07,2.966048172792053e-05
4.988278358195941e-07,1.3086083795669345e-06,3.648664065292991e-07,2.9645243371074268e-05
4.973404202179211e-07,1.3066884396248691e-06,3.6186656978396456e-07,2.9646789828511334e-05
4.95677215425359e-07,1.304642543637824e-06,3.588072899367387e-07,2.9664384686797322e-05
4.938407994327036e-07,1.3024515376321048e-06,3.557001081708435e-07,2.969720722254146e-05
4.91833655574065e-07,1.3001070352946623e-06,3.5255753457928406e-07,2.974428818333465e-05
4.896590210365765e-07,1.2976099269661244e-06,3.4939269321202744e-07,2.980443707487684e-05
4.873209781095673e-07,1.294965579800237e-06,3.462199864318468e-07,2.9876228112004027e-05
4.8482477860141e-07,1.2921772482195473e-06,3.4305541872511e-07,2.9958096869562048e-05
4.821769905406951e-07,1.2892422893107868e-06,3.399148149323706e-07,3.004845515276115e-05
4.793843696322764e-07,1.286151633696667e-06,3.3681186635176304e-07,3.01457313941318e-05
4.764522280884725e-07,1.2828901123366343e-06,3.3375813946357215e-07,3.0248368782902588e-05
4.733843834336621e-07,1.2794379760298777e-06,3.3076478857090374e-07,3.035483266127959e-05
4.701855893673761e-07,1.2757760852690688e-06,3.278441585323577e-07,3.0463598531318237e-05
4.6686440323460464e-07,1.2718952901819326e-06,3.250098552522098e-07,3.057307561535456e-05
4.634344287474738e-07,1.2678024800180992e-06,3.222759974916382e-07,3.068152550111153e-05
4.599153458429292e-07,1.2635159379140692e-06,3.196563318072093e-07,3.078707844380003e-05
4.5633411078256166e-07,1.2590566188546005e-06,3.17162733492213e-07,3.0887838821545004e-05
4.527229553862565e-07,1.254443541467773e-06,3.1480368857543016e-07,3.0982015662045394e-05
4.49114217589871e-07,1.2496924097147278e-06,3.125840739605548e-07,3.1068084900746394e-05
4.455380441384202e-07,1.2448195411744032e-06,3.105055995047981e-07,3.11449531400909e-05
4.420260106474882e-07,1.2398512475740305e-06,3.08567107853368e-07,3.121198455279945e-05
4.386154848936594e-07,1.2348279964053569e-06,3.067659081760402e-07,3.1268844702630514e-05
4.353483151462717e-07,1.2297980358200749e-06,3.050997466132166e-07,3.131527251964048e-05
4.3226450175685904e-07,1.2248065822486222e-06,3.0356718637456445e-07,3.135090246528119e-05
4.293975920599129e-07,1.2198876316572913e-06,3.021666104737666e-07,3.137519718347849e-05
4.267763302146393e-07,1.2150640142090284e-06,3.00895622355638e-07,3.1387471801869426e-05
4.244305418216165e-07,1.2103579444920105e-06,2.9975084871919823e-07,3.138693961882461e-05
4.223964351701108e-07,1.205803712274567e-06,2.987273998601932e-07,3.137278572390568e-05
4.207181268788704e-07,1.2014492648798682e-06,2.9781843436285445e-07,3.1344393422938586e-05
4.194442929890807e-07,1.1973466918351669e-06,2.970153164634561e-07,3.130168724250772e-05
4.186216138655462e-07,1.1935419428777986e-06,2.9630809757106645e-07,3.124528404261865e-05
4.1828978895347094e-07,1.190067688689775e-06,2.9568589829470824e-07,3.1176321123734254e-05
4.1848061388414006e-07,1.1869392894918785e-06,2.95137004872826e-07,3.109616576098732e-05
4.1921899259894257e-07,1.1841547716566394e-06,2.946489911898042e-07,3.1006177622951396e-05
4.205230432665826e-07,1.1816985293455044e-06,2.942089517754665e-07,3.090761559039516e-05
4.224021749743557e-07,1.179551195095454e-06,2.938037728236995e-07,3.080180615639788e-05
4.248550798049342e-07,1.177706233662557e-06,2.9342064289424586e-07,3.0690452559805765e-05
4.2786984197332613e-07,1.1761814799911472e-06,2.930477626850741e-07,3.057575531100287e-05
4.314254422748771e-07,1.1750139299894495e-06,2.926754556845936e-07,3.0460281657126722e-05
4.354933735251274e-07,1.1742440637683218e-06,2.922973087330174e-07,3.0346771392519323e-05
4.400390334225232e-07,1.1739031895322051e-06,2.919101071568977e-07,3.0237970688622504e-05
4.4502297214854573e-07,1.1740102279533022e-06,2.915125513419926e-07,3.0136493419595893e-05
4.5040169969912213e-07,1.1745812060950786e-06,2.9110354965645187e-07,3.0044722013150658e-05
4.5612762707824924e-07,1.1756488376264713e-06,2.906809186466348e-07,2.9964753111776903e-05
4.6214911668972814e-07,1.1772764599105327e-06,2.902416871839111e-07,2.989837725252088e-05
4.6841186446652477e-07,1.1795533933815205e-06,2.8978407956568086e-07,2.9847081324090478e-05
4.748609776273913e-07,1.1825795886402957e-06,2.893087960124121e-07,2.9812044434727282e-05
4.814430597752867e-07,1.1864523506898312e-06,2.88818116652862e-07,2.979409425746776e-05
4.881084946609167e-07,1.1912556595372765e-06,2.8831535349965897e-07,2.9793637935845887e-05
4.948124120272183e-07,1.1970501792833736e-06,2.8780599484037e-07,2.981060150192053e-05
5.01513283223552e-07,1.2038662334798146e-06,2.8729805289280704e-07,2.984440523350015e-05
5.081725762882414e-07,1.2117023242349705e-06,2.8680106862189716e-07,2.9894022814539333e-05
5.147578908616601e-07,1.2205299226000868e-06,2.8632563209116804e-07,2.9958136129263813e-05
5.212449128686862e-07,1.2303003811364211e-06,2.8588313235072103e-07,3.003530520038195e-05
5.276139203535645e-07,1.2409481167656304e-06,2.8548467810241053e-07,3.0124079592444606e-05
5.338451041542665e-07,1.2523921459538909e-06,2.8513965564604997e-07,3.02230644455522e-05
5.399183559735285e-07,1.2645417232667768e-06,2.8485498559848647e-07,3.033097019082503e-05
5.458155066652216e-07,1.2773027297584135e-06,2.846356937789273e-07,3.044662861249752e-05
5.515213312664301e-07,1.2905775836495386e-06,2.844856860600211e-07,3.056895781670567e-05
5.570248822115449e-07,1.3042613691943459e-06,2.844085631087955e-07,3.0696904820975386e-05
5.623219463355373e-07,1.3182418220366206e-06,2.844098549903289e-07,3.082938941956705e-05
5.674151796780856e-07,1.3324041579035877e-06,2.8449784396611704e-07,3.096524170725354e-05
5.723098677129393e-07,1.346639060767613e-06,2.8468054870860945e-07,3.110316420132049e-05
5.770082170468524e-07,1.360850533490795e-06,2.849630759385417e-07,3.1241745086079546e-05
5.815062856171953e-07,1.3749554332872498e-06,2.8534782254316987e-07,3.137947339013561e-05
5.857941848389459e-07,1.3888744027031488e-06,2.85835475844843e-07,3.151473819617518e-05
5.898582089255155e-07,1.4025256531814077e-06,2.8642568610071394e-07,3.164585649750044e-05
5.936836304654191e-07,1.4158272975844988e-06,2.871173154091413e-07,3.177113881733489e-05
5.972569035577113e-07,1.4287013382991688e-06,2.879094046102614e-07,3.188893630905998e-05
6.005664710451378e-07,1.441072025173866e-06,2.8880331672838513e-07,3.199760745070016e-05
6.036029641213206e-07,1.4528609307713322e-06,2.898034871703427e-07,3.209544406169968e-05
6.063610874823353e-07,1.4639850583767339e-06,2.9091604978312286e-07,3.218066364038493e-05
6.08842274356427e-07,1.4743586542981814e-06,2.921479115084937e-07,3.22514901019406e-05
6.110537866490447e-07,1.4838957145945748e-06,2.935073084272643e-07,3.2306279776778275e-05
6.13004168075845e-07,1.4925114667513462e-06,2.9500415008468535e-07,3.234369599476948e-05
6.146996325553539e-07,1.5001251857846702e-06,2.966491619821087e-07,3.236290627869421e-05
6.161431871117362e-07,1.5066707824317981e-06,2.984522696727873e-07,3.236366196412076e-05
6.173349595506315e-07,1.512112097383251e-06,3.004200161650352e-07,3.2346167295636e-05
6.182737838638626e-07,1.5164464850694374e-06,3.0255303566916065e-07,3.231081773530088e-05
6.189603750060362e-07,1.5196925364363825e-06,3.048458321290997e-07,3.225796623276636e-05
6.193999019651578e-07,1.5218777450088606e-06,3.0728874303968465e-07,3.218782751201358e-05
6.196012722677357e-07,1.5230341234907117e-06,3.098707979140848e-07,3.2100511940628684e-05
6.195733004480365e-07,1.523194346522755e-06,3.125818110284445e-07,3.199608317542004e-05
6.193218060202121e-07,1.5223855583260161e-06,3.154116839628719e-07,3.187459183762446e-05
6.188510849258043e-07,1.5206259075127575e-06,3.1834810818866574e-07,3.1736217387312106e-05
6.181686099557075e-07,1.5179272813831302e-06,3.21375597987412e-07,3.158157288252887e-05
6.172888842500129e-07,1.514304122296721e-06,3.244763459926102e-07,3.1411911272457885e-05
6.162324346540508e-07,1.509783392146066e-06,3.276321230959253e-07,3.1229029578682957e-05
6.150210157480389e-07,1.504408296847793e-06,3.308260419450415e-07,3.103501163022926e-05
6.136743653348764e-07,1.4982334556375831e-06,3.340430642841031e-07,3.0831988828958985e-05
6.122090850292294e-07,1.4913155783616977e-06,3.3726997953124946e-07,3.062198254725712e-05
6.10637265212543e-07,1.4837063865350268e-06,3.404951988675088e-07,3.040694707836988e-05
6.089660147291358e-07,1.4754533208667768e-06,3.437079889615615e-07,3.018902892679375e-05
6.07199096397952e-07,1.4666072551385788e-06,3.468988170648735e-07,2.9970776262374407e-05
6.053399841140541e-07,1.457228517121567e-06,3.5006043400391545e-07,2.975511354059338e-05
6.033952418057243e-07,1.4473834382687453e-06,3.531865166471786e-07,2.9545176855175262e-05
6.013757229091047e-07,1.437135295508649e-06,3.562692243594823e-07,2.9344134491211437e-05
5.99293933169579e-07,1.4265380939526796e-06,3.592993804960988e-07,2.9155032994229017e-05
5.971597321682412e-07,1.415633880154638e-06,3.62268210296358e-07,2.8980680917806847e-05
5.949782196093509e-07,1.4044519420648253e-06,3.651673676975988e-07,2.882357958223339e-05
5.927516488373304e-07,1.393010245996266e-06,3.679871785299457e-07,2.8685898527764197e-05
5.904828687519789e-07,1.3813172649277846e-06,3.70715839091237e-07,2.8569471774724047e-05
5.881760455155254e-07,1.3693733739815183e-06,3.7334091503402814e-07,2.8475781758639466e-05
5.85834514464055e-07,1.3571736852750884e-06,3.7585117518513726e-07,2.8405906770771594e-05
5.834598745784557e-07,1.3447114546560332e-06,3.7823734475457356e-07,2.8360443128080958e-05
5.810553868692447e-07,1.3319802728507691e-06,3.8049294940367324e-07,2.83394429117604e-05
5.786310107759844e-07,1.3189764522052722e-06,3.826146988943478e-07,2.834240099144693e-05
5.762041129061244e-07,1.3057011619102086e-06,3.846006060611524e-07,2.8368316858263972e-05
