3.325905179335153e-07,1.530917116754852e-06,2.2602320272554094e-06,3.2196367562187136e-05
3.307902832750242e-07,1.5461855146808329e-06,2.250219024853203e-06,3.209713308856918e-05
3.2943439591588695e-07,1.5605711444286297e-06,2.238703145941832e-06,3.1993910553663675e-05
3.285142521162177e-07,1.5740078364958528e-06,2.2258001539563306e-06,3.1888675373336924e-05
3.28015683435097e-07,1.5864381307439291e-06,2.2116363306142048e-06,3.1783418274014746e-05
3.2792060993783824e-07,1.5978239676569462e-06,2.19634544441348e-06,3.168003308086013e-05
3.2820896629130004e-07,1.6081526524803552e-06,2.1800611843897147e-06,3.158022453358856e-05
3.288604589186181e-07,1.6174387583539282e-06,2.162916134706247e-06,3.148544229982599e-05
3.298576890175616e-07,1.6257226228071354e-06,2.1450527280752157e-06,3.1396844795673495e-05
3.3118980631986646e-07,1.633058997633047e-06,2.126635255444492e-06,3.131529760361082e-05
3.3285344536577077e-07,1.6395017605626424e-06,2.1078499505314358e-06,3.1241394589260085e-05
3.348497393894933e-07,1.645097640836753e-06,2.0888921304953e-06,3.117548840980818e-05
3.371794722300243e-07,1.649886897323572e-06,2.0699475696168013e-06,3.111773932630597e-05
3.3983938607768457e-07,1.653903515110136e-06,2.0511768742095108e-06,3.106816858457897e-05
3.4282072530085856e-07,1.6571752401605455e-06,2.032709781278102e-06,3.1026658860718795e-05
3.461095151097086e-07,1.6597237899106904e-06,2.0146471520355217e-06,3.099288290728506e-05
3.4968741677901075e-07,1.6615649011724662e-06,1.9970626781711903e-06,3.09662291287365e-05
3.535318770150082e-07,1.6627117397947506e-06,1.980005601582715e-06,3.094580971182299e-05
3.5761612750260296e-07,1.6631795076886968e-06,1.9635083426445496e-06,3.093054328921566e-05
3.619102287508388e-07,1.6629854773113828e-06,1.9475927263800627e-06,3.091923159703956e-05
3.6638306118287845e-07,1.6621475858737542e-06,1.9322693494399805e-06,3.0910610703512284e-05
3.710038349944378e-07,1.6606844200239844e-06,1.9175342813299668e-06,3.0903414346340765e-05
3.7574145660141773e-07,1.658612585401361e-06,1.9033691506153184e-06,3.089645743936519e-05
3.8056288362833406e-07,1.6559420203711343e-06,1.889745896326836e-06,3.08887119738202e-05
3.8543312184078176e-07,1.6526734578637316e-06,1.8766349352759633e-06,3.087933498628865e-05
3.9031709437669504e-07,1.648798950902753e-06,1.864015996622617e-06,3.086763517238249e-05
3.951824034340235e-07,1.6443048103303464e-06,1.8518876093768158e-06,3.0853012888980096e-05
4.000018851191615e-07,1.6391749154855928e-06,1.840270275667331e-06,3.083490395854932e-05
4.047537154548725e-07,1.6333931733497628e-06,1.8292041908579918e-06,3.081272922274254e-05
4.094187395954872e-07,1.6269458804367813e-06,1.8187418161739887e-06,3.078588783421039e-05
4.139785180361696e-07,1.6198237041211697e-06,1.80893345766974e-06,3.075383121433722e-05
4.1841674864546104e-07,1.6120239495459258e-06,1.7998122508717884e-06,3.071614600933479e-05
4.227225358478085e-07,1.6035552042016437e-06,1.7913881315491242e-06,3.0672536903489665e-05
4.2689160706038634e-07,1.5944435795685013e-06,1.7836495039461388e-06,3.06226966354178e-05
4.3092324726111143e-07,1.58473499480618e-06,1.776566963571729e-06,3.056619199072458e-05
4.3481593981790027e-07,1.5744885496516159e-06,1.7701003488681431e-06,3.0502522172438085e-05
4.3856678059461343e-07,1.563764420925461e-06,1.7642086218751346e-06,3.0431295329543383e-05
4.421740948321885e-07,1.55261478746132e-06,1.7588554534661717e-06,3.035231371589513e-05
4.456382672825185e-07,1.5410811998184325e-06,1.7540073343333771e-06,3.0265504566403967e-05
4.489600111894392e-07,1.529196568316603e-06,1.7496275525759048e-06,3.017079562996747e-05
4.521389519442215e-07,1.5169915513641443e-06,1.7456705921538344e-06,3.006803427727696e-05
4.5517282680775185e-07,1.5045034108668019e-06,1.7420798879606247e-06,2.995702761723936e-05
4.58056677750047e-07,1.491778745989354e-06,1.7387875798828552e-06,2.9837716580337096e-05
4.607829319333994e-07,1.4788671968251953e-06,1.7357138901146583e-06,2.971035061547431e-05
4.6334203834067363e-07,1.4658169307810275e-06,1.73276794745321e-06,2.9575500858241827e-05
4.657231205673089e-07,1.4526788080429618e-06,1.729851654188351e-06,2.9433901174064802e-05
4.6791716109280775e-07,1.4395115895136113e-06,1.7268640338245262e-06,2.9286227876398493e-05
4.699229954232257e-07,1.4263805552899657e-06,1.7237035710389885e-06,2.913293417909859e-05
4.7175045650149707e-07,1.4133509312794682e-06,1.720269532178759e-06,2.897420462403628e-05
4.734174806026289e-07,1.4004810955300718e-06,1.716464409390321e-06,2.881001650769696e-05
4.7494457530542935e-07,1.3878193895851092e-06,1.712197932938207e-06,2.864026875503791e-05
4.7635143063702325e-07,1.3754063040355601e-06,1.7073912582855981e-06,2.846499514072743e-05
4.776579621443699e-07,1.3632785114163946e-06,1.701978280505223e-06,2.8284665126072917e-05
4.78887104774498e-07,1.3514682710554109e-06,1.6959029257044062e-06,2.8100401553538435e-05
4.800644932750788e-07,1.3399998125829093e-06,1.6891179521954122e-06,2.791390836059688e-05
4.812157899477417e-07,1.3288885050483863e-06,1.6815902852046463e-06,2.7727188144011876e-05
4.823657685201946e-07,1.3181421140560033e-06,1.6733073458523864e-06,2.7542277312216052e-05
4.835393571154247e-07,1.3077609516735484e-06,1.664275171897664e-06,2.736107587428523e-05
4.847634020608948e-07,1.2977369694090755e-06,1.6545090706196278e-06,2.7185337786552328e-05
4.860675456941672e-07,1.288054840127248e-06,1.644028126032234e-06,2.701688752888517e-05
4.874811539755137e-07,1.2786994188211977e-06,1.6328600971716117e-06,2.6857865957355824e-05
4.890284327720663e-07,1.2696691101842621e-06,1.6210488601654012e-06,2.67107481908267e-05
4.907275539747366e-07,1.2609847554354596e-06,1.6086559305513074e-06,2.657815583121184e-05
4.925930140957632e-07,1.2526845311063477e-06,1.5957569759922209e-06,2.6462621155404332e-05
4.946370206341617e-07,1.2448102909051714e-06,1.5824348058502388e-06,2.636639538566072e-05
4.968702678169366e-07,1.2373986170102768e-06,1.5687693445136146e-06,2.629133755190447e-05
4.993028697836072e-07,1.2304800482126772e-06,1.5548301588255825e-06,2.6238876485562e-05
5.019432839220571e-07,1.2240845171704342e-06,1.5406766627382601e-06,2.621001443650056e-05
5.04795263384249e-07,1.2182554254939532e-06,1.526363643118159e-06,2.62053571381548e-05
5.078559074753218e-07,1.2130640278252885e-06,1.5119463367478389e-06,2.6225155133006868e-05
5.111155153435241e-07,1.2086098740883985e-06,1.497481936819836e-06,2.6269312684058976e-05
5.145577863123737e-07,1.2050113646828e-06,1.4830275442405046e-06,2.633733812098557e-05
5.181605726048035e-07,1.2023941271472254e-06,1.468635257921037e-06,2.6428277032356705e-05
5.218974422381961e-07,1.2008754417177587e-06,1.454346628961816e-06,2.654069713071158e-05
5.257397080330726e-07,1.2005501168862837e-06,1.440191767341957e-06,2.667276846153287e-05
5.296589573194308e-07,1.2014852840399878e-06,1.4261948788654246e-06,2.68224257505648e-05
5.336290439533136e-07,1.2037194672320138e-06,1.4123811408471424e-06,2.69875276661134e-05
5.376264624078178e-07,1.207260484988906e-06,1.3987803619305109e-06,2.7165945352174144e-05
5.416288781529632e-07,1.2120851082256595e-06,1.3854267020210951e-06,2.735561015864747e-05
5.456129318685418e-07,1.2181440103554887e-06,1.3723562465404317e-06,2.7554554868832427e-05
5.495542674143439e-07,1.2253700914256785e-06,1.359605554787893e-06,2.776091651996971e-05
5.53430049164084e-07,1.2336844638808277e-06,1.347211673803982e-06,2.7972893738710066e-05
5.572205863418825e-07,1.242996201365933e-06,1.3352115442145228e-06,2.81887035021965e-05
5.609082758984798e-07,1.253199687579975e-06,1.3236398759173835e-06,2.840654262155035e-05
5.644748419661973e-07,1.2641774490297848e-06,1.3125255408284192e-06,2.8624539127352668e-05
5.678990327286312e-07,1.2758095357640899e-06,1.3018874764242471e-06,2.8840749537970453e-05
5.711566070384834e-07,1.28798435704155e-06,1.291734317715698e-06,2.905325129284981e-05
5.742219663634286e-07,1.3006070566520257e-06,1.282071592453037e-06,2.926026162099029e-05
5.770695353476692e-07,1.3136014890041664e-06,1.2729131108474563e-06,2.9460197306596394e-05
5.796742539200742e-07,1.3269025606371671e-06,1.2642885223224762e-06,2.9651678498536165e-05
5.820113383628696e-07,1.3404431168270358e-06,1.256243145085223e-06,2.983350873339264e-05
5.84056149772768e-07,1.3541449195331525e-06,1.2488315436623308e-06,3.0004638115409362e-05
5.857851779542023e-07,1.3679181035611898e-06,1.2421064137578025e-06,3.016409068578256e-05
5.871771465150922e-07,1.381665573056603e-06,1.236105748714386e-06,3.0310855192673163e-05
5.882129810740438e-07,1.3952889959464602e-06,1.2308446773446908e-06,3.044380009716743e-05
5.88875499640514e-07,1.408694882241731e-06,1.2263152476048895e-06,3.0561667207695656e-05
5.891494715230903e-07,1.4217961075529059e-06,1.2224930998869178e-06,3.066313389286932e-05
5.890218953890645e-07,1.434506996770197e-06,1.219349591345417e-06,3.074693113915036e-05
5.884835402814147e-07,1.4467378438225774e-06,1.2168645833538583e-06,3.0812027307911685e-05
5.875321669472754e-07,1.458393755378568e-06,1.215032934019382e-06,3.085780831159066e-05
5.861755811721332e-07,1.4693771027135946e-06,1.2138641330746411e-06,3.0884116154963893e-05
5.844326645695734e-07,1.4795928008716426e-06,1.2133790325133221e-06,3.089112688302509e-05
5.823318745757871e-07,1.488954796103886e-06,1.2136038852105238e-06,3.087917626270998e-05
5.799075391563721e-07,1.4973879341775e-06,1.2145604027371843e-06,3.0848615668223536e-05
5.771952549486177e-07,1.504824584893323e-06,1.2162559895175941e-06,3.0799723626059885e-05
5.742290204974132e-07,1.5112041909026673e-06,1.2186823365414162e-06,3.0732673024101114e-05
5.710411400470209e-07,1.5164794149921058e-06,1.2218249504735738e-06,3.064754287858533e-05
5.676625994705551e-07,1.5206249061160175e-06,1.225675548592358e-06,3.054440564360597e-05
5.641225846768761e-07,1.523643478789769e-06,1.230235869132797e-06,3.042358330656748e-05
5.604480844207974e-07,1.5255634404303654e-06,1.2355099995129395e-06,3.028600734947522e-05
5.566643227708446e-07,1.526426326562114e-06,1.241494585868525e-06,3.013338736810312e-05
5.52796376924666e-07,1.5262757888471026e-06,1.2481767506205502e-06,2.996807100318363e-05
5.488712619122647e-07,1.5251567436961869e-06,1.2555399909053585e-06,2.9792769748663263e-05
5.449185429386261e-07,1.5231191363643926e-06,1.263574276007833e-06,2.961028602492216e-05
5.409688751682118e-07,1.5202154644591872e-06,1.2722859148340812e-06,2.94233297759643e-05
5.37052998704716e-07,1.516492919176924e-06,1.281699923234277e-06,2.9234600647662225e-05
5.33202757109479e-07,1.511989753598475e-06,1.291849867089483e-06,2.904709302278171e-05
5.294509259869389e-07,1.5067408745144028e-06,1.3027598908434238e-06,2.886426113880429e-05
5.25829042273218e-07,1.5007885051519251e-06,1.3144307023896922e-06,2.86898803698752e-05
5.223672663488679e-07,1.4941878795713684e-06,1.3268359395099816e-06,2.8527768347451344e-05
5.190958478849636e-07,1.487003368912272e-06,1.3399254386783421e-06,2.8381519043294952e-05
5.160445175311509e-07,1.479300271838706e-06,1.3536308477369416e-06,2.825430455698172e-05
5.132398079479783e-07,1.4711386285306504e-06,1.3678720180920231e-06,2.8148753137729047e-05
5.107017267854921e-07,1.462576909145706e-06,1.3825619895548642e-06,2.806691139931583e-05
5.084417266711983e-07,1.4536900886268956e-06,1.3976086899927432e-06,2.8010311193020288e-05
5.064643258234803e-07,1.444586931396244e-06,1.4129143433088512e-06,2.7980100761852858e-05
5.047700195098434e-07,1.4354073808084215e-06,1.4283740820659226e-06,2.7977130944462586e-05
5.033555290416935e-07,1.4263047217755163e-06,1.4438744934595742e-06,2.800192622850567e-05
5.022132138055765e-07,1.4174273092870457e-06,1.459293582695173e-06,2.8054572602789443e-05
5.013324288136078e-07,1.4089050174173431e-06,1.4745027371361266e-06,2.813461507758329e-05
5.007007068415611e-07,1.4008425298417358e-06,1.4893696761143787e-06,2.8241067388576642e-05
5.003028587738104e-07,1.3933194425783302e-06,1.5037618723768332e-06,2.8372570180576367e-05
5.001205703484901e-07,1.3863908419355071e-06,1.5175503850527047e-06,2.8527593604730528e-05
5.001342831073325e-07,1.3800864489119937e-06,1.5306137805457217e-06,2.8704527142476305e-05
5.00324684175526e-07,1.374413190936849e-06,1.5428411538292063e-06,2.8901637858087628e-05
5.006725084117803e-07,1.3693601540415487e-06,1.5541338965625919e-06,2.911702603363933e-05
5.011583880089484e-07,1.364901085264516e-06,1.5644077985864883e-06,2.934865689766116e-05
5.017624770940072e-07,1.3609962091628606e-06,1.5735954336131114e-06,2.959443150765813e-05
5.024635345291903e-07,1.357597175977935e-06,1.5816461781720403e-06,2.9852260157737524e-05
5.032387079234208e-07,1.3546540202583364e-06,1.5885241821614906e-06,3.0120127303032092e-05
5.04063543994318e-07,1.3521206929011093e-06,1.594207279970204e-06,3.0396094311347084e-05
5.049122992180805e-07,1.3499586621035707e-06,1.5986857939493461e-06,3.0678208472117377e-05
5.057593022242383e-07,1.3481389265153541e-06,1.6019578367672463e-06,3.0964443752728645e-05
5.065793223837719e-07,1.3466391148404995e-06,1.604023322964654e-06,3.1252789992701204e-05
5.073464259943632e-07,1.345436969740805e-06,1.6048829574325016e-06,3.154139061654097e-05
5.080344143753271e-07,1.344509826141444e-06,1.6045434747917469e-06,3.182860618600348e-05
5.086189768850917e-07,1.3438409837527866e-06,1.603023316728505e-06,3.2113017913731075e-05
5.090783012404589e-07,1.3434211152174198e-06,1.6003527928758052e-06,3.239338967284751e-05
5.093921267873703e-07,1.3432399382336235e-06,1.5965689802599466e-06,3.2668577158258136e-05
5.095426388506597e-07,1.3432771571663528e-06,1.59171143889493e-06,3.293747332843692e-05
5.095176989188379e-07,1.3435025032260405e-06,1.5858259160025529e-06,3.319908429968327e-05
5.093129267726875e-07,1.3438842243702416e-06,1.5789760512599522e-06,3.345262695265343e-05
5.089313691104625e-07,1.3443955675986241e-06,1.5712526596299706e-06,3.369750066078843e-05
5.083826017669423e-07,1.3450133859949387e-06,1.5627720041894262e-06,3.3933157621939564e-05
5.076812441957058e-07,1.345715143652973e-06,1.5536654049722512e-06,3.415896601286803e-05
5.068440026929079e-07,1.3464803898264723e-06,1.5440676029074003e-06,3.437411647168473e-05
5.058866243437809e-07,1.3472941245300354e-06,1.5341094186623015e-06,3.4577584236632805e-05
5.048224072425447e-07,1.3481468978299136e-06,1.5239146762079813e-06,3.4768141570705e-05
5.036615652292642e-07,1.3490297390076548e-06,1.5135984493319382e-06,3.494440535383435e-05
5.024105553046233e-07,1.3499268223270063e-06,1.5032656439822152e-06,3.510489920792456e-05
5.010733288651039e-07,1.350812461326478e-06,1.4930086176049568e-06,3.524811229846288e-05
4.996557843359099e-07,1.351654558214735e-06,1.4829026560338698e-06,3.537255569666295e-05
4.981699157859303e-07,1.3524191254843218e-06,1.4730020586706629e-06,3.547681614862519e-05
4.96633066611725e-07,1.3530749210343777e-06,1.4633409244316792e-06,3.555960188638793e-05
4.950626242056719e-07,1.3536025017650365e-06,1.4539387203798022e-06,3.5619820176290645e-05
4.934712174794372e-07,1.3540029874933749e-06,1.4448058304101544e-06,3.565667890842553e-05
4.918664518991977e-07,1.3542959446214353e-06,1.43594534861647e-06,3.566969230861067e-05
4.902543578484811e-07,1.354506278712894e-06,1.4273518802674583e-06,3.5658553925679024e-05
4.88642310721914e-07,1.3546520264413276e-06,1.4190095312190946e-06,3.562298874119296e-05
4.870389210766454e-07,1.3547415058245457e-06,1.4108912843917625e-06,3.556267356084329e-05
4.854535066838477e-07,1.3547747724067983e-06,1.4029604674025994e-06,3.5477223881140764e-05
4.838986239433221e-07,1.3547430369183849e-06,1.3951728364560154e-06,3.536622179231734e-05
4.823937455838504e-07,1.354629946594704e-06,1.387478385736785e-06,3.522926904042671e-05
4.809645627667465e-07,1.3544202846388242e-06,1.379822951367473e-06,3.506604196822621e-05
4.796371808209825e-07,1.3541128920357237e-06,1.3721498435287362e-06,3.487632183318321e-05
4.7843313390572e-07,1.3537258937626681e-06,1.3644020271022069e-06,3.46599883909276e-05
4.773689231477308e-07,1.3532880077174969e-06,1.3565243542094241e-06,3.441699063729045e-05
4.76457440803329e-07,1.3528257503398243e-06,1.3484641040743073e-06,3.414732632072115e-05
4.757087715712344e-07,1.352357334813167e-06,1.3401698907923548e-06,3.385104704766268e-05
4.751308594329429e-07,1.3518975328471044e-06,1.3315914435313013e-06,3.3528273877266604e-05
4.7472955998504543e-07,1.351476461594565e-06,1.3226809165351038e-06,3.3179209400794077e-05
4.7450724898274467e-07,1.351163414483756e-06,1.3133939131086227e-06,3.280416412551174e-05
4.744622122219617e-07,1.351075630121954e-06,1.3036905930519345e-06,3.2403590741458614e-05
4.7458984834824256e-07,1.3513629598382777e-06,1.2935387921387432e-06,3.197808186734063e-05
4.748826064812853e-07,1.3521790957838301e-06,1.2829184719155683e-06,3.152833460187276e-05
4.753284534276782e-07,1.3536571706891684e-06,1.2718242431426776e-06,3.105512035638081e-05
4.7591255143632003e-07,1.3558990344759185e-06,1.2602635495707029e-06,3.055927620219945e-05
4.766238130554372e-07,1.3589762909788321e-06,1.2482529298320299e-06,3.0041721618009307e-05
4.774613041371321e-07,1.3629367446516936e-06,1.2358161820034977e-06,2.950348583439475e-05
4.784343921939745e-07,1.3678093374732493e-06,1.2229835444312164e-06,2.894572679083485e-05
4.795566950048339e-07,1.373604216001757e-06,1.2097897539612378e-06,2.8369743013194013e-05
4.808400910157264e-07,1.380312185410253e-06,1.1962723879679102e-06,2.777697437577464e-05
4.822938823484713e-07,1.3879083625947077e-06,1.182473402042286e-06,2.716897633746752e-05
4.839281445518555e-07,1.3963568422390694e-06,1.1684435741826919e-06,2.65473633654376e-05
4.857573565649021e-07,1.4056116379372817e-06,1.154243941340373e-06,2.591374318456167e-05
4.878011943913805e-07,1.4156161973753631e-06,1.1399391532942844e-06,2.52696746355666e-05
4.900811963737233e-07,1.4263057500689278e-06,1.1255878343526348e-06,2.461666675278405e-05
4.926153927194582e-07,1.4376109421175763e-06,1.1112393346169032e-06,2.3956229943463463e-05
4.954148681033868e-07,1.4494604998929737e-06,1.0969380540828671e-06,2.328994713647944e-05
4.984836064329805e-07,1.4617837468452294e-06,1.0827289900771134e-06,2.261947430439108e-05
5.018193077145503e-07,1.4745101362739613e-06,1.06865918489843e-06,2.194646649807492e-05
5.054126781686724e-07,1.4875639751757818e-06,1.0547762506373608e-06,2.1272527531525948e-05
5.09246092986231e-07,1.500859806309792e-06,1.0411289542367087e-06,2.0599226956968813e-05
5.132941198665954e-07,1.5143017378241782e-06,1.0277715923353607e-06,1.9928194334278e-05
5.175258946698734e-07,1.527784897370477e-06,1.0147694207364806e-06,1.9261278488396874e-05
5.219078169794144e-07,1.5411979794876275e-06,1.002201106148683e-06,1.8600648703021023e-05
5.264059669624024e-07,1.5544273181356647e-06,9.901561549586484e-07,1.7948727225685763e-05
5.309879705499021e-07,1.5673632141743344e-06,9.787289650527729e-07,1.7307999027991283e-05
5.356234663071809e-07,1.5799063651509891e-06,9.68012323745854e-07,1.6680830182122838e-05
5.402823932525185e-07,1.5919691518863918e-06,9.580928308532362e-07,1.6069412043913097e-05
5.449322970376595e-07,1.6034717620873018e-06,9.490489315905529e-07,1.5475873740800858e-05
5.495374433222764e-07,1.61434062757118e-06,9.409477284963707e-07,1.490247717869963e-05
5.540602134815632e-07,1.6245127110438836e-06,9.338393796600656e-07,1.4351724033293988e-05
5.584625831455887e-07,1.6339376113402657e-06,9.277547022903277e-07,1.3826268986995471e-05
5.627066732700096e-07,1.6425706688209668e-06,9.227075744930423e-07,1.3328684023367673e-05
5.667550442794687e-07,1.6503642725970815e-06,9.186985166332264e-07,1.2861223558223414e-05
5.7057103064196e-07,1.657267435878802e-06,9.157189635932413e-07,1.2425730976583095e-05
5.741194697298765e-07,1.6632340472111083e-06,9.137560187998363e-07,1.2023679379832507e-05
5.773680193872498e-07,1.6682340648425482e-06,9.127954721276941e-07,1.165622800065742e-05
5.802878796031292e-07,1.6722622782031547e-06,9.128223649840109e-07,1.1324276332280328e-05
5.82853115869554e-07,1.6753402456532566e-06,9.138183536639469e-07,1.1028626769451947e-05
5.850394607258565e-07,1.6775076158812959e-06,9.157559286744612e-07,1.0770251262588542e-05
5.868234814363278e-07,1.678806688430921e-06,9.1859307546769e-07,1.0550432221002775e-05
5.881821502101765e-07,1.6792715709172962e-06,9.222720978823644e-07,1.0370624626127443e-05
5.890932285243809e-07,1.6789279542950816e-06,9.267236991806469e-07,1.0232182936519614e-05
5.895368944785428e-07,1.6778002012627956e-06,9.318742090730248e-07,1.013614147754959e-05
5.894970841061551e-07,1.6759186926457688e-06,9.376523290697785e-07,1.0083114271559527e-05
5.889613730175353e-07,1.673321215201827e-06,9.439937269292429e-07,1.0073413934424204e-05
5.879214736865403e-07,1.67004890497072e-06,9.508416767821051e-07,1.0107389206723008e-05
5.863757066246361e-07,1.6661485539603559e-06,9.581420109077092e-07,1.0185684666913667e-05
5.843319065872114e-07,1.6616890666927953e-06,9.658367018564149e-07,1.0309221299199437e-05
5.81808775745795e-07,1.6567742367244644e-06,9.738635909874036e-07,1.0479044094330693e-05
5.788334588965453e-07,1.651529971641247e-06,9.821640428872614e-07,1.069619460143572e-05
5.754356951850501e-07,1.6460767630658425e-06,9.906919730381657e-07,1.096159430754326e-05
5.716429953367092e-07,1.6405143476517117e-06,9.994150598832908e-07,1.1275899371433965e-05
5.6747957331459e-07,1.6349275203661968e-06,1.00830670769689e-06,1.1639358109028035e-05
5.629675418779584e-07,1.6294029447882818e-06,1.0173367396886428e-06,1.2051722009744205e-05
5.581278581122322e-07,1.6240391233762958e-06,1.0264680882738395e-06,1.2512219336103406e-05
5.52980528090101e-07,1.6189412323745208e-06,1.0356595534339596e-06,1.3019567487993194e-05
5.475454205937913e-07,1.6142114710674009e-06,1.044869295308619e-06,1.3571988284259758e-05
5.418432989707004e-07,1.6099452658895868e-06,1.0540546364376822e-06,1.4167198838818537e-05
5.358956118792575e-07,1.606230747674762e-06,1.063169858948865e-06,1.4802384157770126e-05
5.297243121266513e-07,1.603145708917846e-06,1.072165551416467e-06,1.5474196717215303e-05
5.233535621667301e-07,1.6007503622081998e-06,1.080989370656528e-06,1.6178845482252128e-05
5.168125438545599e-07,1.599079613910915e-06,1.0895869134995972e-06,1.691228531593473e-05
5.101371204336156e-07,1.598141825828321e-06,1.0979018696961438e-06,1.7670426006660278e-05
5.033681464515164e-07,1.5979263549220075e-06,1.1058754421171628e-06,1.844927057798639e-05
4.965464060834645e-07,1.5984116616055384e-06,1.113448062379979e-06,1.924497527186401e-05
4.897082892601585e-07,1.5995654399996859e-06,1.120565581518551e-06,2.005386367100212e-05
4.828858581393756e-07,1.6013411162622485e-06,1.1271857545907915e-06,2.087238851583504e-05
4.7610891102703895e-07,1.6036773748962954e-06,1.1332781073930795e-06,2.1697041054593538e-05
4.694047238473383e-07,1.6064987119466975e-06,1.138816788087008e-06,2.252426810483284e-05
4.6279612900419427e-07,1.609716932059872e-06,1.1437742223784143e-06,2.3350441619853085e-05
4.563017188162798e-07,1.6132364559229875e-06,1.1481222308400655e-06,2.417186302094433e-05
4.499383486864315e-07,1.6169611238336609e-06,1.1518386904925415e-06,2.498479235497776e-05
4.437221724513704e-07,1.6208005189676153e-06,1.1549130784247489e-06,2.578551250818101e-05
4.3766730349684077e-07,1.6246766133488197e-06,1.1573473910418034e-06,2.657040171626397e-05
4.3178510042051776e-07,1.6285284638794703e-06,1.1591528141380943e-06,2.7335985217294e-05
4.2608479832286355e-07,1.6323118919431458e-06,1.160345288652512e-06,2.807898776360512e-05
4.2057400557739704e-07,1.6359943869964147e-06,1.1609473199934314e-06,2.879641142926431e-05
4.1525994439814046e-07,1.639546610876138e-06,1.1609991190720504e-06,2.948558920885329e-05
4.1015183431311323e-07,1.6429335112822785e-06,1.1605702965820122e-06,3.014412723498562e-05
4.0526111881042217e-07,1.6461102505054302e-06,1.1597626039782757e-06,3.076976259202497e-05
4.0059878286211146e-07,1.6490252595871514e-06,1.1587029636620158e-06,3.1360285827738015e-05
3.9617366015698366e-07,1.6516277153447418e-06,1.1575291819380505e-06,3.191360840269606e-05
3.919927767521668e-07,1.6538736053972411e-06,1.1563718984814603e-06,3.2427899510160665e-05
3.880612922863071e-07,1.6557266922877194e-06,1.1553408385349071e-06,3.2901696982468894e-05
3.8438227829168676e-07,1.6571558131074215e-06,1.1545208432142096e-06,3.333398815478424e-05
3.809580457825309e-07,1.6581294724265067e-06,1.1539740730446437e-06,3.3724252462706425e-05
3.777922582789942e-07,1.6586094437334866e-06,1.1537427463116362e-06,3.4072402618658385e-05
3.7489187683215383e-07,1.6585485104909503e-06,1.153850843680092e-06,3.437861414097278e-05
3.72267969424211e-07,1.6578946718161369e-06,1.1543066051922621e-06,3.464312737349433e-05
3.6993372805819604e-07,1.6566000383216475e-06,1.1551068710736006e-06,3.486613549867136e-05
3.6790155211749133e-07,1.6546296487895143e-06,1.1562410945721882e-06,3.5047780564739816e-05
3.661824181194962e-07,1.651965335989148e-06,1.1576952964381266e-06,3.518816640101874e-05
3.647870722321842e-07,1.6486049314135054e-06,1.1594580373246135e-06,3.528737359292151e-05
3.63727087577634e-07,1.644557633317306e-06,1.1615248730319176e-06,3.5345613374519756e-05
3.6301491536568727e-07,1.6398359529562446e-06,1.1638969155196214e-06,3.5363551219411776e-05
3.6266348437366533e-07,1.6344505143186856e-06,1.1665759226282936e-06,3.534254233024448e-05
3.626857319161272e-07,1.6284123624743354e-06,1.169560561346484e-06,3.528455686043025e-05
3.6309266251661897e-07,1.62173893183762e-06,1.1728439762322798e-06,3.5191929360390764e-05
3.6388993588606077e-07,1.6144576323812582e-06,1.1764108230181458e-06,3.50671403255305e-05
3.650765284880083e-07,1.6066039264797013e-06,1.1802352446024222e-06,3.491267771955119e-05
3.6664800287472274e-07,1.5982154455146945e-06,1.1842814761538281e-06,3.473107190740198e-05
3.6860033660971926e-07,1.5893269013578516e-06,1.1885046094931714e-06,3.452514676581434e-05
3.709286364431845e-07,1.5799716684453257e-06,1.1928504292995552e-06,3.4298252517374296e-05
3.736228367467404e-07,1.5701919773530576e-06,1.1972581789125042e-06,3.405427531258617e-05
3.7666577322775405e-07,1.5600466227357549e-06,1.2016687530590578e-06,3.379747639162638e-05
3.800341088555637e-07,1.5496071182673134e-06,1.2060354513612e-06,3.3532272176792325e-05
3.83699897555946e-07,1.5389548134597592e-06,1.210330937170502e-06,3.3263019117212516e-05
3.876317268272719e-07,1.528186654316369e-06,1.2145455901852804e-06,3.2993831537531364e-05
3.917956444561686e-07,1.5174149193757289e-06,1.2186798105005864e-06,3.2728439672776115e-05
3.961562885869617e-07,1.5067545271814775e-06,1.2227365150288704e-06,3.2470114344119174e-05
4.0067798871383465e-07,1.496308095350505e-06,1.2267158341276041e-06,3.222167063365031e-05
4.053252122289372e-07,1.486156587235163e-06,1.2306132177506284e-06,3.1985503055531835e-05
4.1006296662976367e-07,1.4763567711117109e-06,1.2344225546608857e-06,3.1763579880628494e-05
4.148580382496561e-07,1.4669423561708976e-06,1.2381402820296613e-06,3.155738016961012e-05
4.196791565006386e-07,1.45792572287006e-06,1.2417652105051456e-06,3.1367834625646725e-05
4.244951047706138e-07,1.449300071107885e-06,1.2452935270614451e-06,3.119532464437121e-05
4.2927395848082475e-07,1.4410425106196712e-06,1.248713112451967e-06,3.1039752770207204e-05
4.339845316962885e-07,1.4331182451903542e-06,1.2520022324908229e-06,3.09006872832988e-05
4.385979242750099e-07,1.4254842194707453e-06,1.2551311970872269e-06,3.077753523686908e-05
4.4308930633673e-07,1.4180914724701202e-06,1.2580628896583945e-06,3.066966540098025e-05
4.4744070736369637e-07,1.4108892588392222e-06,1.2607528125599305e-06,3.057646923749367e-05
4.5164209689447793e-07,1.403830086265025e-06,1.2631496690246746e-06,3.049739820300309e-05
4.5568818081890276e-07,1.396870090574319e-06,1.2651965270397622e-06,3.043197588643139e-05
4.595740014674815e-07,1.3899679013837165e-06,1.2668348283215636e-06,3.0379756569409296e-05
4.632938510101016e-07,1.3830889596104653e-06,1.2680107002787152e-06,3.034025056451949e-05
4.668429653994243e-07,1.3762094073698895e-06,1.2686790504132964e-06,3.031286766484716e-05
4.702185327611574e-07,1.369311322087097e-06,1.268806470459455e-06,3.0296878172395458e-05
4.7341889440267276e-07,1.3623749584380821e-06,1.2683755300644268e-06,3.029137261755517e-05
4.7644290594029763e-07,1.3553766807379024e-06,1.2673847794695943e-06,3.0295255368174097e-05
4.792901945149465e-07,1.3482915767698644e-06,1.2658418000586871e-06,3.0307293234676476e-05
4.819612546689596e-07,1.3410969153582385e-06,1.2637561315393506e-06,3.0326183871656525e-05
4.844576223604572e-07,1.3337751381097984e-06,1.2611364490491026e-06,3.035061691781769e-05
4.867818971553435e-07,1.3263135550861914e-06,1.257989959297536e-06,3.037931725028341e-05
4.889370703056253e-07,1.3186996222533622e-06,1.2543230883027979e-06,3.0411048989873357e-05
4.90926893534389e-07,1.3109179640189244e-06,1.2501459250674534e-06,3.0444557124023583e-05
4.927568119496471e-07,1.3029552910550855e-06,1.2454788229683831e-06,3.047847164015797e-05
4.944322495847036e-07,1.2948095864821787e-06,1.2403555064946109e-06,3.051126360303392e-05
4.95955554949944e-07,1.2864932243487009e-06,1.2348214426310026e-06,3.054130341620822e-05
4.973254214892088e-07,1.2780262564294851e-06,1.2289291330190349e-06,3.05669749376461e-05
4.985384955676489e-07,1.269428259854925e-06,1.222731464200669e-06,3.058681396130843e-05
4.995905988624558e-07,1.2607163752547609e-06,1.2162761025283442e-06,3.059969152390927e-05
5.004768163727239e-07,1.2519088282670249e-06,1.209602765630203e-06,3.060497406435177e-05
5.011912792992599e-07,1.2430312543610949e-06,1.202741996387993e-06,3.060251432119571e-05
5.017270284859791e-07,1.2341208522710044e-06,1.1957155513068506e-06,3.0592444043064974e-05
5.020764630860082e-07,1.2252223534787358e-06,1.1885384509903944e-06,3.0574893031223435e-05
5.022330234325547e-07,1.2163775938923092e-06,1.1812200583771877e-06,3.0549794652522355e-05
5.021923922583688e-07,1.2076181571714691e-06,1.1737638724949185e-06,3.051685142593181e-05
5.019514623012373e-07,1.1989678345921972e-06,1.1661676475055019e-06,3.047559663468745e-05
5.015074867317129e-07,1.190451321488845e-06,1.1584245451577686e-06,3.042545820820729e-05
5.00859746739344e-07,1.1821012551903265e-06,1.1505268713427572e-06,3.0365862928864532e-05
5.000109486189704e-07,1.1739598140363678e-06,1.1424704822719905e-06,3.029649880642663e-05
4.989653421952939e-07,1.1660733892642343e-06,1.1342545317349836e-06,3.0217620615976747e-05
4.977262813193296e-07,1.1584822741599072e-06,1.125877703283252e-06,3.01301013059406e-05
4.962976463956623e-07,1.1512128542712965e-06,1.1173364786790223e-06,3.0035218424193452e-05
4.94687402089815e-07,1.1442764907750672e-06,1.108626972183869e-06,2.993439758550284e-05
4.929079686424283e-07,1.1376717877830948e-06,1.0997481728234836e-06,2.982902519697546e-05
4.909732420509105e-07,1.131387215695418e-06,1.0907036490566762e-06,2.972042319715688e-05
4.888956515648207e-07,1.1254053153797716e-06,1.0815005185876009e-06,2.9610069355193327e-05
4.866849826551861e-07,1.1197100521740848e-06,1.0721467835250195e-06,2.949987514533301e-05
4.843498494029493e-07,1.1142960840293851e-06,1.062649840392256e-06,2.9392224919254414e-05
4.819003809666973e-07,1.1091732278344377e-06,1.0530193789545228e-06,2.9289781512509607e-05
4.793490878600085e-07,1.1043599770036725e-06,1.0432725133728562e-06,2.919526516072027e-05
4.767103817361184e-07,1.0998724785904656e-06,1.0334349354092134e-06,2.9111297398371808e-05
4.7399973733999387e-07,1.0957196389273438e-06,1.0235371096059471e-06,2.9040278138075512e-05
4.7123187354390747e-07,1.0919081906505765e-06,1.0136091106030971e-06,2.8984268863477528e-05
4.684200319216621e-07,1.0884559618022095e-06,1.0036770558895245e-06,2.8944910279482294e-05
4.6557764200688324e-07,1.0854029902353274e-06,9.937636721164324e-07,2.892341492544961e-05
4.627195829190466e-07,1.0828099734237264e-06,9.838938414045237e-07,2.8920614135491577e-05
4.5986133333009293e-07,1.080746129776727e-06,9.741009722814748e-07,2.893697980140609e-05
4.57017250937729e-07,1.079274318400156e-06,9.644289567199666e-07,2.8972584429803363e-05
4.5419912471874163e-07,1.078439369237562e-06,9.54930412453664e-07,2.9027049698188593e-05
4.514151642852933e-07,1.078263505532794e-06,9.456629248844912e-07,2.9099527563328777e-05
4.4866996228595793e-07,1.078748773092306e-06,9.366823001923901e-07,2.918872484832428e-05
4.4596524325884254e-07,1.0798813214306056e-06,9.280363444351848e-07,2.9292994313851635e-05
4.43300350228057e-07,1.0816325447987521e-06,9.197633871372869e-07,2.9410483394992327e-05
4.406731333111812e-07,1.0839589099442777e-06,9.118927008761247e-07,2.9539277756808557e-05
4.380820956840228e-07,1.0868053255977976e-06,9.044450863268671e-07,2.967749890721292e-05
4.3552785832698457e-07,1.0901107883513248e-06,8.974371434304213e-07,2.982337387429844e-05
4.3301199269760676e-07,1.0938109255899302e-06,8.908877316635615e-07,2.997529186702749e-05
4.305361942695813e-07,1.0978371653896802e-06,8.848192623918099e-07,3.013181530596697e-05
4.281050406635679e-07,1.1021163025373294e-06,8.792522680169296e-07,3.0291630648080573e-05
4.257282147320003e-07,1.1065725565692706e-06,8.742024245882048e-07,3.0453475225937078e-05
4.234183790883378e-07,1.1111312337582558e-06,8.696890204376562e-07,3.061606299739287e-05
4.2118818381738383e-07,1.1157209646726566e-06,8.6574957993089e-07,3.077803151608148e-05
4.190488958856082e-07,1.1202747322290156e-06,8.624473622787876e-07,3.093795521813646e-05
4.170092429779401e-07,1.1247310708942064e-06,8.598678098834603e-07,3.109440499903871e-05
4.150741877465184e-07,1.12903235465074e-06,8.581096322464163e-07,3.1245984063616235e-05
4.132443198991654e-07,1.1331202683285101e-06,8.572747106363624e-07,3.139133484339558e-05
4.115160759930425e-07,1.1369331681156915e-06,8.574566352242626e-07,3.152916309489655e-05
4.0988260320734295e-07,1.1404062629861005e-06,8.587292528919232e-07,3.16582882024853e-05
4.0833452239293705e-07,1.1434730360597522e-06,8.611413053404615e-07,3.1777646210763107e-05
4.068604470495085e-07,1.1460673618925311e-06,8.647188068796876e-07,3.188618567124612e-05
4.054478835315524e-07,1.148126914295294e-06,8.69467621737392e-07,3.198276493208987e-05
4.040845281086707e-07,1.149599330304676e-06,8.753726314576332e-07,3.206623161549953e-05
4.027599327945978e-07,1.1504480600143488e-06,8.823971165288344e-07,3.213567337560161e-05
4.014667148284344e-07,1.150651401678896e-06,8.904838101382407e-07,3.219062583397575e-05
4.0019938358310255e-07,1.1501958342473374e-06,8.995576513611912e-07,3.223108735041787e-05
3.989517998725264e-07,1.1490706802556893e-06,9.095294169987042e-07,3.225738226888733e-05
3.977165259459637e-07,1.1472668147290772e-06,9.202981376494771e-07,3.2269985954401726e-05
3.9648662866290675e-07,1.1447774189999123e-06,9.317536267068987e-07,3.226937809946145e-05
3.952576453504151e-07,1.141598377613416e-06,9.437814472726072e-07,3.225593551241325e-05
3.9402754026158814e-07,1.1377273326451106e-06,9.562711929098412e-07,3.2229885054520536e-05
3.927954689221264e-07,1.133163316069851e-06,9.691278027279478e-07,3.219132677740409e-05
3.915619189642082e-07,1.127911557333884e-06,9.822803374013926e-07,3.2140270146360055e-05
3.9032946239941466e-07,1.1219932031094515e-06,9.9568269089342e-07,3.207663723325929e-05
3.891016295992074e-07,1.1154510504238551e-06,1.0093080553170808e-06,3.2000303221863795e-05
3.878812111588239e-07,1.1083443314568822e-06,1.023139309936706e-06,3.19113154228001e-05
3.8667051826369817e-07,1.100736434676018e-06,1.037156931556893e-06,3.181021756156645e-05
3.854735175507432e-07,1.0926845749599891e-06,1.051331634045221e-06,3.169815139265443e-05
3.8429854746280985e-07,1.0842354324011132e-06,1.0656268361438943e-06,3.157664226968236e-05
3.8316011201640897e-07,1.0754256079165542e-06,1.0800068617607682e-06,3.1447367883208304e-05
3.8207820242978773e-07,1.0662851299127807e-06,1.0944439570310191e-06,3.131213349559588e-05
3.810749068165289e-07,1.0568410511024068e-06,1.1089191294199982e-06,3.117293085870287e-05
3.801706634055711e-07,1.0471193109070214e-06,1.1234152537745458e-06,3.103188570059813e-05
3.793826982712454e-07,1.0371496708586269e-06,1.1379071170070706e-06,3.089110981127107e-05
3.7872487852459467e-07,1.026978533918295e-06,1.1523563736389068e-06,3.0752586322915586e-05
3.7820719333779545e-07,1.016681368581616e-06,1.166714791760047e-06,3.0618129222173574e-05
3.77835659089399e-07,1.0063603034765802e-06,1.180929993620847e-06,3.0489367172321558e-05
3.7761341180924134e-07,9.961269617727655e-07,1.1949464195428595e-06,3.0367716527667517e-05
3.775412219282921e-07,9.860855248474636e-07,1.2087058018708834e-06,3.025435034876969e-05
3.776170155233778e-07,9.7632994235168e-07,1.2221557216650696e-06,3.015017448997309e-05
3.7783595182126406e-07,9.66955700399249e-07,1.2352610212545709e-06,3.0055818205745696e-05
3.7819046778529184e-07,9.58071353224931e-07,1.2480042392177302e-06,2.9971647077430664e-05
3.7866944446401136e-07,9.497985402336969e-07,1.260374120570946e-06,2.989779425629052e-05
3.792585384973044e-07,9.422661228778972e-07,1.2723569951121531e-06,2.9834174972804155e-05
3.7994346848480077e-07,9.35606105162197e-07,1.2839386236980398e-06,2.978045000816197e-05
3.8071469616077756e-07,9.299492889924608e-07,1.29510745532644e-06,2.9735973655796026e-05
3.815696048333117e-07,9.254162752676869e-07,1.3058520013566715e-06,2.969980925513906e-05
3.825097017766632e-07,9.221067224813242e-07,1.3161556685187108e-06,2.9670828509448566e-05
3.8353585211679625e-07,9.200933557520592e-07,1.325994623003816e-06,2.9647815950424847e-05
3.8464697030772475e-07,9.194203031628136e-07,1.335339420566396e-06,2.9629520994841802e-05
3.858415782917071e-07,9.20102240733136e-07,1.3441572242555478e-06,2.9614683535166827e-05
3.871174696080877e-07,9.221247334010071e-07,1.3524136669342826e-06,2.9602075765942872e-05
3.8846974051651343e-07,9.254470142736441e-07,1.3600749728317742e-06,2.9590569381919e-05
3.8989028347388383e-07,9.300072499945113e-07,1.3671093910756831e-06,2.9579201675458074e-05
3.913681091503687e-07,9.357292758653608e-07,1.3734893451198616e-06,2.956718976058123e-05
3.9288935204216424e-07,9.425286499144009e-07,1.3791980115883105e-06,2.9553871745328247e-05
3.944381222616265e-07,9.503153781271395e-07,1.3842382858489825e-06,2.9538615488017328e-05
3.9599807162495704e-07,9.589924783603982e-07,1.3886345420133186e-06,2.95207451423704e-05
3.9755267575672714e-07,9.684544024598058e-07,1.392423676913998e-06,2.9499522052353332e-05
3.990841519699352e-07,9.7859081918242e-07,1.3956467891273514e-06,2.9474212341330767e-05
4.005730623095826e-07,9.89295647299929e-07,1.3983491466894816e-06,2.9444197885176362e-05
4.0199904817680173e-07,1.0004752189883529e-06,1.4005797625692172e-06,2.9409004968490967e-05
4.0334151887980906e-07,1.0120500408603223e-06,1.4023851204251764e-06,2.936820460606548e-05
4.0458014148843776e-07,1.0239497401710569e-06,1.4038032569640742e-06,2.9321300413396016e-05
4.0569555584450223e-07,1.036105056603622e-06,1.4048621498987205e-06,2.926773052121963e-05
4.0667019691820997e-07,1.0484416990627736e-06,1.405581588150158e-06,2.9206965362047754e-05
4.074888285837848e-07,1.0608794176422977e-06,1.4059764341395476e-06,2.9138577972951892e-05
4.081381624462495e-07,1.073338371604821e-06,1.4060586940629202e-06,2.9062200689486626e-05
4.086056169530321e-07,1.0857498263790106e-06,1.4058376266384e-06,2.8977419494363875e-05
4.088790821924755e-07,1.0980611623594264e-06,1.405317687758079e-06,2.8883729297409465e-05
4.089492811544986e-07,1.110229283220298e-06,1.4044949052838466e-06,2.878060731223152e-05
4.088122819121883e-07,1.1222088881681154e-06,1.4033541227950162e-06,2.866770052304353e-05
4.084683117151197e-07,1.133946785577709e-06,1.4018684343759136e-06,2.854506500489157e-05
4.079182267538206e-07,1.145386768129874e-06,1.400000658036612e-06,2.841329231432744e-05
4.071616886911272e-07,1.1564780507325633e-06,1.3977068807598935e-06,2.8273400725777063e-05
4.061976834570042e-07,1.1671765114337294e-06,1.394942804133552e-06,2.812655933020177e-05
4.0502570245297797e-07,1.1774385417049869e-06,1.3916736325885213e-06,2.7973823615322212e-05
4.036467697125986e-07,1.1872160379520198e-06,1.3878840318960415e-06,2.7816008119404528e-05
4.020641896083893e-07,1.1964579751550896e-06,1.3835800450693842e-06,2.76536749519914e-05
4.002832155271945e-07,1.2051187637209965e-06,1.3787806502294063e-06,2.7487165162146976e-05
3.9830941305069753e-07,1.213168465053663e-06,1.373509408691239e-06,2.7316707821902223e-05
3.9614741917565226e-07,1.2205963263452778e-06,1.3677969607593418e-06,2.714267782701822e-05
3.9380141282710023e-07,1.2274044254681506e-06,1.3616896746352095e-06,2.696588251911965e-05
3.9127624604537225e-07,1.2335974099464534e-06,1.3552520078674306e-06,2.678761851248465e-05
3.8857858036318437e-07,1.2391757706156971e-06,1.348558973242394e-06,2.6609453975784115e-05
3.8571841577401353e-07,1.2441337787517231e-06,1.341683706307177e-06,2.643295684373033e-05
3.827099409175074e-07,1.2484601208958396e-06,1.334687796530763e-06,2.625952221933743e-05
3.7957120619278384e-07,1.2521420499004759e-06,1.32762081447845e-06,2.609032736154195e-05
3.7632308632978e-07,1.255171266404713e-06,1.3205270705629957e-06,2.5926510098475807e-05
3.7298745654219774e-07,1.25754576042602e-06,1.3134510926254144e-06,2.5769525919807212e-05
3.6958537993282096e-07,1.259270307293148e-06,1.3064370794117563e-06,2.5621359329987776e-05
3.661359751706391e-07,1.2603639410592552e-06,1.2995241391433932e-06,2.548443565698852e-05
3.626555511274207e-07,1.2608692743814227e-06,1.2927434625556013e-06,2.5361393276971264e-05
3.5915702756491524e-07,1.2608490344826356e-06,1.2861217323388563e-06,2.525486659215852e-05
3.556501930963862e-07,1.2603710369325303e-06,1.2796863909437906e-06,2.5167326737377068e-05
3.5214302237014644e-07,1.2595022858611918e-06,1.2734665700990864e-06,2.5100972965509908e-05
3.486443889737835e-07,1.258322915811295e-06,1.26749044846825e-06,2.505764727940328e-05
3.451684715490343e-07,1.2569432180731807e-06,1.2617829053621122e-06,2.5038774824449657e-05
3.417390368814589e-07,1.2555035221748964e-06,1.2563647696050402e-06,2.5045349459375986e-05
3.3839001559740106e-07,1.2541589256159314e-06,1.2512526793233914e-06,2.507795397854485e-05
3.35161349322702e-07,1.2530643943490342e-06,1.2464587100542903e-06,2.5136764222532284e-05
3.3209360515414253e-07,1.2523669635751123e-06,1.2419897283348268e-06,2.5221501623368224e-05
3.292245849256574e-07,1.252200302710155e-06,1.2378465868361842e-06,2.533137120926239e-05
3.265875012136566e-07,1.252678556287582e-06,1.234022518326578e-06,2.5465061074488024e-05
3.242092990078724e-07,1.2538903736255301e-06,1.2305010774641405e-06,2.562084917214681e-05
3.2210910680681127e-07,1.2558941175525135e-06,1.2272574812233123e-06,2.5796787593199814e-05
3.202978307388416e-07,1.2587165871571695e-06,1.2242644513538956e-06,2.599086978543329e-05
3.187792385600397e-07,1.262356537696134e-06,1.2214958541783475e-06,2.6201130408170186e-05
3.175519134576655e-07,1.2667903505140025e-06,1.21892469199235e-06,2.642571261098264e-05
3.166109491961956e-07,1.2719771741294553e-06,1.216522577313313e-06,2.66629229264958e-05
3.159487372802639e-07,1.2778644398245459e-06,1.2142653841566951e-06,2.6911249706712532e-05
3.1555621938952266e-07,1.2843954680307215e-06,1.21213850892211e-06,2.716932355264983e-05
3.1542549533193244e-07,1.291517932348193e-06,1.210134512811005e-06,2.743580768242603e-05
3.155525365844708e-07,1.2991891487791617e-06,1.208246590334249e-06,2.7709245455239808e-05
3.1593880635929144e-07,1.3073749954671404e-06,1.2064676639593969e-06,2.7987961087644844e-05
3.165912044804638e-07,1.3160434946271076e-06,1.2047972012012057e-06,2.8270078318548853e-05
3.1751987791689874e-07,1.3251584901753786e-06,1.2032481929515705e-06,2.8553586118191368e-05
3.1873398573530914e-07,1.3346795440971469e-06,1.2018485062799885e-06,2.8836364028727728e-05
3.202375880678422e-07,1.3445672706723532e-06,1.2006369231165837e-06,2.9116203652768806e-05
3.220283995894164e-07,1.3547870625636676e-06,1.1996567943209811e-06,2.9390888666440143e-05
3.240989697090273e-07,1.36530674326697e-06,1.198950093701659e-06,2.9658294835117786e-05
3.2643796723610306e-07,1.3760899555649652e-06,1.1985536518194692e-06,2.9916434027757507e-05
3.290308810743206e-07,1.3870924138270658e-06,1.198498445161404e-06,3.0163464815743687e-05
3.3186102972663905e-07,1.3982645803236e-06,1.1988103732648658e-06,3.03977270409794e-05
3.349111905879693e-07,1.409553619702572e-06,1.1995086908150984e-06,3.061777184874413e-05
3.3816553433829174e-07,1.4208989282787873e-06,1.2006015139393033e-06,3.082237746754422e-05
3.416109161101328e-07,1.432226967627514e-06,1.2020840689280494e-06,3.101058062883069e-05
3.4523565667392546e-07,1.443452083296041e-06,1.2039433545915606e-06,3.118169082735066e-05
3.490261653414021e-07,1.454481180860797e-06,1.2061645003188287e-06,3.133524268115118e-05
3.529641956707604e-07,1.4652164811477595e-06,1.2087334475149072e-06,3.1470881557924616e-05
3.570262749334422e-07,1.4755556607775326e-06,1.2116357991224354e-06,3.1588225444691774e-05
3.611848066018035e-07,1.4853934405248001e-06,1.2148535311975693e-06,3.168679932519073e-05
3.654093291845205e-07,1.494626209559239e-06,1.218361298781102e-06,3.1766087823105485e-05
3.696669906333804e-07,1.5031573627539222e-06,1.2221243513663964e-06,3.1825635997296604e-05
3.739228744212369e-07,1.510903246518728e-06,1.226098710783543e-06,3.186511207654284e-05
3.781409638458381e-07,1.5178004873790969e-06,1.2302328642354592e-06,3.188430044241858e-05
3.822856176732712e-07,1.523810303032393e-06,1.2344704539175898e-06,3.188304949911172e-05
3.863226189228632e-07,1.528916722700473e-06,1.238752925623513e-06,3.186124751886055e-05
3.902192402277049e-07,1.5331212118406852e-06,1.2430242789104213e-06,3.1818854410485944e-05
3.9394475747799286e-07,1.536435571241715e-06,1.2472442839779638e-06,3.1755938450139006e-05
3.974729924132826e-07,1.5388768895792802e-06,1.2514055482819531e-06,3.167267582414255e-05
4.00785099155503e-07,1.540470936002934e-06,1.2555365611429754e-06,3.1569314676247504e-05
4.0386878276868256e-07,1.5412619952291369e-06,1.2596847535515837e-06,3.144613155034529e-05
4.067141784251499e-07,1.541317618653506e-06,1.2638961007432802e-06,3.1303399334714535e-05
4.093108078308488e-07,1.540719897020514e-06,1.268209334465509e-06,3.1141364548173155e-05
4.116476185561725e-07,1.5395491535678597e-06,1.272664399233275e-06,3.096023691181241e-05
4.137146373212229e-07,1.5378758908616768e-06,1.2773108189171744e-06,3.076019562584062e-05
4.155040240414651e-07,1.5357662614636738e-06,1.2822050572610374e-06,3.054140109146252e-05
4.17009113205565e-07,1.5332876843979725e-06,1.2873985278629538e-06,3.030399536436098e-05
4.182225645678782e-07,1.5305036612960755e-06,1.2929268267379106e-06,3.0048094512352386e-05
4.1913579170505954e-07,1.5274654635242975e-06,1.2988074842479926e-06,2.977379162265333e-05
4.1973988180786097e-07,1.5242145650041375e-06,1.3050431399069219e-06,2.948117003114187e-05
4.2002640768474633e-07,1.5208004204218982e-06,1.3116252149507662e-06,2.9170316072643627e-05
4.1998742474736244e-07,1.517301875873024e-06,1.3185373727735365e-06,2.884134580660346e-05
4.1961607960362327e-07,1.513831855703935e-06,1.325757281056431e-06,2.8494444437016505e-05
4.18908576524861e-07,1.5105216257638316e-06,1.3332552998574304e-06,2.812987566238518e-05
4.1786564634483903e-07,1.5074986957835919e-06,1.3409943552780753e-06,2.7747956096479583e-05
4.1649165822378957e-07,1.5048690384493109e-06,1.3489358403432873e-06,2.734904025900833e-05
4.147927165342928e-07,1.5027073484552925e-06,1.3570472854396923e-06,2.693353322409172e-05
4.127766646246797e-07,1.501055110421038e-06,1.3653036240343718e-06,2.6501902777435597e-05
4.1045454392965094e-07,1.499923646418224e-06,1.3736814878825846e-06,2.6054667436932174e-05
4.078404260773594e-07,1.499300863291976e-06,1.3821522695378778e-06,2.5592375666613626e-05
4.0494944311550176e-07,1.499158318952846e-06,1.3906798764144377e-06,2.511560032944808e-05
4.0179646608399465e-07,1.4994533641581375e-06,1.3992226813061341e-06,2.462495017688973e-05
3.9839623008621075e-07,1.5001283848559932e-06,1.4077335739184946e-06,2.4121100257253242e-05
3.9476384328430866e-07,1.5011128521395325e-06,1.4161595168371762e-06,2.360483818350481e-05
3.9091469246994587e-07,1.5023271784614696e-06,1.4244451209016838e-06,2.3077093943617065e-05
3.868641972106565e-07,1.50368465160801e-06,1.4325358232291276e-06,2.253892897031253e-05
3.826285268468008e-07,1.505094759219492e-06,1.4403764403388154e-06,2.199150071118169e-05
3.7822495998566974e-07,1.506474133024113e-06,1.4479090436600922e-06,2.143602706669328e-05
3.7367061405458777e-07,1.5077616812770812e-06,1.4550763489561482e-06,2.0873769857962578e-05
3.6898166514007656e-07,1.5089267431550475e-06,1.461827941661452e-06,2.0306047790695265e-05
3.6417370650546544e-07,1.509965594650846e-06,1.4681189156850352e-06,1.9734235163754543e-05
3.5926172256621606e-07,1.51089160910892e-06,1.4739020181612318e-06,1.9159709355919128e-05
3.542602521496325e-07,1.5117262888185766e-06,1.479124981298214e-06,1.8583809005307682e-05
3.49183929153245e-07,1.512493774354584e-06,1.483735815607346e-06,1.8007861091102294e-05
3.440471386271171e-07,1.513217903846544e-06,1.4876905426777398e-06,1.7433261077280374e-05
3.388635254675432e-07,1.5139208529303141e-06,1.4909582960936566e-06,1.6861590969206788e-05
3.336467362369684e-07,1.5146207426144791e-06,1.4935207382600737e-06,1.629473014732092e-05
3.284117894087915e-07,1.5153275173667637e-06,1.4953666474464956e-06,1.5734848075925098e-05
3.231755076582414e-07,1.5160426461394903e-06,1.4964858215682932e-06,1.5184239826509762e-05
3.179556174332687e-07,1.5167647490794809e-06,1.4968662897799092e-06,1.464510142075452e-05
3.1276998331373026e-07,1.5174942113166564e-06,1.4964966223266276e-06,1.4119376293309573e-05
3.0763673800446354e-07,1.5182307443687957e-06,1.4953718775974325e-06,1.3608766922527374e-05
3.025747147138219e-07,1.5189667866464644e-06,1.4934992584419844e-06,1.3114909680317066e-05
2.9760451890127174e-07,1.519683106627664e-06,1.490900382747845e-06,1.2639572615164392e-05
2.9275079468844254e-07,1.5203496636283148e-06,1.4876083056094685e-06,1.2184719949458832e-05
2.880445430745352e-07,1.5209324253459186e-06,1.4836590593402797e-06,1.175241649986916e-05
2.835227200752193e-07,1.5214007980564214e-06,1.4790836812064356e-06,1.1344652766279867e-05
2.7922442664129e-07,1.5217266545910637e-06,1.4739067396071009e-06,1.0963194247236046e-05
2.751864942878878e-07,1.5218785608119386e-06,1.4681488773295298e-06,1.0609501690488436e-05
2.714405971035286e-07,1.521823485250073e-06,1.4618300593623232e-06,1.028469822934514e-05
2.6801257268007623e-07,1.5215348664551875e-06,1.4549735900413074e-06,9.989587833787384e-06
2.649237456722902e-07,1.5209951047201264e-06,1.4476088291921544e-06,9.724798396980881e-06
2.621922187824083e-07,1.5201896004630048e-06,1.4397689231327445e-06,9.491062030813403e-06
2.598323134392955e-07,1.5190988432229744e-06,1.4314840611332502e-06,9.289456615767717e-06
2.578530874907272e-07,1.5176942223471341e-06,1.422776312036191e-06,9.121413502025614e-06
2.5625798026386873e-07,1.515939962235454e-06,1.413659580325974e-06,8.988519687069026e-06
2.550455623429869e-07,1.5137981784512066e-06,1.4041417941076234e-06,8.892259286568558e-06
2.5421042707456284e-07,1.5112318819338637e-06,1.3942271697632522e-06,8.833816938970156e-06
2.537437691553836e-07,1.5082057262620267e-06,1.3839199511815834e-06,8.814090221246597e-06
2.536334928310821e-07,1.5046866909436309e-06,1.373230732023863e-06,8.833947819080615e-06
2.5386598065833414e-07,1.50064873203445e-06,1.3621841859604072e-06,8.894498804138291e-06
2.5443193678042076e-07,1.4960847961228103e-06,1.3508255135055029e-06,8.997125543187996e-06
2.553329217680259e-07,1.4910168414496381e-06,1.3392230406447494e-06,9.143313580990317e-06
2.565827245812695e-07,1.4854904525873825e-06,1.3274654770158959e-06,9.334456127820256e-06
2.582039232644941e-07,1.4795584481169814e-06,1.31565340134358e-06,9.571719310343387e-06
2.6022308043745973e-07,1.4732718140761025e-06,1.3038862035921162e-06,9.855944177899837e-06
2.6266526987270625e-07,1.466687892144874e-06,1.292249239919147e-06,1.0187555584080953e-05
2.655490102632465e-07,1.4598846152382e-06,1.280807651127648e-06,1.056649674068626e-05
2.6888364000672886e-07,1.452963441148566e-06,1.2696085962181838e-06,1.0992213529265373e-05
2.726690906502793e-07,1.4460397813448201e-06,1.2586868363725937e-06,1.146367705256415e-05
2.768967765720788e-07,1.4392298999572028e-06,1.2480675832581881e-06,1.1979403003811358e-05
2.815513772449653e-07,1.4326404258588658e-06,1.2377666880637044e-06,1.2537438319208805e-05
2.866133216957976e-07,1.4263621354192292e-06,1.227793258687876e-06,1.3135330179844756e-05
2.9205980360773694e-07,1.4204653410938059e-06,1.2181557597381578e-06,1.3770123277685581e-05
2.978638789688371e-07,1.4149965241435125e-06,1.2088665695237848e-06,1.4438436009288183e-05
3.039939437979633e-07,1.4099788260064962e-06,1.1999424524948587e-06,1.5136619067554917e-05
3.104140839099634e-07,1.4054155599219409e-06,1.1914033216253731e-06,1.5860919226250128e-05
3.170846347841958e-07,1.4012951017802738e-06,1.1832700028833063e-06,1.6607570480464773e-05
3.2396292249974797e-07,1.3975952961794808e-06,1.1755600687858454e-06,1.7372827183675908e-05
3.3100447906294745e-07,1.3942841585464136e-06,1.1682840300595208e-06,1.815299847294337e-05
3.381646101953342e-07,1.3913184626593323e-06,1.1614445047718055e-06,1.894448744277177e-05
3.4539920209678757e-07,1.388644680204172e-06,1.1550365649672771e-06,1.974379986268552e-05
3.52665067767625e-07,1.3862017894935144e-06,1.1490465616155168e-06,2.0547521211552045e-05
3.59920690623244e-07,1.383924592076424e-06,1.1434510036476124e-06,2.1352278744444825e-05
3.671272151375811e-07,1.381748311966782e-06,1.1382193119692181e-06,2.215469075403792e-05
3.7425035261747634e-07,1.3796123544506309e-06,1.1333194713930326e-06,2.2951331206040537e-05
3.8126188032940566e-07,1.3774616286087722e-06,1.1287205307753295e-06,2.3738738009925008e-05
3.881382898804868e-07,1.3752467948009028e-06,1.124390272262581e-06,2.4513431476449852e-05
3.9485892725922157e-07,1.3729231633690515e-06,1.1202925758778778e-06,2.527192706986957e-05
4.0140641558431547e-07,1.3704484382478113e-06,1.1163891187783442e-06,2.601078289056355e-05
4.0776740454006827e-07,1.3677809314678477e-06,1.112648348682622e-06,2.672669099799844e-05
4.1393141331332606e-07,1.3648779423129737e-06,1.1090589606125394e-06,2.741656970455225e-05
4.198881074663744e-07,1.36169388457919e-06,1.1056375792811886e-06,2.8077592518555293e-05
4.256246038458642e-07,1.358180340203569e-06,1.1024234218199283e-06,2.870712426349749e-05
4.3112480799941357e-07,1.354291169854045e-06,1.0994640001112013e-06,2.930263724796837e-05
4.363714895334489e-07,1.3499916254540749e-06,1.0968023013442098e-06,2.9861702246446626e-05
4.413495426769582e-07,1.3452645908226699e-06,1.0944727829938335e-06,3.0382048080291137e-05
4.460485047420561e-07,1.3401089619511637e-06,1.0925045556184554e-06,3.0861659947151006e-05
4.504635959131645e-07,1.3345329421664985e-06,1.0909242901043248e-06,3.1298941983655436e-05
4.5459460845193844e-07,1.3285491167785276e-06,1.0897545047063891e-06,3.169288691646571e-05
4.5844302939700995e-07,1.322173354712153e-06,1.089011292394885e-06,3.2043107417310525e-05
4.620102415743953e-07,1.3154223492074678e-06,1.0887081625539447e-06,3.234970097559441e-05
4.6529715563636063e-07,1.308309216399023e-06,1.0888618914251023e-06,3.261303398886206e-05
4.6830292015196246e-07,1.3008425825354085e-06,1.089489668851287e-06,3.283353541021586e-05
4.710237282997077e-07,1.293029430534007e-06,1.0905989285118014e-06,3.3011588075613664e-05
4.7345353716691283e-07,1.2848794554313169e-06,1.0921803618371772e-06,3.3147533021703984e-05
4.755851101453871e-07,1.276409662978345e-06,1.0942090443253922e-06,3.324171458809306e-05
4.774103450843759e-07,1.2676473077722528e-06,1.0966528702228674e-06,3.3294583495837005e-05
4.789211540109039e-07,1.2586300709621004e-06,1.0994827328035813e-06,3.330696267339628e-05
4.801103846408201e-07,1.2494011266235284e-06,1.1026749414931158e-06,3.328035487468918e-05
4.809716272904747e-07,1.2399995590586235e-06,1.106205243861039e-06,3.321699166295996e-05
4.814990993044333e-07,1.2304530830816077e-06,1.1100465979393192e-06,3.311960132203253e-05
4.816882254358418e-07,1.2207771296477386e-06,1.114177179469382e-06,3.2991119000949045e-05
4.815366009968015e-07,1.2109781342342273e-06,1.1185894599968936e-06,3.2834477563700104e-05
4.810451064997036e-07,1.2010585117209686e-06,1.1232907585828938e-06,3.2652588487808816e-05
4.802184668508728e-07,1.1910210911782558e-06,1.128296166670261e-06,3.2448578842148806e-05
4.79065078526054e-07,1.180871155333157e-06,1.1336187618800476e-06,3.222607432277171e-05
4.775956945463323e-07,1.1706192175321931e-06,1.139262590981049e-06,3.1989241745241055e-05
4.758217706741946e-07,1.1602868114474634e-06,1.1452228230255206e-06,3.174259389764577e-05
4.737555474054807e-07,1.1499077151653016e-06,1.1514898532330578e-06,3.1490736508857894e-05
4.714105043813823e-07,1.1395196657162036e-06,1.158050590160953e-06,3.123816734844218e-05
4.68800249927317e-07,1.129155630952329e-06,1.1648859346748249e-06,3.0989143219858097e-05
4.6593712760028093e-07,1.1188449467135096e-06,1.1719685903192551e-06,3.0747587184566244e-05
4.62831449241146e-07,1.1086242081717054e-06,1.1792658998798806e-06,3.0517020338609302e-05
4.5949110509905185e-07,1.0985513300284785e-06,1.186749164173848e-06,3.0300523530762536e-05
4.5592207009304457e-07,1.0887128250440968e-06,1.1944052828409443e-06,3.010071824223777e-05
4.5213018722593297e-07,1.0792170503010268e-06,1.202242605874138e-06,2.9919730018381763e-05
4.481227935747007e-07,1.0701803806543549e-06,1.2102868971815707e-06,2.975911180481949e-05
4.4390883280263593e-07,1.0617165388197523e-06,1.2185710315096008e-06,2.9619766794813374e-05
4.39498466324857e-07,1.053928395186754e-06,1.227122762309338e-06,2.950193900285055e-05
4.3490290882792703e-07,1.0469008837327652e-06,1.235954381621638e-06,2.9405301961867657e-05
4.301338113077714e-07,1.0406977390768447e-06,1.2450583708607402e-06,2.932912666899261e-05
4.2520249884627367e-07,1.035362074118522e-06,1.2544088223563305e-06,2.927246409236543e-05
4.201203302518681e-07,1.0309180150978784e-06,1.2639644808563342e-06,2.923427111425916e-05
4.149007409078005e-07,1.0273709834318527e-06,1.2736703987588259e-06,2.9213470696449268e-05
4.095614825267513e-07,1.0247070396683085e-06,1.2834604038811624e-06,2.9208986074443245e-05
4.041244278475279e-07,1.0228938167037012e-06,1.2932636813451772e-06,2.921977158517005e-05
3.9861269311317686e-07,1.0218854109937813e-06,1.3030139974249443e-06,2.92448333498398e-05
3.930478263353184e-07,1.0216326030586518e-06,1.3126578559728413e-06,2.9283233866458894e-05
3.874492507861516e-07,1.0220936587058156e-06,1.322159045282322e-06,2.9334074473902367e-05
3.8183563732347456e-07,1.0232362289545343e-06,1.3314998068060148e-06,2.939642903934318e-05
3.7622717619240883e-07,1.025030440532376e-06,1.340681412590543e-06,2.9469239031717653e-05
3.7064747424686743e-07,1.027443948890362e-06,1.3497230434368778e-06,2.9551260768409252e-05
3.651225473742993e-07,1.0304441670203264e-06,1.358653156844255e-06,2.964110239979522e-05
3.5967713307560577e-07,1.034001719625807e-06,1.3674953702843464e-06,2.973727534744289e-05
3.5433292058505934e-07,1.0380900478600748e-06,1.3762601415956992e-06,2.983821711143656e-05
3.4910988221969883e-07,1.0426836398570964e-06,1.3849468993797965e-06,2.9942316281402448e-05
3.4402660088663967e-07,1.0477561842366337e-06,1.3935497065499876e-06,3.004795809584905e-05
3.3909873099066e-07,1.0532768602538586e-06,1.4020590872880577e-06,3.015354494408823e-05
3.343390846644372e-07,1.059208707249514e-06,1.41045979686281e-06,3.0257437157226195e-05
3.297605336428432e-07,1.0655138516602151e-06,1.418727740704066e-06,3.035786694227448e-05
3.253795968006828e-07,1.0721598498167162e-06,1.426827765779821e-06,3.0452933753821997e-05
3.212178014603487e-07,1.0791189238992056e-06,1.434712771673838e-06,3.054069697118297e-05
3.172997127320731e-07,1.0863626963592676e-06,1.4423242121309368e-06,3.061932068619203e-05
3.136495356116645e-07,1.0938602609382756e-06,1.4495945016351306e-06,3.068725282153137e-05
3.102883213472728e-07,1.1015806731331316e-06,1.4564510710855404e-06,3.074338564106053e-05
3.0723225132325413e-07,1.1094942787584142e-06,1.4628192231979232e-06,3.0787086102077e-05
3.0449192576726234e-07,1.1175698990109283e-06,1.468622514278708e-06,3.0818056481577826e-05
3.020725923464343e-07,1.1257714610158865e-06,1.4737826745371303e-06,3.083610704543146e-05
2.999749266481528e-07,1.1340565374317554e-06,1.4782212239410215e-06,3.0840976914107195e-05
2.9819571381501306e-07,1.142375874621594e-06,1.4818658119655546e-06,3.0832285527902475e-05
2.9672855259767627e-07,1.1506753921585209e-06,1.484660749279929e-06,3.0809569145499524e-05
2.955655160699288e-07,1.158901156579061e-06,1.4865726996247214e-06,3.07723196247576e-05
2.9469925048864737e-07,1.1670047070173115e-06,1.4875857128776e-06,3.072006067799193e-05
2.9412303295650404e-07,1.174947300256519e-06,1.4876931512313685e-06,3.0652590289450956e-05
2.9382837012240727e-07,1.1827001615398105e-06,1.486896998179259e-06,3.0570308052862326e-05
2.93803493187197e-07,1.1902378740845e-06,1.4852133707357097e-06,3.0474320295170367e-05
2.94035661179388e-07,1.1975305211922723e-06,1.4826739484975134e-06,3.0366257537972492e-05
2.945155647271713e-07,1.2045431633972564e-06,1.4793185188062638e-06,3.024801065672799e-05
2.9523997516013174e-07,1.2112422066510487e-06,1.4751839691278758e-06,3.0121498675336994e-05
2.962111244515372e-07,1.2176000690956026e-06,1.4702974723394032e-06,2.9988534409586684e-05
2.974334051927001e-07,1.2235921693053428e-06,1.4646767846557737e-06,2.9850932298903223e-05
2.9890986634998137e-07,1.2291925592168178e-06,1.4583340920454563e-06,2.9710794078195958e-05
3.006416908029036e-07,1.2343801416116131e-06,1.4512786813613462e-06,2.957065393360132e-05
3.026300544810993e-07,1.2391533330821727e-06,1.4435194978957354e-06,2.9433373044312157e-05
3.0487680668098047e-07,1.2435358324235715e-06,1.4350708641767362e-06,2.9301952972742927e-05
3.073836114337912e-07,1.2475663290579814e-06,1.425958875378784e-06,2.917938766552733e-05
3.101521084104886e-07,1.2512846091621398e-06,1.4162236070569099e-06,2.9068559003821087e-05
3.1318513245810923e-07,1.2547250944133716e-06,1.405915841952038e-06,2.897215418759183e-05
3.16487049865635e-07,1.257921378840644e-06,1.3950909954822229e-06,2.889259404967995e-05
3.200623222264125e-07,1.2609204876198206e-06,1.38380611864614e-06,2.8831983691960064e-05
3.239129955769277e-07,1.2637922966743652e-06,1.3721217596563013e-06,2.8792089246840253e-05
3.280373864207873e-07,1.2666229881501705e-06,1.360102868405723e-06,2.8774298928255168e-05
3.324301540050856e-07,1.2695009039147923e-06,1.3478160702084096e-06,2.8779534541477088e-05
3.370815277290421e-07,1.2725049242608459e-06,1.335327316950852e-06,2.880815228421849e-05
3.419764452127313e-07,1.2756977450307629e-06,1.3227013784023457e-06,2.885988689823256e-05
3.470953341132345e-07,1.279122990658078e-06,1.3100006954914062e-06,2.8933871818335744e-05
3.524156853144632e-07,1.2828041080758254e-06,1.2972832883479306e-06,2.902875450475396e-05
3.579132440492344e-07,1.28674532439026e-06,1.2846018288931533e-06,2.9142871789608832e-05
3.635635467288048e-07,1.2909341328376622e-06,1.2720047023214223e-06,2.9274416478777265e-05
3.6934537969321094e-07,1.2953439807398585e-06,1.2595377025626318e-06,2.942156925815083e-05
3.752437018612371e-07,1.2999376872631321e-06,1.2472449163601446e-06,2.9582606302097807e-05
3.812480772951812e-07,1.3046694360335178e-06,1.2351675970420642e-06,2.9755974005266163e-05
3.873487704520021e-07,1.3094841640379685e-06,1.223341372350104e-06,2.994030387787816e-05
3.9353477468997383e-07,1.314318206733481e-06,1.2117980905809926e-06,3.0134364973416682e-05
3.997937178326806e-07,1.3191029780684434e-06,1.2005769989658545e-06,3.0336981928823132e-05
4.061115128436915e-07,1.3237718108205906e-06,1.1897363596931394e-06,3.0546929623112235e-05
4.1247100282064366e-07,1.3282680112059937e-06,1.1793530072340951e-06,3.0762814172928106e-05
4.1885082499956716e-07,1.3325466162065143e-06,1.169510098513752e-06,3.098301632566327e-05
4.252262868376656e-07,1.3365699087434679e-06,1.1602828708395137e-06,3.120574097034065e-05
4.31571499719905e-07,1.3403045137914336e-06,1.1517306224662942e-06,3.142910176194377e-05
4.378601882196147e-07,1.3437204758699191e-06,1.1438958470201192e-06,3.165118419166569e-05
4.440652356879158e-07,1.346790823175907e-06,1.1368055046550124e-06,3.187009701931938e-05
4.501585859888173e-07,1.3494928993960982e-06,1.1304712728190948e-06,3.208402054201249e-05
4.561115436558366e-07,1.3518084227762108e-06,1.12488960705211e-06,3.2291214958394874e-05
4.6189569689981097e-07,1.3537204565062876e-06,1.120041992463109e-06,3.24899449951872e-05
4.6748527883833247e-07,1.3552125478337778e-06,1.1158949996411588e-06,3.267837774453136e-05
4.7286025044513987e-07,1.356272469552936e-06,1.1124006513978394e-06,3.28545679309039e-05
4.780085244774164e-07,1.3568946610539288e-06,1.1094980784792525e-06,3.301655278140434e-05
4.829257490448398e-07,1.3570771240598172e-06,1.1071161339877642e-06,3.3162496243030655e-05
4.87611378682529e-07,1.3568161384516303e-06,1.1051755995105795e-06,3.329085761023665e-05
4.920632268516428e-07,1.3561040531574236e-06,1.1035918244736669e-06,3.340057856961905e-05
4.96275381406636e-07,1.354931130713628e-06,1.1022802012691277e-06,3.349118933087578e-05
5.002402736176858e-07,1.3532878641545071e-06,1.1011632141111988e-06,3.3562719772367794e-05
5.039508176967969e-07,1.351165229604564e-06,1.1001753816979984e-06,3.3615445067721626e-05
5.073999969182828e-07,1.3485557509995072e-06,1.0992648377008482e-06,3.364961636185285e-05
5.105793666685771e-07,1.3454598742727959e-06,1.0983908418766635e-06,3.366532344589739e-05
5.134786265274192e-07,1.3418945361131957e-06,1.0975183765986058e-06,3.366250877598205e-05
5.160865116128006e-07,1.337895071761155e-06,1.0966151183302073e-06,3.364102387733477e-05
5.183926645237528e-07,1.3335094359319898e-06,1.0956532495237335e-06,3.360067909129296e-05
5.203895778203095e-07,1.3287903638436816e-06,1.0946125725798848e-06,3.354140572421026e-05
5.220728622105511e-07,1.3237880455179114e-06,1.093480758756402e-06,3.3463566414063426e-05
5.234407862934957e-07,1.3185437835954515e-06,1.092251423760745e-06,3.336815076950457e-05
5.24495509472096e-07,1.3130861100033996e-06,1.0909230861183444e-06,3.325664716526405e-05
5.252456470279229e-07,1.3074319165331421e-06,1.0894982981265769e-06,3.313074693442307e-05
5.257081686967525e-07,1.3015925535803543e-06,1.0879818753914705e-06,3.299210052355763e-05
5.259071638469107e-07,1.2955796220863469e-06,1.0863791453192428e-06,3.2842213100796884e-05
5.258688375118747e-07,1.289406188636963e-06,1.0846932820453177e-06,3.268257866027758e-05
5.256162263728771e-07,1.2830858249251536e-06,1.0829218945891993e-06,3.2514995237105944e-05
5.251674620725792e-07,1.2766352840999023e-06,1.0810563441677023e-06,3.234175505647172e-05
5.245379106142246e-07,1.2700820704940895e-06,1.0790843430420472e-06,3.2165575889184275e-05
5.23742787195381e-07,1.2634693619749675e-06,1.0769921879316885e-06,3.1989421691853665e-05
5.227969710087205e-07,1.2568535835650096e-06,1.074764664291858e-06,3.181632960992957e-05
5.217131249311451e-07,1.250302269637767e-06,1.07238366486264e-06,3.164925892939969e-05
5.205008177867252e-07,1.243894871163165e-06,1.0698269186966405e-06,3.14909691235413e-05
5.191677426528153e-07,1.2377180558979542e-06,1.0670677721915958e-06,3.1343939209654976e-05
5.177223619275755e-07,1.2318554417114364e-06,1.064076354946031e-06,3.1210325900816304e-05
5.161745640011876e-07,1.2263791087981363e-06,1.0608211696942586e-06,3.109194169140769e-05
5.145332317443549e-07,1.2213445314745044e-06,1.057270797980035e-06,3.099022395450124e-05
5.1280489063462e-07,1.2167882482694806e-06,1.0533981585393944e-06,3.090617070255153e-05
5.109945168622418e-07,1.212729385570709e-06,1.049189158254116e-06,3.084026238861566e-05
5.091056827165354e-07,1.209174079138676e-06,1.044652749778368e-06,3.0792421336574767e-05
5.071398800392678e-07,1.2061178724218165e-06,1.0398256271990765e-06,3.076203829453219e-05
5.050961516955972e-07,1.2035445266320324e-06,1.0347675132344789e-06,3.0748078196362896e-05
5.029714291731447e-07,1.2014255074157563e-06,1.0295496521829923e-06,3.0749247363967146e-05
5.007619154057931e-07,1.1997209431360654e-06,1.0242438085949663e-06,3.076414306874403e-05
4.98464611763363e-07,1.1983804413807662e-06,1.0189204918281642e-06,3.079134180524057e-05
4.960771902358267e-07,1.1973449063835314e-06,1.0136571107613888e-06,3.082946987547392e-05
4.935963236965163e-07,1.1965492648589292e-06,1.0085454538165882e-06,3.0877269501661624e-05
4.910168594286481e-07,1.1959255099697443e-06,1.003690996462445e-06,3.093362642052188e-05
4.883326520403139e-07,1.1954064519609653e-06,9.992059063528368e-07,3.0997564941499826e-05
4.855373442904871e-07,1.1949282171107497e-06,9.951991237139532e-07,3.106822732984909e-05
4.82624874603345e-07,1.194429760914157e-06,9.91765560046338e-07,3.1144812670804666e-05
4.795909360264117e-07,1.1938514416318883e-06,9.889772043271551e-07,3.1226469923399336e-05
4.764346059461941e-07,1.193135098132188e-06,9.868798705032247e-07,3.131222715081981e-05
4.7315823169195643e-07,1.192225632271806e-06,9.8549690862631e-07,3.140102085399569e-05
4.697660608353153e-07,1.1910729309541858e-06,9.848362978550943e-07,3.149175216775583e-05
4.6626393889763966e-07,1.1896335352894343e-06,9.848958822208746e-07,3.1583293783972415e-05
4.626597509939782e-07,1.1878713785925523e-06,9.856642167292716e-07,3.1674484720591995e-05
4.5896280065268676e-07,1.1857554498123728e-06,9.871192609706456e-07,3.17641593268063e-05
4.551823981898793e-07,1.1832552031160903e-06,9.892301853966894e-07,3.185118105608813e-05
4.5132661843303577e-07,1.1803380391116544e-06,9.91963817843691e-07,3.1934412356808255e-05
4.474020954905289e-07,1.1769699324915888e-06,9.95290315974631e-07,3.201262264000808e-05
4.4341473926127394e-07,1.173119174021034e-06,9.991823885934014e-07,3.2084437018483806e-05
4.3936995629299277e-07,1.1687621210183165e-06,1.0036105060279066e-06,3.2148393499917185e-05
4.3527220655470686e-07,1.1638843822821925e-06,1.0085426822993114e-06,3.220307356947539e-05
4.3112518295027543e-07,1.1584756407865916e-06,1.0139519177013798e-06,3.224726859586574e-05
4.2693342153172027e-07,1.1525250568512821e-06,1.019822869206903e-06,3.2280158994380185e-05
4.227045075820878e-07,1.1460217169269504e-06,1.0261480221171564e-06,3.230141056931749e-05
4.184509787670507e-07,1.1389599919070514e-06,1.0329159220247444e-06,3.231109165164915e-05
4.1419198867725794e-07,1.1313463536122987e-06,1.040101783733351e-06,3.2309447456508096e-05
4.099535628930829e-07,1.1232005972776708e-06,1.0476654419796957e-06,3.2296667066287486e-05
4.057670727727736e-07,1.1145500127671616e-06,1.0555553604483887e-06,3.2272761835810656e-05
4.016674326956939e-07,1.1054243960027887e-06,1.063714233152446e-06,3.2237566778356835e-05
3.976902637089107e-07,1.0958564293967013e-06,1.0720816271191092e-06,3.2190774483652044e-05
3.938682961747371e-07,1.0858832659282507e-06,1.0805945793659337e-06,3.21319654833271e-05
3.902301455452208e-07,1.0755469077165277e-06,1.089189530798807e-06,3.2060760963264896e-05
3.868007129013261e-07,1.0648948013789162e-06,1.0978056550177769e-06,3.197715377587157e-05
3.836010258152176e-07,1.0539788205627355e-06,1.1063866300986231e-06,3.1881766476184105e-05
3.80649390532821e-07,1.0428513540478435e-06,1.1148783462232158e-06,3.177579429185501e-05
3.7796377627759685e-07,1.0315618018062568e-06,1.1232243434115242e-06,3.1660735210663846e-05
3.755610763810147e-07,1.0201550150829463e-06,1.131363688040641e-06,3.1538113336243204e-05
3.734534793368076e-07,1.0086717804129628e-06,1.1392338270681832e-06,3.140931083725557e-05
3.7164747918769703e-07,9.9715125721591e-07,1.1467767982438844e-06,3.127564367823485e-05
3.701467326788398e-07,9.85631223498003e-07,1.1539441988647007e-06,3.1138666386622464e-05
3.689551322134204e-07,9.741475824517618e-07,1.1606964380452828e-06,3.100039552956808e-05
3.680786756862464e-07,9.627416849402893e-07,1.1669975224826264e-06,3.0863256534558725e-05
3.6752674546569883e-07,9.514698088592932e-07,1.1728110423012568e-06,3.0729896550160965e-05
3.673129137859614e-07,9.404028399257324e-07,1.1780991281569063e-06,3.0603023122052584e-05
3.6745583644793343e-07,9.296233373091844e-07,1.1828235372881063e-06,3.0485281653320147e-05
3.6797885277811507e-07,9.192261282474148e-07,1.186949289077916e-06,3.037914992935732e-05
3.6890593209052506e-07,9.093120006180167e-07,1.1904511878603885e-06,3.028684506348766e-05
3.702561775781112e-07,8.999739713665302e-07,1.1933216467227379e-06,3.0210247450336047e-05
3.7204016630689603e-07,8.912874461915533e-07,1.1955741143933843e-06,3.0150861511784638e-05
3.742587614974749e-07,8.833075332331938e-07,1.197238902429323e-06,3.010982107555949e-05
3.7690522027908076e-07,8.760704875732184e-07,1.1983555104598758e-06,3.00878983137898e-05
3.7996914350416925e-07,8.695967582065015e-07,1.198964690873195e-06,3.0085474716380403e-05
3.834378024933714e-07,8.638938990350162e-07,1.1991021962244409e-06,3.0102484336424517e-05
3.8729464274909675e-07,8.589590860482041e-07,1.1987982844228407e-06,3.0138371946609602e-05
3.9151863265347635e-07,8.547814173212269e-07,1.198082630810625e-06,3.0192127641977827e-05
3.9608517555948846e-07,8.513433377944299e-07,1.1969912201413485e-06,3.02624186917649e-05
4.009675184668315e-07,8.486207920525985e-07,1.1955751642432549e-06,3.034774130243629e-05
4.061389616768896e-07,8.465826955766837e-07,1.1939086027839084e-06,3.044652270761008e-05
4.115753870698319e-07,8.451910301811262e-07,1.1920886088384948e-06,3.055720243502064e-05
4.1725666733505066e-07,8.444015406418086e-07,1.1902265871168832e-06,3.0678333117071945e-05
4.231670293920382e-07,8.44164480853184e-07,1.1884373729675394e-06,3.080866433740139e-05
4.2929425873358155e-07,8.444280777389247e-07,1.1868288150619836e-06,3.094714978082545e-05
4.3562672340609514e-07,8.451448476443071e-07,1.1854922157410663e-06,3.109288111302457e-05
4.421494252200584e-07,8.462737627225022e-07,1.1844974901253444e-06,3.1244979803670585e-05
4.4884180129217127e-07,8.47775066597172e-07,1.1838948031822469e-06,3.140246737823753e-05
4.5567794901523896e-07,8.496045635081995e-07,1.1837201609397802e-06,3.1564177277759385e-05
4.6262770200869245e-07,8.51713098333983e-07,1.1840036082363217e-06,3.1728755159911625e-05
4.6965821997186155e-07,8.540489851934078e-07,1.1847771377767176e-06,3.189469687522269e-05
4.767372929222704e-07,8.565597807630044e-07,1.1860762481755078e-06,3.2060382576016414e-05
4.838367526648734e-07,8.591923386981937e-07,1.1879339776814012e-06,3.222412940516946e-05
4.9093228010701e-07,8.618920259527393e-07,1.1903765851951923e-06,3.238426535273969e-05
4.979999897869185e-07,8.646043678860294e-07,1.1934306100540822e-06,3.2539185373598593e-05
5.050145083727107e-07,8.672804183911659e-07,1.197137271064618e-06,3.268738507762836e-05
5.119506940155841e-07,8.698816165292919e-07,1.201564099912517e-06,3.282751545784095e-05
5.187859512553386e-07,8.723810972626339e-07,1.2068104626859422e-06,3.29584388648962e-05
5.254998723068192e-07,8.747623477208002e-07,1.2130039453681731e-06,3.307922978206375e-05
5.320720096244722e-07,8.77016003869672e-07,1.2202850201927335e-06,3.3189142716861986e-05
5.384802055046854e-07,8.791377366308069e-07,1.2287865296660588e-06,3.328758721788086e-05
5.44700248299899e-07,8.811280311632462e-07,1.2386163267343037e-06,3.3374095087205704e-05
5.507080766049165e-07,8.829890090772921e-07,1.2498461969225728e-06,3.344824831761333e-05
5.564851095215492e-07,8.847190932207022e-07,1.2625094634535443e-06,3.350957779132306e-05
5.620225489437478e-07,8.863108285427981e-07,1.2766060070032336e-06,3.355749521156802e-05
5.673200754661107e-07,8.87752150791416e-07,1.2921064576407712e-06,3.359132992962961e-05
5.723810669559711e-07,8.890282321421101e-07,1.308951712161218e-06,3.3610459081595674e-05
5.772103917554721e-07,8.90122199393124e-07,1.3270533382131386e-06,3.3614404162638754e-05
5.818157027613669e-07,8.91016701263278e-07,1.3462984040859017e-06,3.3602809708063613e-05
5.862077578648397e-07,8.916978999668276e-07,1.3665566683755788e-06,3.3575360930693105e-05
5.903973985568597e-07,8.921606466337189e-07,1.3876886889043982e-06,3.353174364039455e-05
5.94391673729062e-07,8.924134722917082e-07,1.4095526046689053e-06,3.3471686409912435e-05
5.981932396966139e-07,8.924790449197041e-07,1.43200612909865e-06,3.3395023076974686e-05
6.018031033237506e-07,8.923872959107972e-07,1.4549044389522262e-06,3.330171212024882e-05
6.052221059660658e-07,8.921662977091951e-07,1.4780965485525478e-06,3.3191815065319383e-05
6.084493619779347e-07,8.918367363135346e-07,1.5014222196420056e-06,3.306543479030705e-05
6.114806125967164e-07,8.914116153657965e-07,1.5247119906719591e-06,3.292263346616581e-05
6.143080650521152e-07,8.908998527227655e-07,1.5477904651747048e-06,3.276338833667968e-05
6.169213451707572e-07,8.903089248055945e-07,1.5704810901438385e-06,3.258758752602258e-05
6.193105216712621e-07,8.896441127187654e-07,1.5926100639597004e-06,3.23950293919009e-05
6.2147137867644e-07,8.889098301511873e-07,1.614007074208095e-06,3.2185445996183714e-05
6.234103004853249e-07,8.881139676614448e-07,1.6345045925494668e-06,3.1958561502140195e-05
6.251451691985082e-07,8.872675788761541e-07,1.6539396244176702e-06,3.171412939153857e-05
6.26700965416734e-07,8.86379613251543e-07,1.6721593488262332e-06,3.145193160936433e-05
6.281034061854051e-07,8.854534802964962e-07,1.6890272233091376e-06,3.117178504950241e-05
6.293749362483299e-07,8.84488542918722e-07,1.7044235444112015e-06,3.0873566971057174e-05
6.305339537643983e-07,8.834884206366927e-07,1.7182420530661686e-06,3.0557234986393874e-05
6.315954161468403e-07,8.824778258207073e-07,1.7303911152657172e-06,3.0222838060053716e-05
6.325706720146305e-07,8.81520463550898e-07,1.7408003954689725e-06,2.9870519486031605e-05
6.334664982533953e-07,8.807230969645849e-07,1.7494253486650966e-06,2.9500498075012294e-05
6.342843821458164e-07,8.80220576022102e-07,1.7562459374820442e-06,2.911303153155756e-05
6.350203329958884e-07,8.801516554753685e-07,1.761261854896161e-06,2.8708390627820184e-05
6.356655514376695e-07,8.80640295517542e-07,1.7644852595725913e-06,2.8286860336594484e-05
6.362075904036854e-07,8.817898547218087e-07,1.765932685396705e-06,2.784875660343589e-05
6.366312459943347e-07,8.83684019772324e-07,1.7656213177559056e-06,2.739444260672645e-05
6.369202553314261e-07,8.863853912020966e-07,1.7635704317548905e-06,2.692434415603168e-05
6.370606919099781e-07,8.899328047272661e-07,1.7598023778388507e-06,2.6438977261050963e-05
6.370433463078253e-07,8.943423610125794e-07,1.7543407402864552e-06,2.5938996379875062e-05
6.368622904098411e-07,8.99610671947488e-07,1.7472084943898834e-06,2.5425250066056795e-05
6.365114576308756e-07,9.057179291872429e-07,1.7384277832164375e-06,2.4898811014148638e-05
6.359825878093415e-07,9.126329856785296e-07,1.728021764262252e-06,2.436096372434688e-05
6.352650306515032e-07,9.203199623773487e-07,1.7160204576065314e-06,2.381316275952605e-05
6.343465982820731e-07,9.287426611638064e-07,1.7024698312451203e-06,2.3256964925945616e-05
6.332148431228903e-07,9.378669612729833e-07,1.6874376302524548e-06,2.2693951207244438e-05
6.318571955401288e-07,9.476634922926884e-07,1.6710108850353496e-06,2.2125691424398468e-05
6.30260235207569e-07,9.581112836571486e-07,1.6532872822854782e-06,2.155374201998865e-05
6.284113275350337e-07,9.691998726033436e-07,1.6343658552809472e-06,2.097961517289692e-05
6.263019737553679e-07,9.809247322113484e-07,1.6143420932935766e-06,2.0404730623718044e-05
6.239281572367382e-07,9.932775979590594e-07,1.593308685136281e-06,1.9830401367607158e-05
6.212885830473063e-07,1.0062398943993812e-06,1.5713574886270471e-06,1.9257886053566823e-05
6.183859100975806e-07,1.0197812735357988e-06,1.5485803141118753e-06,1.868852437811116e-05
6.152294904786918e-07,1.033859891281898e-06,1.5250692935716483e-06,1.8123888438425563e-05
6.118340247707183e-07,1.0484241330416016e-06,1.5009159546152944e-06,1.7565820926396833e-05
6.082146242075244e-07,1.0634174544812401e-06,1.47621166019932e-06,1.7016327383782113e-05
6.04383214223636e-07,1.0787844006441973e-06,1.4510537595734125e-06,1.6477405076203566e-05
6.003480676169221e-07,1.094471197289011e-06,1.4255532803292122e-06,1.5950909922676298e-05
5.961152276762468e-07,1.1104193528897743e-06,1.3998367541863488e-06,1.5438554014456815e-05
5.916907146294772e-07,1.1265608218842308e-06,1.3740418894588415e-06,1.4942050740906506e-05
5.8708216206089e-07,1.1428211961780092e-06,1.3483104108733485e-06,1.446327014938445e-05
5.822995328473279e-07,1.159127379858236e-06,1.3227788528544585e-06,1.4004247312392138e-05
5.773572086606201e-07,1.175411311417985e-06,1.2975703374373156e-06,1.3567051630748748e-05
5.7227797291486e-07,1.1916067034354885e-06,1.2727925799225726e-06,1.3153625456841827e-05
5.670951655879522e-07,1.2076458754929458e-06,1.2485404548973808e-06,1.2765664823437573e-05
5.618498751051159e-07,1.2234613087350624e-06,1.2248989788139428e-06,1.2404556916634947e-05
5.565842349429149e-07,1.2389867617034872e-06,1.2019473258959446e-06,1.2071354582514634e-05
5.513352091313894e-07,1.2541558161186687e-06,1.1797632953462313e-06,1.1766786380011905e-05
5.461327163936627e-07,1.2689023837562339e-06,1.1584241037967762e-06,1.1491364475155405e-05
5.410023584645747e-07,1.2831639929795818e-06,1.1380017585904184e-06,1.1245650020496091e-05
5.359706426081677e-07,1.2968847102675678e-06,1.1185566382008379e-06,1.1030528404684213e-05
5.310684968049375e-07,1.310015493538797e-06,1.1001335334133934e-06,1.0847228562213457e-05
5.263288345647157e-07,1.32251190660973e-06,1.0827608795961959e-06,1.0697100118578878e-05
5.21781387663715e-07,1.3343322410373671e-06,1.066454638987271e-06,1.0581364747372287e-05
5.174512853371806e-07,1.3454379460113971e-06,1.0512286220936251e-06,1.0500945978595171e-05
5.133597330300192e-07,1.3557948880503865e-06,1.0371057927063554e-06,1.0456467681475501e-05
5.0952302729835e-07,1.365373871148705e-06,1.0241210841768722e-06,1.044849781075827e-05
5.059513797032634e-07,1.3741511886877724e-06,1.012313311367312e-06,1.0477839382882814e-05
5.026491696000651e-07,1.3821146675982249e-06,1.0017144171923114e-06,1.0545585072523449e-05
4.996173825402625e-07,1.389274950950832e-06,9.92347797409606e-07,1.0652970157564863e-05
4.968580992528379e-07,1.3956680619400256e-06,9.842365029176536e-07,1.0801222966954513e-05
4.943769735631281e-07,1.4013418568228608e-06,9.774103805792728e-07,1.0991457593633433e-05
4.921803425540119e-07,1.4063384826804495e-06,9.719057082488614e-07,1.1224564390795441e-05
4.90270697203101e-07,1.410687160342278e-06,9.67757878061712e-07,1.1501105400832302e-05
4.886466338088515e-07,1.414411850143136e-06,9.649902075256731e-07,1.182124004651118e-05
4.873066209325185e-07,1.4175514688973597e-06,9.636068076093515e-07,1.2184676446832131e-05
4.862506112354939e-07,1.4201790129839966e-06,9.63593018346749e-07,1.2590645539802695e-05
4.854773799549257e-07,1.422401981683626e-06,9.649177192507405e-07,1.3037893979607705e-05
4.849810740686271e-07,1.42434419214209e-06,9.675349956333463e-07,1.3524675037946025e-05
4.847501195601858e-07,1.4261225453557008e-06,9.713860495418855e-07,1.4048736849699692e-05
4.847684560292531e-07,1.4278303558401146e-06,9.764000640546509e-07,1.4607329591807513e-05
4.850170581923338e-07,1.4295330148847625e-06,9.824955134198059e-07,1.5197260342075474e-05
4.854741849167631e-07,1.4312724346962366e-06,9.895831903309674e-07,1.581501429542369e-05
4.861157712910881e-07,1.43307135241782e-06,9.97568635284059e-07,1.6456917673311702e-05
4.869172245769307e-07,1.4349337146027545e-06,1.0063553512217159e-06,1.7119291565406567e-05
4.878543549590139e-07,1.4368440816469325e-06,1.01585222524547e-06,1.7798565846672257e-05
4.889022258790025e-07,1.4387690260161584e-06,1.0259818359863826e-06,1.849134514462268e-05
4.900340693128426e-07,1.4406604235609712e-06,1.036681002831348e-06,1.9194420155615092e-05
4.912224789804454e-07,1.4424594250820881e-06,1.0478925802799655e-06,1.9904731420902937e-05
4.924436057147684e-07,1.4440998635085663e-06,1.0595612293715028e-06,2.0619319501468126e-05
4.93681509764483e-07,1.4455119660141662e-06,1.0716437027921191e-06,2.1335283350346446e-05
4.949276069154917e-07,1.446629354038431e-06,1.0841274748351e-06,2.204973400179053e-05
4.961752226572941e-07,1.4473990281627326e-06,1.0970422094600608e-06,2.2759753581343306e-05
4.974146494237845e-07,1.4477896488531651e-06,1.1104541433801372e-06,2.3462405198560997e-05
4.98631981936722e-07,1.4477929567043231e-06,1.1244462080699117e-06,2.41547769445256e-05
4.998103882126187e-07,1.4474162991897278e-06,1.1390942397031356e-06,2.483400316699069e-05
5.00931176992565e-07,1.4466712578465638e-06,1.1544494062620927e-06,2.5497280101660653e-05
5.019737501807745e-07,1.445566342866045e-06,1.1705329986276964e-06,2.6141912647556923e-05
5.02915869659703e-07,1.444105677494624e-06,1.1873409939963877e-06,2.6765368658448372e-05
5.037356011547836e-07,1.4422907862063541e-06,1.2048500380847614e-06,2.736528481950284e-05
5.044139528209271e-07,1.4401219201742015e-06,1.2230202415398474e-06,2.7939399503155537e-05
5.049358027752581e-07,1.437597856555951e-06,1.2417953432524864e-06,2.848547264808453e-05
5.052882932386246e-07,1.4347190608622506e-06,1.26110281114667e-06,2.900126911669738e-05
5.054585748177353e-07,1.431494852808525e-06,1.2808563151158152e-06,2.948460960797577e-05
5.054327044510444e-07,1.4279447480584654e-06,1.300960475769034e-06,2.993347096010639e-05
5.051956074523412e-07,1.4240898063641659e-06,1.3213169224490792e-06,3.0346137816060742e-05
5.047316828830854e-07,1.4199433004360755e-06,1.3418318420004156e-06,3.072135738604942e-05
5.04026739086155e-07,1.4155089075081046e-06,1.3624241316515556e-06,3.105838943743328e-05
5.030717329084238e-07,1.4107827663974203e-06,1.3830318396960787e-06,3.135691626228038e-05
5.018662292043848e-07,1.405753885742097e-06,1.403612821652122e-06,3.161687497829967e-05
5.004187869990436e-07,1.4004043971348294e-06,1.4241364640602302e-06,3.183828431412097e-05
4.987442061039605e-07,1.394711034215297e-06,1.4445704714384e-06,3.2021133330680186e-05
4.968593632899001e-07,1.3886482717330827e-06,1.464870130792561e-06,3.216535663003225e-05
4.947795209230743e-07,1.382195065530562e-06,1.4849748112555225e-06,3.227085772767624e-05
4.925165446102848e-07,1.375343424764903e-06,1.5048129551788892e-06,3.233760617785947e-05
4.900788398888272e-07,1.3681047899404471e-06,1.524311344060009e-06,3.236591400386076e-05
4.874722062700346e-07,1.3605099307752464e-06,1.5434013457584712e-06,3.235679890782538e-05
4.847015175333178e-07,1.3525995939314894e-06,1.5620196636676419e-06,3.231211479453676e-05
4.817726572972265e-07,1.344412532685689e-06,1.5801082685930315e-06,3.223435103365551e-05
4.786934265084629e-07,1.3359792681395705e-06,1.5976164260739191e-06,3.2126316647392264e-05
4.754731757016568e-07,1.3273209020347377e-06,1.61449974480873e-06,3.199088087276857e-05
4.7212336655045204e-07,1.3184515241698556e-06,1.6307128128106849e-06,3.1830860508498765e-05
4.6866145439458225e-07,1.3093827632867477e-06,1.6462019574231737e-06,3.1649162771474076e-05
4.651161750606636e-07,1.3001247229459128e-06,1.6609059442594369e-06,3.144907033341144e-05
4.6152891919905346e-07,1.2906855628946423e-06,1.6747627757497241e-06,3.1234347552517825e-05
4.5794889172522574e-07,1.2810804104832846e-06,1.6877151388110688e-06,3.100909961234428e-05
4.5442668712323273e-07,1.271344893361256e-06,1.6997114886074787e-06,3.0777579886626903e-05
4.5101125262309226e-07,1.2615342092997156e-06,1.7107040534915986e-06,3.0544031503254884e-05
4.477482356650932e-07,1.2517070474623676e-06,1.720645976450765e-06,3.031253107194918e-05
4.4467715716327496e-07,1.2419133764961436e-06,1.7294904116636643e-06,3.0086850426938678e-05
4.418294390789203e-07,1.232196168240501e-06,1.7371917563459014e-06,2.9870379662425732e-05
4.392283338656808e-07,1.222605004436063e-06,1.7437072683901074e-06,2.9666117936594854e-05
4.3688958992193526e-07,1.2132145666347788e-06,1.7489996630927101e-06,2.9476702561252478e-05
4.348230809042529e-07,1.2041343216028985e-06,1.7530400629039098e-06,2.930441068889704e-05
4.3303519078101063e-07,1.1955024532389759e-06,1.7558071119978923e-06,2.91510866898594e-05
4.315295786083871e-07,1.1874725114456973e-06,1.7572817902499333e-06,2.901803989135125e-05
4.3030610293506316e-07,1.1802011865798544e-06,1.7574431688216594e-06,2.8905979682585566e-05
4.293603325257292e-07,1.173836696577572e-06,1.7562682748674447e-06,2.8815020518590307e-05
4.2868434693374073e-07,1.168506147670987e-06,1.7537346263867062e-06,2.8744785956456463e-05
4.2826807604961185e-07,1.1643051157191441e-06,1.749824002709449e-06,2.8694589801994604e-05
4.2810059411335187e-07,1.1612936399019585e-06,1.7445268455355428e-06,2.866359735197705e-05
4.281701932442415e-07,1.159497927589502e-06,1.737844760404082e-06,2.865090561361941e-05
4.2846307032209797e-07,1.1589140197450643e-06,1.7297889844052517e-06,2.865558793649972e-05
4.289629140814716e-07,1.159511801173782e-06,1.7203778259117291e-06,2.867675930988184e-05
4.296520803782277e-07,1.161241428647852e-06,1.709638355857535e-06,2.8713623418902087e-05
4.3051187173134097e-07,1.1640438691321282e-06,1.6976117757659462e-06,2.876544932714693e-05
4.3152125242506705e-07,1.167859648336648e-06,1.684357414285007e-06,2.8831509915427088e-05
4.3265602174195997e-07,1.172628704731283e-06,1.6699556015571674e-06,2.8911007463950866e-05
4.3388970197438367e-07,1.178286526979133e-06,1.6545125178791969e-06,2.9002973756480188e-05
4.351958163260827e-07,1.184765639080265e-06,1.6381622512642957e-06,2.910620541156264e-05
4.365496781114415e-07,1.1920029353558063e-06,1.6210578364732474e-06,2.9219301627116644e-05
4.3792828112276754e-07,1.1999491550120038e-06,1.6033537979708118e-06,2.934074645077649e-05
4.3931010952796575e-07,1.2085745783889593e-06,1.58519296395131e-06,2.946895688162345e-05
4.4067635412659776e-07,1.2178636617820802e-06,1.5667037078388768e-06,2.9602312252112654e-05
4.4201216746111536e-07,1.227800247294605e-06,1.5480009626813882e-06,2.9739205301023524e-05
4.43306717392873e-07,1.2383552727338541e-06,1.529184470011333e-06,2.9878078124835608e-05
4.445520495345722e-07,1.2494845730800106e-06,1.510335957941004e-06,3.001736957857301e-05
4.4574174934845507e-07,1.2611322014487959e-06,1.4915198720634304e-06,3.015540562176347e-05
4.4686975233701565e-07,1.273232933083724e-06,1.4727886196575697e-06,3.0290352442723768e-05
4.4792857503938114e-07,1.2857133130457918e-06,1.4541902155557463e-06,3.04202824994916e-05
4.489077544153293e-07,1.2984913579649988e-06,1.4357760429359017e-06,3.0543302211338523e-05
4.497938076588231e-07,1.3114773552120322e-06,1.4176055551217653e-06,3.0657705728867755e-05
4.50571267740315e-07,1.3245795957512354e-06,1.3997459723042968e-06,3.076214691647725e-05
4.5122411881618575e-07,1.3377099398475256e-06,1.3822690439579315e-06,3.0855742451177546e-05
4.517377103014553e-07,1.3507821756908008e-06,1.3652476005480305e-06,3.093801426955721e-05
4.521002011369794e-07,1.3637071979021878e-06,1.3487513418620562e-06,3.100869735810698e-05
