4.0260694945620424e-07,1.224803055754121e-06,1.2416309749023751e-06,2.231067517786853e-05
4.020680113516609e-07,1.2120821318617257e-06,1.25294014015072e-06,2.2205588584371148e-05
4.0136025463743524e-07,1.199044400824775e-06,1.2650231800198868e-06,2.2096369715423166e-05
4.004939247105981e-07,1.1857396128313805e-06,1.2779406827307326e-06,2.1983657501226207e-05
3.994802779295498e-07,1.1722346137204636e-06,1.2917583964831314e-06,2.1868103438279607e-05
3.9833118192596974e-07,1.1586041441679832e-06,1.3065312430230656e-06,2.1750484248959813e-05
3.970595267037661e-07,1.1449189990473579e-06,1.3222891457495337e-06,2.1631748257949887e-05
3.956803791695158e-07,1.131239308235689e-06,1.3390296316097911e-06,2.151299700290432e-05
3.942120037274128e-07,1.1176157734836669e-06,1.356717885948948e-06,2.139548644845306e-05
3.92675409255858e-07,1.1040938547089504e-06,1.375289335497867e-06,2.128057716500657e-05
3.9109202456461064e-07,1.0907134988262987e-06,1.394651835476871e-06,2.1169606583319157e-05
3.894811660827114e-07,1.0775057933279106e-06,1.414689155373504e-06,2.1063783952547493e-05
3.878591832444917e-07,1.064492373589706e-06,1.4352681084845075e-06,2.0964130013592592e-05
3.8624015552397096e-07,1.0516866518769885e-06,1.4562475332780236e-06,2.0871412637128e-05
3.846374640363869e-07,1.0390939125319529e-06,1.4774828357888809e-06,2.0786084088184438e-05
3.8306637279321133e-07,1.026712398084618e-06,1.498824593704627e-06,2.070826921687082e-05
3.815462192770817e-07,1.014537904666153e-06,1.5201188630187628e-06,2.0637815105025846e-05
3.801005367172761e-07,1.0025689857408866e-06,1.5412149699060791e-06,2.0574356130688212e-05
3.787553188628173e-07,9.908081001259509e-07,1.5619770356099286e-06,2.0517354591309217e-05
3.7753543867794384e-07,9.792606325565564e-07,1.5822916153412368e-06,2.0466127393188003e-05
3.764612101377747e-07,9.679371158399508e-07,1.6020674545254115e-06,2.04198839354195e-05
3.75548401039108e-07,9.568570823769606e-07,1.6212292702564463e-06,2.037776867087369e-05
3.7481004312636133e-07,9.46048670627846e-07,1.6397094512245891e-06,2.0338883477201665e-05
3.742567179917954e-07,9.355427307926598e-07,1.6574399037433144e-06,2.0302287294539832e-05
3.738960722586705e-07,9.253651771421879e-07,1.674346563919524e-06,2.026699630710002e-05
3.737328587092824e-07,9.155321964589948e-07,1.690349196052531e-06,2.0231998603413173e-05
3.737683635976852e-07,9.060506509482496e-07,1.705366323300768e-06,2.0196286768440413e-05
3.7399941389746325e-07,8.969231698821829e-07,1.7193224884737134e-06,2.0158909524965988e-05
3.744190906396933e-07,8.881552952033964e-07,1.7321533174689453e-06,2.0119016413915805e-05
3.7501850088184573e-07,8.797592269017694e-07,1.7438043896508788e-06,2.007586692772761e-05
3.7578739045232064e-07,8.717507735298672e-07,1.7542257258740828e-06,2.002882317911052e-05
3.7671458666177843e-07,8.641450518229988e-07,1.7633690957184548e-06,1.997736988831828e-05
3.7779013546924393e-07,8.569565242139434e-07,1.7711905642445926e-06,1.9921164257345028e-05
3.7900722652424976e-07,8.501998213347694e-07,1.77765235081752e-06,1.9860068058495732e-05
3.80361642906373e-07,8.4388811664243e-07,1.7827201265529239e-06,1.9794132025758487e-05
3.818502683736465e-07,8.380309488396881e-07,1.7863594727752174e-06,1.972355431815197e-05
3.834699526442285e-07,8.326325794717137e-07,1.7885355637669803e-06,1.9648629590117025e-05
3.852160569490778e-07,8.276914404678831e-07,1.7892146744938736e-06,1.9569677953618685e-05
3.8708069094300343e-07,8.232008721272089e-07,1.7883646588990715e-06,1.9486969895769312e-05
3.890513292479856e-07,8.191487871171069e-07,1.7859551199529225e-06,1.9400682670930155e-05
3.91110650197616e-07,8.155160786748193e-07,1.7819591119088158e-06,1.9310904568364528e-05
3.932377132802133e-07,8.122775300315694e-07,1.7763559180901912e-06,1.9217669357184787e-05
3.954093700741097e-07,8.094065932407173e-07,1.7691331633813015e-06,1.9120972138084245e-05
3.976013805478644e-07,8.06880544134689e-07,1.760287462812278e-06,1.902078145958397e-05
3.9979011395275547e-07,8.046813003156779e-07,1.7498245915093117e-06,1.8917115379874144e-05
4.0195516667530043e-07,8.027913848640606e-07,1.7377593199660515e-06,1.881013776515503e-05
4.040808968058329e-07,8.011891294348674e-07,1.724113908896742e-06,1.870016312216353e-05
4.0615505126225466e-07,7.998469609964132e-07,1.7089176397806529e-06,1.8587567193455398e-05
4.081660919796238e-07,7.98733944122075e-07,1.6922104578829306e-06,1.84726801577563e-05
4.1010206027079284e-07,7.978210783208242e-07,1.6740473243640943e-06,1.835572572709104e-05
4.1195126900321923e-07,7.970865902989111e-07,1.6544967693569346e-06,1.8236865334634453e-05
4.1370317700482633e-07,7.96519117338075e-07,1.6336344115913333e-06,1.811633424079453e-05
4.1534838451807964e-07,7.961172244788071e-07,1.6115395439422728e-06,1.7994538659801196e-05
4.1687770911401975e-07,7.958846624771917e-07,1.588297403860264e-06,1.787202262732357e-05
4.18281243690934e-07,7.95823662866849e-07,1.5640017550022017e-06,1.7749343807412673e-05
4.1954872913647476e-07,7.959302161636373e-07,1.5387547698348811e-06,1.762694923415237e-05
4.2067110752412537e-07,7.961927893267062e-07,1.5126642771772449e-06,1.750512092009237e-05
4.216414585092138e-07,7.965924502376728e-07,1.485839953294536e-06,1.7384002598372087e-05
4.2245459513711755e-07,7.971028626157608e-07,1.4583923152659667e-06,1.7263662185295818e-05
4.2310668866002346e-07,7.976925012072618e-07,1.4304330253495338e-06,1.7144160473924432e-05
4.235950822279225e-07,7.9833067899432e-07,1.4020716306350438e-06,1.702567204782562e-05
4.2391739350038685e-07,7.989926661568524e-07,1.3734112475984145e-06,1.6908655493097188e-05
4.2407136532338107e-07,7.996592001166447e-07,1.3445475927162628e-06,1.6793913140622463e-05
4.240560494931403e-07,8.003125605989813e-07,1.3155702739550542e-06,1.668244043106282e-05
4.2387196400152093e-07,8.009339789150178e-07,1.2865648459011615e-06,1.6575188442030544e-05
4.235198401001732e-07,8.015049194978963e-07,1.2576152375071853e-06,1.6472914531137642e-05
4.229998056526382e-07,8.02010915871408e-07,1.228805387772559e-06,1.6376231929172736e-05
4.2231192177557307e-07,8.02443286882977e-07,1.2002190489963532e-06,1.6285896485492314e-05
4.214576321476367e-07,8.027965917780009e-07,1.1719383221344341e-06,1.6203163019221542e-05
4.204401638221097e-07,8.030645941581974e-07,1.1440442678597015e-06,1.612991687353646e-05
4.1926319460282223e-07,8.032372011267035e-07,1.116620161338741e-06,1.606852017856996e-05
4.1792999190062314e-07,8.032990407759988e-07,1.0897526292081327e-06,1.6021564462846572e-05
4.164442367144273e-07,8.032299812666759e-07,1.0635279569634977e-06,1.5991668080970858e-05
4.148117062932975e-07,8.030066680398146e-07,1.038025838195272e-06,1.5981320133942364e-05
4.130412823182379e-07,8.026041577465144e-07,1.0133157071341332e-06,1.5992749645060724e-05
4.111440701255081e-07,8.019970918853294e-07,9.894574846998431e-07,1.6027827469483234e-05
4.091314962032818e-07,8.011608051315687e-07,9.665022515832809e-07,1.608800869431653e-05
4.070137593889182e-07,8.000749613423505e-07,9.444913475345757e-07,1.6174303041085794e-05
4.04798823770482e-07,7.987287792955874e-07,9.234568310900429e-07,1.628725107073114e-05
4.0249258249928457e-07,7.971230048905259e-07,9.034229300431171e-07,1.6426896354001807e-05
4.0010032906442243e-07,7.952671747651356e-07,8.844071316748889e-07,1.6592785660240976e-05
3.976273687337585e-07,7.931753250462866e-07,8.664216209413992e-07,1.678403896072963e-05
3.950780494364946e-07,7.908656979643329e-07,8.494740391005255e-07,1.6999480933494046e-05
3.924559622031715e-07,7.883648591686524e-07,8.335675621929684e-07,1.7237799880615185e-05
3.89766702244132e-07,7.857076981189849e-07,8.187043948178988e-07,1.749770078558087e-05
3.870205109496251e-07,7.829303691777255e-07,8.048914973488754e-07,1.7778004793523832e-05
3.842317649121754e-07,7.800651241658328e-07,7.921400862697569e-07,1.8077665953539875e-05
3.8141639912727305e-07,7.771423391353577e-07,7.804578571980648e-07,1.839573713577837e-05
3.785896290065267e-07,7.741963091441446e-07,7.698434526338003e-07,1.8731330693762715e-05
3.757639127775301e-07,7.71271429851888e-07,7.602875195808976e-07,1.90835627972762e-05
3.7294767787215685e-07,7.684252819835122e-07,7.517749171621365e-07,1.9451457300109805e-05
3.701456353359479e-07,7.657248149144139e-07,7.442845860346449e-07,1.983384756795974e-05
3.673602923869953e-07,7.632375389082379e-07,7.377887068975208e-07,2.0229323646373145e-05
3.645941998689984e-07,7.610238935101816e-07,7.322523981875633e-07,2.0636209806216688e-05
3.618510037119101e-07,7.591354592282306e-07,7.276334429846445e-07,2.1052551251978456e-05
3.5913423937517645e-07,7.576192864599927e-07,7.238814990435348e-07,2.147612494423893e-05
3.5644615453241184e-07,7.565249706772039e-07,7.209379199424704e-07,2.1904481093980614e-05
3.5378762941303775e-07,7.559115777260676e-07,7.187372713267346e-07,2.233501025797094e-05
3.511580689804392e-07,7.558515554787214e-07,7.172092502574826e-07,2.276503268814346e-05
3.485551667720702e-07,7.5642816612535e-07,7.162798177616015e-07,2.3191886462102635e-05
3.459752038193364e-07,7.577269699588351e-07,7.158722096867312e-07,2.361297576240752e-05
3.434150593247569e-07,7.59825530540488e-07,7.159087279487004e-07,2.402576098334596e-05
3.4087560807277175e-07,7.62784620585538e-07,7.163128970707545e-07,2.4427721452895307e-05
3.3836246829569685e-07,7.666423545618045e-07,7.17010450642206e-07,2.481635570959812e-05
3.358828708796021e-07,7.714126884688641e-07,7.179298370650824e-07,2.5189262852016586e-05
3.334431668042368e-07,7.770890829562848e-07,7.190048708394405e-07,2.5544255526137475e-05
3.310497023931625e-07,7.836503356278073e-07,7.20179244478056e-07,2.5879382282467103e-05
3.287109122374495e-07,7.910650675397707e-07,7.214105975138272e-07,2.6192842040998915e-05
3.2643723064612236e-07,7.992951106348376e-07,7.226725838817997e-07,2.648291577973064e-05
3.2423837332278983e-07,8.08296912151122e-07,7.239543539344266e-07,2.6747991504071625e-05
3.2212117074530925e-07,8.180188816155154e-07,7.252594943974494e-07,2.6986648738275172e-05
3.200901918558456e-07,8.283990993962411e-07,7.266062541620095e-07,2.7197740374459132e-05
3.1814926546131226e-07,8.393694968328644e-07,7.280257811710232e-07,2.738042028788177e-05
3.163018637930953e-07,8.508649783945687e-07,7.29555369400444e-07,2.7534105242189757e-05
3.145513256642861e-07,8.628332394173323e-07,7.312298226158575e-07,2.7658392844715747e-05
3.129012069386964e-07,8.752438330619352e-07,7.330759240366023e-07,2.7752984621766554e-05
3.11355707122868e-07,8.880940733658986e-07,7.351137033574715e-07,2.781772753026627e-05
3.099212380416189e-07,9.01406350341424e-07,7.373649715879393e-07,2.785283250924666e-05
3.0860735515249764e-07,9.152139238180628e-07,7.398635337606548e-07,2.7859097075753057e-05
3.074246798001263e-07,9.295431887779364e-07,7.426605168581598e-07,2.7837880062612237e-05
3.0638143443185677e-07,9.444052945709698e-07,7.458231268485841e-07,2.7790844077722773e-05
3.054814202641536e-07,9.59797406528587e-07,7.494288289854199e-07,2.7719742355873974e-05
3.047239948197988e-07,9.75706186400528e-07,7.53557925682757e-07,2.762637241475855e-05
3.0410475389616336e-07,9.921132676217323e-07,7.582869274873134e-07,2.7512540369927502e-05
3.036157931014216e-07,1.0090014176949882e-06,7.636831346982891e-07,2.7379957455870003e-05
3.0324564978535763e-07,1.0263536654717268e-06,7.697995447358706e-07,2.723016396108729e-05
3.0297969883739826e-07,1.044145553790794e-06,7.766717717269955e-07,2.7064528681378878e-05
3.028018995190952e-07,1.0623418233493314e-06,7.843192534827401e-07,2.688427925948962e-05
3.026981051573202e-07,1.0809034803134372e-06,7.927482855273355e-07,2.669051620369877e-05
3.026589839788163e-07,1.099796897344705e-06,8.019539030096641e-07,2.648421360524901e-05
3.026797965005013e-07,1.1189959835732612e-06,8.119202260489476e-07,2.6266239872893134e-05
3.027576178027721e-07,1.1384789814623115e-06,8.22619357313954e-07,2.603740377057623e-05
3.028898489598449e-07,1.1582237969512128e-06,8.340109076745698e-07,2.579850224514873e-05
3.030752221145672e-07,1.1782017324764515e-06,8.46043507576873e-07,2.5550370958723142e-05
3.0331436249067817e-07,1.19837074241954e-06,8.5865652530848e-07,2.5293953030190328e-05
3.036086751970921e-07,1.2186728358842242e-06,8.717811605236574e-07,2.503035219147967e-05
3.039594255321377e-07,1.2390368648448427e-06,8.853415521371563e-07,2.476079920043124e-05
3.043677690510641e-07,1.259382636414193e-06,8.9925862133973e-07,2.448651852618026e-05
3.04834789560351e-07,1.2796240537389622e-06,9.134594802134716e-07,2.420858155586769e-05
3.0536100701738374e-07,1.2996713068875714e-06,9.278877765199364e-07,2.392782905857615e-05
3.059454923339857e-07,1.3194309310534729e-06,9.425066033867191e-07,2.36448609864064e-05
3.065853936561172e-07,1.3388043183254478e-06,9.57291526183163e-07,2.3360067144488964e-05
3.072771829567518e-07,1.357688846162497e-06,9.72219520465135e-07,2.307368920211133e-05
3.0801869954799063e-07,1.375983713480102e-06,9.872648236814137e-07,2.2785901305093798e-05
3.088090908130924e-07,1.393596668267632e-06,1.0024053752698556e-06,2.2496886383785932e-05
3.0964683139353226e-07,1.4104480410111596e-06,1.017629546769535e-06,2.220688281652149e-05
3.105289010900165e-07,1.4264721907680862e-06,1.0329349190681256e-06,2.1916202347831126e-05
3.1145168891887694e-07,1.4416160154524459e-06,1.0483224155181786e-06,2.1625236350799162e-05
3.1241112186760396e-07,1.4558354677981931e-06,1.0637901125747813e-06,2.13344382375594e-05
3.134015640100706e-07,1.4690930764722415e-06,1.079327539281394e-06,2.104426861983656e-05
3.144164613117399e-07,1.4813561488182619e-06,1.0949129730981777e-06,2.075513627688371e-05
3.15451672527862e-07,1.4925947189572159e-06,1.1105172927493055e-06,2.0467383335093647e-05
3.165077850034445e-07,1.502782365934673e-06,1.126110664258135e-06,2.0181318606678948e-05
3.175885025657611e-07,1.5119006901824232e-06,1.1416628534749026e-06,1.9897247524214012e-05
3.186974244818897e-07,1.5199426544175042e-06,1.157136994656838e-06,1.961545484722766e-05
3.198365742448523e-07,1.5269116688402314e-06,1.172485225430111e-06,1.9336170461482307e-05
3.210065631172226e-07,1.532817356510817e-06,1.1876498989915152e-06,1.905956842702528e-05
3.222071680178914e-07,1.5376705426206712e-06,1.2025676252982315e-06,1.878578964591084e-05
3.234380967661093e-07,1.5414798902444568e-06,1.2171726735385442e-06,1.8514992976493547e-05
3.246995751930275e-07,1.5442502833162202e-06,1.2313979733802885e-06,1.8247493752032007e-05
3.259921419618043e-07,1.5459835288366876e-06,1.245173965384163e-06,1.7983939879075454e-05
3.2731599340257164e-07,1.5466829619900812e-06,1.2584275736507628e-06,1.7725353642853825e-05
3.2867093318469637e-07,1.5463585526775863e-06,1.27108306302102e-06,1.7472988789375212e-05
3.300571115448968e-07,1.5450278036689025e-06,1.283064484781157e-06,1.7228122856843227e-05
3.314758591919735e-07,1.5427141131890397e-06,1.2942999558363682e-06,1.6991893203581472e-05
3.3292964499860175e-07,1.5394457229672452e-06,1.3047269211352465e-06,1.6765202252816406e-05
3.344204106364618e-07,1.5352539981323306e-06,1.3142947632149998e-06,1.6548699946655938e-05
3.3594724350060875e-07,1.5301696060243675e-06,1.3229643475055154e-06,1.6342839107930977e-05
3.3750528159035374e-07,1.524219016347085e-06,1.330707915038048e-06,1.6147955808997823e-05
3.390863302350907e-07,1.517423940765471e-06,1.337509422651698e-06,1.5964366502211614e-05
3.406804449023345e-07,1.5098032149701415e-06,1.3433620684315313e-06,1.5792480604862996e-05
3.4227699960561377e-07,1.5013752548528569e-06,1.3482631730286278e-06,1.5632834926800253e-05
3.438643974499539e-07,1.4921600636399437e-06,1.3522113874972266e-06,1.5486004993710486e-05
3.454296762598284e-07,1.4821839132026534e-06,1.355209012522398e-06,1.5352458918152535e-05
3.469588083217916e-07,1.47148942367033e-06,1.3572649412906205e-06,1.5232457462263675e-05
3.48437311445087e-07,1.460144993100388e-06,1.3583925527832877e-06,1.51261509271646e-05
3.4985111449288576e-07,1.4482461055211578e-06,1.3586046946796295e-06,1.5033903537005634e-05
3.5118744861849707e-07,1.4359068092122081e-06,1.3579111630365458e-06,1.4956585891860019e-05
3.5243534529315477e-07,1.4232437613846184e-06,1.35631806514667e-06,1.4895583917906659e-05
3.535852370053247e-07,1.4103610295312538e-06,1.3538274599174498e-06,1.4852596962873529e-05
3.546280156813479e-07,1.3973440674818578e-06,1.3504398039062417e-06,1.4829422725222699e-05
3.5555506431298273e-07,1.3842621818515044e-06,1.346158458591284e-06,1.4827796818361234e-05
3.563595171704165e-07,1.3711747930009458e-06,1.3409911837785305e-06,1.4849272386532571e-05
3.570379145989428e-07,1.358139158527842e-06,1.33494791217109e-06,1.4895134065151044e-05
3.5759111273926905e-07,1.3452152195031976e-06,1.3280383157590072e-06,1.4966351190822375e-05
3.5802299727175225e-07,1.3324632095236824e-06,1.320271059651257e-06,1.5063571813792154e-05
3.583383321697192e-07,1.3199384177055928e-06,1.3116556757768587e-06,1.518714234848352e-05
3.585422044595682e-07,1.3076910318113743e-06,1.3022065989652171e-06,1.5337098614788064e-05
3.58639916941312e-07,1.2957693077234137e-06,1.2919454936724629e-06,1.5513096428580058e-05
3.586359355295146e-07,1.2842182594909316e-06,1.2808991952456311e-06,1.5714352772035236e-05
3.585332736099061e-07,1.2730750392977265e-06,1.2690956553992884e-06,1.5939694629127544e-05
3.583340303923488e-07,1.2623677642654647e-06,1.2565615050040435e-06,1.618771816513897e-05
3.5804018693915745e-07,1.2521163245416051e-06,1.2433215385002473e-06,1.6456969451047755e-05
3.576542396920385e-07,1.2423318911904057e-06,1.2293985771871315e-06,1.6746063625628392e-05
3.5717955195349576e-07,1.2330177665003963e-06,1.2148135901239029e-06,1.7053732267541418e-05
3.5662047688597577e-07,1.224171794861993e-06,1.1995870587320569e-06,1.7378831576161313e-05
3.5598275258521386e-07,1.2157869008804336e-06,1.1837418513643212e-06,1.772033419290102e-05
3.5527323962059343e-07,1.2078491013283437e-06,1.16730589216284e-06,1.807730972013324e-05
3.544982433649837e-07,1.2003358704752995e-06,1.1503120211439618e-06,1.8448894301568685e-05
3.5366209969691647e-07,1.1932169836234274e-06,1.1327957056889272e-06,1.883424930769656e-05
3.5276685618816475e-07,1.1864563454817889e-06,1.114794270528415e-06,1.9232510269338957e-05
3.518127125010107e-07,1.1800127444241265e-06,1.0963482987073787e-06,1.96427163840784e-05
3.5080005239812065e-07,1.1738406088288558e-06,1.077501826886898e-06,2.0063703988099367e-05
3.497324887616727e-07,1.1678927991803398e-06,1.058299910045169e-06,2.0494007309035512e-05
3.486179670896995e-07,1.1621230225898337e-06,1.0387866157909125e-06,2.0931847490463973e-05
3.474675525632829e-07,1.1564851088642805e-06,1.0190052229702794e-06,2.1375206855925754e-05
3.4629395676893674e-07,1.1509320839762822e-06,9.989984706481242e-07,2.182192228062467e-05
3.451101393882936e-07,1.1454171323406036e-06,9.788084940215781e-07,2.226977356530352e-05
3.439288777578245e-07,1.13989616555339e-06,9.584782240116137e-07,2.271657328662301e-05
3.4276395366019386e-07,1.1343350926015877e-06,9.380540206456692e-07,2.316021574125105e-05
3.416303660088385e-07,1.1287203262173628e-06,9.175882100398708e-07,2.359863631292584e-05
3.4054282238599855e-07,1.1230614566903251e-06,8.971403588481773e-07,2.40297416862403e-05
3.395146282560081e-07,1.1173812985879455e-06,8.767761152665798e-07,2.4451399121252538e-05
3.385571969457993e-07,1.111702462550156e-06,8.565628650611105e-07,2.4861460457003853e-05
3.3767918326171e-07,1.1060410430180191e-06,8.365637011965351e-07,2.525778034236623e-05
3.3688548946846384e-07,1.100410564760769e-06,8.16833904856422e-07,2.5638293700351776e-05
3.3617696044980104e-07,1.0948327078463283e-06,7.974218067457169e-07,2.600118706429003e-05
3.3555078630413406e-07,1.0893469176406245e-06,7.783712911240103e-07,2.634503432672802e-05
3.350010915425176e-07,1.0840107747602977e-06,7.597228968031969e-07,2.666876914059185e-05
3.345194850036446e-07,1.0788911220300959e-06,7.415129191544587e-07,2.6971530367368296e-05
3.3409622574386055e-07,1.074054268735141e-06,7.237726738163225e-07,2.725249697586279e-05
3.337231627575897e-07,1.0695594420432069e-06,7.065304819115209e-07,2.7510798922050158e-05
3.333971068274626e-07,1.0654535325396892e-06,6.898149358483885e-07,2.77455138702588e-05
3.3311997334270896e-07,1.0617689675245126e-06,6.736559246909344e-07,2.7955686694635144e-05
3.3289565728609e-07,1.0585273706706829e-06,6.580826550533979e-07,2.8140365001736797e-05
3.327280351675642e-07,1.0557452042629654e-06,6.43120474618465e-07,2.8298750909670814e-05
3.3262186170126165e-07,1.0534365276087098e-06,6.287897999063711e-07,2.8430437430142432e-05
3.325836110176112e-07,1.05161201644741e-06,6.151101894535558e-07,2.8535496928830462e-05
3.326201073253089e-07,1.05027581713031e-06,6.021077633426076e-07,2.8614344171135504e-05
3.327358896855059e-07,1.0494228334469594e-06,5.89818959606686e-07,2.866753613403112e-05
3.3293128117012465e-07,1.0490378593177371e-06,5.782861086245268e-07,2.8695644746431946e-05
3.332021021808772e-07,1.049094921789937e-06,5.675490235867044e-07,2.8699308355518407e-05
3.335403875464722e-07,1.0495559880674313e-06,5.576397152256977e-07,2.8679513648003614e-05
3.339357329395372e-07,1.0503716127614143e-06,5.485815625215429e-07,2.8637889931740307e-05
3.3437728784918924e-07,1.0514845241884674e-06,5.403900109553051e-07,2.8576734060723717e-05
3.348553410620248e-07,1.0528344502535652e-06,5.330734654178672e-07,2.8498806341090778e-05
3.3536168135620013e-07,1.05436447865767e-06,5.266358006166933e-07,2.840710808743245e-05
3.358893466619104e-07,1.0560288918739256e-06,5.210805798252599e-07,2.8304717134074267e-05
3.364328961172577e-07,1.0577971453882492e-06,5.164138322007838e-07,2.819466475489188e-05
3.3698957091787574e-07,1.0596491085435159e-06,5.12643529479154e-07,2.8079835592203557e-05
3.3755983496649344e-07,1.061565728755761e-06,5.09777444532718e-07,2.796287523490288e-05
3.38145462179698e-07,1.0635244955884654e-06,5.078204507704775e-07,2.7846121217983565e-05
3.387464040113109e-07,1.0655028835224285e-06,5.067706000596719e-07,2.7731573602245118e-05
3.3935912029997055e-07,1.0674849351015504e-06,5.066162630651662e-07,2.7620869544031603e-05
3.399765514832502e-07,1.0694649517032198e-06,5.073376356174354e-07,2.7515230343462708e-05
3.405886153818843e-07,1.0714450030938988e-06,5.089104771108491e-07,2.7415422423433412e-05
3.4118282170465434e-07,1.0734295089173272e-06,5.113080205143508e-07,2.7321790489769892e-05
3.417448843789267e-07,1.0754237242726546e-06,5.145002476921505e-07,2.7234355313765688e-05
3.422596206993113e-07,1.0774359487040824e-06,5.184509666030733e-07,2.7152933151956995e-05
3.427130429686218e-07,1.0794790323405241e-06,5.231149779067113e-07,2.7077263929446883e-05
3.430958660451064e-07,1.0815692956916209e-06,5.284387413237345e-07,2.700713993081565e-05
3.4340679814166786e-07,1.083721786833453e-06,5.343632818069333e-07,2.6942500567545734e-05
3.43653443720046e-07,1.0859446331008798e-06,5.408263857948043e-07,2.688348095869477e-05
3.438497223859516e-07,1.088238579830739e-06,5.477649642725622e-07,2.683042519544545e-05
3.440109941249916e-07,1.0906032495458871e-06,5.551184314048096e-07,2.678385769904888e-05
3.441509357891657e-07,1.09304628425497e-06,5.628321297525397e-07,2.674441271562369e-05
3.442822520124179e-07,1.0955895955617997e-06,5.708606294687045e-07,2.671273426483457e-05
3.4441764974824927e-07,1.0982693163664758e-06,5.791694092039218e-07,2.668934906524422e-05
3.44568973993635e-07,1.1011292610282349e-06,5.877315628062605e-07,2.667453505760297e-05
3.447480287776937e-07,1.1042096812998656e-06,5.96520791394641e-07,2.666824529794076e-05
3.4496964515268397e-07,1.107539869355599e-06,6.055065626113119e-07,2.667012048041475e-05
3.452519772622084e-07,1.1111429796637852e-06,6.146531753078836e-07,2.6679552260254065e-05
3.456124761228655e-07,1.115046688742065e-06,6.239208393750153e-07,2.6695752061426665e-05
3.460638945041625e-07,1.1192867630444012e-06,6.332691886710995e-07,2.671781395860165e-05
3.46614138391614e-07,1.1239000853457304e-06,6.426621487786433e-07,2.6744756920342363e-05
3.472700675509523e-07,1.1289139778784974e-06,6.520697119823785e-07,2.677552103918884e-05
3.480416000852361e-07,1.1343422080534625e-06,6.614655870841657e-07,2.68089250760478e-05
3.489416725430713e-07,1.1401893985698825e-06,6.708235578596625e-07,2.684363887492551e-05
3.4998303559117205e-07,1.1464535075084296e-06,6.801142018529096e-07,2.6878201731591856e-05
3.511754175566818e-07,1.1531224771422631e-06,6.893029838440606e-07,2.6911069042443234e-05
3.525233639495455e-07,1.1601732578201776e-06,6.98351214635596e-07,2.69406762216299e-05
3.540255249336125e-07,1.1675770220366413e-06,7.072190576233078e-07,2.696553669188891e-05
3.5567704283642114e-07,1.1753071255470966e-06,7.158677954921905e-07,2.6984362214146336e-05
3.574728511874312e-07,1.1833464292316105e-06,7.242601315331393e-07,2.699611232458798e-05
3.5940849386215857e-07,1.1916899834790951e-06,7.323592386248821e-07,2.6999916632986115e-05
3.614797363009672e-07,1.2003394251741819e-06,7.401278162676344e-07,2.699496031624409e-05
3.6368386513776327e-07,1.2092927742792768e-06,7.475277512669232e-07,2.6980439779435957e-05
3.660206972278178e-07,1.2185417615743195e-06,7.545200240503159e-07,2.6955585076661624e-05
3.6849010447170036e-07,1.228082099031354e-06,7.610658895071531e-07,2.6919682389208092e-05
3.710879338695971e-07,1.2379260795255446e-06,7.671301043544606e-07,2.6872056818582472e-05
3.738038683228222e-07,1.2481067521935772e-06,7.726831834417744e-07,2.681206562233725e-05
3.766226132458655e-07,1.2586717117567751e-06,7.777008964840137e-07,2.673922122351318e-05
3.795281203732527e-07,1.269667830587273e-06,7.821634116200249e-07,2.665342228322983e-05
3.8250670714423787e-07,1.281125141345998e-06,7.860551679657119e-07,2.6555060637075838e-05
3.855456038790239e-07,1.2930511216865285e-06,7.893638507707915e-07,2.644488680138931e-05
3.886304986844347e-07,1.305434593906307e-06,7.920777693468726e-07,2.6323769750244158e-05
3.9174501587069626e-07,1.3182499844273457e-06,7.941838534540928e-07,2.6192502482989966e-05
3.948703435736316e-07,1.3314592354363527e-06,7.956692822715277e-07,2.6051759260020678e-05
3.979850102430972e-07,1.345013632728639e-06,7.965254487639832e-07,2.5902287848905333e-05
4.010667667673737e-07,1.358854391169648e-06,7.967491012411744e-07,2.574519951037569e-05
4.040958816003425e-07,1.3729117100273479e-06,7.963397926501165e-07,2.5582057538894e-05
4.070575121046087e-07,1.3871059366427919e-06,7.952990015284908e-07,2.5414711074252856e-05
4.099428318618886e-07,1.4013509324765487e-06,7.936335779996096e-07,2.5245089020680075e-05
4.127486095228057e-07,1.415555862326367e-06,7.913596529000906e-07,2.507509008866838e-05
4.1547393323108586e-07,1.429625489415553e-06,7.88503158053496e-07,2.4906526654230614e-05
4.1811639046707135e-07,1.4434628675108275e-06,7.850965726965071e-07,2.4741057715114323e-05
4.206709719751829e-07,1.4569744614893659e-06,7.811745728841872e-07,2.4580122411898613e-05
4.2313061359354156e-07,1.470071907632393e-06,7.767743185084164e-07,2.442490553729797e-05
4.254870013935995e-07,1.48266805884307e-06,7.719423093535624e-07,2.427632272754822e-05
4.2773171664713313e-07,1.494673571301144e-06,7.667419137431961e-07,2.41349994602004e-05
4.2985640369450247e-07,1.5059988433631971e-06,7.612560539009776e-07,2.4001247178818835e-05
4.318514916754017e-07,1.5165583679216943e-06,7.555840973795253e-07,2.3875060476867208e-05
4.3370524400216855e-07,1.5262734486405828e-06,7.498343846632513e-07,2.375613922449228e-05
4.3540460926588146e-07,1.535071803050444e-06,7.441150041060369e-07,2.364392554503544e-05
4.3693775992277433e-07,1.542884374665132e-06,7.38525224375026e-07,2.3537669162835377e-05
4.382960713603637e-07,1.549641977526273e-06,7.331510012158877e-07,2.3436521115970238e-05
4.3947319946255036e-07,1.5552745679976626e-06,7.280662189224061e-07,2.3339603991630163e-05
4.404631387480363e-07,1.5597127265476981e-06,7.233352035583312e-07,2.3246024506120512e-05
4.412610903083071e-07,1.562889012404693e-06,7.190122218506066e-07,2.315486307575282e-05
4.4186682482293453e-07,1.5647392298495454e-06,7.151392604094491e-07,2.30651824456519e-05
4.422866620577582e-07,1.5652056669803899e-06,7.117450330627127e-07,2.2976050270396022e-05
4.4253209155405245e-07,1.564241116532355e-06,7.088453448051577e-07,2.288655096218912e-05
4.426168431042941e-07,1.5618100899236338e-06,7.064431733897844e-07,2.2795786507738628e-05
4.4255503177079886e-07,1.5578871487514109e-06,7.04529406476318e-07,2.2702875881651706e-05
4.4236238817705003e-07,1.5524548524467198e-06,7.030871688582879e-07,2.260695503273332e-05
4.420605851094137e-07,1.5455032129475138e-06,7.020994807134854e-07,2.2507208042144174e-05
4.416796893290896e-07,1.5370307836781871e-06,7.015561118296388e-07,2.2402935640606408e-05
4.4125395402836783e-07,1.5270450031009698e-06,7.014567112934642e-07,2.229358072303222e-05
4.408146374194881e-07,1.515561359986167e-06,7.018105858300547e-07,2.2178679548079222e-05
4.4038636217406186e-07,1.5026045457234802e-06,7.026336292441585e-07,2.2057824855925285e-05
4.3998708852678634e-07,1.488211602789447e-06,7.039429435007353e-07,2.193069590050189e-05
4.3962894646118277e-07,1.4724323266150395e-06,7.057514605323202e-07,2.1797090712631456e-05
4.393190775722865e-07,1.455325463928947e-06,7.080645610389164e-07,2.165688235072828e-05
4.3906048166903497e-07,1.436955547548994e-06,7.108789191387639e-07,2.1509946068378108e-05
4.38852801324969e-07,1.4173926829468828e-06,7.141822564391335e-07,2.1356161691245733e-05
4.3869272511497096e-07,1.3967117234825584e-06,7.179525691409173e-07,2.1195499922673136e-05
4.385741751496411e-07,1.3749895474845696e-06,7.221578661282873e-07,2.102814300060809e-05
4.3848924568552676e-07,1.3523041551189123e-06,7.267581357239429e-07,2.0854617362729346e-05
4.3843124205491706e-07,1.3287371075557035e-06,7.317086460332895e-07,2.067588728295284e-05
4.383990250003332e-07,1.3043760109912695e-06,7.369626098054115e-07,2.0493306422056784e-05
4.383992271057472e-07,1.27931632196968e-06,7.424727742789065e-07,2.0308405310573955e-05
4.384462234538988e-07,1.2536637471169389e-06,7.481920448801374e-07,2.0122641256412013e-05
4.3856214594681547e-07,1.2275334212148303e-06,7.540732251283409e-07,1.993726140882011e-05
4.38774999539709e-07,1.2010434143378407e-06,7.600697578664498e-07,1.975329851455721e-05
4.3911309137275284e-07,1.174308351205007e-06,7.66138415191718e-07,1.9571594628466267e-05
4.396001999966937e-07,1.1474392327098592e-06,7.722405466547999e-07,1.939279617010605e-05
4.4025557321338293e-07,1.1205479996575405e-06,7.783393317846895e-07,1.921741175402848e-05
4.4109626697532557e-07,1.0937512012699466e-06,7.843961800375392e-07,1.9046068461881604e-05
4.4213797108763637e-07,1.0671689334966484e-06,7.903697678277508e-07,1.8879919977929588e-05
4.4339397862114507e-07,1.0409196395323456e-06,7.962162567154688e-07,1.8720915441463472e-05
4.448734017043745e-07,1.0151150804838704e-06,8.018888932685405e-07,1.857171951962123e-05
4.4657951621151287e-07,9.898575927920166e-07,8.073380730262638e-07,1.8435405589277213e-05
4.485099379494989e-07,9.652382713327456e-07,8.125123092772487e-07,1.831513933299147e-05
4.5065931591367024e-07,9.413360933835376e-07,8.173593609971841e-07,1.8213917969835142e-05
4.530210215233094e-07,9.18218951340023e-07,8.218277428926381e-07,1.8134386709307652e-05
4.5558531532339174e-07,8.959463507603583e-07,8.258696651261506e-07,1.8078795382464747e-05
4.5833736791787824e-07,8.745721983948151e-07,8.294444174146969e-07,1.8049053151027802e-05
4.612581146077673e-07,8.541455597165869e-07,8.325186136692569e-07,1.80467686186141e-05
4.643267700390804e-07,8.347087378186116e-07,8.35063131935217e-07,1.8073279615590374e-05
4.67522656686636e-07,8.162938273500857e-07,8.370510259555952e-07,1.812970799272852e-05
4.7082447864914744e-07,7.989195982418032e-07,8.384574852670279e-07,1.82170049233932e-05
4.742077308250313e-07,7.825901538465383e-07,8.392594336320156e-07,1.833597941476144e-05
4.776430894572e-07,7.672964033916912e-07,8.394344704114126e-07,1.8487338570458007e-05
4.81097097744564e-07,7.530209630705188e-07,8.389604449659081e-07,1.867174394374425e-05
4.845350364459042e-07,7.397443711500455e-07,8.378165180128292e-07,1.8889876235327302e-05
4.879245447615775e-07,7.274496665525525e-07,8.359863917583698e-07,1.9142485870089253e-05
4.912366686586773e-07,7.161252211899987e-07,8.334628436187946e-07,1.9430387161795152e-05
4.944436472191797e-07,7.05765411113628e-07,8.302501921685877e-07,1.975438204792036e-05
4.975173278607247e-07,6.963682806605839e-07,8.263621820743984e-07,2.0115135855594525e-05
5.004313229727166e-07,6.879320534890518e-07,8.218172173638516e-07,2.051303252619969e-05
5.031643688310675e-07,6.804517754977109e-07,8.166349438626938e-07,2.0948029878887e-05
5.056998993641883e-07,6.739154933309388e-07,8.108350691608964e-07,2.1419516823438103e-05
5.080222643952659e-07,6.683009855149689e-07,8.044367737597289e-07,2.192619046468466e-05
5.101143539854975e-07,6.635754995678009e-07,7.974592771766297e-07,2.2466026098702814e-05
5.11958132053801e-07,6.596988033814185e-07,7.899246737712369e-07,2.303639243265198e-05
5.135358944873925e-07,6.566271068990361e-07,7.818603525791368e-07,2.3634267850493444e-05
5.148315247277272e-07,6.543150565896308e-07,7.732989741939502e-07,2.425645547256885e-05
5.158324484478278e-07,6.52714983235301e-07,7.642773172856189e-07,2.489972367945225e-05
5.165301432960214e-07,6.517758112152939e-07,7.548338671495717e-07,2.5560875060241945e-05
5.169176715932368e-07,6.514446400432563e-07,7.450055282293144e-07,2.623676314941128e-05
5.169875492778059e-07,6.516712428713722e-07,7.348261510564071e-07,2.692423075792877e-05
5.167321505274701e-07,6.524136388465007e-07,7.243274482219923e-07,2.761997854491075e-05
5.161445005816153e-07,6.536434183437482e-07,7.135422272369594e-07,2.832046233695481e-05
5.152178819452328e-07,6.553489379257818e-07,7.02509673337501e-07,2.9021884893884508e-05
5.139457053725896e-07,6.575324311411225e-07,6.912783225829832e-07,2.972024871676161e-05
5.12322851873455e-07,6.602008926328992e-07,6.799029238472148e-07,3.041142748201701e-05
5.103466421188539e-07,6.63356621536665e-07,6.684383542359956e-07,3.109124346945452e-05
5.080160862495312e-07,6.669931904513397e-07,6.569370614355618e-07,3.17555551141526e-05
5.053313673677945e-07,6.710969355167466e-07,6.454519003352896e-07,3.240038468707694e-05
5.022947915153918e-07,6.756494698699536e-07,6.340398993726874e-07,3.3022084526232994e-05
4.989124461469035e-07,6.806310158090965e-07,6.227627333384653e-07,3.3617464970648315e-05
4.951959021648348e-07,6.860260795609122e-07,6.11684319840111e-07,3.418384258252143e-05
4.911639534276178e-07,6.918252626454241e-07,6.008675912120958e-07,3.471904048498973e-05
4.86844610587396e-07,6.98019602552031e-07,5.903713528803557e-07,3.522134165451289e-05
4.822751018300851e-07,7.045960455305972e-07,5.802476435278936e-07,3.568938509223221e-05
4.774983993221311e-07,7.115416038668719e-07,5.705409651238599e-07,3.612203838400984e-05
4.7255979566151334e-07,7.188514515825798e-07,5.612894628456604e-07,3.6518278324819536e-05
4.6750496193545505e-07,7.265323498344584e-07,5.525250453393587e-07,3.687711004223949e-05
4.6237757732928135e-07,7.345995455747912e-07,5.442730544910532e-07,3.719757609416853e-05
4.572175031305629e-07,7.430703731850764e-07,5.365559154396006e-07,3.747884949376372e-05
4.5206028143113845e-07,7.519574728863912e-07,5.293984060736129e-07,3.7720322929761854e-05
4.469373047314672e-07,7.612632546506926e-07,5.22827545582466e-07,3.792163901885647e-05
4.41876879405227e-07,7.709763489847832e-07,5.168671830436813e-07,3.808265932022522e-05
4.3690456709717596e-07,7.810703794432066e-07,5.115350968551632e-07,3.8203401517831e-05
4.3204181223226364e-07,7.915052260864613e-07,5.068477590196712e-07,3.8284014377805215e-05
4.273054773061649e-07,8.022292776358195e-07,5.02828336699391e-07,3.8324792610626486e-05
4.2271027732395284e-07,8.131808020801198e-07,4.995112576649143e-07,3.832617565303762e-05
4.182728631536352e-07,8.242890310056871e-07,4.969430988287385e-07,3.828872687224169e-05
4.1401443812105455e-07,8.354758976159613e-07,4.951820416742834e-07,3.8213095077795614e-05
4.099605386897352e-07,8.46657862786015e-07,4.942949534216141e-07,3.809994702714544e-05
4.0613895300844796e-07,8.577481659478241e-07,4.943505315923094e-07,3.794990732424975e-05
4.025763169028405e-07,8.686614377349139e-07,4.954107211240144e-07,3.776356453812089e-05
3.992945982658939e-07,8.793206430601276e-07,4.975239077110277e-07,3.7541535960864006e-05
3.9630914274221065e-07,8.896629230282661e-07,5.007206826609993e-07,3.7284528717561456e-05
3.936283772433206e-07,8.996417538592835e-07,5.050131017197811e-07,3.699336183349889e-05
3.9125537764370897e-07,9.0922515072895e-07,5.10398072218625e-07,3.666894735110904e-05
3.891907965829053e-07,9.183898950235357e-07,5.16860222987006e-07,3.63122595824891e-05
3.874350620818436e-07,9.271143390885493e-07,5.24370330155447e-07,3.592433324916725e-05
3.859893186416133e-07,9.353748181042849e-07,5.328831080913638e-07,3.5506283524802826e-05
3.8485497578231503e-07,9.431465112951332e-07,5.423395086380076e-07,3.5059304938304965e-05
3.840310181312222e-07,9.504043029788328e-07,5.526753261256851e-07,3.458463468733429e-05
3.835108605032629e-07,9.571217748971113e-07,5.638347650179803e-07,3.408350932178917e-05
3.8328166238829787e-07,9.632732264759398e-07,5.757814530095524e-07,3.355715445803358e-05
3.833262042590839e-07,9.688418204686415e-07,5.884992461935346e-07,3.3006826617520305e-05
3.8362518874023206e-07,9.738281976743604e-07,6.01985374641891e-07,3.243388167952865e-05
3.841582067358856e-07,9.782539258630993e-07,6.162436532928174e-07,3.1839828121882176e-05
3.849034219103916e-07,9.821599139129726e-07,6.312795056498029e-07,3.1226359013604505e-05
3.858370935210453e-07,9.855992561844056e-07,6.470930085129971e-07,3.059536766325533e-05
3.8693374680799407e-07,9.886253019009889e-07,6.636703618675742e-07,2.9948931634042988e-05
3.88167469057809e-07,9.912831344559508e-07,6.809796502914477e-07,2.9289245029393816e-05
3.895136937580353e-07,9.936107849019544e-07,6.98971723416277e-07,2.8618509357161137e-05
3.909495380052126e-07,9.956456837603307e-07,7.175813084054973e-07,2.79388537444956e-05
3.924525729806229e-07,9.97429135000144e-07,7.36727248746313e-07,2.7252333606568256e-05
3.940006128288446e-07,9.99008105714469e-07,7.563140358683661e-07,2.656095828031769e-05
3.955748530854791e-07,1.0004367079510798e-06,7.762347500466153e-07,2.586668308682301e-05
3.971643517150878e-07,1.0017752995793292e-06,7.963751940270251e-07,2.517136678144598e-05
3.987662920514267e-07,1.0030838662558115e-06,8.166207378706015e-07,2.44767630447611e-05
4.003809412693615e-07,1.004413000217517e-06,8.368668737599271e-07,2.378459797505701e-05
4.02006998313574e-07,1.0057978383238814e-06,8.57029886732378e-07,2.3096650682372875e-05
4.0364255916630724e-07,1.0072556989844434e-06,8.77049839445332e-07,2.241472605399676e-05
4.052890170438078e-07,1.0087865912487894e-06,8.968828733339628e-07,2.174056570677876e-05
4.069506004992375e-07,1.01037792784681e-06,9.164888255669719e-07,2.107580866036453e-05
4.086295388177671e-07,1.0120152057662072e-06,9.358219574965012e-07,2.042202573982155e-05
4.1032275045732326e-07,1.0136930552304656e-06,9.54829239782411e-07,1.978080207699166e-05
4.1202205187390563e-07,1.015416178093087e-06,9.734562348415606e-07,1.9153817314706038e-05
4.13716809770044e-07,1.0171915617860978e-06,9.91654360710589e-07,1.854284388332304e-05
4.15396859845976e-07,1.0190252029484845e-06,1.0093823633949716e-06,1.7949658611797092e-05
4.170532947741381e-07,1.020930658965066e-06,1.0266038223921237e-06,1.7375931722606595e-05
4.1867810999820706e-07,1.0229442899856406e-06,1.0432870242410115e-06,1.6823132180706235e-05
4.202641590068757e-07,1.025137326318554e-06,1.059406163814908e-06,1.6292511378419166e-05
4.218044603490597e-07,1.0276186646253907e-06,1.0749387198082592e-06,1.5785216963014387e-05
4.232910017659904e-07,1.0305291542812808e-06,1.089859572111543e-06,1.5302441503935994e-05
4.2471426122319577e-07,1.0340301627353465e-06,1.1041369564655278e-06,1.4845460911102719e-05
4.2606373001696456e-07,1.038285852002907e-06,1.117732950003568e-06,1.4415558079997171e-05
4.273289944849442e-07,1.0434424386060618e-06,1.1306074713734637e-06,1.401393311447147e-05
4.284998732813314e-07,1.0496162396829625e-06,1.1427233709949354e-06,1.364167765909988e-05
4.295651598035723e-07,1.0568952906388808e-06,1.1540495057085308e-06,1.3299806217888462e-05
4.3051198288079605e-07,1.065346035554152e-06,1.1645601056603114e-06,1.2989274610350251e-05
4.3132700523192426e-07,1.0750192108499566e-06,1.1742322875633864e-06,1.2710957756693332e-05
4.319988480252396e-07,1.0859544976419577e-06,1.1830440232605508e-06,1.2465661386633467e-05
4.3252086749299385e-07,1.0981803832976842e-06,1.1909730893503949e-06,1.2254240058724088e-05
4.3289353588071507e-07,1.111707435421468e-06,1.1979970929765793e-06,1.2077712555380573e-05
4.3312516438707457e-07,1.1265215738180872e-06,1.204093398123996e-06,1.193719499142716e-05
4.3322890261950884e-07,1.1425833389419574e-06,1.2092378396933208e-06,1.1833689434350724e-05
4.3321750518374465e-07,1.1598299415080726e-06,1.2134041019878141e-06,1.176787818520244e-05
4.3310135020690787e-07,1.1781781847904038e-06,1.2165650064254977e-06,1.1740004939841472e-05
4.328902149036658e-07,1.1975308438296645e-06,1.2186936712987952e-06,1.1749953706020321e-05
4.325939320370933e-07,1.2177817406267585e-06,1.2197637376456735e-06,1.1797551058365105e-05
4.322204877493017e-07,1.2388152279845356e-06,1.219750589635797e-06,1.1882836378521065e-05
4.317747180139861e-07,1.2605068613757574e-06,1.2186342430807691e-06,1.2006064715579075e-05
4.3125930606018496e-07,1.2827293006644626e-06,1.21640237758657e-06,1.216753962883862e-05
4.3067603066948223e-07,1.3053570940398665e-06,1.2130517302638551e-06,1.2367459710981185e-05
4.300260974978046e-07,1.3282660270870087e-06,1.208587224769562e-06,1.2605802049485655e-05
4.2931063969813754e-07,1.351330092665793e-06,1.2030204379049692e-06,1.2882213086399104e-05
4.2853075302575395e-07,1.3744199701495665e-06,1.196369413794243e-06,1.3195908419470474e-05
4.276862831078119e-07,1.3974063085249942e-06,1.1886597626075944e-06,1.3545603631286025e-05
4.2677566116935614e-07,1.4201672194254763e-06,1.1799263956205612e-06,1.392951232440979e-05
4.2579842977756024e-07,1.4425911773828257e-06,1.1702142279120998e-06,1.4345411850117047e-05
4.2475807388333037e-07,1.4645716015966415e-06,1.1595751718181533e-06,1.4790722724746767e-05
4.236624186269501e-07,1.4860010444347969e-06,1.1480635063283456e-06,1.5262565020916594e-05
4.225223730819557e-07,1.5067699806086597e-06,1.1357332986485956e-06,1.5757809186237837e-05
4.213506557097238e-07,1.5267692619717604e-06,1.122636792223748e-06,1.6273125962330042e-05
4.2016067334316617e-07,1.5458947196802794e-06,1.1088230188798558e-06,1.6805016228020347e-05
4.1896610929716173e-07,1.56404927444557e-06,1.094338179963554e-06,1.7349847000258897e-05
4.177814612285374e-07,1.5811394712270191e-06,1.0792282275861226e-06,1.7903919726099013e-05
4.166224130584728e-07,1.5970717023277418e-06,1.0635412574574051e-06,1.8463536361211443e-05
4.1550587364473406e-07,1.6117557787416231e-06,1.0473262053829387e-06,1.902504641398129e-05
4.14450274010204e-07,1.62511517645021e-06,1.0306296838315917e-06,1.95848906883489e-05
4.1347475109658e-07,1.6370943467801919e-06,1.0134957522327295e-06,2.013962400268703e-05
4.125964142870618e-07,1.6476572949385294e-06,9.959684858004559e-07,2.0685904685382685e-05
4.1182867462824774e-07,1.656781810876841e-06,9.780948260451906e-07,2.1220479898471022e-05
4.11182179000721e-07,1.6644557183119724e-06,9.599259547975334e-07,2.174018851672449e-05
4.1066562157670567e-07,1.6706766030567253e-06,9.415149779665352e-07,2.224198262614838e-05
4.1028498132589186e-07,1.6754514754076362e-06,9.229125044272185e-07,2.272295888576211e-05
4.100425295450422e-07,1.6787936363242109e-06,9.041663987605369e-07,2.3180383451093992e-05
4.0993686397188e-07,1.6807185373679732e-06,8.853273196319569e-07,2.361170746337341e-05
4.099638415889251e-07,1.681240709736943e-06,8.664542168870542e-07,2.4014583530442466e-05
4.101169413354649e-07,1.6803727454713518e-06,8.476156346695985e-07,2.4386879059977052e-05
4.10386420861744e-07,1.6781261093889997e-06,8.288880116059431e-07,2.4726675720495386e-05
4.107585706008564e-07,1.6745119597769224e-06,8.103519821684313e-07,2.5032266387428463e-05
4.112163267735725e-07,1.6695442085718132e-06,7.920869625270687e-07,2.5302168598937782e-05
4.117410236942979e-07,1.6632485238645138e-06,7.74166513852439e-07,2.553517623910528e-05
4.12314586239348e-07,1.6556714220133386e-06,7.566572993614015e-07,2.573045176886054e-05
4.129215339580083e-07,1.6468798059519216e-06,7.396230580691197e-07,2.58876042609316e-05
4.1354900669292577e-07,1.6369510702201366e-06,7.231320678116157e-07,2.600670107981069e-05
4.1418427350842354e-07,1.625961219646598e-06,7.072628951745318e-07,2.608822620316968e-05
4.1481291686640955e-07,1.6139769846274304e-06,6.921043418380139e-07,2.613305314788728e-05
4.1541989513071363e-07,1.6010532809619488e-06,6.777491249248991e-07,2.614245448491897e-05
4.1599160298573e-07,1.5872341700467966e-06,6.642833724372471e-07,2.611805412434035e-05
4.1651673796598e-07,1.5725557169488159e-06,6.517769482681166e-07,2.606166917341532e-05
4.16985979301821e-07,1.5570497594792494e-06,6.402791574490044e-07,2.597513857030673e-05
4.1739135084593184e-07,1.54074764957152e-06,6.298193603336187e-07,2.5860256590251708e-05
4.17725659212401e-07,1.5236850252375437e-06,6.204091288296944e-07,2.571881367581981e-05
4.1798194359390223e-07,1.5059071926504532e-06,6.120442038595836e-07,2.555264269437775e-05
4.1815291835116564e-07,1.4874692551025474e-06,6.047067387409578e-07,2.536358633056424e-05
4.1823103368554023e-07,1.4684296596641741e-06,5.983682260265976e-07,2.515343424544773e-05
4.18210048191355e-07,1.4488457871885637e-06,5.929925246555559e-07,2.492397976640708e-05
4.180879052707036e-07,1.428775923491833e-06,5.8853850581396e-07,2.467718671391576e-05
4.1786920429599253e-07,1.408281842257704e-06,5.849617817800053e-07,2.441523125892684e-05
4.175647026949189e-07,1.387428214445302e-06,5.822149462630677e-07,2.414032998614343e-05
4.171873906535051e-07,1.3662804910870555e-06,5.802469129970122e-07,2.3854534114416197e-05
4.1674833429157035e-07,1.3449023138272705e-06,5.790024506382625e-07,2.355967136907763e-05
4.1625511498284114e-07,1.3233535683432385e-06,5.784229017647522e-07,2.3257513985233607e-05
4.1571315957882577e-07,1.301690231356485e-06,5.784480271779586e-07,2.295013184422648e-05
4.151281869416884e-07,1.279964591098373e-06,5.79017067518946e-07,2.264020093092697e-05
4.145072935900415e-07,1.2582250271846866e-06,5.800681942192835e-07,2.2331022085158826e-05
4.138588690282065e-07,1.2365153743460856e-06,5.815375374318146e-07,2.2026273709067803e-05
4.131917679442608e-07,1.2148731709499823e-06,5.833593302652507e-07,2.1729702705405927e-05
4.1251271606432843e-07,1.1933283457105405e-06,5.854686733515315e-07,2.144487074666545e-05
4.118244265725804e-07,1.1719041577203682e-06,5.878055569103447e-07,2.1174963997447e-05
4.1112819918300436e-07,1.1506190488243531e-06,5.903157655371375e-07,2.0922657164122257e-05
4.104288935877176e-07,1.1294879913991563e-06,5.929479504836329e-07,2.069003309624037e-05
4.097368570236553e-07,1.1085243632400214e-06,5.956511292586479e-07,2.047856513537826e-05
4.090665114380077e-07,1.0877421178058243e-06,5.9837492506898e-07,2.0289154475851546e-05
4.0843410182260273e-07,1.0671556231764266e-06,6.010707200390803e-07,2.0122196640107397e-05
4.0785524195872265e-07,1.046777829601852e-06,6.036933388513714e-07,1.9977659063513784e-05
4.073446443378942e-07,1.0266201369836151e-06,6.062062073862547e-07,1.985516175913201e-05
4.0691864466330366e-07,1.0066939240126915e-06,6.085896682905055e-07,1.975405638699783e-05
4.065969990361924e-07,9.87011042859817e-07,6.108457044903737e-07,1.967351589625613e-05
4.064026056310161e-07,9.675829545932655e-07,6.129943215839279e-07,1.9612644492840187e-05
4.063597178008203e-07,9.484206841722729e-07,6.150647795201659e-07,1.9570577591256728e-05
4.064915588838906e-07,9.295361981341524e-07,6.170875020468039e-07,1.954651717798445e-05
4.068186210800144e-07,9.109432768734732e-07,6.190912199887926e-07,1.9539696504114773e-05
4.0735803240783294e-07,8.926567921769762e-07,6.211069950853821e-07,1.954934891336257e-05
4.081242421880326e-07,8.746916151686916e-07,6.23175024092158e-07,1.957473502782127e-05
4.0912957615855436e-07,8.57062252064134e-07,6.253478769599946e-07,1.9615179902728383e-05
4.1038285044412067e-07,8.397827723678262e-07,6.276873793671962e-07,1.967005787259942e-05
4.1188831166993644e-07,8.228659422142286e-07,6.302575239000535e-07,1.9738736319185945e-05
4.136465105484423e-07,8.063215904193831e-07,6.33118291468589e-07,1.9820508206858385e-05
4.1565475885791244e-07,7.901570017182032e-07,6.363214856389547e-07,1.991452381810173e-05
4.1790759886314366e-07,7.74383948788089e-07,6.399062851692387e-07,2.0019774572162424e-05
4.2039912487261025e-07,7.590324087330439e-07,6.438965688924868e-07,2.0135159135149912e-05
4.231243277752593e-07,7.441619726544943e-07,6.48303251044124e-07,2.0259544278071977e-05
4.260790995891261e-07,7.29860502948614e-07,6.531275268898536e-07,2.0391751792500383e-05
4.292633341425432e-07,7.162296683257694e-07,6.583605463649697e-07,2.053051330422507e-05
4.3268535284825476e-07,7.033696611097797e-07,6.639820082714094e-07,2.0674452047592998e-05
4.3636089492875864e-07,6.913741821239596e-07,6.699607615760038e-07,2.0822098861641243e-05
4.4030674263920853e-07,6.803320026689675e-07,6.762576355964833e-07,2.097191646538459e-05
4.445349500670992e-07,6.703271432192226e-07,6.828297684254979e-07,2.112232421519837e-05
4.490503597638743e-07,6.614372673918779e-07,6.896346077358255e-07,2.127172473412144e-05
4.538498506264905e-07,6.537318494721263e-07,6.966325565998337e-07,2.1418520617815227e-05
4.589220345661517e-07,6.472695792544396e-07,7.037891487300852e-07,2.1561140930304064e-05
4.642483576866428e-07,6.4209541540895e-07,7.110767124988024e-07,2.1698131640819645e-05
4.698061160337465e-07,6.382380240487021e-07,7.184741559147415e-07,2.182828264732784e-05
4.755708533355324e-07,6.357069810966093e-07,7.259641755261205e-07,2.195065389265168e-05
4.815168348050554e-07,6.344911439863514e-07,7.335288539143802e-07,2.2064454441668945e-05
4.876173172588609e-07,6.345613185455533e-07,7.411455851542758e-07,2.216891264912749e-05
4.938450367626196e-07,6.358766806152157e-07,7.48784715735665e-07,2.2263259572816475e-05
5.00172223333059e-07,6.383910850528474e-07,7.564103605364441e-07,2.2346794938420028e-05
5.065698388087347e-07,6.420557206703288e-07,7.63983899406784e-07,2.2418953636334987e-05
5.130065874099053e-07,6.46816722224229e-07,7.714657430174046e-07,2.2479336903930226e-05
5.194495288337946e-07,6.526110680240061e-07,7.78814372554756e-07,2.2527707800132784e-05
5.258654222267934e-07,6.593673089955417e-07,7.859862451824108e-07,2.2564006875562588e-05
5.322200444431303e-07,6.670129202206277e-07,7.929362702037318e-07,2.2588445180327082e-05
5.384766553467747e-07,6.754822083774765e-07,7.996168816695694e-07,2.260157987483193e-05
5.445974750004633e-07,6.847182222193785e-07,8.059773274841699e-07,2.260424132618752e-05
5.505504785779653e-07,6.946684312164941e-07,8.119652703037526e-07,2.259735203477435e-05
5.563189408947017e-07,7.052784323192e-07,8.17532079398838e-07,2.258176374905711e-05
5.619062478555696e-07,7.164884655875893e-07,8.226429910259949e-07,2.255823589269411e-05
5.673309260169558e-07,7.282338087105899e-07,8.272888251232395e-07,2.2527644459615688e-05
5.726162073380836e-07,7.404456986885148e-07,8.314910154793744e-07,2.2491290638983226e-05
5.77784212372217e-07,7.53052262240469e-07,8.352952057296009e-07,2.2451025025391463e-05
5.828580480267071e-07,7.659807577657134e-07,8.387575070236296e-07,2.240912444802152e-05
5.878650250952099e-07,7.791591708581407e-07,8.419322389471966e-07,2.2368081515602177e-05
5.928360122572182e-07,7.925179490021989e-07,8.448658033313847e-07,2.233040402574486e-05
5.97802394954519e-07,8.059945045865235e-07,8.47594391120313e-07,2.2298430619644552e-05
6.027920329760829e-07,8.195366391119244e-07,8.501445038438241e-07,2.22741788610242e-05
6.078251713109067e-07,8.330993464543419e-07,8.52538092859388e-07,2.225924460079527e-05
6.129131129554395e-07,8.466379815866445e-07,8.547989388682952e-07,2.2254758114057568e-05
6.180599579715327e-07,8.601060501912619e-07,8.569543801427143e-07,2.2261401696235173e-05
6.232639286441966e-07,8.734592474872944e-07,8.590317500284193e-07,2.2279459533200078e-05
6.285168255323995e-07,8.866603399659021e-07,8.610531970244589e-07,2.2308849117565367e-05
6.338035743601639e-07,8.996803850850783e-07,8.630332919724598e-07,2.2349152656743802e-05
6.391042103517819e-07,9.124945944668249e-07,8.64980739268349e-07,2.239970620650901e-05
6.443983663861278e-07,9.250755810662621e-07,8.669010586651588e-07,2.2459729952643662e-05
6.496680625609471e-07,9.37389915735172e-07,8.687984286557226e-07,2.252844165034187e-05
6.548955017751196e-07,9.493985074888752e-07,8.706777930198036e-07,2.260514586458284e-05
6.600597822891378e-07,9.610580247966326e-07,8.725463339403341e-07,2.268930972234167e-05
6.651383904320039e-07,9.723230905007893e-07,8.7441244355282e-07,2.278061007363437e-05
6.701130409004764e-07,9.831471079868972e-07,8.762831878262142e-07,2.287895177812937e-05
6.749742312526935e-07,9.93481387025537e-07,8.781636630902924e-07,2.298446277275485e-05
6.797200061542612e-07,1.0032779083716113e-06,8.800590547293276e-07,2.309743510115101e-05
6.843496613874633e-07,1.0124962238232089e-06,8.819750591916705e-07,2.3218202178902262e-05
6.88857597691351e-07,1.0211078257751221e-06,8.839156926337746e-07,2.3347000990942888e-05
6.932313516756494e-07,1.0290937881236195e-06,8.858839846448412e-07,2.3483853131731867e-05
6.974534314861663e-07,1.036437950495558e-06,8.878877382053282e-07,2.362848107838213e-05
7.015049972337404e-07,1.043121224518503e-06,8.89945949089406e-07,2.3780311259645444e-05
7.053689900930214e-07,1.0491201631974364e-06,8.920908257250357e-07,2.393856339872653e-05
7.090304492355686e-07,1.0544084266897966e-06,8.943649073957434e-07,2.410233695285173e-05
7.124746740234897e-07,1.058959342303356e-06,8.968152870896124e-07,2.4270653155313567e-05
7.156854333641206e-07,1.062749117032972e-06,8.994859140042412e-07,2.444248282250972e-05
7.186450116513086e-07,1.06575973631387e-06,9.024117153160988e-07,2.461677971607408e-05
7.21336332442288e-07,1.0679800549642306e-06,9.056189198234314e-07,2.4792501841956e-05
7.237439752533722e-07,1.0694045430403609e-06,9.091284760061044e-07,2.496858121443023e-05
7.258526707959163e-07,1.0700308804456686e-06,9.129562101542677e-07,2.5143845138600385e-05
7.276461135785329e-07,1.069858280881764e-06,9.17108902919718e-07,2.5316953471236026e-05
7.291070622667887e-07,1.0688875146892469e-06,9.215804356718059e-07,2.548640036730533e-05
7.302176116803623e-07,1.067121826394664e-06,9.263514714086701e-07,2.565057706091403e-05
7.309594940136515e-07,1.064567189510913e-06,9.313916258818719e-07,2.580789367150709e-05
7.313152341218451e-07,1.0612321840299684e-06,9.3666172133652e-07,2.595694536604245e-05
7.312705742648461e-07,1.0571282207698321e-06,9.421166120556599e-07,2.609660988573027e-05
7.308157070377906e-07,1.052269902511243e-06,9.477079727128487e-07,2.6225972652532816e-05
7.299430829435009e-07,1.0466760045761957e-06,9.533842172366724e-07,2.634417099422922e-05
7.286450483206502e-07,1.0403703301537231e-06,9.590891467280243e-07,2.6450335041562937e-05
7.269158031693956e-07,1.033381492311785e-06,9.647636340924569e-07,2.6543653937915465e-05
7.247559093342494e-07,1.0257428609908158e-06,9.703494969242544e-07,2.662345920282463e-05
7.221740889444375e-07,1.0174923074208114e-06,9.757911788439064e-07,2.6689245472896446e-05
7.191853058028076e-07,1.0086703303614562e-06,9.810346095754296e-07,2.674063371380227e-05
7.158076222160252e-07,9.993171753002103e-07,9.860262209640076e-07,2.677735008372363e-05
7.120595101670534e-07,9.894700550065034e-07,9.907128820459185e-07,2.679929570492531e-05
7.079584967754202e-07,9.791627936550924e-07,9.950415233758916e-07,2.68066216530908e-05
7.035207671899891e-07,9.684317415917524e-07,9.989588189401579e-07,2.6799649770987306e-05
6.987603153779838e-07,9.573276125077005e-07,1.0024116158202672e-06,2.6778693108165883e-05
6.93688101564626e-07,9.459258334860737e-07,1.0053484515351525e-06,2.6743941347645854e-05
6.883124934014245e-07,9.343273229486617e-07,1.0077234548627349e-06,2.669547930447131e-05
6.826403984275324e-07,9.226485841020813e-07,1.0095019539135176e-06,2.663346636732874e-05
6.766780411222375e-07,9.110074755328536e-07,1.010663907153073e-06,2.6558386885903423e-05
6.704310805775479e-07,8.995124018635176e-07,1.011202663960421e-06,2.647112697642982e-05
6.639047992856529e-07,8.882581122665291e-07,1.011119833245225e-06,2.6372806636075806e-05
6.571063635915584e-07,8.773258609188869e-07,1.010419052897661e-06,2.626455577657847e-05
6.500488081297064e-07,8.66783939724704e-07,1.0091026499891178e-06,2.6147367804492106e-05
6.42753082742801e-07,8.566869142674428e-07,1.007172765826733e-06,2.602202248018e-05
6.352463484470389e-07,8.470747129849243e-07,1.0046344305033326e-06,2.5889069736532652e-05
6.275577686999435e-07,8.379732477754755e-07,1.0014990268249408e-06,2.574886221706896e-05
6.19715484091845e-07,8.293972020246684e-07,9.977882187220592e-07,2.5601583226285047e-05
6.117486969907773e-07,8.213562999803633e-07,9.935350218693425e-07,2.5447250648777082e-05
6.036911599493659e-07,8.138663975359044e-07,9.887793416336614e-07,2.5285738604536035e-05
5.955799523884636e-07,8.069626516300062e-07,9.835626037450815e-07,2.5116841743237522e-05
5.874522393534662e-07,8.007083546804881e-07,9.779266005222618e-07,2.494033896017039e-05
5.793443502689872e-07,7.951940685698343e-07,9.719141433197078e-07,2.4756002789375896e-05
5.712916754177537e-07,7.905277196123972e-07,9.655671724428812e-07,2.456357356233281e-05
5.633269033831908e-07,7.868208747877746e-07,9.589237127486383e-07,2.436276228465232e-05
5.554774762644844e-07,7.84174906587546e-07,9.520169664331015e-07,2.415329104665663e-05
5.477650827732702e-07,7.826692573082602e-07,9.448751590740801e-07,2.3934921387544984e-05
5.402074423063382e-07,7.823546648079177e-07,9.375203064831482e-07,2.3707456986604362e-05
5.328199561702388e-07,7.832527203731089e-07,9.299682676201394e-07,2.347075618854074e-05
5.256165038945943e-07,7.853591011281108e-07,9.222308813035116e-07,2.322476135311422e-05
5.186107975385311e-07,7.886473980008444e-07,9.143173638337064e-07,2.296951134343828e-05
5.118183552563147e-07,7.930739576262199e-07,9.062340127114578e-07,2.2705116607244392e-05
5.052567922275015e-07,7.985830671834809e-07,8.979846751846517e-07,2.243170851272396e-05
4.989440994464578e-07,8.051108457566326e-07,8.895756314984154e-07,2.214939429776653e-05
4.9289864616202e-07,8.12589695782098e-07,8.81024451446269e-07,2.185826468635224e-05
4.871426870628646e-07,8.20954455679594e-07,8.723657763965187e-07,2.155848339965026e-05
4.817058884300018e-07,8.301481948939835e-07,8.636497474503916e-07,2.125039872674151e-05
4.7662485848988106e-07,8.401242008341371e-07,8.549367904881943e-07,2.093456933650853e-05
4.719381534987438e-07,8.508415207744001e-07,8.462925639056494e-07,2.0611693150763142e-05
4.676802056003559e-07,8.622561052512104e-07,8.377835743847901e-07,2.02825176808578e-05
4.638790214790081e-07,8.743134047934375e-07,8.294731196709123e-07,1.9947778189815688e-05
4.6055826825010157e-07,8.869466368765434e-07,8.214176891363076e-07,1.960818611861741e-05
4.577397596621417e-07,9.000791801748111e-07,8.136662287516176e-07,1.9264520052871305e-05
4.554436847229298e-07,9.136265055707078e-07,8.062632785729304e-07,1.8917785321671203e-05
4.5368688872487525e-07,9.274972010884701e-07,7.992522126114688e-07,1.8569288529638788e-05
4.524808672978731e-07,9.415952843288229e-07,7.926747960211895e-07,1.822058096453437e-05
4.518316621957612e-07,9.558225973573909e-07,7.865665988392334e-07,1.7873353378851812e-05
4.5174116615054257e-07,9.700792420061034e-07,7.809516389452498e-07,1.7529311116561022e-05
4.5220687804555433e-07,9.84263117513535e-07,7.75840554002716e-07,1.7190039610628023e-05
4.5322016240451116e-07,9.982706575790014e-07,7.71232320686529e-07,1.6856921338648375e-05
4.547670350799637e-07,1.0119986845689778e-06,7.671165734400094e-07,1.653114411505099e-05
4.568347558403573e-07,1.025345311021386e-06,7.634745970147627e-07,1.621378211654649e-05
4.594202705586616e-07,1.0382095930470726e-06,7.602791897090469e-07,1.5905905497201377e-05
4.6253207168393955e-07,1.0504923543042144e-06,7.574949217963385e-07,1.56086606852818e-05
4.6618455719605607e-07,1.0620986236826551e-06,7.550795720094833e-07,1.532327441941911e-05
4.7039044042861654e-07,1.0729390249016158e-06,7.5298637539118e-07,1.5050993374441346e-05
4.7515566773691303e-07,1.0829295375775042e-06,7.51168837994869e-07,1.4792993524775117e-05
4.804782250710909e-07,1.0919916173176984e-06,7.49590543075184e-07,1.4550278499490814e-05
4.863475731914977e-07,1.100053757702489e-06,7.482353082955913e-07,1.432362838263312e-05
4.927427812043103e-07,1.1070557072796542e-06,7.471093367605073e-07,1.4113658940827643e-05
4.996321859517909e-07,1.1129554875508858e-06,7.462344939635608e-07,1.3920927594736255e-05
5.069755818226782e-07,1.1177340750074166e-06,7.456381871824312e-07,1.3745974633715344e-05
5.147271762331892e-07,1.1213926565882631e-06,7.453446168697056e-07,1.358928170913743e-05
5.22837630011825e-07,1.1239460122097592e-06,7.453695904136895e-07,1.3451182776679653e-05
5.312545022297436e-07,1.1254181102192076e-06,7.457194958669348e-07,1.3331770791581776e-05
5.399225112000332e-07,1.125839674682732e-06,7.463959507789457e-07,1.323086910177324e-05
5.487851757055465e-07,1.1252470132561229e-06,7.474050120825262e-07,1.3148087647058545e-05
5.57786319646544e-07,1.12368319704375e-06,7.487637024409708e-07,1.3082900469491533e-05
5.66869153304466e-07,1.1211990396378236e-06,7.50498869559688e-07,1.3034682292028075e-05
5.759742999472416e-07,1.1178516980591223e-06,7.526396475152977e-07,1.300269468632955e-05
5.850402459134453e-07,1.113701978591908e-06,7.552073220907179e-07,1.298605075341552e-05
5.940073345411213e-07,1.1088118420044849e-06,7.582079572672745e-07,1.2983691444487565e-05
6.028223110643561e-07,1.1032458609441618e-06,7.616311934556466e-07,1.2994385173433495e-05
6.114393512686051e-07,1.097078680279949e-06,7.654546310753826e-07,1.3016746804753e-05
6.198177462835736e-07,1.0904006838856964e-06,7.696516924429971e-07,1.3049279266467327e-05
6.279195979858122e-07,1.0833129482534524e-06,7.741992569060718e-07,1.3090450443426076e-05
6.357096967545861e-07,1.0759156425500307e-06,7.790807788470681e-07,1.3138790249961e-05
6.431574918901412e-07,1.0683005198342898e-06,7.842844846992445e-07,1.3192957324307692e-05
6.50238213922578e-07,1.0605489704115702e-06,7.897998755140355e-07,1.3251759288499835e-05
6.569305180808868e-07,1.0527306433276103e-06,7.956143711986351e-07,1.3314154810996401e-05
6.632129208508228e-07,1.0449032726682312e-06,8.017096642698984e-07,1.3379241529636025e-05
6.690626803274081e-07,1.0371178930056616e-06,8.080589370151594e-07,1.3446228667300967e-05
6.744567866598585e-07,1.0294286978289508e-06,8.146278968112409e-07,1.3514419961816028e-05
6.793726008427518e-07,1.0219026356272421e-06,8.213786466051863e-07,1.3583208444641935e-05
6.837875955021791e-07,1.0146236807646324e-06,8.282720916282411e-07,1.3652065186313393e-05
6.876791144383813e-07,1.0076885957981766e-06,8.352689829134627e-07,1.3720531006177965e-05
6.910245721625861e-07,1.0011972752921518e-06,8.423312704276494e-07,1.3788219318468967e-05
6.938022055699437e-07,9.95244300895432e-07,8.494214683371769e-07,1.3854814876899707e-05
6.959921072645887e-07,9.899135084925705e-07,8.564997368467945e-07,1.392005480637126e-05
6.975767224796807e-07,9.852751742660876e-07,8.635218330189701e-07,1.3983688441223515e-05
6.985405170064564e-07,9.813859768391922e-07,8.704385687084999e-07,1.4045448045592127e-05
6.988693969638591e-07,9.782894204804614e-07,8.771958274026094e-07,1.4105089505502835e-05
6.985506074864113e-07,9.76015488334406e-07,8.837351447646358e-07,1.4162466092516697e-05
6.975731871083357e-07,9.745815585388618e-07,8.899949337371006e-07,1.4217531539680851e-05
6.959285281973565e-07,9.739952180129572e-07,8.959127519190582e-07,1.4270295404996194e-05
6.936111518889948e-07,9.74257397391055e-07,9.014279922097095e-07,1.4320820872142307e-05
6.90620086432067e-07,9.753643319839362e-07,9.064834067243787e-07,1.4369267531394825e-05
6.869594739629284e-07,9.773070422461705e-07,9.11026292817042e-07,1.4415929855858444e-05
6.826372892463628e-07,9.800679858655169e-07,9.150098947223343e-07,1.4461203993633355e-05
6.776646330752832e-07,9.836165549555958e-07,9.183943061697698e-07,1.4505458196415564e-05
6.720570443006533e-07,9.879058738702865e-07,9.211497508880472e-07,1.4548899399609165e-05
6.658358919147733e-07,9.928722261271118e-07,9.232627697527651e-07,1.459152363211037e-05
6.590290862574069e-07,9.984372521072586e-07,9.247383039016623e-07,1.4633132489740869e-05
6.516718210777476e-07,1.0045126931776752e-06,9.255943677733005e-07,1.4673370803708227e-05
6.438074945268943e-07,1.011005667477323e-06,9.258553227735681e-07,1.4711769794903147e-05
6.354875651008549e-07,1.0178209956496707e-06,9.255490839663708e-07,1.4747791246858918e-05
6.267688675625004e-07,1.0248604000848128e-06,9.247061693191272e-07,1.4780856367430042e-05
6.177104685005017e-07,1.032022086010175e-06,9.233564870143369e-07,1.4810347573285974e-05
6.083727954553838e-07,1.0392030754578137e-06,9.215251609887487e-07,1.4835608141387698e-05
5.98816861387704e-07,1.0463033905290054e-06,9.192316885484023e-07,1.4855963689913725e-05
5.891013572565999e-07,1.053230568369345e-06,9.164926616049226e-07,1.4870744026391465e-05
5.792805898194054e-07,1.05990420165271e-06,9.133244474339672e-07,1.4879285136574334e-05
5.694071687410099e-07,1.0662576373721334e-06,9.097431624178169e-07,1.4880943116001134e-05
5.595380023401281e-07,1.0722340211479251e-06,9.057627169003216e-07,1.4875164789474073e-05
5.497373667028885e-07,1.0777813032733758e-06,9.013947825413956e-07,1.4861592192901276e-05
5.4007424995287e-07,1.0828527932128098e-06,8.966523184309746e-07,1.484012498155239e-05
5.306179900563054e-07,1.0874137564755458e-06,8.915522505553459e-07,1.4810912105985379e-05
5.214371572911964e-07,1.0914486938028777e-06,8.861146149072287e-07,1.4774277752171341e-05
5.126012286775926e-07,1.094962599389021e-06,8.803626141373173e-07,1.4730599475372339e-05
5.041793105073762e-07,1.0979754531078645e-06,8.743267817596581e-07,1.4680212320089926e-05
4.962345768112636e-07,1.1005146543723465e-06,8.680502637631997e-07,1.462337292214985e-05
4.888203465599303e-07,1.102608209861625e-06,8.61592389765316e-07,1.4560247877967236e-05
4.819803320440087e-07,1.104279429907092e-06,8.550296549694008e-07,1.4490922472896015e-05
4.7575003781529143e-07,1.105544165905219e-06,8.484505273636656e-07,1.4415438392903436e-05
4.7015700806667157e-07,1.1064107761236615e-06,8.419432145854484e-07,1.4333834260332047e-05
4.652203683494586e-07,1.1068814393101086e-06,8.355844476124626e-07,1.4246167011704981e-05
4.6095138398375597e-07,1.1069529820883634e-06,8.294355336471503e-07,1.4152529649542301e-05
4.573541846887494e-07,1.1066173830535951e-06,8.235428617364409e-07,1.4053071068093555e-05
4.5442523591766215e-07,1.1058633042475347e-06,8.179390654248874e-07,1.394798654500316e-05
4.521544091147597e-07,1.1046780709045506e-06,8.126442610195308e-07,1.3837476813040978e-05
4.505294625502922e-07,1.1030484868229427e-06,8.076678277329802e-07,1.3721713850087955e-05
4.495398348920082e-07,1.1009598502073947e-06,8.030107870031715e-07,1.3600834504189599e-05
4.49175206332796e-07,1.0983945497518582e-06,7.98667296480573e-07,1.3474961038104005e-05
4.494207125440308e-07,1.095333724027e-06,7.94625031999828e-07,1.3344231065377643e-05
4.5025433630564115e-07,1.0917639929992218e-06,7.908671554890185e-07,1.3208800381713315e-05
4.5164804377817477e-07,1.087687336433014e-06,7.873756765465548e-07,1.3068814102244086e-05
4.535719144195922e-07,1.0831296456055059e-06,7.841321270925275e-07,1.2924384116393244e-05
4.560001212835395e-07,1.0781418989743878e-06,7.811149623467489e-07,1.2775590605347067e-05
4.58913749572579e-07,1.072790154331147e-06,7.782973586061937e-07,1.2622497757856571e-05
4.6229743159066583e-07,1.067140174519026e-06,7.756474990649501e-07,1.246516934470159e-05
4.661349512694682e-07,1.0612482961182892e-06,7.731306767489119e-07,1.2303671375325545e-05
4.7040777693350106e-07,1.0551608046599585e-06,7.707122959713744e-07,1.2138067378938486e-05
4.750942986774851e-07,1.0489152192240617e-06,7.683614782205995e-07,1.1968419367030009e-05
4.80169683929335e-07,1.0425421600347851e-06,7.660546448206669e-07,1.1794797090122513e-05
4.85607356857674e-07,1.0360693984193585e-06,7.637774924437853e-07,1.1617293607721985e-05
4.913793804200512e-07,1.0295242597351571e-06,7.615242936639671e-07,1.1436044826647796e-05
4.974542930916567e-07,1.0229320803818972e-06,7.5929472515202e-07,1.125126162754076e-05
5.03794510727902e-07,1.0163140196987412e-06,7.570894719008844e-07,1.1063278007870247e-05
5.103556608359875e-07,1.0096858407380587e-06,7.549080252386302e-07,1.0872567169726424e-05
5.170892694248961e-07,1.003057370248861e-06,7.527497839296335e-07,1.0679684295171138e-05
5.23948925376386e-07,9.964353103651287e-07,7.50614137317907e-07,1.0485190322189502e-05
5.308958524296035e-07,9.898308639993395e-07,7.484981745462822e-07,1.028962358131964e-05
5.378988666211467e-07,9.832673907601537e-07,7.463961553517433e-07,1.0093519928515556e-05
5.449309176898003e-07,9.767817677995592e-07,7.443037694932844e-07,9.897454242854408e-06
5.519670503960508e-07,9.704179512735477e-07,7.422264633915386e-07,9.70204977129378e-06
5.589830186803822e-07,9.642170768141555e-07,7.401858271897794e-07,9.507931844818416e-06
5.659526152287893e-07,9.582112835673286e-07,7.382163987918677e-07,9.315689867769245e-06
5.728454968320335e-07,9.524235655806984e-07,7.363547968574682e-07,9.125877659698928e-06
5.796278588709739e-07,9.468695411927965e-07,7.34631212921097e-07,8.939020532481179e-06
5.862652298491017e-07,9.415596385728364e-07,7.330683738237985e-07,8.755636391293514e-06
5.927238717410276e-07,9.365025500529364e-07,7.316868757352447e-07,8.576272506812241e-06
5.989694043136086e-07,9.317082667411192e-07,7.305132390324958e-07,8.401522031151338e-06
6.049656141984092e-07,9.271907178098541e-07,7.295830981044237e-07,8.232018934721943e-06
6.106758223814924e-07,9.229712998231701e-07,7.289347665459537e-07,8.068425553036076e-06
6.160660456675067e-07,9.190808779864493e-07,7.285994927846712e-07,7.911396187698021e-06
6.211081484765167e-07,9.155578790563829e-07,7.285976603172404e-07,7.761518520561072e-06
6.257820989232114e-07,9.12444435483791e-07,7.289406600414294e-07,7.619269703785867e-06
6.300765234446593e-07,9.097824272232807e-07,7.296334733191523e-07,7.4850048777214215e-06
6.339861253293614e-07,9.076083720262941e-07,7.306784356585953e-07,7.358984293419464e-06
6.375073471121575e-07,9.059479452330252e-07,7.320810530949766e-07,7.241463461421469e-06
6.406353545575896e-07,9.04813229490893e-07,7.338533367939507e-07,7.132805750625327e-06
6.433630237804316e-07,9.04202473642572e-07,7.360104794845248e-07,7.033474589580376e-06
6.456816417690103e-07,9.040999590659228e-07,7.385630654192946e-07,6.943893373150029e-06
6.475823256512199e-07,9.044763201022007e-07,7.415116076517187e-07,6.864357559062629e-06
6.490564294498829e-07,9.052900821861263e-07,7.448460850201766e-07,6.795065530674136e-06
6.500949818153597e-07,9.064898343428032e-07,7.485467492955137e-07,6.736183488427078e-06
6.506884649935379e-07,9.080175592729559e-07,7.525842069152001e-07,6.687904683561607e-06
6.508277732188533e-07,9.098147921607832e-07,7.569203604487818e-07,6.650489613234878e-06
6.505057642199276e-07,9.118331109546332e-07,7.615106846947231e-07,6.624255960509884e-06
6.497179429499307e-07,9.140468074075107e-07,7.663060498565956e-07,6.609506242877874e-06
6.484633773704699e-07,9.16460281449242e-07,7.712529809495691e-07,6.6064429727629476e-06
6.46747636313109e-07,9.191038200909404e-07,7.762945105381469e-07,6.615137624594059e-06
6.445848914941506e-07,9.220187427546484e-07,7.813737135303579e-07,6.635547970503991e-06
6.419960340239065e-07,9.252400875502668e-07,7.864384233881064e-07,6.66753908218474e-06
6.390048102568988e-07,9.287865237680136e-07,7.914435653964545e-07,6.7108840130857146e-06
6.356350116995018e-07,9.326602550761062e-07,7.963490713810584e-07,6.765260077578254e-06
6.319087838383732e-07,9.368516367027445e-07,8.011164078436232e-07,6.830295835479532e-06
6.278451338266436e-07,9.413425367837671e-07,8.057074030460781e-07,6.905689386265248e-06
6.234592682519228e-07,9.461069563591184e-07,8.100841156310977e-07,6.991324888009487e-06
6.187641299270445e-07,9.511106863582432e-07,8.142098863442983e-07,7.0872898829061264e-06
6.137733712911947e-07,9.563116039301556e-07,8.180542919125229e-07,7.193779351989398e-06
6.085025677084259e-07,9.61660937683835e-07,8.215993569766381e-07,7.310954255666562e-06
6.02967563860265e-07,9.67105289976836e-07,8.248421078855405e-07,7.438824705125467e-06
5.971825962758432e-07,9.725884120863441e-07,8.277924894248021e-07,7.577202361293457e-06
5.911599151044727e-07,9.780514563210385e-07,8.304677613935523e-07,7.725719551461901e-06
5.849100295106991e-07,9.834329328550158e-07,8.328857110283842e-07,7.883875115493914e-06
5.78442145980067e-07,9.88670856475441e-07,8.350593848074873e-07,8.051137659630002e-06
5.717653114683074e-07,9.937065273424499e-07,8.369944954301331e-07,8.227109476708438e-06
5.648896423874252e-07,9.984867570328958e-07,8.386903865010593e-07,8.411590007885613e-06
5.578268379843136e-07,1.0029621621768428e-06,8.401452100011495e-07,8.604465386407524e-06
5.505905837460179e-07,1.007083435322013e-06,8.413639077927751e-07,8.805555750528232e-06
5.4319665702935e-07,1.010800478406688e-06,8.423635336838434e-07,9.0145450312387e-06
5.356619642614952e-07,1.0140657035134093e-06,8.431698455360574e-07,9.231097079873959e-06
5.280044546528328e-07,1.0168374905386636e-06,8.438084150722754e-07,9.455217769089467e-06
5.202460664093755e-07,1.0190802633414036e-06,8.443012806912172e-07,9.687637375979319e-06
5.124160620785984e-07,1.0207633547704627e-06,8.446743622334428e-07,9.929879349420624e-06
5.045503078546769e-07,1.0218619260133669e-06,8.449689057475117e-07,1.0184032691904547e-05
4.966869581614209e-07,1.0223576246581772e-06,8.452457724420465e-07,1.0452451883568612e-05
4.888629596517534e-07,1.0222360013549955e-06,8.455793294749587e-07,1.0737469602421428e-05
4.811133685155568e-07,1.021483759150137e-06,8.46046523422192e-07,1.1041143631874137e-05
4.7347113577683753e-07,1.0200906748563146e-06,8.4671581430099e-07,1.136507321647406e-05
4.659655588502279e-07,1.0180543996799806e-06,8.476384469435942e-07,1.17102820484736e-05
4.586211297620621e-07,1.0153815643770202e-06,8.488457434028989e-07,1.2077152877690331e-05
4.5145828187962286e-07,1.012083835510518e-06,8.50352608035417e-07,1.246542967202044e-05
4.4449575152216864e-07,1.0081745932248364e-06,8.521617657482424e-07,1.2874298451795696e-05
4.3775305760704097e-07,1.0036711419365163e-06,8.542654558658594e-07,1.3302507299348551e-05
4.3125041334422187e-07,9.986006764628857e-07,8.566471107122345e-07,1.3748495185369087e-05
4.2500708531438727e-07,9.930040815305638e-07,8.592844143872339e-07,1.4210547141719375e-05
4.190417199128703e-07,9.869353744322068e-07,8.621515380720264e-07,1.4686963036759486e-05
4.1337422100422136e-07,9.8045870433695e-07,8.652193820107521e-07,1.5176173602748249e-05
4.080293545337483e-07,9.736432013797414e-07,8.684539952254431e-07,1.567676266945408e-05
4.030435320688419e-07,9.66557242516594e-07,8.71814753298913e-07,1.6187423314738974e-05
3.984691992338013e-07,9.59267237572947e-07,8.752552081498871e-07,1.6706901536614678e-05
3.943695963265263e-07,9.518409468049507e-07,8.787255403682951e-07,1.7233955142698002e-05
3.908086999017615e-07,9.443482516402285e-07,8.821743548660427e-07,1.7767324079421696e-05
3.878489728704401e-07,9.368561166600912e-07,8.855516915858742e-07,1.8305700977409546e-05
3.855565782224333e-07,9.294233423541657e-07,8.888124500372572e-07,1.8847712804954958e-05
3.84000795148151e-07,9.220996126076893e-07,8.919166429881967e-07,1.9391917558207224e-05
3.83246181980856e-07,9.14927487411207e-07,8.948273010165176e-07,1.9936774636695667e-05
3.833475160878975e-07,9.079479657822748e-07,8.975078511824535e-07,2.0480576209514097e-05
3.843482897335348e-07,9.012093461754316e-07,8.999195775944004e-07,2.102140704540304e-05
3.8627870831235093e-07,8.947727721562826e-07,9.020207041853373e-07,2.1557177253662733e-05
3.89154684521007e-07,8.887104426222736e-07,9.037673857442673e-07,2.2085689505333494e-05
3.929786554054267e-07,8.830986602750462e-07,9.051155829394018e-07,2.2604702329357417e-05
3.9774150909011846e-07,8.780086219991445e-07,9.060230110786363e-07,2.311199072412193e-05
4.03424948029732e-07,8.734981486127098e-07,9.064504045193563e-07,2.3605401924267284e-05
4.1000169590570957e-07,8.696082251796348e-07,9.063626610463452e-07,2.408287543302897e-05
4.1743463997224347e-07,8.663665565383875e-07,9.057320021889685e-07,2.4542421071304692e-05
4.256787528757317e-07,8.637954975310742e-07,9.045422741516674e-07,2.4982140665200197e-05
4.3468436175229635e-07,8.619168151676348e-07,9.027890728191058e-07,2.5400370120377703e-05
4.4439923651809005e-07,8.607498171815153e-07,9.004747221561899e-07,2.579584729251621e-05
4.5477110029037714e-07,8.603067736327005e-07,8.976047853354393e-07,2.616773258028844e-05
4.6575092526529243e-07,8.605886403762524e-07,8.941903636617813e-07,2.6515471467916932e-05
4.772934200868123e-07,8.615822412933781e-07,8.902532602987388e-07,2.683862950109681e-05
4.89353590665305e-07,8.632613518943243e-07,8.858298112878332e-07,2.7136777832139385e-05
5.018836425027226e-07,8.655919319720159e-07,8.809722160626786e-07,2.740945257679393e-05
5.148322869986343e-07,8.68538218044648e-07,8.757489168195738e-07,2.7656216716354705e-05
5.281435417215526e-07,8.720661757385818e-07,8.7024383918148e-07,2.7876790262372118e-05
5.417544123162526e-07,8.761426809201416e-07,8.645509589055517e-07,2.807114798679108e-05
5.555943189640897e-07,8.8073155218459e-07,8.587647228423116e-07,2.8239537386164893e-05
5.695868905104434e-07,8.857904776159536e-07,8.529717601433194e-07,2.8382447302576404e-05
5.836520433915353e-07,8.912712445705369e-07,8.472459593069809e-07,2.8500534897733306e-05
5.977076874038535e-07,8.971201753949335e-07,8.416455572540974e-07,2.8594517242789972e-05
6.116722149754554e-07,9.03276762070847e-07,8.36212709823973e-07,2.866513405990736e-05
6.25467743034096e-07,9.096739782631441e-07,8.309769525523724e-07,2.871319548925155e-05
6.390235660554987e-07,9.162424330201199e-07,8.259617422672805e-07,2.8739575112620525e-05
6.522797198404989e-07,9.229163472122128e-07,8.211916908570439e-07,2.874521635628272e-05
6.651878321112003e-07,9.296378844866242e-07,8.166972338552847e-07,2.8731270859208692e-05
6.777072649878217e-07,9.363569627267023e-07,8.125133892177033e-07,2.8699186344114002e-05
6.898007800648163e-07,9.430278682453836e-07,8.086744037706491e-07,2.8650624652765092e-05
7.014323475725811e-07,9.496075797900237e-07,8.052102859660677e-07,2.8587344606153162e-05
7.125650484240399e-07,9.560574868267944e-07,8.021469769425213e-07,2.8511135259009747e-05
7.231598979514555e-07,9.62344762752995e-07,7.99508644339937e-07,2.8423783681857813e-05
7.33177171166613e-07,9.684399063401869e-07,7.973206226443203e-07,2.832703933787957e-05
7.425789386395422e-07,9.74312531650469e-07,7.956094670866715e-07,2.82225170557172e-05
7.513312642275388e-07,9.799303406636862e-07,7.943983426826328e-07,2.8111549897803466e-05
7.594046624645484e-07,9.85261162337733e-07,7.93700926243367e-07,2.7995093844023493e-05
7.667725417204038e-07,9.902736272069992e-07,7.935177319875421e-07,2.7873749736068e-05
7.73409141075721e-07,9.949353294281298e-07,7.93835702287373e-07,2.774789381116541e-05
7.792884019537944e-07,9.992110879157877e-07,7.946300383229852e-07,2.761786907678559e-05
7.843846668558397e-07,1.0030643334511144e-06,7.958681490285298e-07,2.748413240094433e-05
7.886746878989825e-07,1.0064622843157377e-06,7.975142460508402e-07,2.7347266008186426e-05
7.921386367441612e-07,1.0093817656174604e-06,7.995312452310709e-07,2.72078944859033e-05
7.947594332641721e-07,1.0118127520316785e-06,8.018796280014883e-07,2.7066612345434658e-05
7.965226470010627e-07,1.0137586390325186e-06,8.045160961979149e-07,2.692394540147721e-05
7.974194043415279e-07,1.015232061913159e-06,8.073943621757284e-07,2.678030926355625e-05
7.974519086301185e-07,1.016249240444646e-06,8.104677953132133e-07,2.663597611242354e-05
7.966367935130918e-07,1.0168298950430444e-06,8.136907666913707e-07,2.6491103262862905e-05
7.950031047296102e-07,1.0170024085110031e-06,8.170165883455097e-07,2.63458712693823e-05
7.925888771387324e-07,1.0168063705526862e-06,8.203954066180471e-07,2.6200726985078016e-05
7.894408585973762e-07,1.0162893044990662e-06,8.237763055967027e-07,2.605657459068575e-05
7.856151119685272e-07,1.0155003739765613e-06,8.271112896993309e-07,2.5914729929421623e-05
7.811734831654713e-07,1.0144844396220322e-06,8.303566163903587e-07,2.577670386327712e-05
7.761775703185798e-07,1.01328018022927e-06,8.334718639700555e-07,2.564399868145014e-05
7.706869519367311e-07,1.0119233720563032e-06,8.36418231856323e-07,2.551797500918145e-05
7.647634364620119e-07,1.0104508600102895e-06,8.391561730894408e-07,2.539986822918588e-05
7.584756509746485e-07,1.00890026917193e-06,8.416436608113595e-07,2.5291030002253e-05
7.518984747071837e-07,1.0073050018782928e-06,8.438365889161978e-07,2.519318314537855e-05
7.451089376304852e-07,1.00568872894847e-06,8.456923787398584e-07,2.5108408868788603e-05
7.381826196600456e-07,1.0040640611489999e-06,8.471763568178782e-07,2.503889366543107e-05
7.311909452624256e-07,1.0024360313500324e-06,8.482666233982206e-07,2.498664155564064e-05
7.241991404698058e-07,1.0008068568275765e-06,8.48952862080481e-07,2.495327428567193e-05
7.172656926757301e-07,9.991769675174123e-07,8.492310194762544e-07,2.4939916646967223e-05
7.104438203797116e-07,9.975419323589044e-07,8.491010322918856e-07,2.4947127931058742e-05
7.037843260206887e-07,9.958906401152956e-07,8.485693792721875e-07,2.497487872604784e-05
6.973376597765153e-07,9.942066515236038e-07,8.47650758646527e-07,2.5022580961425667e-05
6.911544143862793e-07,9.924690541590321e-07,8.463658816822784e-07,2.5089159077468093e-05
6.852848533001679e-07,9.90651901766049e-07,8.44737260832007e-07,2.5173143728511468e-05
6.797761382595656e-07,9.88727033165908e-07,8.427855308672712e-07,2.5272760219411464e-05
6.746676801721503e-07,9.866744755907456e-07,8.405291826856749e-07,2.5385990312885527e-05
6.699899614653008e-07,9.844957996034413e-07,8.379878148859013e-07,2.551062562008751e-05
6.657714100580519e-07,9.82219745988203e-07,8.351858272211922e-07,2.5644347929623714e-05
6.620494789221612e-07,9.79896035834688e-07,8.32156552872926e-07,2.578481641654819e-05
6.588751686808798e-07,9.775826408163952e-07,8.289472270306547e-07,2.592969262832895e-05
6.563069748963552e-07,9.75335849660222e-07,8.256191217760362e-07,2.6076599234493635e-05
6.544017314818637e-07,9.732091793790328e-07,8.222383434686883e-07,2.622310072059765e-05
6.532094525810502e-07,9.712565199218957e-07,8.188637007551782e-07,2.63667678119107e-05
6.527721498449051e-07,9.695325489629406e-07,8.155422352252909e-07,2.650528340848713e-05
6.531226782616159e-07,9.680914197542496e-07,8.123141751682727e-07,2.663650671610585e-05
6.542817869066628e-07,9.669868256273094e-07,8.092205464892759e-07,2.6758464663764284e-05
6.562566293209436e-07,9.662730593965077e-07,8.063064156359894e-07,2.6869301818172847e-05
6.590425473547568e-07,9.660045563026749e-07,8.036171721242369e-07,2.6967259339199426e-05
6.626244389080271e-07,9.662328996211724e-07,8.011913787584471e-07,2.705074413527201e-05
6.669754182852975e-07,9.670043538506826e-07,7.990560378471399e-07,2.711844176235269e-05
6.720552452179947e-07,9.683592128590792e-07,7.972254009197579e-07,2.716934986651962e-05
6.778113324691447e-07,9.70329441764731e-07,7.957012013099558e-07,2.720270247652233e-05
6.841831506901762e-07,9.729341320084328e-07,7.944744586256725e-07,2.721787970015635e-05
6.911075260719981e-07,9.76176448423447e-07,7.935298531211553e-07,2.7214387433048504e-05
6.985201511838454e-07,9.800432810671144e-07,7.928520733596738e-07,2.719188042575291e-05
7.063533713474031e-07,9.84506847904162e-07,7.924325226271499e-07,2.7150153193133122e-05
7.145349396843645e-07,9.895297722334791e-07,7.922726583050495e-07,2.7089130775920723e-05
7.229890462279459e-07,9.950736607272724e-07,7.923798986337191e-07,2.7008922945935643e-05
7.316371961956628e-07,1.0011048300562777e-06,7.927586968856372e-07,2.690987911517994e-05
7.403985363946986e-07,1.0075916989942694e-06,7.934049614274291e-07,2.679257409449484e-05
7.491911852754464e-07,1.0144970774064738e-06,7.943080254422456e-07,2.665773754015487e-05
7.579348092318232e-07,1.0217723777911855e-06,7.954587019254649e-07,2.650615478228579e-05
7.66553599757938e-07,1.0293575098964607e-06,7.96860095702306e-07,2.633857064651087e-05
7.74979176806487e-07,1.037187366956022e-06,7.985352072585387e-07,2.615562795620945e-05
7.831522696163926e-07,1.0452030075287652e-06,8.005244410734201e-07,2.5957855385002757e-05
7.910209388573788e-07,1.0533615422228683e-06,8.028735851514445e-07,2.5745701018191336e-05
7.985362741296199e-07,1.0616392721423927e-06,8.056211694999986e-07,2.551958349259384e-05
8.056492572547634e-07,1.0700267372186506e-06,8.087924030841856e-07,2.5279930500993053e-05
8.123097662295395e-07,1.0785183854177486e-06,8.12400793021878e-07,2.5027198666453367e-05
8.184672602374576e-07,1.0871047139214865e-06,8.164541740200163e-07,2.476189440261752e-05
8.240734789833049e-07,1.0957739028347924e-06,8.209597526277743e-07,2.4484675431884025e-05
8.290863081048698e-07,1.104519347716903e-06,8.259257466305854e-07,2.419656079691987e-05
8.334720834432983e-07,1.113344288683483e-06,8.313609167286583e-07,2.3899027381189844e-05
8.372041217920127e-07,1.1222619216614928e-06,8.372739102052154e-07,2.3593817893420585e-05
8.402593688122105e-07,1.13129388228402e-06,8.436731682781431e-07,2.328266510354757e-05
8.426169688980364e-07,1.1404657052384236e-06,8.505656700325159e-07,2.2967163548963945e-05
8.442594313235785e-07,1.1497977502289222e-06,8.579525520852252e-07,2.264875149632926e-05
8.451751376679198e-07,1.1592982784629958e-06,8.658233591468494e-07,2.232870242520217e-05
8.453603407569355e-07,1.1689652880696052e-06,8.741538104725931e-07,2.2008120114723567e-05
8.448187369315975e-07,1.1787907369768542e-06,8.82909324470986e-07,2.1687968822279126e-05
8.435591208801574e-07,1.188757818054476e-06,8.920515011279873e-07,2.136915187750776e-05
8.415926540568787e-07,1.198834703625094e-06,9.015442475821249e-07,2.1052614705896225e-05
8.389306967783784e-07,1.208973163955718e-06,9.11357851172036e-07,2.0739392122955026e-05
8.355838388602476e-07,1.2191122513099562e-06,9.214698547221281e-07,2.0430553719667864e-05
8.315621240906324e-07,1.22918194262974e-06,9.318623536454223e-07,2.012710829939784e-05
8.268764445487406e-07,1.2391046469736644e-06,9.425167805121307e-07,1.9829930713266204e-05
8.215405254425453e-07,1.2487968502806294e-06,9.534093191094227e-07,1.9539723327872212e-05
8.15572957691489e-07,1.258173602519937e-06,9.645093694891006e-07,1.925702203837305e-05
8.089999797010012e-07,1.267155995680511e-06,9.757793952921914e-07,1.8982232357146093e-05
8.01857041616668e-07,1.2756781263651442e-06,9.871746255309823e-07,1.871565058883864e-05
7.941854263416533e-07,1.2836889810544604e-06,9.98645598149898e-07,1.845745678886588e-05
7.860262668247395e-07,1.2911484547182837e-06,1.0101458472120545e-06,1.8207703042720632e-05
7.774177877489734e-07,1.2980204878679786e-06,1.0216406892838551e-06,1.7966315071911233e-05
7.683961607127104e-07,1.304267838594672e-06,1.0331105235096202e-06,1.7733100904006174e-05
7.589964650032027e-07,1.3098508391159531e-06,1.0445476307268768e-06,1.7507758238287712e-05
7.492528208921529e-07,1.3147279809634682e-06,1.055951219662368e-06,1.728991328884877e-05
7.39198554089013e-07,1.3188567963443883e-06,1.0673239885043326e-06,1.707924880368843e-05
7.288666950769273e-07,1.3221966874138598e-06,1.0786710986775714e-06,1.687572648518859e-05
7.182914963088393e-07,1.324715230856e-06,1.0900018233804051e-06,1.667978237867898e-05
7.075097034629156e-07,1.3263964860046249e-06,1.1013302756037051e-06,1.6492316287741505e-05
6.965587437762653e-07,1.3272458524103714e-06,1.1126706870312134e-06,1.6314472317595896e-05
6.854730658622304e-07,1.3272871773041714e-06,1.124029580995357e-06,1.6147378526834273e-05
6.742821556656594e-07,1.3265536625354186e-06,1.135402094730146e-06,1.5991987730616234e-05
6.630108470882729e-07,1.3250778597544148e-06,1.1467752117769206e-06,1.5849139410692148e-05
6.516810234160154e-07,1.3228856965567525e-06,1.158134319074776e-06,1.571981725829122e-05
6.403146933319724e-07,1.3199949674805564e-06,1.1694701016379112e-06,1.5605293888130713e-05
6.289378377055293e-07,1.3164165209497556e-06,1.1807854678934606e-06,1.5506958683023856e-05
6.175818301943949e-07,1.3121585907095085e-06,1.192101860007868e-06,1.5426015193272433e-05
6.062810728039128e-07,1.307232923336018e-06,1.2034645771010251e-06,1.5363304260284114e-05
5.95071610999942e-07,1.3016577491774321e-06,1.2149447276708892e-06,1.531928548287822e-05
5.839926162168892e-07,1.2954547777860058e-06,1.2266313569094822e-06,1.529408302192939e-05
5.730851162309259e-07,1.2886431574402037e-06,1.2386129120471424e-06,1.5287543321339726e-05
5.623866893445218e-07,1.2812357672692126e-06,1.250958291352725e-06,1.5299302817135957e-05
5.519275582482353e-07,1.273239381251077e-06,1.2637086877308252e-06,1.5328850245379676e-05
5.417301657741846e-07,1.264656624048433e-06,1.276881098737283e-06,1.5375547476077718e-05
5.318103552524078e-07,1.255488510842662e-06,1.2904751494870396e-06,1.5438596006114894e-05
5.221787856217003e-07,1.2457366658520869e-06,1.3044771251802966e-06,1.5516982952499067e-05
5.128416483392753e-07,1.2354037004483624e-06,1.3188617636868799e-06,1.5609464585071032e-05
5.038010090664657e-07,1.224492079980138e-06,1.3335933851583997e-06,1.5714616962788227e-05
4.950559740719488e-07,1.2130033636477889e-06,1.3486267915647742e-06,1.5830932500841446e-05
4.86603480112679e-07,1.200939315531737e-06,1.3639087101419428e-06,1.5956919725389988e-05
