3.0149881565020063e-07,8.973300575637462e-07,1.6619678046165009e-06,4.900511394520781e-05
3.0435949992821824e-07,9.03461458225985e-07,1.6205473554019162e-06,4.876452534943463e-05
3.0735191023023483e-07,9.088744707849407e-07,1.5790840424847167e-06,4.846307473141892e-05
3.104687470250701e-07,9.135163550278057e-07,1.537678398517281e-06,4.810201483829729e-05
3.13706480980032e-07,9.173390722235752e-07,1.4964259789904428e-06,4.768306138312127e-05
3.1706318160402963e-07,9.20302570265282e-07,1.455418232820451e-06,4.720839989451653e-05
3.205362752710621e-07,9.223802653507832e-07,1.4147444113124197e-06,4.66805822143115e-05
3.2412058773755476e-07,9.235628944778644e-07,1.3744994963312911e-06,4.610238490225036e-05
3.27807579191557e-07,9.238570801576693e-07,1.3347953493569726e-06,4.547671666812057e-05
3.315855848204882e-07,9.232792418597773e-07,1.2957688031785308e-06,4.480657880246073e-05
3.354407705636589e-07,9.218495578323101e-07,1.2575826291200265e-06,4.409502026707103e-05
3.393588454884801e-07,9.195894784070664e-07,1.220415210476237e-06,4.334506595153429e-05
3.43325844018686e-07,9.165224233685959e-07,1.184441707387639e-06,4.255967665280437e-05
3.473269136119081e-07,9.126766907224081e-07,1.1498199498131004e-06,4.1741854582243734e-05
3.51344712284332e-07,9.080892761264423e-07,1.1166879572821571e-06,4.089492856359363e-05
3.553590993918132e-07,9.028071095305091e-07,1.0851659208334222e-06,4.002280615715465e-05
3.5934822933373297e-07,8.968838807048438e-07,1.0553560316469506e-06,3.912994939892288e-05
3.632897287231798e-07,8.903744606829618e-07,1.0273405377635296e-06,3.822113166630602e-05
3.671608290792389e-07,8.833296302481507e-07,1.0011802993187684e-06,3.7301154527373076e-05
3.7093839057019404e-07,8.757933349152172e-07,9.769155339564715e-07,3.6374621716256935e-05
3.746000881784451e-07,8.678034949720888e-07,9.545687216239622e-07,3.5445909288259966e-05
3.781258328028373e-07,8.593942846298919e-07,9.34149360461582e-07,3.451935665164192e-05
3.8149827323320157e-07,8.505967002623084e-07,9.156599794447069e-07,3.3599424472698494e-05
3.847026634588893e-07,8.41437565208701e-07,8.991015808404751e-07,3.269064546096366e-05
3.877259087773637e-07,8.319393079943577e-07,8.844801353774208e-07,3.179745877966999e-05
3.905553108439972e-07,8.221205971080267e-07,8.718185400481554e-07,3.0924039380620954e-05
3.931783205508614e-07,8.119966822129653e-07,8.611695717743583e-07,3.0074153200954835e-05
3.9558277829531594e-07,8.015797317789204e-07,8.526140849002054e-07,2.925104658512763e-05
3.977573582105585e-07,7.90879547026631e-07,8.462389578556459e-07,2.8457371920888007e-05
3.996932026308656e-07,7.799049655953309e-07,8.421145389810635e-07,2.769515600787023e-05
4.0138684295452815e-07,7.686671348752381e-07,8.402924289847041e-07,2.6965819784369915e-05
4.028423719066679e-07,7.571835498296958e-07,8.408189514852502e-07,2.627024622400878e-05
4.04069863926194e-07,7.454786375739538e-07,8.43746792572513e-07,2.5608878141058675e-05
4.050807452791509e-07,7.335806402058036e-07,8.491367037870952e-07,2.4981808128336703e-05
4.0588410188250545e-07,7.215202396927324e-07,8.57051161105913e-07,2.438882940720601e-05
4.0648535694182e-07,7.093326743150527e-07,8.675436648627376e-07,2.3829449039364945e-05
4.0688651059772675e-07,6.97059412918711e-07,8.806462176752959e-07,2.330289226344607e-05
4.0708798632880006e-07,6.847469727948135e-07,8.963586890062115e-07,2.2808145324066165e-05
4.0709161946844365e-07,6.724431300869887e-07,9.14643758795946e-07,2.234404626871419e-05
4.0690253492822297e-07,6.601929318223036e-07,9.354259802505621e-07,2.190936144523544e-05
4.06528002288853e-07,6.480382135559922e-07,9.585918605180296e-07,2.1502809307176266e-05
4.0597480404856255e-07,6.360200755985054e-07,9.839920991165342e-07,2.112307613957274e-05
4.0524859734335904e-07,6.241813241392273e-07,1.0114475880954759e-06,2.076884577934403e-05
4.043548262731743e-07,6.125682871456702e-07,1.0407569464347322e-06,2.0438791508521536e-05
4.0329848102965813e-07,6.012306831792722e-07,1.0717029436857444e-06,2.0131524495857168e-05
4.0208336836276314e-07,5.902185852169389e-07,1.1040578226639246e-06,1.9845578153039296e-05
4.007123466190573e-07,5.795795971061883e-07,1.1375878731352914e-06,1.9579486774811045e-05
3.991880722033305e-07,5.693580105785976e-07,1.1720571648722758e-06,1.9331934688747944e-05
3.975131691730846e-07,5.595943042614239e-07,1.2072316030081424e-06,1.9101870125389955e-05
3.956893944893805e-07,5.503251181080993e-07,1.242884111051305e-06,1.888847913197757e-05
3.937173250224253e-07,5.415842298279183e-07,1.2787987668700734e-06,1.869105644081078e-05
3.915978566801666e-07,5.334034461270117e-07,1.3147709019417707e-06,1.8508909317204487e-05
3.89334229097256e-07,5.258134682724597e-07,1.3506043756633637e-06,1.83413485380448e-05
3.8693248968701097e-07,5.188440906725579e-07,1.3861120574135257e-06,1.8187702750012287e-05
3.8440006227657673e-07,5.125216299033346e-07,1.4211236282555774e-06,1.804728341697252e-05
3.817447325401621e-07,5.068652031865955e-07,1.455495838366199e-06,1.7919306212251108e-05
3.789757279270066e-07,5.018868471832285e-07,1.4891145275094282e-06,1.7802836904615416e-05
3.761047082092851e-07,4.975973302828558e-07,1.521884633772603e-06,1.7696821712100315e-05
3.7314478348009436e-07,4.940139867188207e-07,1.5537179228341738e-06,1.7600214968234207e-05
3.70109017691584e-07,4.911643819219167e-07,1.5845314040364157e-06,1.751214574495408e-05
3.670095505659722e-07,4.890820854050635e-07,1.6142595437960556e-06,1.7432028466017e-05
3.63857537442804e-07,4.877973645504876e-07,1.6428721271560914e-06,1.7359572895117346e-05
3.6066411827845526e-07,4.873303118056392e-07,1.670384168679714e-06,1.7294700228962197e-05
3.574408254468668e-07,4.876911311512495e-07,1.696849631158741e-06,1.723739653684075e-05
3.5419822158758886e-07,4.88885436661631e-07,1.7223443132013473e-06,1.7187570399097445e-05
3.509442908090226e-07,4.909191894277564e-07,1.7469481972863155e-06,1.714498620034847e-05
3.476840571704384e-07,4.93799701856289e-07,1.7707307926300681e-06,1.7109289816463002e-05
3.4442034141379717e-07,4.975319775736642e-07,1.7937398895305626e-06,1.7080069625697934e-05
3.4115452243743227e-07,5.021119426439689e-07,1.815997424427621e-06,1.7056883006382813e-05
3.3788669039588644e-07,5.07520718710257e-07,1.8375061504938728e-06,1.7039294099054752e-05
3.346164991735225e-07,5.137234942331064e-07,1.8582658407595986e-06,1.7027039944651433e-05
3.313448155536985e-07,5.20671805213575e-07,1.878292298585955e-06,1.7020229796523332e-05
3.2807414760276623e-07,5.283063088098292e-07,1.8976276637240257e-06,1.701933940080011e-05
3.248077871890725e-07,5.365606174697284e-07,1.9163330766247875e-06,1.7025007196171946e-05
3.215490225561497e-07,5.453678962843868e-07,1.9344738973010774e-06,1.703781051735023e-05
3.1830103468367145e-07,5.546666638636582e-07,1.9521226521459356e-06,1.7058130242541034e-05
3.1506788300641005e-07,5.644004054074739e-07,1.9693863148230304e-06,1.7086197870606092e-05
3.118553676798877e-07,5.745139417980468e-07,1.9864364895535405e-06,1.7122324494671774e-05
3.0867038284165284e-07,5.849549297039853e-07,2.003520188822845e-06,1.716709454341905e-05
3.055198649799894e-07,5.956824835003635e-07,2.020944290968356e-06,1.7221354584026566e-05
3.0241019490957324e-07,6.066767679585949e-07,2.0390399953651887e-06,1.728608868279823e-05
2.9934681084699924e-07,6.179415665566772e-07,2.058121010038243e-06,1.736231207004169e-05
2.963340019552263e-07,6.294967969193339e-07,2.0784486918022634e-06,1.745097344143437e-05
2.9337479693110363e-07,6.4136559452326e-07,2.1002124439442856e-06,1.7552835616829648e-05
2.904714930864237e-07,6.535635946292374e-07,2.123526990266334e-06,1.7668368031252586e-05
2.876267821379375e-07,6.66097190248323e-07,2.148439344300526e-06,1.7797684458878687e-05
2.84843849230758e-07,6.789718118194955e-07,2.1749356186164227e-06,1.7940537242483578e-05
2.82125460354568e-07,6.92201121184926e-07,2.202945483224609e-06,1.8096364938506908e-05
2.794743704728765e-07,7.058092396035195e-07,2.2323478359411567e-06,1.8264343097516706e-05
2.768951275989349e-07,7.198276537373272e-07,2.2629807731281305e-06,1.8443389804906492e-05
2.7439398558754876e-07,7.342889541757024e-07,2.2946569955012574e-06,1.8632163242203304e-05
2.719762842731667e-07,7.492182798197716e-07,2.327181301937295e-06,1.882910888783975e-05
2.696446249962132e-07,7.646268091386959e-07,2.360364153022551e-06,1.903255262011341e-05
2.6739929814910487e-07,7.80511322211002e-07,2.3940289311140444e-06,1.9240815798475816e-05
2.6523993694476985e-07,7.968577485063478e-07,2.4280141097893213e-06,1.9452319569009092e-05
2.631679987400057e-07,8.136429619171839e-07,2.4621712496915542e-06,1.96656263462409e-05
2.6118926465729524e-07,8.308330405055966e-07,2.4963600544150983e-06,1.9879422700208773e-05
2.593138159070033e-07,8.483807244188912e-07,2.530442471417513e-06,2.0092500385754208e-05
2.575530933147187e-07,8.66225000129194e-07,2.5642764909284568e-06,2.0303736714424466e-05
2.559172789639092e-07,8.842931236246336e-07,2.597710274131918e-06,2.051203474075983e-05
2.5441419370434604e-07,9.025030204444643e-07,2.630578391134644e-06,2.0716239240768092e-05
2.5304846036665513e-07,9.207658331067631e-07,2.6627008936858338e-06,2.0915083397547256e-05
2.51821175268237e-07,9.389907668976751e-07,2.6938853178551066e-06,2.1107202251923583e-05
2.5073034068654624e-07,9.570912449378454e-07,2.7239329095267627e-06,2.1291228130645762e-05
2.4977135570179876e-07,9.749865996299886e-07,2.752648961929998e-06,2.1465923099967787e-05
2.489374264329689e-07,9.925970806804159e-07,2.7798535607719498e-06,2.1630238867933254e-05
2.482204476241012e-07,1.0098383471635222e-06,2.805387459721403e-06,2.178326431088388e-05
2.476123368265812e-07,1.0266207984191726e-06,2.8291097306217583e-06,2.192413799432757e-05
2.4710528153666226e-07,1.0428522279832028e-06,2.8508914463398887e-06,2.205201120344042e-05
2.466904490373601e-07,1.0584416089295562e-06,2.870615496862086e-06,2.216607601312321e-05
2.463574106099977e-07,1.073304220298385e-06,2.8881839584163237e-06,2.226559803634453e-05
2.460960286456193e-07,1.0873672036560002e-06,2.903522867664748e-06,2.2349908411649e-05
2.458995878192013e-07,1.1005738799406463e-06,2.9165776977321275e-06,2.241839959746565e-05
2.45765994565369e-07,1.1128853567497817e-06,2.9273033156031914e-06,2.2470583591505162e-05
2.456958699075675e-07,1.1242776106146298e-06,2.935656691780185e-06,2.250620168809266e-05
2.456905038555246e-07,1.134735427859362e-06,2.941597214632541e-06,2.252533777019287e-05
2.457519005065143e-07,1.1442471517868346e-06,2.9450927439301116e-06,2.252852081155331e-05
2.458828128055429e-07,1.1528016162285536e-06,2.9461280155283327e-06,2.251679182348732e-05
2.460851191517232e-07,1.1603863980249192e-06,2.9447123938463887e-06,2.249164285322029e-05
2.463585684901228e-07,1.1669874349059963e-06,2.94088109302642e-06,2.2454788798495345e-05
2.4670140938434404e-07,1.1725928990967652e-06,2.934686728774202e-06,2.240787162853765e-05
2.471111259000095e-07,1.1772030492579178e-06,2.9261864833146467e-06,2.235224681187568e-05
2.4758391655560704e-07,1.1808394090163896e-06,2.9154341729382613e-06,2.228893084181791e-05
2.481144233924367e-07,1.183544767002952e-06,2.902480671699749e-06,2.2218665417684688e-05
2.4869659983242337e-07,1.185375489582888e-06,2.8873761141144003e-06,2.2141997357421067e-05
2.4932473769025826e-07,1.186392565776812e-06,2.870167904356007e-06,2.2059348059571124e-05
2.499942198159965e-07,1.1866548262171086e-06,2.850897318399439e-06,2.1971146788352662e-05
2.507018458019659e-07,1.1862156313292222e-06,2.8295996175536137e-06,2.1878001334738417e-05
2.514453067977627e-07,1.185121346720393e-06,2.806308232188112e-06,2.178072854665688e-05
2.5222223845894043e-07,1.1834096222018735e-06,2.781059825403565e-06,2.168021687711893e-05
2.530300988479432e-07,1.181109790282001e-06,2.753896991956931e-06,2.157726464835325e-05
2.538674839475072e-07,1.1782463555012145e-06,2.7248688765736252e-06,2.1472495628238795e-05
2.5473620941947817e-07,1.1748408716362872e-06,2.69403218213164e-06,2.136645755703596e-05
2.5564263388879924e-07,1.170910382657431e-06,2.6614556446291573e-06,2.125993308914793e-05
2.565962701158341e-07,1.1664676048377998e-06,2.627231326155685e-06,2.115422191192056e-05
2.5760587933574556e-07,1.161525751378544e-06,2.5914882676408698e-06,2.1051149832332345e-05
2.586761687810874e-07,1.1561029770088012e-06,2.554394203610381e-06,2.0952874731245278e-05
2.5980728572471773e-07,1.1502203360535048e-06,2.516139829000295e-06,2.086168832163381e-05
2.6099732383710196e-07,1.1438957118162287e-06,2.4769223406739397e-06,2.0779893064423752e-05
2.6224587646892816e-07,1.1371408544049292e-06,2.4369469825322347e-06,2.0709727400464228e-05
2.6355445843947375e-07,1.129962257694335e-06,2.3964415458135034e-06,2.0653285071114145e-05
2.64923538520741e-07,1.1223627774985217e-06,2.3556654453376884e-06,2.061241038243256e-05
2.6635046637143776e-07,1.1143431992894078e-06,2.314905504444335e-06,2.058860901160998e-05
2.678294869784577e-07,1.1059041954796529e-06,2.274462940329513e-06,2.0583008065884728e-05
2.69352386305627e-07,1.097049711993851e-06,2.2346378449139047e-06,2.059633761905908e-05
2.709094475608481e-07,1.0877910334012952e-06,2.195713922895373e-06,2.0628900109437414e-05
2.724900397253788e-07,1.0781487277793924e-06,2.157944092956802e-06,2.0680545770754045e-05
2.740823468227253e-07,1.0681518057101505e-06,2.1215385474859747e-06,2.0750680288249936e-05
2.756729924046312e-07,1.0578350577433784e-06,2.086658930836061e-06,2.0838318339215912e-05
2.772474843235167e-07,1.0472365032704249e-06,2.0534197308396543e-06,2.094219634600333e-05
2.7879226252999764e-07,1.0363966798835598e-06,2.0218925114888766e-06,2.1060919594137382e-05
2.8029720818271165e-07,1.0253575492182018e-06,1.9921096684060247e-06,2.1193085010355565e-05
2.817566239060255e-07,1.0141594094260582e-06,1.9640697773955317e-06,2.133735263060829e-05
2.831693113867115e-07,1.0028380199681084e-06,1.9377475950357605e-06,2.149248012302568e-05
2.8453824402634676e-07,9.914229240724e-07,1.9131069792192227e-06,2.1657330556326248e-05
2.858693958517758e-07,9.799365920875594e-07,1.890111515761488e-06,2.1830852008382397e-05
2.8717085831678607e-07,9.683943426868174e-07,1.8687309039771903e-06,2.2012032052316908e-05
2.884523425376477e-07,9.568048025100402e-07,1.848944184244424e-06,2.219983046946701e-05
2.897240899513667e-07,9.451710458437712e-07,1.830740178215942e-06,2.2393103074263416e-05
2.909959415005438e-07,9.334930165688722e-07,1.8141159489068328e-06,2.259055222991744e-05
2.9227706720575385e-07,9.217721082211288e-07,1.7990733823888985e-06,2.2790739313659382e-05
2.935753015176632e-07,9.100169972308796e-07,1.785612897252097e-06,2.2992134818839248e-05
2.9489590484579294e-07,8.98248248268598e-07,1.7737269255086928e-06,2.319314189810373e-05
2.962409011049449e-07,8.865026639297846e-07,1.7633962617576462e-06,2.339209640888215e-05
2.976094369285404e-07,8.748388523297726e-07,1.75458670552493e-06,2.3587301230234133e-05
2.989982767610072e-07,8.633395174737754e-07,1.747244852987069e-06,2.377709795367936e-05
3.0040180896093226e-07,8.521056855989772e-07,1.7412994981263928e-06,2.3959902735471508e-05
3.018121901710137e-07,8.412443009705061e-07,1.7366747269693939e-06,2.4134164517878463e-05
3.032199530549073e-07,8.308549358900423e-07,1.7333110715190224e-06,2.429831502297262e-05
3.04614444373234e-07,8.210230342282599e-07,1.7311812201160557e-06,2.4450799769067536e-05
3.059848241437418e-07,8.118224065321576e-07,1.7302873301261139e-06,2.459020032528452e-05
3.073225217221188e-07,8.033211766644637e-07,1.7306405338453556e-06,2.471540035546148e-05
3.086224143670656e-07,7.955858826931014e-07,1.7322389982541058e-06,2.482575143851936e-05
3.0988083023151265e-07,7.886831911466647e-07,1.735062648237546e-06,2.4921192197852205e-05
3.110934020434713e-07,7.826777616396465e-07,1.7390851603565782e-06,2.5002229131752585e-05
3.122551179030928e-07,7.776248945127702e-07,1.7442872909201336e-06,2.506973502134951e-05
3.133611145593252e-07,7.73561643212712e-07,1.7506579025837467e-06,2.512465935598071e-05
3.144063130309157e-07,7.705024266990849e-07,1.7581814900453126e-06,2.5167789883416878e-05
3.1538444885449096e-07,7.68440794822669e-07,1.7668230077215915e-06,2.5199648198639905e-05
3.162878940415475e-07,7.673537401053595e-07,1.776523487894929e-06,2.522050621563577e-05
3.171078684322165e-07,7.672051615667607e-07,1.787206480629034e-06,2.5230443012676545e-05
3.178343799193188e-07,7.679487333270358e-07,1.7987838092037646e-06,2.5229449640148602e-05
3.1845644657185395e-07,7.695309029726538e-07,1.8111550191722561e-06,2.5217671831649248e-05
3.189635681469596e-07,7.71892415124145e-07,1.824204938543391e-06,2.519569353547038e-05
3.193486665371401e-07,7.74967835974318e-07,1.8378069147193195e-06,2.516460550400687e-05
3.1961060504522575e-07,7.78684900037087e-07,1.8518338175320599e-06,2.512582106473581e-05
3.19754538415946e-07,7.829646852009705e-07,1.8661676277196957e-06,2.5080820837904755e-05
3.1979130763678604e-07,7.877233505830301e-07,1.880697572528146e-06,2.5030955150976804e-05
3.197367793720493e-07,7.928759216910533e-07,1.8953110477214421e-06,2.497741706944725e-05
3.1961003038360226e-07,7.983409662372673e-07,1.9098918374146502e-06,2.4921482034014762e-05
3.194307874675614e-07,8.040447829356977e-07,1.924331547361576e-06,2.486483954834385e-05
3.192174516863535e-07,8.099223093317806e-07,1.9385444492523687e-06,2.480971267225873e-05
3.1898558061837395e-07,8.15912849362594e-07,1.9524739615155253e-06,2.475874410819537e-05
3.1874700319288047e-07,8.219551516927965e-07,1.966087975438744e-06,2.471482633317993e-05
3.185098452992713e-07,8.279861830172526e-07,1.9793668426698627e-06,2.468094905588147e-05
3.182785233712544e-07,8.339418562124802e-07,1.992290205497541e-06,2.4660053420523235e-05
3.180536634270633e-07,8.397585313655856e-07,2.004827703807317e-06,2.4654907791201905e-05
3.178328170133012e-07,8.453756660943202e-07,2.016934506277494e-06,2.4668024375512024e-05
3.1761166849935076e-07,8.507373503553269e-07,2.028549922104515e-06,2.4701613967558166e-05
3.173851321961769e-07,8.557912816700561e-07,2.039598795788023e-06,2.475756499224901e-05
3.1714814991977896e-07,8.604870864131375e-07,2.0499963107643814e-06,2.4837405815216212e-05
3.1689583227517364e-07,8.647756289872526e-07,2.0596533224334715e-06,2.494221401213532e-05
3.166233618180061e-07,8.686095870279181e-07,2.068478163729285e-06,2.507250958149035e-05
3.1632618420160856e-07,8.719446132103243e-07,2.076376181862452e-06,2.52281931474156e-05
3.160000087220883e-07,8.7473940644451e-07,2.08325270753755e-06,2.540855047423485e-05
3.15640868809593e-07,8.769555089168707e-07,2.089022438897353e-06,2.561234109463381e-05
3.1524554808371355e-07,8.78559002299237e-07,2.0936207699615887e-06,2.5837962559229392e-05
3.1481159233928127e-07,8.795225914964074e-07,2.097009914122241e-06,2.6083612184617748e-05
3.143371352435297e-07,8.79825903248904e-07,2.099177116295253e-06,2.6347403091125918e-05
3.138208445950746e-07,8.794555587196297e-07,2.1001268013378862e-06,2.662746881760513e-05
3.132612118398933e-07,8.784069110365465e-07,2.0998724343777197e-06,2.6922053745835708e-05
3.1265572326699785e-07,8.766862905486704e-07,2.0984331841765663e-06,2.722954659551541e-05
3.120012493548399e-07,8.743129105742676e-07,2.0958321189301973e-06,2.754846874730367e-05
3.112951027392901e-07,8.71320145456979e-07,2.092090921390845e-06,2.7877454852736853e-05
3.105349765165111e-07,8.677526909448057e-07,2.0872247178034386e-06,2.8215208846769685e-05
3.097181260534302e-07,8.636597364976501e-07,2.081242210620613e-06,2.8560394561892786e-05
3.088422159891449e-07,8.590928697034157e-07,2.074149288811443e-06,2.8911478292998785e-05
3.079072601483856e-07,8.541115461306025e-07,2.065952880776295e-06,2.9266613544058113e-05
3.0691536245661085e-07,8.48787016224363e-07,2.056663431330088e-06,2.962364164542597e-05
3.058685769735282e-07,8.431990158441566e-07,2.046294248762017e-06,2.9980169937576476e-05
3.047681221053586e-07,8.374280031277415e-07,2.0348592172800583e-06,3.033363471261041e-05
3.03614984839856e-07,8.315482197970749e-07,2.022371061603913e-06,3.0681328949973875e-05
3.024100037874259e-07,8.256260896851812e-07,2.0088401776041747e-06,3.10204489752002e-05
3.011540599165997e-07,8.197224891627851e-07,1.9942756933215247e-06,3.134819940081258e-05
2.998494974903068e-07,8.138938185460805e-07,1.97868949902492e-06,3.1661936386073024e-05
2.985019798468061e-07,8.081909687893671e-07,1.9621008895369134e-06,3.1959304250597125e-05
2.971213018948462e-07,8.026574754393526e-07,1.9445393538298023e-06,3.2238343530709506e-05
2.957203778794249e-07,7.973276059183332e-07,1.9260438010164293e-06,3.2497575825990064e-05
2.943136821500617e-07,7.922272045217196e-07,1.9066582255969368e-06,3.2736077997015835e-05
2.929163308758305e-07,7.873796168057421e-07,1.8864265983584427e-06,3.2953508238121776e-05
2.915424893564094e-07,7.828134895995901e-07,1.8653917640034503e-06,3.3149988787198824e-05
2.902029368775434e-07,7.78565597478314e-07,1.8436009649529338e-06,3.3325843790344816e-05
2.8890398625612694e-07,7.746753431718068e-07,1.8211134863802033e-06,3.348136071123243e-05
2.876484060240185e-07,7.711767562216425e-07,1.7980019899351376e-06,3.361672166383605e-05
2.864368751008589e-07,7.680972633665852e-07,1.774345302752253e-06,3.373206148801857e-05
2.852687104550273e-07,7.654633736920254e-07,1.7502212591645801e-06,3.382752867629375e-05
2.8414169119332124e-07,7.633046405506101e-07,1.7257105637493653e-06,3.39032954036225e-05
2.830517707720803e-07,7.616501732239567e-07,1.700910192857344e-06,3.395952402075068e-05
2.819937700543564e-07,7.605209663045378e-07,1.6759425372184436e-06,3.3996333549488164e-05
2.809628275606602e-07,7.599264447726171e-07,1.6509511857070775e-06,3.401382394953993e-05
2.7995523089921926e-07,7.598688071014602e-07,1.6260858106882856e-06,3.4012122380579824e-05
2.789682871016682e-07,7.603496970596969e-07,1.6014849540570992e-06,3.3991355160904776e-05
2.779997689093265e-07,7.613731985968552e-07,1.5772676857543175e-06,3.3951574565835794e-05
2.7704708817204905e-07,7.629448332441032e-07,1.5535375114181518e-06,3.3892767809212565e-05
2.761065546716035e-07,7.650690335467434e-07,1.5303891645092742e-06,3.3815032547549224e-05
2.751732596443499e-07,7.677472706072412e-07,1.5079094190042108e-06,3.3718903848459264e-05
2.74241459367366e-07,7.709760145776327e-07,1.4861731783354417e-06,3.3605648663501264e-05
2.733049170830029e-07,7.747425238555027e-07,1.4652390974517146e-06,3.347729772836087e-05
2.7235717559330085e-07,7.790217990136034e-07,1.4451467802559886e-06,3.333642581955493e-05
2.7139229401152357e-07,7.837799662757205e-07,1.425918313535571e-06,3.3185881212199824e-05
2.7040545654685287e-07,7.889820897061875e-07,1.4075655670918897e-06,3.3028578326249164e-05
2.693923750851986e-07,7.945975738433881e-07,1.3900985688035295e-06,3.286734163756746e-05
2.683484211122384e-07,8.006009803977803e-07,1.3735279400344884e-06,3.270478527892089e-05
2.672688551129782e-07,8.069705949937335e-07,1.3578609549458876e-06,3.254324518017743e-05
2.6614978695155713e-07,8.136852317649894e-07,1.3430992996638316e-06,3.238476310377705e-05
2.649891287834538e-07,8.207202401660394e-07,1.3292419499140512e-06,3.223107579118751e-05
2.637871794402522e-07,8.280466716561807e-07,1.316285734183409e-06,3.2083560828206084e-05
2.6254642729713915e-07,8.356338506892255e-07,1.3042228451709e-06,3.1943158047883824e-05
2.612707953753467e-07,8.43450234785382e-07,1.2930430597418024e-06,3.181032829392676e-05
2.599649339544001e-07,8.514600062557488e-07,1.282739277396337e-06,3.168507088954084e-05
2.586335913097949e-07,8.596200169267916e-07,1.2733106511950852e-06,3.156699617070311e-05
2.5728094934607647e-07,8.678825845075295e-07,1.264763304730927e-06,3.145545539696469e-05
2.559104986523028e-07,8.76202192018964e-07,1.2571081739653021e-06,3.134969069706557e-05
2.545260533264336e-07,8.845401812547731e-07,1.2503544364398528e-06,3.124894969683377e-05
2.531329359242629e-07,8.928646924689324e-07,1.2445016439787216e-06,3.1152564579877704e-05
2.517377741569071e-07,9.01146209207036e-07,1.239535517679549e-06,3.106002265807372e-05
2.5034727571634744e-07,9.093528577047986e-07,1.235427568098292e-06,3.0971020341365296e-05
2.4896747488857524e-07,9.174518763417636e-07,1.2321350891249146e-06,3.0885479714564885e-05
2.4760355910790894e-07,9.254173122287495e-07,1.229601383373028e-06,3.080352772207802e-05
2.4625951178145297e-07,9.332378009134069e-07,1.2277607563266706e-06,3.07254420995537e-05
2.4493754138887944e-07,9.409200874844412e-07,1.2265494496066178e-06,3.065155943979151e-05
2.436379490550107e-07,9.484863315577836e-07,1.2259148104121496e-06,3.0582144221318786e-05
2.423597873623197e-07,9.559659990016835e-07,1.225816242494e-06,3.051726307145385e-05
2.4110139160826566e-07,9.63386853911085e-07,1.2262212104707831e-06,3.0456735482018744e-05
2.398604741257452e-07,9.707677658472635e-07,1.2271001991424602e-06,3.0400152814756282e-05
2.38634941485042e-07,9.781136760752295e-07,1.2284203149260865e-06,3.0346896465614917e-05
2.374236395526625e-07,9.85414360007382e-07,1.2301391470628963e-06,3.029614599287544e-05
2.362257718375286e-07,9.92647470422337e-07,1.2322021641019631e-06,3.0246917710009132e-05
2.350406998680968e-07,9.997829458199525e-07,1.2345439065650623e-06,3.019812111189696e-05
2.3386905997794257e-07,1.006786869547967e-06,1.2370919910015209e-06,3.014858574909129e-05
2.3271391292686424e-07,1.0136256418144606e-06,1.239775558264584e-06,3.0097105008166106e-05
2.315811354043572e-07,1.0202688382429016e-06,1.2425376801024125e-06,3.004259526176442e-05
2.3047833041821748e-07,1.02668790525203e-06,1.2453450672992223e-06,2.9984325453228728e-05
2.2941292031781692e-07,1.0328523862181772e-06,1.248188672284371e-06,2.9922032702471142e-05
2.2839147441566053e-07,1.0387280608070215e-06,1.2510750260015914e-06,2.985583242357829e-05
2.274196604302075e-07,1.044279478765598e-06,1.2540162840643114e-06,2.9786022804422246e-05
2.2650145153338307e-07,1.049474197815128e-06,1.2570280988704774e-06,2.9712912586534748e-05
2.256383877083085e-07,1.0542830234114125e-06,1.2601326709015102e-06,2.9636713963008064e-05
2.2483018476163484e-07,1.058677180089312e-06,1.2633586725824356e-06,2.9557483408736097e-05
2.2407700514555398e-07,1.0626292301680909e-06,1.266738078544505e-06,2.9475085470561328e-05
2.233812999031531e-07,1.0661180933621224e-06,1.270303564107748e-06,2.9389200505033918e-05
2.2274746204045033e-07,1.0691328162626811e-06,1.274085689365285e-06,2.9299393728119605e-05
2.2218051748682212e-07,1.0716724864527651e-06,1.2781078545076595e-06,2.9205186944271104e-05
2.216849241063018e-07,1.073741961487617e-06,1.2823809313960349e-06,2.9106078102510664e-05
2.2126431865553246e-07,1.0753456600121258e-06,1.2869016752052595e-06,2.9001555086654852e-05
2.209225324613997e-07,1.0764850365316749e-06,1.291656623012032e-06,2.8891189744137e-05
2.2066404044379691e-07,1.0771623630529315e-06,1.2966330817138476e-06,2.8774738202569537e-05
2.2049403871234422e-07,1.0773863720057615e-06,1.3018371660259524e-06,2.8652112887541247e-05
2.204198096055165e-07,1.0771731735585331e-06,1.30730642445974e-06,2.852336352778199e-05
2.2045128974266667e-07,1.07654121104838e-06,1.3131021994373115e-06,2.838879566211529e-05
2.205988854312817e-07,1.0755057135127315e-06,1.3192923467662156e-06,2.8249022476845844e-05
2.2087082853620444e-07,1.0740791372057543e-06,1.3259510619259158e-06,2.8104833213004845e-05
2.2127199605167847e-07,1.0722779545326706e-06,1.3331789814104157e-06,2.7957018581698443e-05
2.218035715970821e-07,1.0701291337957377e-06,1.341122644427906e-06,2.7806248922771668e-05
2.2246349372626925e-07,1.067669810535513e-06,1.3499794524003755e-06,2.7653019060504247e-05
2.2324775932247057e-07,1.0649402158097049e-06,1.359987371182074e-06,2.7497667040416583e-05
2.241513701540377e-07,1.0619767244203177e-06,1.3714017260930165e-06,2.734043233796792e-05
2.251690949614933e-07,1.0588108862250266e-06,1.3844638897657062e-06,2.718147702656293e-05
2.2629746872341837e-07,1.0554717846572114e-06,1.3993720291869478e-06,2.702083989722909e-05
2.275375744960051e-07,1.0519861920747908e-06,1.4162677322126414e-06,2.6858390146774075e-05
2.288963990986391e-07,1.0483758181590564e-06,1.4352410769662854e-06,2.6693847384817246e-05
2.3038509880463995e-07,1.044654134541632e-06,1.4563389182534997e-06,2.652684500654188e-05
2.3201564004147052e-07,1.0408253375757704e-06,1.4795649084504262e-06,2.635696293749813e-05
2.3379905189201573e-07,1.0368863769932811e-06,1.50487571876863e-06,2.618370567116964e-05
2.3574557865877646e-07,1.0328293470225028e-06,1.5321811994873154e-06,2.600648287783348e-05
2.3786418130118852e-07,1.0286414467234936e-06,1.5613499856588713e-06,2.5824635222909204e-05
2.4016070036420103e-07,1.0243045126635778e-06,1.592221073939017e-06,2.5637479687791572e-05
2.426371572426415e-07,1.019796292266486e-06,1.624623115876716e-06,2.5444347949876315e-05
2.4529353011808374e-07,1.0150916970708368e-06,1.658394689326234e-06,2.5244619604909664e-05
2.481298522434525e-07,1.010163051225586e-06,1.6933947447490752e-06,2.5037749635447322e-05
2.511458139496758e-07,1.0049814691823005e-06,1.7295031330837844e-06,2.4823283526362303e-05
2.543386289468318e-07,9.995209881709262e-07,1.7666171184319337e-06,2.4600849388010252e-05
2.577028255402085e-07,9.93763522018107e-07,1.804644937350172e-06,2.4370119270094972e-05
2.6123174345850093e-07,9.87701312099272e-07,1.8434959647203426e-06,2.413076656363472e-05
2.649179119420082e-07,9.813365305712329e-07,1.8830695688795674e-06,2.3882459719925172e-05
2.687545195141304e-07,9.74678950139374e-07,1.923245655339613e-06,2.3624897026238197e-05
2.727393221052856e-07,9.677417354054672e-07,1.9638825053886627e-06,2.335787540764454e-05
2.768749496456957e-07,9.605379208648629e-07,2.004823897359021e-06,2.308139244892742e-05
2.8116336961951085e-07,9.530807709507612e-07,2.045907464309565e-06,2.2795756511536725e-05
2.856009024464998e-07,9.45385930339509e-07,2.0869689068343827e-06,2.250163943903513e-05
2.9017749491949803e-07,9.374705362543715e-07,2.1278442342022566e-06,2.2200001380346586e-05
2.948779777712548e-07,9.293494297007229e-07,2.168369857358812e-06,2.1891912002602725e-05
2.996831724814603e-07,9.210328068015051e-07,2.2083795630748857e-06,2.1578394478516725e-05
3.04570764775291e-07,9.125264942913384e-07,2.2477016006354407e-06,2.126037085177365e-05
3.095171681590941e-07,9.0383282051329e-07,2.2861594905427703e-06,2.093869417927452e-05
3.1450095623228247e-07,8.949509644145602e-07,2.3235767410339003e-06,2.061420796240703e-05
3.195048668272643e-07,8.858776179975872e-07,2.3597813704489345e-06,2.028776011234508e-05
3.245139042038459e-07,8.766104334954386e-07,2.39460552307414e-06,1.996021430521123e-05
3.295123704801413e-07,8.671549364535471e-07,2.4278819679203517e-06,1.9632562938206322e-05
3.344826333682271e-07,8.575312936517312e-07,2.459443420024084e-06,1.930607075025911e-05
3.394051106717444e-07,8.477766232497117e-07,2.4891249268977503e-06,1.8982302762598272e-05
3.442596818085393e-07,8.379416011551124e-07,2.5167653298410166e-06,1.8663039652754835e-05
3.4902850120953765e-07,8.280828341205059e-07,2.5422096220537688e-06,1.8350160537994423e-05
3.536969088495932e-07,8.182549146580697e-07,2.5653158458647525e-06,1.8045514225045467e-05
3.5825120543675777e-07,8.085078518643212e-07,2.5859617885835182e-06,1.7750776989959725e-05
3.6267674580702077e-07,7.988901725525359e-07,2.604045188080854e-06,1.7467339599558084e-05
3.669578217609205e-07,7.894499331065026e-07,2.6194792431200003e-06,1.719626914932057e-05
3.7107827965649475e-07,7.802307547363247e-07,2.6321897316518847e-06,1.693835543106772e-05
3.750230520526564e-07,7.712698751952061e-07,2.642115993716395e-06,1.6694226933965963e-05
3.787800608403172e-07,7.626010839986362e-07,2.6492112933850567e-06,1.6464484797341574e-05
3.8234084213391104e-07,7.54256612473635e-07,2.6534410633614928e-06,1.62498430371335e-05
3.8569965820174535e-07,7.462642937811723e-07,2.6547860106156183e-06,1.6051306798179912e-05
3.8885193777010454e-07,7.38644064604887e-07,2.653253137456581e-06,1.58702552639963e-05
3.9179245600392156e-07,7.314102617814269e-07,2.6488855380062744e-06,1.5708256421669545e-05
3.945142962716111e-07,7.245806951314386e-07,2.641760217397464e-06,1.5566775828283436e-05
3.9700998283214223e-07,7.181854682533666e-07,2.631974154079734e-06,1.5447054730239793e-05
3.9927287456052844e-07,7.122677291777995e-07,2.6196290562597437e-06,1.5350123056154832e-05
4.012965797879879e-07,7.068769837746745e-07,2.6048267372298957e-06,1.5276807329911064e-05
4.030743020947731e-07,7.02061838673612e-07,2.587677706513164e-06,1.5227740574183676e-05
4.0459932712049277e-07,6.978656620270648e-07,2.56831293166074e-06,1.5203382044430808e-05
4.058655774498672e-07,6.943231028257235e-07,2.5468879177978612e-06,1.5204010520312256e-05
4.0686808096777354e-07,6.914560199165429e-07,2.523575753275709e-06,1.5229704169686405e-05
4.0760293149612076e-07,6.892706707909111e-07,2.4985529030742742e-06,1.528034755287501e-05
4.0806672072449453e-07,6.877577223416055e-07,2.4719873074100732e-06,1.5355663138982004e-05
4.08257574875205e-07,6.8689590670935e-07,2.44403390539166e-06,1.545522454535115e-05
4.0817830711632255e-07,6.866600387084776e-07,2.414833271462565e-06,1.557842976000537e-05
4.078382548144983e-07,6.870285712814102e-07,2.3845106828749776e-06,1.572445363128778e-05
4.0725177807017603e-07,6.87983511556083e-07,2.3531782293675893e-06,1.58922257052528e-05
4.064354384370672e-07,6.895063729124344e-07,2.3209399656553868e-06,1.608045740192674e-05
4.054058537935921e-07,6.915803142156591e-07,2.287895987232739e-06,1.6287669433162883e-05
4.0417867542297476e-07,6.941990177789233e-07,2.2541433837077613e-06,1.6512177555649247e-05
4.0276800888508757e-07,6.973739846063401e-07,2.219777769997163e-06,1.6752083932745694e-05
4.0118568113427453e-07,7.011340293337101e-07,2.1848994924963832e-06,1.700530950294463e-05
3.9944116493672206e-07,7.055166079292929e-07,2.1496208558807966e-06,1.7269639273954214e-05
3.9754203416855137e-07,7.105549912189149e-07,2.1140656665655656e-06,1.7542779127443595e-05
3.95493797185016e-07,7.162677703044033e-07,2.078358864927105e-06,1.782243144354661e-05
3.9329966308424564e-07,7.226548870761161e-07,2.0426147794546713e-06,1.810636455906277e-05
3.909613665276476e-07,7.296983493563239e-07,2.0069339484789435e-06,1.8392469993491275e-05
3.884804017820289e-07,7.373640163239983e-07,1.971408659534228e-06,1.867881024291344e-05
3.8585852609475704e-07,7.456039816998215e-07,1.936127646467461e-06,1.8963623523676048e-05
3.8309810736066033e-07,7.543599717581669e-07,1.901172964987552e-06,1.924525464693016e-05
3.8020287625551493e-07,7.635662575755248e-07,1.866614115008128e-06,1.9522064740222186e-05
3.771783963937665e-07,7.731518412978044e-07,1.8325065520279069e-06,1.9792416501290454e-05
3.740326098286504e-07,7.830453802161271e-07,1.798894364379482e-06,2.0054745335298967e-05
3.707768640913061e-07,7.931846390491495e-07,1.765817354232674e-06,2.030765392668386e-05
3.674263518829674e-07,8.035256006012019e-07,1.7333247239247535e-06,2.0549976883520778e-05
3.639993771793594e-07,8.140443988514581e-07,1.7014918969750778e-06,2.0780764216965217e-05
3.605155308050753e-07,8.247306465626592e-07,1.6704320517873311e-06,2.0999178176244975e-05
3.569934653835497e-07,8.355760355362042e-07,1.640295643406114e-06,2.1204389532719847e-05
3.534496921586116e-07,8.465643648289902e-07,1.6112549316523986e-06,2.1395551150426826e-05
3.4989822921077214e-07,8.576693619200603e-07,1.5834790740981231e-06,2.1571850629956562e-05
3.463500156666673e-07,8.688617919332577e-07,1.5571210693069706e-06,2.173258444202057e-05
3.428129619728852e-07,8.801188152820763e-07,1.5323315910085644e-06,2.187716516897308e-05
3.392940093385005e-07,8.914263203463227e-07,1.509283297345196e-06,2.2005053528151425e-05
3.358022161396561e-07,9.027738188108477e-07,1.4881805778261531e-06,2.2115714359253697e-05
3.323502427237388e-07,9.141487444090056e-07,1.4692498521516884e-06,2.2208668582556365e-05
3.2895306178390515e-07,9.255329049351477e-07,1.4527202974276897e-06,2.2283631350960813e-05
3.2562520377959107e-07,9.368998316306816e-07,1.4388037493470214e-06,2.234067397152449e-05
3.2237851571853044e-07,9.482147003022458e-07,1.4276750683889299e-06,2.2380305305941453e-05
3.19221199887024e-07,9.594374390177604e-07,1.4194554235501819e-06,2.2403394540878682e-05
3.161577029552251e-07,9.705245750171973e-07,1.4142061873094282e-06,2.2410971839246248e-05
3.131891744584412e-07,9.814284838779106e-07,1.4119338135085018e-06,2.24040275927116e-05
3.1031425665228727e-07,9.920971930846701e-07,1.4125987728924843e-06,2.2383410529965395e-05
3.0752969536005074e-07,1.0024747441282764e-06,1.4161279525411067e-06,2.2349831085704385e-05
3.0483091773577104e-07,1.0125019545790586e-06,1.422431195398419e-06,2.2303895137945426e-05
3.0221294335267147e-07,1.0221212611988512e-06,1.431412895917143e-06,2.2246112579056788e-05
2.9967103443216407e-07,1.0312864395761895e-06,1.4429756190533031e-06,2.217693237204844e-05
2.972006869522274e-07,1.0399715444166643e-06,1.4570310969888812e-06,2.209689292329209e-05
2.947974261593441e-07,1.0481715939432694e-06,1.4735253625668576e-06,2.200679481619539e-05
2.924563992642021e-07,1.0558932871366603e-06,1.4924587895474615e-06,2.1907692351456933e-05
2.9017201511819144e-07,1.0631435204804936e-06,1.5138821078156781e-06,2.1800719113429053e-05
2.8793843851982107e-07,1.069923212916169e-06,1.537871484208844e-06,2.1686908482089208e-05
2.8575056024688066e-07,1.0762258026370511e-06,1.564497961529006e-06,2.1567111971098404e-05
2.836046857641056e-07,1.0820378141971797e-06,1.5938014546194804e-06,2.144212619378809e-05
2.8149900593242304e-07,1.0873404713431857e-06,1.6257725959553195e-06,2.1313036974479265e-05
2.7943335992979306e-07,1.0921122791125229e-06,1.6603468822057458e-06,2.118152351341991e-05
2.774080899840641e-07,1.0963341008729695e-06,1.6974111668907145e-06,2.104987510103569e-05
2.754232551568979e-07,1.0999958327445906e-06,1.7368125253455418e-06,2.0920772824730785e-05
2.7347844077916977e-07,1.103098474904862e-06,1.77836381580922e-06,2.079701731106901e-05
2.7157253199822146e-07,1.1056488544203204e-06,1.8218499690866559e-06,2.068128927515723e-05
2.697037040306118e-07,1.1076549395847512e-06,1.8670359772820908e-06,2.057596442540343e-05
2.6786957310259556e-07,1.1091272341454893e-06,1.913673120473196e-06,2.0482989739112452e-05
2.6606720183305305e-07,1.110080330034261e-06,1.961505329076719e-06,2.0403812651231844e-05
2.642932869596816e-07,1.1105323195435614e-06,2.0102802394378623e-06,2.033935549920992e-05
2.625446479742232e-07,1.110505466140347e-06,2.0597624523027333e-06,2.029003594938842e-05
2.6081890597624266e-07,1.1100247851771442e-06,2.109740333745264e-06,2.025582464039389e-05
2.591159217812423e-07,1.1091129713041194e-06,2.1600198071257493e-06,2.0236319239765588e-05
2.57439691250663e-07,1.1077883658549045e-06,2.210408207470887e-06,2.0230819070702224e-05
2.557983534203641e-07,1.106068788538943e-06,2.260699094481556e-06,2.0238399539351668e-05
2.542015399826758e-07,1.1039765670338396e-06,2.3106663783979924e-06,2.025800485072373e-05
2.526576866302402e-07,1.1015385355656953e-06,2.3600677383842943e-06,2.0288576427625175e-05
2.5117349707929216e-07,1.0987800354704792e-06,2.4086512955884155e-06,2.0329200415620306e-05
2.4975477046204717e-07,1.0957191681374887e-06,2.4561605218122247e-06,2.0379230227032567e-05
2.484069662458961e-07,1.0923656662142662e-06,2.5023368289065213e-06,2.043835678519544e-05
2.471353955509358e-07,1.088722842485766e-06,2.5469211116624833e-06,2.0506627873033357e-05
2.4594505180644694e-07,1.0847911557089784e-06,2.589657108033726e-06,2.0584414937612507e-05
2.448400268612037e-07,1.0805734547875358e-06,2.6303003699602334e-06,2.0672319867930453e-05
2.438241033697998e-07,1.0760809351410642e-06,2.66863199560212e-06,2.0771030908596e-05
2.4290262850391217e-07,1.0713362469750715e-06,2.7044693963738067e-06,2.088115737891538e-05
2.4208287636063535e-07,1.0663696070270371e-06,2.73766556597864e-06,2.100308071651372e-05
2.41372337327108e-07,1.0612101844003895e-06,2.7680972679805018e-06,2.113686394492905e-05
2.4077734525549623e-07,1.0558799563986409e-06,2.7956543562858e-06,2.1282254097796366e-05
2.403033151180739e-07,1.0503923651195884e-06,2.820241443981292e-06,2.1438744081028272e-05
2.3995594158729446e-07,1.0447539497931528e-06,2.8417875800307116e-06,2.1605615200358772e-05
2.3974179195485673e-07,1.0389678050665303e-06,2.860251570467617e-06,2.1781951136382925e-05
2.396671362197866e-07,1.0330368117946032e-06,2.8756189074145025e-06,2.196667882646706e-05
2.397359529728708e-07,1.0269646029419322e-06,2.887892838448302e-06,2.215865431764021e-05
2.399487609961728e-07,1.0207543925999934e-06,2.897082407330541e-06,2.23567241542159e-05
2.4030238363905625e-07,1.014407134586862e-06,2.9031929448444087e-06,2.255969858799819e-05
2.4079040143767373e-07,1.0079210497883742e-06,2.9062237725872137e-06,2.276629537413875e-05
2.414044059557098e-07,1.001293073435567e-06,2.9061715229793743e-06,2.297512343206831e-05
2.4213510118977126e-07,9.945206398224906e-07,2.9030341148497293e-06,2.318467361514125e-05
2.429725186212366e-07,9.876020643143222e-07,2.8968129832570937e-06,2.339332169946503e-05
2.4390593099141694e-07,9.805348471088688e-07,2.8875147301215236e-06,2.3599418232266808e-05
2.4492370403752143e-07,9.7331351697845e-07,2.875152637947585e-06,2.3801413555122643e-05
2.460130110111703e-07,9.65929113159377e-07,2.85974678687414e-06,2.3997869730252177e-05
2.471603380050529e-07,9.583696534636478e-07,2.8413229971513924e-06,2.418737176650095e-05
2.483539896511087e-07,9.506205308504719e-07,2.8199132216142517e-06,2.4368488755068242e-05
2.49587116459093e-07,9.426655764771527e-07,2.7955612692242515e-06,2.4539819346568162e-05
2.5085800241742823e-07,9.344900728261343e-07,2.7683353515685453e-06,2.4700039188047783e-05
2.5216733155479697e-07,9.260863423874788e-07,2.73834174635538e-06,2.484791431160184e-05
2.5351496071928856e-07,9.174599989843958e-07,2.7057283443786632e-06,2.498228138564189e-05
2.548982926610568e-07,9.086332412966276e-07,2.670672190098771e-06,2.510203217484058e-05
2.563126243766704e-07,8.996424608735573e-07,2.633359181173236e-06,2.520621968772459e-05
2.5775277482374896e-07,8.905302447761938e-07,2.593970406179478e-06,2.5294270095298817e-05
2.5921496750616626e-07,8.813366165612024e-07,2.5526791536850216e-06,2.5366068225350703e-05
2.606973760954223e-07,8.720946668796459e-07,2.5096514332114213e-06,2.542182777925807e-05
2.6219869876360586e-07,8.628304819968396e-07,2.4650463309820282e-06,2.5461891969483398e-05
2.637163846235318e-07,8.535650261952548e-07,2.4190187897155187e-06,2.548659962175713e-05
2.6524626681599605e-07,8.443167078710084e-07,2.3717239174594785e-06,2.549634836133009e-05
2.6678319031579706e-07,8.351040878714008e-07,2.3233179124142317e-06,2.5491900896639106e-05
2.683210837270268e-07,8.259479642622609e-07,2.273954144773384e-06,2.5474678197339786e-05
2.698525929268095e-07,8.168709839498399e-07,2.223777765665673e-06,2.5446767570322728e-05
2.71369906655749e-07,8.078948840805588e-07,2.1729229343470844e-06,2.541069970839793e-05
2.728666171902455e-07,7.990386336074026e-07,2.121515951840918e-06,2.5369179213929525e-05
2.743384081870405e-07,7.903186045111455e-07,2.0696873128454075e-06,2.532486256595501e-05
2.757821129355962e-07,7.81748436212199e-07,2.017590408377738e-06,2.5280205231382323e-05
2.771944946180101e-07,7.733372789244873e-07,1.9654153281457815e-06,2.5237354045495208e-05
2.785711005475438e-07,7.650883445839998e-07,1.9133852025311884e-06,2.5198062850200587e-05
2.7990532890331894e-07,7.570000442032986e-07,1.8617354924072747e-06,2.516364527505224e-05
2.8118841863116175e-07,7.490682535681463e-07,1.8106950401819542e-06,2.513496622270337e-05
2.8241035192558017e-07,7.412867659348891e-07,1.7604873984077137e-06,2.5112446585952066e-05
2.835606268513666e-07,7.336469580099927e-07,1.7113470196164543e-06,2.5096083293245292e-05
2.846282279059409e-07,7.261397915895231e-07,1.6635314935140203e-06,2.508550793722921e-05
2.8560147303230574e-07,7.187596850735252e-07,1.6173202920595948e-06,2.5080081521489348e-05
2.864688214780137e-07,7.115069106930512e-07,1.5730002509760347e-06,2.5079023451101817e-05
2.872207503561083e-07,7.043864248351116e-07,1.5308424130451744e-06,2.50815741716041e-05
2.878515549533563e-07,6.974042557623822e-07,1.4910808549967738e-06,2.508714601009552e-05
2.883602396168992e-07,6.905652179396229e-07,1.453904567305758e-06,2.509540863260923e-05
2.88750219431427e-07,6.838730938531796e-07,1.419461409917802e-06,2.5106309086160315e-05
2.890275393197146e-07,6.773304472206542e-07,1.387863352630384e-06,2.512005584636481e-05
2.891986670193718e-07,6.709374013200218e-07,1.3591867378715494e-06,2.5137073535082825e-05
2.89269091939619e-07,6.64690940667889e-07,1.3334695146057956e-06,2.515792553365447e-05
2.892425257363484e-07,6.585850923641287e-07,1.3107098490846635e-06,2.518321977203593e-05
2.891206750747002e-07,6.526115166614289e-07,1.2908685458657726e-06,2.5213505444333137e-05
2.889040034453142e-07,6.467605163037789e-07,1.2738759064326789e-06,2.524915761194101e-05
2.885928327669989e-07,6.41024322095094e-07,1.259644013633144e-06,2.5290277767665592e-05
2.881875631421648e-07,6.354023042442804e-07,1.2480826718382171e-06,2.533666077064579e-05
2.876882816236964e-07,6.299032108748957e-07,1.2391129964040979e-06,2.5387829845958005e-05
2.8709501050827146e-07,6.245444370412806e-07,1.2326737582664058e-06,2.544308864113845e-05
2.8640856714553034e-07,6.193540916739149e-07,1.2287183980992865e-06,2.550156645495518e-05
2.8563078721067143e-07,6.143740087969511e-07,1.2272031416317283e-06,2.5562271313596867e-05
2.847637419104962e-07,6.096555136625232e-07,1.2280733987100345e-06,2.5624152479477328e-05
2.83809351198594e-07,6.052490000662308e-07,1.231259107117931e-06,2.568613265741635e-05
2.827699794178929e-07,6.01197647143119e-07,1.2366803113464646e-06,2.5747071162308603e-05
2.81648639747179e-07,5.975400651469468e-07,1.2442554694549188e-06,2.580571314425594e-05
2.8044886075550087e-07,5.943170377891771e-07,1.2539078369537206e-06,2.586071930764092e-05
2.79175923992773e-07,5.91576204743535e-07,1.2655683369386613e-06,2.5910764733221485e-05
2.778391486971081e-07,5.893710655996849e-07,1.2791741172138502e-06,2.595463809613596e-05
2.764530559544238e-07,5.877538285922828e-07,1.2946644077152582e-06,2.5991340180952403e-05
2.750360299842195e-07,5.867666852305433e-07,1.3119740786056632e-06,2.6020178606238765e-05
2.7360696028923513e-07,5.86436943584674e-07,1.3310248765259438e-06,2.604077167339899e-05
2.7218284527666964e-07,5.867772929598415e-07,1.3517177297932486e-06,2.605292190711678e-05
2.707798515352572e-07,5.877905013971003e-07,1.373929826407669e-06,2.605646348819839e-05
2.694154162100557e-07,5.894767616061249e-07,1.3975186630716336e-06,2.605120793670287e-05
2.681079795118048e-07,5.918381491258154e-07,1.422333652081041e-06,2.603697960068133e-05
2.668750667675596e-07,5.948753050153703e-07,1.4482311674881144e-06,2.601364196231179e-05
2.657316477099047e-07,5.985802498776246e-07,1.4750859733874118e-06,2.5981080739678212e-05
2.646892024612041e-07,6.0293394025162e-07,1.502796717833525e-06,2.5939188112427162e-05
2.6375562124378855e-07,6.079104408163063e-07,1.5312867190880282e-06,2.588790901135137e-05
2.629360739904236e-07,6.134823264488489e-07,1.5604983285231174e-06,2.582734279231248e-05
2.622338118928773e-07,6.196227172691422e-07,1.5903812049032315e-06,2.5757765811031574e-05
2.616499480240055e-07,6.263041616394279e-07,1.6208801699238217e-06,2.5679509573340225e-05
2.6118310573044966e-07,6.334974448147527e-07,1.651925696601607e-06,2.559283022098677e-05
2.608296804845541e-07,6.411715772419628e-07,1.6834280134179503e-06,2.5497901516962383e-05
2.605849504299425e-07,6.492932869850615e-07,1.7152797817258458e-06,2.5394966883745886e-05
2.6044485120761126e-07,6.578256566688904e-07,1.7473678594011749e-06,2.5284635858371555e-05
2.604064565182435e-07,6.66727089671851e-07,1.7795858503433308e-06,2.516814959602572e-05
2.6046701290005114e-07,6.759504137330658e-07,1.8118424314020959e-06,2.5047378234722313e-05
2.6062431620241647e-07,6.854422206788747e-07,1.8440657777182828e-06,2.492458525878388e-05
2.6087890507659104e-07,6.951433403990871e-07,1.8762034171187302e-06,2.480216860572069e-05
2.61235178582482e-07,7.049899325122663e-07,1.9082181132059507e-06,2.4682446623655812e-05
2.616992015908809e-07,7.149155805514019e-07,1.940082797932446e-06,2.4567467127746136e-05
2.622750815838191e-07,7.248575493702116e-07,1.9717759609168818e-06,2.445885974348681e-05
2.6296367923128184e-07,7.347665717919427e-07,2.0032752743376517e-06,2.435775803987784e-05
2.637642200327581e-07,7.446124138326302e-07,2.034547528748799e-06,2.4264802030710918e-05
2.646769706752853e-07,7.543808549334734e-07,2.065539369298735e-06,2.418020304569528e-05
2.6570486347254016e-07,7.640662198082423e-07,2.0961746054643825e-06,2.410381105526929e-05
2.668523750444619e-07,7.736638416048385e-07,2.126356512694299e-06,2.403516004442719e-05
2.6812271512115715e-07,7.831659943066922e-07,2.1559719630844986e-06,2.3973532704025408e-05
2.69515802213729e-07,7.925645639244738e-07,2.1848975566179017e-06,2.391806248253568e-05
2.710276569331643e-07,8.01855710798382e-07,2.2130074930447528e-06,2.386783915154171e-05
2.7265080074460103e-07,8.110393425168819e-07,2.2401826003947188e-06,2.38219923264897e-05
2.743751684878476e-07,8.201156000703079e-07,2.2663196388086697e-06,2.3779755704941408e-05
2.761886648946781e-07,8.290821470573626e-07,2.291338244933604e-06,2.3740496817801918e-05
2.7807747629523483e-07,8.379309034225002e-07,2.315182227135416e-06,2.370369680684584e-05
2.8002712430158004e-07,8.466454993769849e-07,2.337813662242381e-06,2.3668922539362368e-05
2.820236848240474e-07,8.552025834967576e-07,2.359203078003905e-06,2.3635818327344127e-05
2.8405396505627257e-07,8.63575893389257e-07,2.3793204919849732e-06,2.3604073424663207e-05
2.861053773468358e-07,8.717398493488277e-07,2.398127728763298e-06,2.3573350206804524e-05
2.8816623828810193e-07,8.796698060767328e-07,2.415572296959689e-06,2.354321733304413e-05
2.902255540591629e-07,8.873387603026512e-07,2.4315868656431223e-06,2.351310798016981e-05
2.9227217906614144e-07,8.947145683393919e-07,2.4460961244549716e-06,2.348230451397545e-05
2.942946383427863e-07,9.017611777650835e-07,2.4590253518471827e-06,2.3449969538777806e-05
2.962821543304365e-07,9.084424754184284e-07,2.47030274712792e-06,2.3415203850778822e-05
2.9822568135730057e-07,9.14724557054522e-07,2.479856019380786e-06,2.33770767047059e-05
3.00117551047936e-07,9.205751371477951e-07,2.487610817185205e-06,2.333462762876192e-05
3.019505585903232e-07,9.259627447460172e-07,2.4934933552954973e-06,2.328687170042245e-05
3.0371816885667927e-07,9.308567371333777e-07,2.4974337496963864e-06,2.3232808004656734e-05
3.054149990178523e-07,9.352284760196381e-07,2.499370789341128e-06,2.3171422210823e-05
3.0703665058586977e-07,9.390545566051581e-07,2.499261980206976e-06,2.3101706182816696e-05
3.085804641217833e-07,9.423183637168984e-07,2.4970945156805112e-06,2.302272119005109e-05
3.100468619730461e-07,9.450072410670046e-07,2.492887416311528e-06,2.2933682319642334e-05
3.114390373859632e-07,9.471093280870813e-07,2.486683870345607e-06,2.283402338440748e-05
3.1276217803501165e-07,9.486129750912597e-07,2.4785403801875263e-06,2.272344183563831e-05
3.140241263314437e-07,9.495069541607969e-07,2.4685169222194988e-06,2.2601947682085898e-05
3.152354554608315e-07,9.497796423637951e-07,2.4566712050134447e-06,2.2469904213942488e-05
3.1640741862913644e-07,9.494180356542429e-07,2.4430589338873538e-06,2.2327995893952162e-05
3.175495688606857e-07,9.484089154398168e-07,2.427735578553072e-06,2.2177087990851206e-05
3.186684726407597e-07,9.467416429793657e-07,2.4107556138754883e-06,2.201805097234909e-05
3.1976772193091605e-07,9.444090736414877e-07,2.3921711748953807e-06,2.1851676606463417e-05
3.208487460778274e-07,9.414065801714928e-07,2.3720310158303213e-06,2.1678713277951102e-05
3.219111504546275e-07,9.377332462801964e-07,2.3503790657393888e-06,2.149992465513985e-05
3.229522495952066e-07,9.333969602688446e-07,2.327254528703364e-06,2.131610658053108e-05
3.23966845374608e-07,9.28420850179739e-07,2.3026968951020284e-06,2.112807166634367e-05
3.249479310752409e-07,9.228461644638164e-07,2.276757484934578e-06,2.0936647467667623e-05
3.258872213836165e-07,9.16727799129344e-07,2.24951241288e-06,2.074275869190624e-05
3.267745476608385e-07,9.101249973368305e-07,2.221065981001022e-06,2.0547530787303407e-05
3.275974370560494e-07,9.030945242526421e-07,2.191539807058728e-06,2.0352235263822727e-05
3.283422702361371e-07,8.956898191474437e-07,2.161056682144529e-06,2.0158088860591915e-05
3.2899650195592624e-07,8.879631890402636e-07,2.1297323499941965e-06,1.996610256686496e-05
3.2955025430686014e-07,8.79966557879758e-07,2.0976784390764283e-06,1.977712083584491e-05
3.299960356181009e-07,8.717498150615722e-07,2.065009859314236e-06,1.9592059330908447e-05
3.3032742754645076e-07,8.633599670557447e-07,2.0318490138664503e-06,1.941216941122393e-05
3.305380831743319e-07,8.548437848732364e-07,1.998322739680674e-06,1.9239093817292442e-05
3.3062139707800143e-07,8.462526570605692e-07,1.9645541395500013e-06,1.9074706761980047e-05
3.305719692422067e-07,8.376458650044332e-07,1.9306552476879275e-06,1.8920919355603197e-05
3.303888454973975e-07,8.290901571775376e-07,1.8967232268184898e-06,1.8779539261437985e-05
3.300771949901305e-07,8.206564226577569e-07,1.8628387780934295e-06,1.865216481997437e-05
3.296463263518617e-07,8.124135383276675e-07,1.8290657095854431e-06,1.854010976218191e-05
3.291066313362584e-07,8.044208643841873e-07,1.7954532156575515e-06,1.8444371612641783e-05
3.284684173123184e-07,7.967247867133681e-07,1.7620421274275533e-06,1.8365646196002792e-05
3.277416646750639e-07,7.893603957793615e-07,1.7288716466398139e-06,1.830438639837366e-05
3.269351670200296e-07,7.823534593774838e-07,1.6959815871227238e-06,1.8260876708282338e-05
3.260561209320449e-07,7.757202077210556e-07,1.6634136150880198e-06,1.8235264828284035e-05
3.251108591588509e-07,7.694667628607148e-07,1.6312190780425946e-06,1.822751707147246e-05
3.241060653151987e-07,7.635907371512404e-07,1.5994696784639015e-06,1.8237335389037406e-05
3.230497896162711e-07,7.580847484142127e-07,1.5682607033780028e-06,1.826413412136121e-05
3.219509733792304e-07,7.529385603255045e-07,1.5377045391763266e-06,1.8307123658938672e-05
3.2081796108470245e-07,7.481378387255299e-07,1.5079190446270617e-06,1.836542551989211e-05
3.1965855684193073e-07,7.436616495535131e-07,1.479015295974207e-06,1.8438141956736454e-05
3.18480871418241e-07,7.394819867098916e-07,1.4510883324339638e-06,1.852438891357232e-05
3.172927350332832e-07,7.355662760947938e-07,1.4242139640944818e-06,1.8623315831325967e-05
3.1610108344570926e-07,7.318813144887138e-07,1.3984531060214147e-06,1.8734104865502828e-05
3.14912465978438e-07,7.283962047981083e-07,1.3738621957654966e-06,1.8855948570202605e-05
3.137339030335429e-07,7.250828853534375e-07,1.3505040286332071e-06,1.8988032405434698e-05
3.125748153130188e-07,7.219144247257455e-07,1.328452324060271e-06,1.9129539485549562e-05
3.114489991440731e-07,7.188633054208319e-07,1.3077880128047687e-06,1.9279659270997087e-05
3.1037310437701037e-07,7.159034231192571e-07,1.2885915229325606e-06,1.943755713052462e-05
3.093624419488045e-07,7.13015210797017e-07,1.2709374751069592e-06,1.9602281899275647e-05
3.084285694994696e-07,7.101870091497461e-07,1.2548932138767453e-06,1.9772670490490233e-05
3.075794653873127e-07,7.074112062289423e-07,1.240515802107702e-06,1.994733408792367e-05
3.068198910607208e-07,7.046837630456757e-07,1.2278443085167269e-06,2.0124709952280445e-05
3.061515898782009e-07,7.020104890202329e-07,1.2168946715964666e-06,2.0303109616952988e-05
3.055744737497056e-07,6.994135468862204e-07,1.2076641965568594e-06,2.0480759568272432e-05
3.0508795994391525e-07,6.969345940853915e-07,1.2001400066088062e-06,2.065585379424661e-05
3.046906566699368e-07,6.946340961359476e-07,1.1943027022471888e-06,2.082658681265728e-05
3.043788944824525e-07,6.925833899246392e-07,1.1901249321488814e-06,2.099114789344744e-05
3.0414634569922407e-07,6.908505949274407e-07,1.1875690363471494e-06,2.1147726017102187e-05
3.039850533913132e-07,6.894890203809248e-07,1.1865865220379342e-06,2.129456941194325e-05
3.038860739477009e-07,6.885331887442586e-07,1.187119505688297e-06,2.1430078053572008e-05
3.038396343533856e-07,6.879998885008735e-07,1.1891012621402211e-06,2.155289401039144e-05
3.0383665764989217e-07,6.878907493916775e-07,1.1924541944606596e-06,2.1661977236733976e-05
3.038713101704728e-07,6.881956800226437e-07,1.197089492772706e-06,2.1756630876602108e-05
3.0394151571127093e-07,6.888969442982765e-07,1.2029118959273414e-06,2.1836434534553863e-05
3.040466830603256e-07,6.899718505636764e-07,1.2098240923163109e-06,2.1901114228692663e-05
3.041858224764333e-07,6.913942405432878e-07,1.21772681459054e-06,2.195041779980068e-05
3.043575470054705e-07,6.931391676550218e-07,1.2265210834662147e-06,2.198404095557128e-05
3.045599182587565e-07,6.951917182310748e-07,1.236114892212782e-06,2.2001614428252324e-05
3.04789370832315e-07,6.975556880189025e-07,1.24642597986408e-06,2.2002736645726715e-05
3.050403518928793e-07,7.002585340181631e-07,1.2573761314224924e-06,2.1987028070764054e-05
3.0530669631929977e-07,7.033503047027666e-07,1.2688821303656665e-06,2.195421836388247e-05
3.055832289476956e-07,7.068957281261383e-07,1.2808519983923264e-06,2.190431212045769e-05
3.058657422503414e-07,7.109615727901385e-07,1.2931894573943562e-06,2.183774420861032e-05
3.061509115030773e-07,7.156036024887116e-07,1.3057994757354814e-06,2.175533139271785e-05
3.064379331612677e-07,7.20859029469415e-07,1.3185893786618495e-06,2.165804796090117e-05
3.067295460859757e-07,7.267473469730123e-07,1.3314695498362551e-06,2.154683372259369e-05
3.0703049118232146e-07,7.332751436755334e-07,1.3443549937662682e-06,2.1422573981329086e-05
3.073455473407173e-07,7.404384698860215e-07,1.3571636182472594e-06,2.1286301962573136e-05
3.076792504477681e-07,7.482215478442706e-07,1.3698164075654605e-06,2.113950740017286e-05
3.080364043243639e-07,7.565952332098995e-07,1.3822484401516823e-06,2.0984291173895827e-05
3.084219416250189e-07,7.655186988898016e-07,1.394423256042795e-06,2.0823280384718515e-05
3.08840873345339e-07,7.749460108850782e-07,1.4063341011177966e-06,2.0659463713581205e-05
3.092994062052e-07,7.848359046310441e-07,1.4179900728614575e-06,2.049607294618136e-05
3.0980553359646577e-07,7.951598327322409e-07,1.429402267570477e-06,2.0336479688256892e-05
3.103674433511305e-07,8.059057226643492e-07,1.4405853047509702e-06,2.018404996194512e-05
3.109914607326392e-07,8.170790053601489e-07,1.4515713607475543e-06,2.004196672508766e-05
3.11681372230991e-07,8.287001449915148e-07,1.462417431512458e-06,1.991305193996028e-05
3.124385505992639e-07,8.40794967054478e-07,1.473194943047419e-06,1.9799612110152026e-05
3.132615713417829e-07,8.53380552747751e-07,1.4839697796681502e-06,1.970334689722796e-05
3.1414530488299257e-07,8.664561842878418e-07,1.494786117077169e-06,1.9625345204323564e-05
3.1508127237070857e-07,8.800035987234106e-07,1.505661152789249e-06,1.9566157481879102e-05
3.160601678459694e-07,8.939930413102854e-07,1.5165897239535909e-06,1.952592002749324e-05
3.1707425241417607e-07,9.083898228266779e-07,1.5275544376065482e-06,1.950449905578644e-05
3.181173553783542e-07,9.231567141957718e-07,1.5385372549183917e-06,1.9501636405860853e-05
3.191835775067715e-07,9.382513289060046e-07,1.5495257011316974e-06,1.951708754582245e-05
3.202665201667963e-07,9.536225252044779e-07,1.560507898665367e-06,1.9550708691995026e-05
3.213588303793382e-07,9.692102760955252e-07,1.57146125457017e-06,1.960245876159861e-05
3.224515648889593e-07,9.849494262576098e-07,1.5823462168814727e-06,1.967235790358562e-05
3.235342971908001e-07,1.0007735526010876e-06,1.5931109805505948e-06,1.97604621642082e-05
3.245963298054334e-07,1.0166163626641585e-06,1.603703558320865e-06,1.9866843062883826e-05
3.256274756749736e-07,1.032411489937727e-06,1.6140830804924503e-06,1.999152555284396e-05
3.266178963618218e-07,1.0480913937239514e-06,1.6242249309939752e-06,2.013437825392815e-05
3.27557996767882e-07,1.0635853647647623e-06,1.6341204435379022e-06,2.029499069531504e-05
3.2843808395340036e-07,1.0788177430480205e-06,1.6437751958426762e-06,2.047260425227189e-05
3.2924774890463325e-07,1.0937080409116857e-06,1.6532067528843734e-06,2.066616243493013e-05
3.2997616145042527e-07,1.1081735297041015e-06,1.662438221480313e-06,2.0874425414422446e-05
3.306126551639413e-07,1.1221326184581948e-06,1.6714872408577582e-06,2.1096013533130318e-05
3.3114645854630196e-07,1.1355062720532492e-06,1.680357640830363e-06,2.132938163868367e-05
3.315661505697348e-07,1.1482171815556877e-06,1.6890400493714468e-06,2.157282931737732e-05
3.318593361351931e-07,1.1601891181411515e-06,1.6975171121804056e-06,2.1824570833380052e-05
3.3201261784322144e-07,1.171347688849646e-06,1.7057656134106834e-06,2.208282132360578e-05
3.320121405958594e-07,1.1816221831923245e-06,1.7137558825119233e-06,2.2345837414583176e-05
3.318447747845662e-07,1.190949203687031e-06,1.7214519868415646e-06,2.2611861610518698e-05
3.314993521869028e-07,1.1992774025423252e-06,1.7288137663437455e-06,2.287902342963869e-05
3.309669620869455e-07,1.2065685616046068e-06,1.7358014625047905e-06,2.3145304125860745e-05
3.302404505856677e-07,1.2127924899781996e-06,1.7423812672876674e-06,2.3408584081615132e-05
3.293139720247154e-07,1.2179206040983238e-06,1.7485287461955502e-06,2.366674248558403e-05
3.281827970307355e-07,1.2219236586342394e-06,1.7542305598194985e-06,2.391781088918027e-05
3.268434737099764e-07,1.224774023358939e-06,1.7594855724591209e-06,2.416013156503897e-05
3.252942964850309e-07,1.2264498753303556e-06,1.7643038013620182e-06,2.4392391018357246e-05
3.235357682104455e-07,1.2269378214377053e-06,1.7687017712237824e-06,2.461349746454293e-05
3.215709437407395e-07,1.2262322708809545e-06,1.7726951510418537e-06,2.482245102782071e-05
3.1940585843671296e-07,1.224333538516567e-06,1.7762909623364998e-06,2.5018329876654638e-05
3.170498835974545e-07,1.2212466951943963e-06,1.7794827470361398e-06,2.5200333508978266e-05
3.145148586657076e-07,1.2169802500322915e-06,1.782252613724522e-06,2.536777541823897e-05
3.118132493268304e-07,1.2115448847539357e-06,1.784579302436132e-06,2.5520022666675465e-05
3.0895811236663516e-07,1.2049556920586345e-06,1.7864459845760795e-06,2.5656497442958064e-05
3.0596523068709803e-07,1.197237011459241e-06,1.7878441936679799e-06,2.5776859750493548e-05
3.028536658164012e-07,1.1884226071346936e-06,1.7887740407249763e-06,2.5881248020152225e-05
2.9964354086053034e-07,1.178549886212265e-06,1.7892412067286403e-06,2.59702994593864e-05
2.963545262489352e-07,1.1676557406068595e-06,1.7892526105430381e-06,2.604494310685226e-05
2.930064061820442e-07,1.1557782444562211e-06,1.7888119514637581e-06,2.6106184861086708e-05
2.896190923641388e-07,1.1429607547364425e-06,1.7879147264303746e-06,2.615499275918072e-05
2.862109764388277e-07,1.1292531520181488e-06,1.7865462904527924e-06,2.6192311658892967e-05
2.8279779918892173e-07,1.1147089424867254e-06,1.7846878505533736e-06,2.6219239874632016e-05
2.7939392830537965e-07,1.099381623767413e-06,1.782327297247667e-06,2.623723219361793e-05
2.7601499281799544e-07,1.0833231933663507e-06,1.7794667887062439e-06,2.624809969990841e-05
2.726790275834795e-07,1.0665841390927531e-06,1.7761232336736592e-06,2.625382219987502e-05
2.6940513804229174e-07,1.049213395989083e-06,1.772322915444629e-06,2.6256363780014003e-05
2.6621115056878865e-07,1.0312579701062615e-06,1.768092921526884e-06,2.625756587467735e-05
2.631118304662709e-07,1.012762936107965e-06,1.7634525553423973e-06,2.625908202434253e-05
2.6011830308060346e-07,9.93772938812146e-07,1.758408944985231e-06,2.6262322114739718e-05
2.572385096131276e-07,9.743340678521638e-07,1.752958474239307e-06,2.6268405686362186e-05
2.544792544386093e-07,9.54493725859795e-07,1.7470913005767483e-06,2.627814255649556e-05
2.518498188466155e-07,9.343001945251513e-07,1.7407974788895801e-06,2.629205182646361e-05
2.493633182378424e-07,9.138045181221537e-07,1.7340751442798073e-06,2.6310399592726936e-05
2.470341608224944e-07,8.930618295963857e-07,1.7269384130175808e-06,2.633321940512953e-05
2.448768107310677e-07,8.721290333034503e-07,1.7194217909279388e-06,2.636029909755747e-05
2.429075529745635e-07,8.510623149700748e-07,1.711579759674864e-06,2.6391158727745488e-05
2.411440102014953e-07,8.299182075309529e-07,1.703480176339057e-06,2.6425098079194084e-05
2.3960143778448557e-07,8.087559440903514e-07,1.6951919999724336e-06,2.6461364051854105e-05
2.3829065613469118e-07,7.876374132331908e-07,1.6867735386202928e-06,2.649935209742324e-05
2.3721972592222442e-07,7.6662422422111e-07,1.6782680897211832e-06,2.6538714722146896e-05
2.3639608494966646e-07,7.457743821011396e-07,1.6697069559544814e-06,2.657936673414621e-05
2.3582586777208647e-07,7.251412613849663e-07,1.6611146890672433e-06,2.662145604651088e-05
2.3551220801435966e-07,7.04774775508432e-07,1.652511758813986e-06,2.6665332166047973e-05
2.3545570354361092e-07,6.847242414682274e-07,1.6439135190085951e-06,2.671148980183368e-05
2.3565585374282346e-07,6.650459655014617e-07,1.6353288544972919e-06,2.676046545020656e-05
2.3611065377743559e-07,6.458166195775753e-07,1.6267610628172697e-06,2.681270082763077e-05
2.3681537473586077e-07,6.271444504550392e-07,1.6182094427120531e-06,2.686842351390767e-05
2.3776356758760928e-07,6.09168740715091e-07,1.6096715006400778e-06,2.692763021062916e-05
2.389497568328922e-07,5.920463755721145e-07,1.6011476571081475e-06,2.699019023222777e-05
2.4037102375395666e-07,5.759322946493296e-07,1.592644905864379e-06,2.705593606226988e-05
2.42026733576189e-07,5.609652733156174e-07,1.5841730866514628e-06,2.7124647503486653e-05
2.439170098088151e-07,5.472675168363354e-07,1.5757366317388501e-06,2.719600661063446e-05
2.460407373954644e-07,5.349547163257597e-07,1.567331734833e-06,2.726961281965965e-05
2.483938702242332e-07,5.241462681430553e-07,1.5589526680370425e-06,2.734504270063682e-05
2.5096882370819514e-07,5.149690127009872e-07,1.5506033240631554e-06,2.742186462237857e-05
2.537556857699128e-07,5.075532657526038e-07,1.5423070730991174e-06,2.749955393878576e-05
2.5674376677754825e-07,5.020227867872042e-07,1.5341082184115117e-06,2.757737709905e-05
2.599211438423187e-07,4.98482271137705e-07,1.5260655465081353e-06,2.7654343167798987e-05
2.6327273936733663e-07,4.970077078765385e-07,1.5182436406779716e-06,2.7729239097768224e-05
2.667791240954414e-07,4.976444594476664e-07,1.510703385099792e-06,2.7800727142755623e-05
2.7041692925407054e-07,5.004130677715984e-07,1.5034920969472969e-06,2.786749246516065e-05
2.7416005857410047e-07,5.053177712026046e-07,1.4966391021170671e-06,2.7928381991542907e-05
2.7798111860254285e-07,5.123513549673029e-07,1.490160821880267e-06,2.798243587332816e-05
2.818539912256463e-07,5.214924674497947e-07,1.4840704410796308e-06,2.8028803634841094e-05
2.8575684921960604e-07,5.326991746363022e-07,1.478385062850535e-06,2.80666284651948e-05
2.896721974269699e-07,5.459078451223203e-07,1.473128471621879e-06,2.809496219169107e-05
2.935839302398817e-07,5.61040072359204e-07,1.4683293442696692e-06,2.8112735070454925e-05
2.974752059807705e-07,5.780109201171109e-07,1.4640139916695509e-06,2.8118772358498546e-05
3.0132817815617146e-07,5.967315991767179e-07,1.4601960766385976e-06,2.8111833274362182e-05
3.051247205753533e-07,6.171069690442106e-07,1.456869092975146e-06,2.809070430736764e-05
3.088480695930873e-07,6.390331748099755e-07,1.4540050425705631e-06,2.805440728652392e-05
3.124843526410852e-07,6.623965761662335e-07,1.4515586881802004e-06,2.800242353513233e-05
3.160227625851871e-07,6.870710845206412e-07,1.449475722099436e-06,2.793470544592561e-05
3.194543736043501e-07,7.129152397738537e-07,1.4477034895152497e-06,2.785145681319633e-05
3.227705424499644e-07,7.397726484130813e-07,1.4462020350331947e-06,2.7752899971758746e-05
3.2596191796723646e-07,7.674760511722974e-07,1.4449510466327141e-06,2.763918355549969e-05
3.290181892035462e-07,7.958527731640625e-07,1.443948078680854e-06,2.7510482470373067e-05
3.3192838234223063e-07,8.247289276708179e-07,1.44319854207223e-06,2.7367283532911275e-05
3.3468138409130017e-07,8.539331851528841e-07,1.442705940137986e-06,2.721066312188192e-05
3.3726603893222623e-07,8.833038199795832e-07,1.4424739639206988e-06,2.7042318998604017e-05
3.396713510595885e-07,9.126965395210406e-07,1.4425213395999742e-06,2.686439365220349e-05
3.418877189997696e-07,9.419854778086544e-07,1.4428957189133341e-06,2.667928437827265e-05
3.439079051885243e-07,9.710561773888316e-07,1.4436741282069098e-06,2.648950660323811e-05
3.45727159785076e-07,9.997966524028905e-07,1.4449496239933713e-06,2.629756772037856e-05
3.473440546179697e-07,1.02809307573969e-06,1.4468162585183399e-06,2.6105830150362648e-05
3.4876090715441185e-07,1.0558327304152366e-06,1.4493674419319097e-06,2.59163981240762e-05
3.4998185580966267e-07,1.0829104108169028e-06,1.452705378559894e-06,2.573106828401896e-05
3.510102085396821e-07,1.1092323218591452e-06,1.4569441530484502e-06,2.5551327790529918e-05
3.518473906152278e-07,1.1347163790498258e-06,1.4621981351689162e-06,2.5378339243290784e-05
3.52493779048442e-07,1.1592910694573988e-06,1.4685657813495551e-06,2.521289910480088e-05
3.529500963780272e-07,1.182894345355047e-06,1.4761265003370263e-06,2.5055441398269118e-05
3.532177587661905e-07,1.2054720993459976e-06,1.4849546426026815e-06,2.4906132406202483e-05
3.5329856725781725e-07,1.2269746598515364e-06,1.495136228979491e-06,2.476501121790918e-05
3.531956643727526e-07,1.2473528494745465e-06,1.5067755303659901e-06,2.463213500857557e-05
3.5291502637057254e-07,1.266557699968972e-06,1.5199892745105547e-06,2.4507724370275626e-05
3.524649674303766e-07,1.2845438605912815e-06,1.5348909868177652e-06,2.439226278066041e-05
3.518540367470742e-07,1.3012715551732762e-06,1.5515707811638197e-06,2.428649985795116e-05
3.510894487365125e-07,1.3167049848211122e-06,1.5700775401734809e-06,2.419139364862517e-05
3.501767214756689e-07,1.3308120746347076e-06,1.5904100622597847e-06,2.410803903383852e-05
3.4911965455734266e-07,1.3435681556681118e-06,1.6125214783473729e-06,2.403756007620668e-05
3.47920758687533e-07,1.354959444298959e-06,1.6363333090396938e-06,2.398095032862381e-05
3.465835417626381e-07,1.364983146996606e-06,1.6617483341297944e-06,2.393890679862479e-05
3.45114938520642e-07,1.373644587579916e-06,1.6886563954540388e-06,2.3911722322393947e-05
3.4352457187133105e-07,1.3809522733993707e-06,1.716936634656456e-06,2.389928967014003e-05
3.418219360798071e-07,1.3869132723203185e-06,1.746459931858059e-06,2.390121592249919e-05
3.400146526731541e-07,1.3915327240115491e-06,1.7770905180369857e-06,2.391694998914218e-05
3.381089749742319e-07,1.3948174254694244e-06,1.808685182409874e-06,2.394583889247297e-05
3.361122962573641e-07,1.3967786133874675e-06,1.8410906664468053e-06,2.398714852481192e-05
3.340353919501638e-07,1.3974309465634395e-06,1.874141011550421e-06,2.404010804545438e-05
3.3189176954835076e-07,1.3967891570205419e-06,1.9076573678937883e-06,2.410396423112837e-05
3.296954968490168e-07,1.394865145751359e-06,1.9414514132664624e-06,2.417799353920806e-05
3.2746070213751585e-07,1.3916676083168786e-06,1.975330472326423e-06,2.4261441839735762e-05
3.2520227211098965e-07,1.3872044697583817e-06,2.0091026925572164e-06,2.4353431366774578e-05
3.229352335768983e-07,1.3814859479394836e-06,2.0425829795891503e-06,2.445290162740872e-05
3.206732112148274e-07,1.3745264280030284e-06,2.0755972720288893e-06,2.455860387136528e-05
3.184276367168076e-07,1.3663468171725707e-06,2.1079795012708448e-06,2.466916865613509e-05
3.162075078231824e-07,1.3569787485439509e-06,2.139564647452169e-06,2.4783278284279267e-05
3.140194047570477e-07,1.3464676745783636e-06,2.170189971550307e-06,2.489987059437645e-05
3.118680770459179e-07,1.3348719021347471e-06,2.199707334169679e-06,2.501821607387284e-05
3.097574888255798e-07,1.3222586681849238e-06,2.227997125535181e-06,2.513781681933854e-05
3.0769182091430204e-07,1.3086993658483907e-06,2.254975035280285e-06,2.5258215092100727e-05
3.056756630419916e-07,1.2942658693830971e-06,2.280587984420872e-06,2.537882366687599e-05
3.0371370390516444e-07,1.2790313731517508e-06,2.3047993812337816e-06,2.5498853768756e-05
3.0181123674570024e-07,1.263074720921381e-06,2.3275714179880816e-06,2.561732706755578e-05
2.999751919255587e-07,1.2464809925587818e-06,2.3488563301565125e-06,2.5733092755695857e-05
2.982141415777981e-07,1.2293358101195529e-06,2.3686004742123854e-06,2.5844849119272252e-05
2.965371760359129e-07,1.2117186229398012e-06,2.386754766133862e-06,2.595126169526006e-05
2.949528658188177e-07,1.193700263854714e-06,2.403282974817469e-06,2.605116116536951e-05
2.9346940790830367e-07,1.1753448023298184e-06,2.4181636739245774e-06,2.6143636797685346e-05
2.920969105378669e-07,1.1567117363033035e-06,2.4313874244687402e-06,2.6227946649960465e-05
2.908506482927507e-07,1.1378577783017556e-06,2.4429522895413445e-06,2.6303372625267568e-05
2.8975109498469037e-07,1.1188408847976772e-06,2.4528593363666587e-06,2.636914256826074e-05
2.8881958421476265e-07,1.0997248051541328e-06,2.4611082963262937e-06,2.642450431859825e-05
2.880739777455424e-07,1.0805792939097083e-06,2.4676936674882502e-06,2.6469004135779603e-05
2.875278092523056e-07,1.0614755739771613e-06,2.4726059294368357e-06,2.650279120337503e-05
2.871919416591789e-07,1.0424821626250416e-06,2.4758403066793043e-06,2.6526669202391624e-05
2.8707588228755423e-07,1.0236645803227169e-06,2.4774058367372403e-06,2.654190474328813e-05
2.8718702152765744e-07,1.0050857167639392e-06,2.4773288541956267e-06,2.655000331360043e-05
2.8752844740500866e-07,9.868038734531018e-07,2.475652473869853e-06,2.655253977331776e-05
2.8809760410205824e-07,9.688727585320627e-07,2.472432158203352e-06,2.655101576394765e-05
2.888872888881009e-07,9.513468884146898e-07,2.467725924572361e-06,2.654673859263603e-05
2.898877319030875e-07,9.342870673894112e-07,2.461583308982704e-06,2.6540743547469963e-05
2.910875213079576e-07,9.177592531080521e-07,2.454040270767224e-06,2.653375046860584e-05
2.9247367437785866e-07,9.01827164389232e-07,2.445121981847049e-06,2.6526130497650805e-05
2.9403218530972197e-07,8.865439912737923e-07,2.434848833859064e-06,2.6517906631330883e-05
2.957492445394012e-07,8.71947685446566e-07,2.423241241897269e-06,2.6508824046752053e-05
2.976135850534748e-07,8.580604211113732e-07,2.4103219203093707e-06,2.649847520285744e-05
2.9961896822120577e-07,8.448903107568095e-07,2.3961149674760304e-06,2.6486429813969355e-05
3.017642462577802e-07,8.324338778174022e-07,2.380643526557936e-06,2.647233074607399e-05
3.0405065899281026e-07,8.206789235161956e-07,2.363929675900977e-06,2.6455954252569243e-05
3.0647831548360177e-07,8.09607924656392e-07,2.3459954075723584e-06,2.6437245604943492e-05
3.0904393360384465e-07,7.992012307877499e-07,2.3268623836929345e-06,2.641632034811267e-05
3.1174013622257e-07,7.894381071583504e-07,2.3065535295851142e-06,2.6393438792477376e-05
3.145554280780097e-07,7.80297200464602e-07,2.2850962096763067e-06,2.6369000903031103e-05
3.174747911857297e-07,7.717617097708189e-07,2.2625213627497314e-06,2.6343576137470128e-05
3.204806622776081e-07,7.638293044340663e-07,2.238860806908428e-06,2.6317914031638777e-05
3.235533569033633e-07,7.565193768201657e-07,2.2141502027048385e-06,2.6292881585375744e-05
3.2667143181829127e-07,7.498709446484201e-07,2.1884353800169763e-06,2.626933259428599e-05
3.298139666280439e-07,7.439321484426944e-07,2.161772945245804e-06,2.6247954448525563e-05
3.329641744002673e-07,7.387477556603042e-07,2.134223971463762e-06,2.6229164282015985e-05
3.3611042956100695e-07,7.343498791456934e-07,2.105850421072993e-06,2.621313660497377e-05
3.392432293867065e-07,7.307551062198588e-07,2.0767213017468574e-06,2.619993346623281e-05
3.4235157089142237e-07,7.279693607771966e-07,2.046923631747028e-06,2.6189609548293865e-05
3.454220123242949e-07,7.259961640792923e-07,2.0165708734007753e-06,2.618227119720361e-05
3.484395873049094e-07,7.248417402710367e-07,1.98580540218108e-06,2.617814390307037e-05
3.513888208157745e-07,7.245166319287055e-07,1.954791272066609e-06,2.617762347997428e-05
3.5425489706384136e-07,7.250375242231029e-07,1.9236982596403184e-06,2.618124376503056e-05
3.5702484215487727e-07,7.264279068537156e-07,1.8926903988278373e-06,2.6189536888817027e-05
3.596879041563861e-07,7.287128114414002e-07,1.861931638356073e-06,2.6202850879285708e-05
3.62235048587145e-07,7.319095510912139e-07,1.8316018680757611e-06,2.6221224835838588e-05
3.6465761741014645e-07,7.360211953827145e-07,1.8019044544230685e-06,2.6244345139563307e-05
3.6694571638479e-07,7.410351707331861e-07,1.773056651229474e-06,2.6271560250196617e-05
3.69088301952122e-07,7.469261267397881e-07,1.745269178291053e-06,2.630197000797403e-05
3.710755779134074e-07,7.536615609919134e-07,1.7187267776741834e-06,2.633459182248411e-05
3.7290160607662113e-07,7.612064934018094e-07,1.6935807992607181e-06,2.6368517333657282e-05
3.745656022967209e-07,7.695239474240548e-07,1.669954727235467e-06,2.640296103905578e-05
3.760717910388745e-07,7.785719432696223e-07,1.6479511396115098e-06,2.6437190653367003e-05
3.774274747582002e-07,7.88300654976793e-07,1.6276521672498081e-06,2.6470400376917982e-05
3.7864026179393547e-07,7.986527402496067e-07,1.609115443913491e-06,2.650161635309748e-05
3.797164541018318e-07,8.095667893670135e-07,1.592370162355006e-06,2.6529686696855144e-05
3.806610659208097e-07,8.209817455923683e-07,1.5774178226543082e-06,2.655332170873512e-05
3.8147890551545904e-07,8.328407254451956e-07,1.56423888506742e-06,2.657115963148364e-05
3.821755107062183e-07,8.450947469521283e-07,1.5527987043788763e-06,2.658192559317453e-05
3.827564709704945e-07,8.577057514602553e-07,1.5430471189134432e-06,2.6584685258905936e-05
3.83226554193978e-07,8.706455691570816e-07,1.5349178540224403e-06,2.6578993437159045e-05
3.835912925022505e-07,8.838906707085432e-07,1.5283342026684939e-06,2.65647807204173e-05
3.838587082020764e-07,8.974158458385439e-07,1.523215603569686e-06,2.6542098100934288e-05
3.8403735180336344e-07,9.111885965271693e-07,1.519477548930369e-06,2.651092905029763e-05
3.8413269513132173e-07,9.251666783212801e-07,1.5170262953035116e-06,2.6471188657603572e-05
3.841459681350155e-07,9.393001246431955e-07,1.5157557166760022e-06,2.642295715415236e-05
3.840757074437428e-07,9.535346484096979e-07,1.5155483753067688e-06,2.636681293494349e-05
3.8391984160091404e-07,9.67813764328034e-07,1.5162765238111885e-06,2.630398205640619e-05
3.8367704960446023e-07,9.820798354530793e-07,1.5178024173534671e-06,2.6236221034009642e-05
3.8334752254661933e-07,9.9627577534925e-07,1.5199820886718192e-06,2.6165588830664472e-05
3.82932718436661e-07,1.0103490786673227e-06,1.522673985137798e-06,2.6094220106691745e-05
3.8243399300016273e-07,1.0242547495185213e-06,1.5257495164796014e-06,2.602411858889353e-05
3.818520137428696e-07,1.0379517007824608e-06,1.52910098734856e-06,2.5956981646280223e-05
3.811876666330771e-07,1.0513952560441609e-06,1.5326416920877956e-06,2.5894069751411515e-05
3.804422002564968e-07,1.064532510565737e-06,1.536296823498604e-06,2.583614625515248e-05
3.796159406985632e-07,1.0773024683040758e-06,1.5399931951288418e-06,2.578349801026805e-05
3.787077612263749e-07,1.0896395119228343e-06,1.5436556829889725e-06,2.573601617116969e-05
3.777158654397386e-07,1.1014769091642892e-06,1.5472072135991043e-06,2.5693319155476488e-05
3.7663820792186997e-07,1.1127471546234593e-06,1.5505669601623197e-06,2.565488420292049e-05
3.754718948985043e-07,1.1233806001395866e-06,1.5536486471917528e-06,2.562014258003066e-05
3.74212569090025e-07,1.1333058077285815e-06,1.5563622424552631e-06,2.558855262319457e-05
3.728546729102003e-07,1.1424522856951651e-06,1.5586176349462538e-06,2.555969335557862e-05
3.713923749549121e-07,1.150753228005917e-06,1.560326551368909e-06,2.5533355268935213e-05
3.698203506026833e-07,1.1581457352224094e-06,1.5614029979249091e-06,2.5509567695700825e-05
3.681347387081904e-07,1.1645710315678931e-06,1.5617662975470743e-06,2.5488558991830326e-05
3.663352143749405e-07,1.1699803504777131e-06,1.5613452778742962e-06,2.5470702035005343e-05
3.6442690291844e-07,1.174346144556478e-06,1.5600777368649647e-06,2.5456467886248488e-05
3.624208275282651e-07,1.177672493991596e-06,1.5579061979419981e-06,2.5446355634925022e-05
3.603334200396053e-07,1.1799994214282948e-06,1.5547763175598194e-06,2.5440788783036656e-05
3.581846004453625e-07,1.1813973070523554e-06,1.5506408333201418e-06,2.544000606708404e-05
3.5599457582645394e-07,1.1819524057872387e-06,1.5454667053843985e-06,2.5443971617962312e-05
3.5378167770541246e-07,1.1817512989168458e-06,1.5392386381540168e-06,2.5452362481583604e-05
3.515618060814628e-07,1.1808704734700306e-06,1.5319538588090003e-06,2.5464693153499176e-05
3.4934804986782057e-07,1.1793718693263514e-06,1.5236130714151903e-06,2.548050596136263e-05
3.471503139215105e-07,1.1773032786834836e-06,1.5142158434840004e-06,2.5499470033653195e-05
3.449758326503437e-07,1.1747008635858696e-06,1.5037607382856119e-06,2.552134409400404e-05
3.428302105019831e-07,1.1715906604436044e-06,1.4922465368453545e-06,2.5545903816707345e-05
3.4071808697005987e-07,1.167989954442819e-06,1.4796734577752238e-06,2.557292318439058e-05
3.3864363789210445e-07,1.1639129167044138e-06,1.4660437987868748e-06,2.5602180324161703e-05
3.366107167405213e-07,1.1593801775149988e-06,1.4513621683343912e-06,2.5633410779067635e-05
3.346221595938941e-07,1.1544255193818234e-06,1.4356372232821336e-06,2.566622381606744e-05
3.326793861119626e-07,1.1490972381631742e-06,1.4188844773047658e-06,2.5700069638418016e-05
3.307835878882223e-07,1.1434585291052893e-06,1.401127536303235e-06,2.573425990152677e-05
3.2893808328426125e-07,1.137587758774109e-06,1.3823978255899592e-06,2.576797535650708e-05
3.271499593551168e-07,1.131576468657201e-06,1.3627355339272022e-06,2.5800297546194542e-05
3.254295272862389e-07,1.1255265341808286e-06,1.342191048209577e-06,2.583033954178133e-05
3.2378801176015675e-07,1.11954719041768e-06,1.3208228968836495e-06,2.585739840139553e-05
3.222350044629101e-07,1.1137491723292537e-06,1.2986950274675815e-06,2.5880993072977044e-05
3.207771558909976e-07,1.1082348639275157e-06,1.2758798847480466e-06,2.5900766035087328e-05
3.194191391079134e-07,1.103087917193816e-06,1.25246495607247e-06,2.591632459952167e-05
3.1816633632482876e-07,1.098368090247053e-06,1.2285563491239026e-06,2.59271334799412e-05
3.1702642032339894e-07,1.0941134842745717e-06,1.2042756178295491e-06,2.5932516290471426e-05
3.160079656753477e-07,1.0903460539688202e-06,1.1797495185297475e-06,2.593170157768801e-05
3.15117717493094e-07,1.0870764706141952e-06,1.155101221505885e-06,2.592385512600393e-05
3.1435876490861376e-07,1.0843105631801688e-06,1.1304521430901634e-06,2.590817589083527e-05
3.137301264535408e-07,1.0820589735895702e-06,1.10593040281375e-06,2.588411680277019e-05
3.132272263019532e-07,1.0803445308190891e-06,1.0816768840224482e-06,2.585157923546446e-05
3.1284254077600504e-07,1.079202211697049e-06,1.057845662999958e-06,2.5810905360304384e-05
3.125659901192477e-07,1.0786726872915823e-06,1.0345974121823695e-06,2.576273005612325e-05
3.1238535400499224e-07,1.0787921726883531e-06,1.012085874017256e-06,2.5707822289469063e-05
3.122875344930341e-07,1.07958218871441e-06,9.90444114813788e-07,2.564695803844491e-05
3.122606167695209e-07,1.0810445933602814e-06,9.697779405176494e-07,2.5580925990082622e-05
3.122955275598809e-07,1.0831625764643513e-06,9.501666641369196e-07,2.5510726000574397e-05
3.1238710391021746e-07,1.0859026953331476e-06,9.31668188129293e-07,2.54377668839183e-05
3.125352828338861e-07,1.0892161175010886e-06,9.143261381580132e-07,2.536386418952692e-05
3.12745050442366e-07,1.0930406388190688e-06,8.981748945733349e-07,2.529109157138096e-05
3.130232041329234e-07,1.0973028948455737e-06,8.832388044543881e-07,2.522161658950741e-05
3.1337406987154735e-07,1.1019199690140223e-06,8.695286440941757e-07,2.515755857227417e-05
3.1379823959915514e-07,1.1068009955714396e-06,8.570409063170186e-07,2.5100872361420443e-05
3.142946373327141e-07,1.1118489213486415e-06,8.457620663389962e-07,2.5053277340686372e-05
3.1486246471476716e-07,1.1169629198191708e-06,8.356787475204127e-07,2.5016230433872768e-05
3.15500380627286e-07,1.1220416801983283e-06,8.267901501759538e-07,2.4990907274918964e-05
3.162045666247768e-07,1.1269861290096328e-06,8.191135760693773e-07,2.4978165844101348e-05
3.169687122666266e-07,1.13170061927991e-06,8.12679465563748e-07,2.49784969028762e-05
3.177857412584933e-07,1.1360931702696426e-06,8.075211552525246e-07,2.4991974995520726e-05
3.1864998989145667e-07,1.1400755243011186e-06,8.03666150967733e-07,2.501823764533744e-05
3.1955896601985196e-07,1.143563370943407e-06,8.01133789791187e-07,2.5056529728058732e-05
3.2051303449801106e-07,1.1464766366973069e-06,7.999408413221707e-07,2.510581773017848e-05
3.215136271657816e-07,1.1487399396954651e-06,8.001115523911584e-07,2.5164938370094408e-05
3.225621185762264e-07,1.1502842728441623e-06,8.016852508456341e-07,2.523273144455691e-05
3.236599391893411e-07,1.1510494116854905e-06,8.047171859200012e-07,2.5308119722359924e-05
3.248101470708173e-07,1.1509841928678531e-06,8.092722195836281e-07,2.539014442066018e-05
3.260183874937368e-07,1.1500448362039264e-06,8.154122885537374e-07,2.547798586196103e-05
3.2729110351263513e-07,1.1481946148580973e-06,8.231854661072249e-07,2.5570960363891487e-05
3.286342953085387e-07,1.1454062374667083e-06,8.326266785609541e-07,2.566847759073288e-05
3.3005489733732293e-07,1.1416665252736808e-06,8.437655135455245e-07,2.576998185645677e-05
3.315608728313438e-07,1.136981146608539e-06,8.566298474235941e-07,2.587489154604316e-05
3.331581846635973e-07,1.1313743110491965e-06,8.712440498649052e-07,2.598253273002537e-05
3.3484827894676765e-07,1.1248811495506874e-06,8.876241883517727e-07,2.60921062328559e-05
3.36628780326176e-07,1.117538142029054e-06,9.05770508059813e-07,2.6202714073248198e-05
3.384955887348258e-07,1.1093787957783345e-06,9.256604042763632e-07,2.631338468808764e-05
3.4044374417967657e-07,1.1004360248520754e-06,9.472475738376959e-07,2.6423059528282112e-05
3.42467177870666e-07,1.0907473312656863e-06,9.704716369014623e-07,2.653058420344737e-05
3.4455842284999947e-07,1.0803583537757006e-06,9.95275403947394e-07,2.663473576157683e-05
3.467082572549132e-07,1.0693221512075826e-06,1.0216196889780469e-06,2.673427175712701e-05
3.489057497587177e-07,1.0576945475116018e-06,1.0494888426608672e-06,2.682795350897031e-05
3.511391701658423e-07,1.0455307858575706e-06,1.0788860274489846e-06,2.6914512629036507e-05
3.533963094927904e-07,1.0328876468203488e-06,1.1098193254507772e-06,2.699261394910875e-05
3.5566345274619545e-07,1.01982810581065e-06,1.1422829882283732e-06,2.7060895304303627e-05
3.579249557789065e-07,1.0064238575004049e-06,1.17624149617934e-06,2.7118089868935004e-05
3.60164455987669e-07,9.92752724871432e-07,1.2116241927790537e-06,2.716317511667217e-05
3.623659377094577e-07,9.78892384733088e-07,1.2483318084418994e-06,2.7195494746234147e-05
3.6451365076948727e-07,9.64918684300143e-07,1.286247474170274e-06,2.721479632281615e-05
3.665915165512266e-07,9.509123256317854e-07,1.32524585214119e-06,2.722114263442276e-05
3.6858229307581076e-07,9.369642091697669e-07,1.365200590049758e-06,2.721474010647363e-05
3.7046720018304685e-07,9.231691646206665e-07,1.405990857786734e-06,2.719577675920273e-05
3.722269524381481e-07,9.096134500363797e-07,1.447506672644656e-06,2.716433663959144e-05
3.73843968894073e-07,8.963685050463316e-07,1.4896521034660724e-06,2.7120408171349226e-05
3.75304771765835e-07,8.834920984557587e-07,1.5323432269559714e-06,2.706394452650479e-05
3.766009648454349e-07,8.710299070272377e-07,1.5755000904775924e-06,2.699490220312256e-05
3.777276951554968e-07,8.590155064168337e-07,1.6190366717258075e-06,2.6913252801611684e-05
3.786810134179321e-07,8.474714289722434e-07,1.6628528419197634e-06,2.681908233382955e-05
3.7945622244796147e-07,8.364117376669352e-07,1.7068291739983524e-06,2.671276722520856e-05
3.8004726794294906e-07,8.258444140545919e-07,1.750824288748154e-06,2.6595001224499467e-05
3.8044672779539923e-07,8.157724825820553e-07,1.7946765240801155e-06,2.6466615428991355e-05
3.806468820842937e-07,8.061935211474184e-07,1.83820985340886e-06,2.6328369872699437e-05
3.806413863716613e-07,7.970987047611823e-07,1.881238608879089e-06,2.6180861088543507e-05
3.8042659168876367e-07,7.884724967455512e-07,1.923568894058101e-06,2.602463012253678e-05
3.8000266738731344e-07,7.802931059442931e-07,1.965002079130785e-06,2.586043793940907e-05
3.79373784070519e-07,7.725356723047495e-07,2.0053415123373816e-06,2.568947537846936e-05
3.7854647904025603e-07,7.651797498387132e-07,2.044395735240736e-06,2.551333959941563e-05
3.775278421144978e-07,7.582171795924952e-07,2.0819774850988992e-06,2.5333871735664346e-05
3.7632485088283527e-07,7.516535348616202e-07,2.117905522121761e-06,2.515299916919708e-05
3.749440598653591e-07,7.455017466796177e-07,2.152011134199852e-06,2.497260646636232e-05
3.7339188176989686e-07,7.39773961879171e-07,2.1841444968159803e-06,2.4794422713545465e-05
3.716760296425774e-07,7.344770552531418e-07,2.2141750755121947e-06,2.4619926092948377e-05
3.6980599890036266e-07,7.296115460462981e-07,2.241984480381484e-06,2.445026795543508e-05
3.6779149025821756e-07,7.251721481429433e-07,2.2674582324792512e-06,2.4286237951869096e-05
3.6564119301468477e-07,7.211486831634284e-07,2.2904827605489558e-06,2.412828836822517e-05
3.633631279772833e-07,7.175255541999603e-07,2.310946608431033e-06,2.3976584411947226e-05
3.609651144276181e-07,7.142812538322021e-07,2.328743679060124e-06,2.3831029832088296e-05
3.5845443755718593e-07,7.113931051985572e-07,2.34377817668066e-06,2.369127077969577e-05
3.5583715858824506e-07,7.088479125228256e-07,2.355968918716296e-06,2.355672118670689e-05
3.531177326558089e-07,7.06649980386472e-07,2.365250358457645e-06,2.3426631637405217e-05
3.5029908270605925e-07,7.04817635894062e-07,2.371571778152853e-06,2.330018793763448e-05
3.473828995665464e-07,7.033710539919943e-07,2.3748981652305665e-06,2.317660718751264e-05
3.443697895637237e-07,7.023222292976273e-07,2.3752121676547407e-06,2.305519886952984e-05
3.412592571560153e-07,7.016730748188506e-07,2.372512942377964e-06,2.293539822037726e-05
3.380499887396481e-07,7.014187337921786e-07,2.366812013441574e-06,2.2816809003643525e-05
3.3474038277339037e-07,7.015511449975691e-07,2.358131521756652e-06,2.2699231605693704e-05
3.3132888134149325e-07,7.020619138039684e-07,2.346507406565499e-06,2.258261859614608e-05
3.278141849422612e-07,7.029443738754158e-07,2.331993416183594e-06,2.2466982657521964e-05
3.241961763656923e-07,7.041925730947906e-07,2.314659951384667e-06,2.2352313112157806e-05
3.204780941405732e-07,7.057970903797678e-07,2.294588358328114e-06,2.223851405986428e-05
