3.26595532923638e-07,4.064576349004778e-07,2.3467978630123853e-07,2.3077080715148872e-05
3.250429316566497e-07,4.106233892711915e-07,2.3223762956074592e-07,2.3065904313716897e-05
3.23496168637338e-07,4.145226007106779e-07,2.299038024458037e-07,2.3054355515809344e-05
3.219567074272313e-07,4.1814850595125156e-07,2.2768777258882548e-07,2.304211827780507e-05
3.2042733204620853e-07,4.2150210127608426e-07,2.2559845164966712e-07,2.302876365331121e-05
3.189126973025176e-07,4.2459264446843963e-07,2.2364275275460253e-07,2.301385218061961e-05
3.174194632420301e-07,4.274371429382745e-07,2.218263460727172e-07,2.299703845636014e-05
3.159544186632973e-07,4.3005685651143543e-07,2.2015440012617694e-07,2.297807662794808e-05
3.1452337363349165e-07,4.324716976510666e-07,2.186309598430219e-07,2.2956761349753e-05
3.131325856245235e-07,4.346966950211906e-07,2.1725877353311663e-07,2.293289144502107e-05
3.117891845540852e-07,4.367433232617813e-07,2.1604112047811075e-07,2.290627879406453e-05
3.104987378956083e-07,4.386237578421624e-07,2.1498272264954638e-07,2.287676053798902e-05
3.092629641278584e-07,4.4035436271128855e-07,2.1408781854648327e-07,2.284415572852816e-05
3.080799927325531e-07,4.4195610010883104e-07,2.1335911600457368e-07,2.2808179842782857e-05
3.069465420326601e-07,4.434515584602909e-07,2.127992369794769e-07,2.2768405647550492e-05
3.0585970660758616e-07,4.448608163588125e-07,2.1241141232084398e-07,2.272430861253105e-05
3.0481693534560977e-07,4.461991498340579e-07,2.121979919992425e-07,2.2675363534100157e-05
3.0381544793629193e-07,4.474774257795803e-07,2.1215899947796818e-07,2.2621175243032558e-05
3.028523786525448e-07,4.4870426057010117e-07,2.1229354822737372e-07,2.256162144994989e-05
3.019257182390701e-07,4.498881424429435e-07,2.126036699273048e-07,2.2496917685780827e-05
3.0103515504605477e-07,4.5103716508801184e-07,2.1309632506438565e-07,2.2427532607195456e-05
3.0018103474978364e-07,4.521565522895684e-07,2.137815947321681e-07,2.2354004089427608e-05
2.993622030319087e-07,4.532467820064514e-07,2.1466980680132968e-07,2.227677933037044e-05
2.985752457107668e-07,4.543033336200072e-07,2.157698939869737e-07,2.2196155301191228e-05
2.978151534773659e-07,4.553168882429843e-07,2.1708865285409585e-07,2.2112289255661088e-05
2.970762504767089e-07,4.5627430862509814e-07,2.1863100692461448e-07,2.2025207893353533e-05
2.963528887362812e-07,4.571620451962376e-07,2.204025512562873e-07,2.1934820124880412e-05
2.956396623117237e-07,4.5797045401759756e-07,2.2241253102719578e-07,2.184103383179995e-05
2.949311234169691e-07,4.5869596472734774e-07,2.246728513187173e-07,2.174400903091426e-05
2.942213286156562e-07,4.593414509594385e-07,2.2719380371066519e-07,2.1644356141736614e-05
2.935051027655802e-07,4.599148852130925e-07,2.299805464549332e-07,2.154307774559688e-05
2.927831981100396e-07,4.6042526797890606e-07,2.330314045052925e-07,2.1441332951754878e-05
2.9206759233121645e-07,4.6087866164053743e-07,2.363380261048689e-07,2.134022088722725e-05
2.9137935857683e-07,4.6127689416396294e-07,2.3988721134016627e-07,2.124067766701446e-05
2.9074036421737853e-07,4.616176195468025e-07,2.436625355624382e-07,2.1143563989341453e-05
2.9016800123367014e-07,4.618947346677499e-07,2.476448966375597e-07,2.104992112399221e-05
2.8967614852208764e-07,4.6209973081235935e-07,2.5181354295370077e-07,2.096115031022817e-05
2.892774191595688e-07,4.6222389636253367e-07,2.5614791298087593e-07,2.087895760245135e-05
2.8898282319305676e-07,4.622607722734439e-07,2.606287896964548e-07,2.0805178227281408e-05
2.888001579381111e-07,4.622086896704811e-07,2.6523939686270427e-07,2.074162101877709e-05
2.8873345100876705e-07,4.6207170738280543e-07,2.699665349786985e-07,2.0689961942829995e-05
2.887833438109213e-07,4.6185696738316186e-07,2.7479927361148553e-07,2.0651670286852148e-05
2.88947429572968e-07,4.6157073033905953e-07,2.797261245256227e-07,2.062795355504264e-05
2.892210236032122e-07,4.6121652195444877e-07,2.847338188489009e-07,2.0619721213484228e-05
2.895994174160709e-07,4.6079512709464646e-07,2.898075954229786e-07,2.0627582152494824e-05
2.900801430976867e-07,4.6030512566841744e-07,2.949313787667543e-07,2.065187623581197e-05
2.906625562292607e-07,4.597435120436693e-07,3.0008789128944445e-07,2.0692695600136286e-05
2.9134643714006327e-07,4.591056218931817e-07,3.05260017248173e-07,2.0749857843312648e-05
2.9213364398290644e-07,4.5838474205758104e-07,3.104326816337304e-07,2.082285375973563e-05
2.9303093733796105e-07,4.5757306921395597e-07,3.155930532582921e-07,2.091081799647024e-05
2.940496127240458e-07,4.5666331132497653e-07,3.207291488354672e-07,2.1012565021675885e-05
2.952032248822045e-07,4.556486944065278e-07,3.258282335334307e-07,2.1126704333975502e-05
2.965053809220216e-07,4.5452180106409386e-07,3.308757012613339e-07,2.125177764665885e-05
2.9796721462655283e-07,4.532741748094989e-07,3.3585496691820393e-07,2.1386340845963722e-05
2.995959337580091e-07,4.518975514678585e-07,3.4074814846201966e-07,2.1528997957247653e-05
3.013951259862641e-07,4.503857887578914e-07,3.455365644973673e-07,2.167844102701758e-05
3.033650574993487e-07,4.487351447200512e-07,3.502016092590084e-07,2.1833489012495305e-05
3.055020435533679e-07,4.469426661955819e-07,3.5472634725956614e-07,2.1993084639283718e-05
3.077979670413024e-07,4.450051726728749e-07,3.5909581873441547e-07,2.2156255689913696e-05
3.1024082870787395e-07,4.429194657340294e-07,3.6329545742397426e-07,2.232206516299029e-05
3.128159490736596e-07,4.406823881328517e-07,3.673097845543425e-07,2.248954683296447e-05
3.1550787418331737e-07,4.3829039962950134e-07,3.7112259358849847e-07,2.2657650249115688e-05
3.183031130674307e-07,4.3573907878439597e-07,3.747177909102239e-07,2.282523601651572e-05
3.2119231586200924e-07,4.3302314788531283e-07,3.780797827603089e-07,2.2991089608189315e-05
3.2416938293683464e-07,4.301378625492318e-07,3.811932982073492e-07,2.315391440787806e-05
3.272274260711379e-07,4.270818978754474e-07,3.8404346484719426e-07,2.3312342152685768e-05
3.3035615704690147e-07,4.2385978131229966e-07,3.8661628367495314e-07,2.346499440969925e-05
3.335436275864276e-07,4.204815482078644e-07,3.8889912032517185e-07,2.3610546995963324e-05
3.367787873040429e-07,4.169610842159749e-07,3.908811719971867e-07,2.374773217525868e-05
3.400516012666345e-07,4.1331591774477093e-07,3.9255365667076796e-07,2.3875302118129736e-05
3.433520184346281e-07,4.0956822326514285e-07,3.939097255743508e-07,2.399202572629564e-05
3.4666866870744854e-07,4.057449955847672e-07,3.949440602149485e-07,2.409673302266901e-05
3.499872022389729e-07,4.0187617411787156e-07,3.956521046219476e-07,2.41883893694903e-05
3.532897051043374e-07,3.979930022843175e-07,3.960297427461385e-07,2.426620783772945e-05
3.5655598830075076e-07,3.941282502192546e-07,3.960737394049123e-07,2.432978303318119e-05
3.5976575255848757e-07,3.90315407918594e-07,3.9578227925402436e-07,2.437914764125536e-05
3.628997770833738e-07,3.8658587871901726e-07,3.9515517223643385e-07,2.4414668301692425e-05
3.659396222996649e-07,3.8296657016153357e-07,3.941936149171753e-07,2.443683932072209e-05
3.688678577741456e-07,3.794793754503818e-07,3.928995580333923e-07,2.444611944730816e-05
3.7166955494034365e-07,3.7614229097872595e-07,3.9127553770547257e-07,2.4442891482101e-05
3.74333333159579e-07,3.729705260645478e-07,3.8932575827430725e-07,2.44274988263526e-05
3.768506416317022e-07,3.699762893544653e-07,3.870574022755725e-07,2.440027496005564e-05
3.7921336279103897e-07,3.671677930182832e-07,3.844805689188207e-07,2.4361538732688112e-05
3.8141171700342e-07,3.6454931720901954e-07,3.816070852092833e-07,2.431160824477678e-05
3.8343469530922756e-07,3.6212352437162436e-07,3.784495117308821e-07,2.4250909958544682e-05
3.852725870767696e-07,3.5989399825553885e-07,3.750208134104726e-07,2.4180108668126474e-05
3.869188691865561e-07,3.578646264798864e-07,3.7133447465850274e-07,2.410008815960229e-05
3.883698479602346e-07,3.5603646311081243e-07,3.674046168252998e-07,2.4011796435424342e-05
3.8962354485079177e-07,3.5440573039266063e-07,3.632458999513301e-07,2.3916089718640374e-05
3.906792910322034e-07,3.5296423108957813e-07,3.588738628946524e-07,2.3813678027080696e-05
3.915380249039578e-07,3.517006415083737e-07,3.54305718916719e-07,2.3705284867005592e-05
3.922032586308764e-07,3.506022806189289e-07,3.495602673862932e-07,2.3591975066909408e-05
3.9268122808799635e-07,3.496578253838102e-07,3.446568835061308e-07,2.3475360547213174e-05
3.929790735855197e-07,3.488586231911277e-07,3.39615489270296e-07,2.335750954794109e-05
3.931039064915126e-07,3.4819692864236023e-07,3.34458611502718e-07,2.324069091705016e-05
3.930651627245137e-07,3.476637918389657e-07,3.292138943793324e-07,2.312714180728841e-05
3.9287716325177947e-07,3.4724942444592125e-07,3.2391441336267125e-07,2.3018914076760025e-05
3.9255823916609594e-07,3.4694548177908247e-07,3.1859624204206464e-07,2.2917771349668828e-05
3.921280527411393e-07,3.4674598921258056e-07,3.1329475827093293e-07,2.2825115372223435e-05
3.916060932636578e-07,3.4664562179758205e-07,3.0804180627177093e-07,2.2741949696804204e-05
3.910108957801785e-07,3.4663804942207986e-07,3.028649090248515e-07,2.2668889240338862e-05
3.9035915257378997e-07,3.467153663727141e-07,2.977879212158754e-07,2.260619637031269e-05
3.8966529148839077e-07,3.468678300935556e-07,2.928321941494581e-07,2.255380561077096e-05
3.8894091761765243e-07,3.470850866279513e-07,2.8801757833110445e-07,2.2511329582194112e-05
3.8819360622176253e-07,3.473583460555839e-07,2.833629763741583e-07,2.2478089666742663e-05
3.874265253463902e-07,3.4768065779485e-07,2.7888694652236465e-07,2.2453200323207573e-05
3.866393891783418e-07,3.48045492049752e-07,2.746082158986177e-07,2.2435678118258613e-05
3.858293899959532e-07,3.484459275532056e-07,2.7054529739583013e-07,2.2424543429227576e-05
3.84991864725925e-07,3.4887444029021386e-07,2.6671517195689265e-07,2.24189001740304e-05
3.8412198439642966e-07,3.4932218924751055e-07,2.63131842409543e-07,2.241796993270484e-05
3.8321723588945753e-07,3.4977832836154873e-07,2.598060831631208e-07,2.2421087558731368e-05
3.8227816438697575e-07,3.502308282127925e-07,2.567461746110383e-07,2.2427706715233288e-05
3.813077459143775e-07,3.506687496265513e-07,2.539582113694396e-07,2.243742014314541e-05
3.803125142595551e-07,3.510834301886757e-07,2.514466432362001e-07,2.244994134125624e-05
3.793036023978741e-07,3.51467168525793e-07,2.492147580518525e-07,2.2465027463153644e-05
3.7829407419524924e-07,3.518112683019474e-07,2.472632115692253e-07,2.248238078850943e-05
3.7729487794154565e-07,3.5210532313270213e-07,2.455883842274442e-07,2.25015774414808e-05
3.763132352182272e-07,3.5233789799946276e-07,2.441829816067708e-07,2.252207336688601e-05
3.7535341841442145e-07,3.524975895291116e-07,2.430381004439297e-07,2.254328651109668e-05
3.74417566337646e-07,3.525732468966657e-07,2.4214612426994326e-07,2.256466759982735e-05
3.735054622079968e-07,3.5255354486734814e-07,2.415036179934152e-07,2.25857064161197e-05
3.7261499285000656e-07,3.5242699813563047e-07,2.411117475229877e-07,2.260591026171969e-05
3.717441109655347e-07,3.5218251133947526e-07,2.409735855651605e-07,2.2624795366158865e-05
3.708925673210908e-07,3.518099340879765e-07,2.410905021482725e-07,2.2641890484027827e-05
3.700618117647412e-07,3.513005736981689e-07,2.4145992158628124e-07,2.265671289175652e-05
3.69253677762221e-07,3.506473058160726e-07,2.420750704582579e-07,2.2668701419079635e-05
3.684707800375446e-07,3.4984391333119414e-07,2.4292647828498323e-07,2.2677165675439906e-05
3.6771867514638526e-07,3.488845609826391e-07,2.440049302387577e-07,2.268130407702233e-05
3.670061015543245e-07,3.477649318441391e-07,2.453037610092244e-07,2.2680277290561623e-05
3.6634381843176754e-07,3.464848479462992e-07,2.468181043598417e-07,2.26733161839536e-05
3.657451397956725e-07,3.450494646969129e-07,2.485422905701955e-07,2.265985986730723e-05
3.6522623023574296e-07,3.4346762344194584e-07,2.5046807578629216e-07,2.263966603584805e-05
3.648032971991274e-07,3.417495456668307e-07,2.525845961656266e-07,2.261280139347008e-05
3.644893615927793e-07,3.399051033822187e-07,2.548790856406027e-07,2.257950479055584e-05
3.6429463501574716e-07,3.3794264399514214e-07,2.573370753374774e-07,2.2540007412326918e-05
3.6422889622777684e-07,3.358693906706473e-07,2.5994275958834706e-07,2.249441005318794e-05
3.6430168737622385e-07,3.336929367619004e-07,2.626801175690186e-07,2.2442661580170512e-05
3.6452066135915256e-07,3.31421675129641e-07,2.655333345794536e-07,2.238459483079615e-05
3.648906855162009e-07,3.290638745450137e-07,2.6848623747654285e-07,2.2319963151412813e-05
3.654139645342523e-07,3.26626975102135e-07,2.7152187098970807e-07,2.2248505254159408e-05
3.660904125892151e-07,3.241176289630847e-07,2.746226487831789e-07,2.217011826680597e-05
3.6691821785645756e-07,3.215416382146157e-07,2.777715778540683e-07,2.20850653926026e-05
3.6789483649939116e-07,3.1890382082891196e-07,2.8095515370940607e-07,2.1994003405121176e-05
3.69017550436671e-07,3.162082702101789e-07,2.841663445891819e-07,2.189780427095961e-05
3.7028307652113924e-07,3.1345842022704055e-07,2.874039949878215e-07,2.1797335010481668e-05
3.716882251571465e-07,3.106571067674696e-07,2.906684220835828e-07,2.1693326837279507e-05
3.732312894935137e-07,3.078077004973693e-07,2.9395801476820734e-07,2.1586450472887118e-05
3.749105479843371e-07,3.0491552547212894e-07,2.9726926463013173e-07,2.147760196197073e-05
3.7672098506567843e-07,3.019885124293345e-07,3.0059840551003127e-07,2.136814165080217e-05
3.786540998763542e-07,2.9903743523615387e-07,3.0394256717484433e-07,2.125986289400117e-05
3.807008345819674e-07,2.9607496422421733e-07,3.0729896648849805e-07,2.1154780854856758e-05
3.8285384970335493e-07,2.9311331368996573e-07,3.1066322970597106e-07,2.105493100014228e-05
3.851079963805656e-07,2.901631006729191e-07,3.140295618347136e-07,2.0962231114394187e-05
3.8745996420939595e-07,2.8723519459820697e-07,3.1739269360576677e-07,2.087837852343692e-05
3.8990709602011685e-07,2.8434339116798546e-07,3.207489046863337e-07,2.080476764080061e-05
3.924458665338658e-07,2.815046286485388e-07,3.240949145638843e-07,2.0742437304608546e-05
3.9507136084374367e-07,2.787376608098168e-07,3.2742667747296e-07,2.069206323155534e-05
3.9777700730144526e-07,2.760628992124206e-07,3.307388726996287e-07,2.0653989413112235e-05
4.005538541108715e-07,2.7350194360324783e-07,3.3402414984995387e-07,2.062825387363944e-05
4.033919200718242e-07,2.710752448807905e-07,3.37273112501137e-07,2.0614583393818832e-05
4.0628390104338886e-07,2.688005254105193e-07,3.40474848780515e-07,2.0612402743781133e-05
4.0922615225644477e-07,2.666928448379524e-07,3.436164722201586e-07,2.0620897910594e-05
4.1221562133194424e-07,2.6476406608941336e-07,3.466825007306681e-07,2.0639112758924512e-05
4.1524729809341546e-07,2.6302182197417267e-07,3.496556055053025e-07,2.066605157394685e-05
4.183134100863872e-07,2.6146945364311013e-07,3.5251896309364704e-07,2.070076336990601e-05
4.214031874315457e-07,2.601071424769548e-07,3.552580773742175e-07,2.0742378490950765e-05
4.245039300578797e-07,2.58934318954111e-07,3.578597851567412e-07,2.0790104362737533e-05
4.276026160274726e-07,2.57951948056505e-07,3.603113326272346e-07,2.084321936597126e-05
4.3068688827266423e-07,2.571621719713068e-07,3.626029696707053e-07,2.090107305268912e-05
4.33746030900315e-07,2.5656614553203867e-07,3.6473040816025774e-07,2.096306051531152e-05
4.3677109022592994e-07,2.56162972412573e-07,3.666931746842112e-07,2.1028554579121947e-05
4.397530189468481e-07,2.5594969188986137e-07,3.68491285602461e-07,2.109682010112786e-05
4.426804644715213e-07,2.559209105885973e-07,3.701231031328854e-07,2.1166962908865e-05
4.455390973595501e-07,2.560689352232249e-07,3.715846719606501e-07,2.1237976524837352e-05
4.483123037538485e-07,2.563849659764016e-07,3.728706162052453e-07,2.1308878839022087e-05
4.5098195892837457e-07,2.568593636146025e-07,3.7397700093910843e-07,2.1378827923582943e-05
4.535293593132681e-07,2.574809240569973e-07,3.7490526422255953e-07,2.1447145180238548e-05
4.5593768180862503e-07,2.582378092983989e-07,3.756631108161266e-07,2.1513277755197567e-05
4.581945955243742e-07,2.5911918973479386e-07,3.762609991819878e-07,2.1576745743005934e-05
4.6029180619736825e-07,2.6011471014777877e-07,3.767090163251418e-07,2.163709821082399e-05
4.622220500889682e-07,2.6121314274149853e-07,3.7701679168697255e-07,2.169387234404232e-05
4.6397670445534936e-07,2.6240238342322804e-07,3.771941904856039e-07,2.1746533472949404e-05
4.655452478825306e-07,2.636699203133433e-07,3.7725049624480683e-07,2.1794420672925475e-05
4.6691563309030503e-07,2.650029158815735e-07,3.771928345920645e-07,2.183675460462784e-05
4.680747170401844e-07,2.663889454027078e-07,3.770266358223732e-07,2.1872726668379505e-05
4.6900906373867576e-07,2.678187547034842e-07,3.767581362244739e-07,2.1901638939218038e-05
4.697060476091199e-07,2.6928948723044054e-07,3.7639586904306406e-07,2.19230531631398e-05
4.7015473542201795e-07,2.7080503574006e-07,3.7594987985962024e-07,2.1936892871105764e-05
4.7034660796512967e-07,2.723737188578983e-07,3.7542990730650697e-07,2.194342022649036e-05
4.702753048820183e-07,2.740055546108692e-07,3.748436814219455e-07,2.194307514994453e-05
4.699352099759554e-07,2.757108977754836e-07,3.7419583852367017e-07,2.1936270529698352e-05
4.693206278507617e-07,2.775013264803055e-07,3.734877587157275e-07,2.1923257397817927e-05
4.684258275849146e-07,2.7939014600751484e-07,3.727184268352113e-07,2.1904100808971467e-05
4.672459193711669e-07,2.813907802990189e-07,3.7188617679175846e-07,2.1878713307143552e-05
4.657797872602954e-07,2.835154343332869e-07,3.7098984031740047e-07,2.1846877522829328e-05
4.640325911700503e-07,2.8577457948224146e-07,3.7002778400969264e-07,2.1808282785708226e-05
4.620141412926096e-07,2.881756027695648e-07,3.689965700779429e-07,2.1762681293835003e-05
4.597356427848469e-07,2.9072101576033894e-07,3.6789164377299816e-07,2.17101292927276e-05
4.5720856177158224e-07,2.9340777901186584e-07,3.667089006562072e-07,2.165109128062348e-05
4.5444485410778284e-07,2.9622779886814536e-07,3.654446606142243e-07,2.158632744922986e-05
4.5145771252595675e-07,2.9916857586781047e-07,3.640943088861916e-07,2.1516699852455592e-05
4.482630590640107e-07,3.022141140920077e-07,3.6265168636138783e-07,2.1443015416110254e-05
4.448798888807784e-07,3.0534753503223487e-07,3.6110986262102705e-07,2.136600462141529e-05
4.413284217068951e-07,3.085554284690797e-07,3.594621346126484e-07,2.1286504177240446e-05
4.376288180798601e-07,3.118317850921584e-07,3.5770235248931843e-07,2.120568377684658e-05
4.33801875015444e-07,3.1517900196309125e-07,3.558253513612857e-07,2.1125070411474616e-05
4.2986886366821844e-07,3.1860493488893605e-07,3.538284604035139e-07,2.1046396982593467e-05
4.2584939447006347e-07,3.2211836532308724e-07,3.517130282247544e-07,2.0971458585872245e-05
4.2175981690166594e-07,3.2572598851721054e-07,3.494842615291377e-07,2.090201308113585e-05
4.17612972711507e-07,3.29431398112998e-07,3.471501221109592e-07,2.083968225234306e-05
4.134185843382652e-07,3.3323594183443225e-07,3.44720855486178e-07,2.0785869914331567e-05
4.091842553506436e-07,3.371407955335552e-07,3.422083110916276e-07,2.074172250597035e-05
4.049160825536365e-07,3.411474491773918e-07,3.3962423565395e-07,2.070811953451688e-05
4.006184136955387e-07,3.452552601531445e-07,3.369789958325452e-07,2.068567967793015e-05
3.9629436787325923e-07,3.494589731800673e-07,3.342817287874137e-07,2.0674773812547773e-05
3.919475979738553e-07,3.53749094259871e-07,3.315408099974011e-07,2.067553376339507e-05
3.875837249743655e-07,3.581143244227096e-07,3.2876365202375414e-07,2.0687849621294766e-05
3.83211103058569e-07,3.6254317902338135e-07,3.259564149925753e-07,2.0711349701942373e-05
3.7884184205194586e-07,3.670230150579968e-07,3.231241603642438e-07,2.074538285429462e-05
3.744922014077545e-07,3.7153777952848185e-07,3.202709954817935e-07,2.078905128601113e-05
3.7018137790010064e-07,3.7606738071617687e-07,3.17399754879919e-07,2.0841310802357933e-05
3.659300382112589e-07,3.805892869844699e-07,3.1451160065682075e-07,2.0901088645160465e-05
3.617599124948024e-07,3.850800843801994e-07,3.11606472278163e-07,2.096736998062357e-05
3.576935907082804e-07,3.8951557597149136e-07,3.086843716809445e-07,2.103926579840053e-05
3.537528541532203e-07,3.938701707300187e-07,3.057465356982142e-07,2.1116062360129693e-05
3.4995618515424853e-07,3.9811677108285635e-07,3.0279666491959636e-07,2.119720940457516e-05
3.463172856574128e-07,4.022282676830646e-07,2.998419102462811e-07,2.1282251302745378e-05
3.428447567485322e-07,4.061802903468186e-07,2.968917556392199e-07,2.137075144225626e-05
3.395423656321589e-07,4.0995333622773563e-07,2.9395536029827124e-07,2.1462220569209682e-05
3.3640940416596424e-07,4.1353327224796025e-07,2.9104025448358325e-07,2.155604601700548e-05
3.334410780150361e-07,4.169100225897618e-07,2.881540258567602e-07,2.1651468310222348e-05
3.3062957320005216e-07,4.200750961889874e-07,2.853076604037137e-07,2.1747608400288462e-05
3.279656744007337e-07,4.230202675668725e-07,2.8251681320190137e-07,2.1843473386713127e-05
3.254398434503038e-07,4.257382540404036e-07,2.797995624744068e-07,2.1937933512821728e-05
3.2304276569957445e-07,4.282229929426088e-07,2.7717303478615106e-07,2.202972901059732e-05
3.2076667789625694e-07,4.304684990105173e-07,2.7465110928281397e-07,2.211752561846556e-05
3.186075281504923e-07,4.324680287726819e-07,2.72243716319036e-07,2.219997730348185e-05
3.165663861276471e-07,4.342143137592817e-07,2.699573141134237e-07,2.2275740251360168e-05
3.14649069018214e-07,4.357016868190266e-07,2.6779565483384053e-07,2.2343445571740568e-05
3.128641081785361e-07,4.3693055137236254e-07,2.6576058375970604e-07,2.240169445026236e-05
3.1122037510692265e-07,4.3790981017910997e-07,2.638534191585412e-07,2.2449109181094024e-05
3.097265568767461e-07,4.3865349170263044e-07,2.620768093620533e-07,2.2484428695957558e-05
3.0839234107526284e-07,4.3917613313929816e-07,2.604355073186595e-07,2.2506638795067567e-05
3.0722874145560014e-07,4.3949250852841003e-07,2.589349337449157e-07,2.2515104519232865e-05
3.062470987133128e-07,4.3962013810093344e-07,2.5757898283031074e-07,2.2509614834403642e-05
3.0545790453247186e-07,4.395810109987837e-07,2.563688523632257e-07,2.249029182398824e-05
3.0486966624793703e-07,4.3940140863349716e-07,2.55302686644238e-07,2.24574204768842e-05
3.0448783203403957e-07,4.3910944294054634e-07,2.543760850704372e-07,2.2411289045530586e-05
3.043139711918969e-07,4.387313721168127e-07,2.535843615723781e-07,2.2352107744131487e-05
3.043456638599864e-07,4.3828923864162855e-07,2.529250518339991e-07,2.2280015717905832e-05
3.0457714283007286e-07,4.378004477804329e-07,2.5239776725051816e-07,2.219512402034498e-05
3.049999845840052e-07,4.3727798203545113e-07,2.5200196144138797e-07,2.209756186708046e-05
3.0560380806981826e-07,4.3673051180860975e-07,2.5173558204778136e-07,2.198758320264414e-05
3.063777560444613e-07,4.3616258953944006e-07,2.5159571237704053e-07,2.1865747033305327e-05
3.073128556259772e-07,4.3557557114466763e-07,2.5157987119381256e-07,2.1733011239220546e-05
3.084040819790529e-07,4.3496924515237037e-07,2.516856917553903e-07,2.1590625693458943e-05
3.096515104334451e-07,4.3434333515873364e-07,2.519090102875608e-07,2.1439924315943107e-05
3.1106060040462424e-07,4.3369839325686816e-07,2.52242903796952e-07,2.1282156425901323e-05
3.1264053397383537e-07,4.330356129961442e-07,2.526780509697855e-07,2.1118459298828307e-05
3.1440095385806944e-07,4.3235540588632574e-07,2.5320294422071397e-07,2.095004804659892e-05
3.163494641193845e-07,4.3165584941046154e-07,2.5380433198970326e-07,2.0778504739709812e-05
3.1849022160199817e-07,4.309326236763956e-07,2.54468666949943e-07,2.0605897802417568e-05
3.2082345911002125e-07,4.3018088897686155e-07,2.551835101431492e-07,2.0434667829469464e-05
3.233467588383391e-07,4.2939690868144274e-07,2.5593801364434304e-07,2.02674486369869e-05
3.260563234259536e-07,4.285775921165712e-07,2.5672350897068483e-07,2.0106938404583616e-05
3.28946371629992e-07,4.277197634489407e-07,2.575354820853007e-07,1.9955798268799703e-05
3.3200839014488674e-07,4.268203223978173e-07,2.5837526345073147e-07,1.9816534003593123e-05
3.352322528769209e-07,4.2587600639473685e-07,2.592483152137668e-07,1.9691373937521967e-05
3.3860884189764525e-07,4.248824989536586e-07,2.6016064138822677e-07,1.958217833141737e-05
3.421318778711593e-07,4.238342393969237e-07,2.6111707674024727e-07,1.9490390753680496e-05
3.4579718534666877e-07,4.227265596871313e-07,2.6212128220054523e-07,1.9417019575424365e-05
3.496012365391357e-07,4.2155868719771816e-07,2.631754657767237e-07,1.936262381717373e-05
3.535406674699369e-07,4.20333375486692e-07,2.642793249516757e-07,1.932730251912569e-05
3.576111271804488e-07,4.190532690278638e-07,2.654291573960925e-07,1.931073165203646e-05
3.6180567808479316e-07,4.177183443036308e-07,2.666179203753786e-07,1.931227001059644e-05
3.661150397033563e-07,4.163259885131278e-07,2.6783582195439e-07,1.933109815249889e-05
3.7052903361017094e-07,4.1487216869231437e-07,2.690711477815908e-07,1.936634846476933e-05
3.7503690943686684e-07,4.133526096112772e-07,2.703114642433928e-07,1.94171950168862e-05
3.796266477834184e-07,4.1176372623231037e-07,2.7154476724588164e-07,1.9482878905717293e-05
3.842845303058512e-07,4.101028777705306e-07,2.727599574050524e-07,1.9562686788503465e-05
3.889944431573083e-07,4.083678346677258e-07,2.739465659918087e-07,1.965593150506809e-05
3.9373669695422503e-07,4.065565530287155e-07,2.750940517858421e-07,1.9761947549599787e-05
3.9848768671435057e-07,4.046680576582831e-07,2.761913205867742e-07,1.988007050621258e-05
4.032206691632553e-07,4.0270385475295075e-07,2.772269063417005e-07,2.00095905761612e-05
4.079068217848889e-07,4.006688483633111e-07,2.781893912930916e-07,2.014969133140545e-05
4.125162433060822e-07,3.985705267546485e-07,2.790678055571942e-07,2.0299384724834838e-05
4.170189381801375e-07,3.9641663219260175e-07,2.798523382244937e-07,2.045749649272147e-05
4.2138585240386243e-07,3.942136226701693e-07,2.805351364450505e-07,2.062272491139676e-05
4.255897917868704e-07,3.919667938593111e-07,2.8111076207594923e-07,2.079369570398288e-05
4.296058463607316e-07,3.896812299603365e-07,2.8157649713760877e-07,2.0968971819514106e-05
4.3341235085094006e-07,3.8736264821919436e-07,2.819319404920509e-07,2.1147064837030387e-05
4.369928834359563e-07,3.8501723885370654e-07,2.8217729161669067e-07,2.132648430339476e-05
4.4033693358035963e-07,3.826515374230897e-07,2.8231177533439217e-07,2.1505790368455726e-05
4.434384210514785e-07,3.8027279954125717e-07,2.8233337172222747e-07,2.168358872944633e-05
4.462944767473936e-07,3.778878903604885e-07,2.8223938299226696e-07,2.185851069583053e-05
4.4890533356475045e-07,3.755012427399342e-07,2.8202728052561933e-07,2.20292819164892e-05
4.512741995114955e-07,3.731142130119957e-07,2.816956035491683e-07,2.2194848408265548e-05
4.534079607761136e-07,3.707256123565322e-07,2.812450045728913e-07,2.235443440331209e-05
4.5531832264828024e-07,3.683322570291047e-07,2.8067906514752264e-07,2.250749868803742e-05
4.570198614106282e-07,3.6592928400908797e-07,2.8000460320284204e-07,2.265364244296615e-05
4.585262126380968e-07,3.63510357461389e-07,2.792316100156378e-07,2.279250485133853e-05
4.5984893541554725e-07,3.610678721070902e-07,2.783724086422903e-07,2.29236683853864e-05
4.6099898947497605e-07,3.585936738386637e-07,2.77440295652166e-07,2.3046624975330232e-05
4.6198789886835993e-07,3.56081324942796e-07,2.764487323413151e-07,2.316083938767681e-05
4.628267252859725e-07,3.5352874503586546e-07,2.754116954709357e-07,2.326585621336674e-05
4.6352382037671843e-07,3.509382325248641e-07,2.743443890875822e-07,2.3361357312067363e-05
4.6408408691847494e-07,3.483146351873156e-07,2.732626661706896e-07,2.344714064080872e-05
4.6451049975316246e-07,3.45664964779733e-07,2.7218132515135513e-07,2.352306540605842e-05
4.648072260127761e-07,3.429988067376864e-07,2.711128882454968e-07,2.358906818566612e-05
4.6498340140517167e-07,3.403268351455823e-07,2.7006775013546034e-07,2.3645300661632518e-05
4.650545908085957e-07,3.3765858678364855e-07,2.6905557523637904e-07,2.369222044792434e-05
4.650400102853907e-07,3.350022174187023e-07,2.6808614527644467e-07,2.373049106579891e-05
4.649583185460882e-07,3.323649306400273e-07,2.671682630014852e-07,2.3760843779227223e-05
4.648249753538682e-07,3.2975243764332316e-07,2.6630851333129286e-07,2.378402552445848e-05
4.6465087772176114e-07,3.27169401296459e-07,2.655115099475104e-07,2.380075154824976e-05
4.644418362175617e-07,3.246205761233796e-07,2.647811227473057e-07,2.381164100333504e-05
4.6419984215827684e-07,3.221106260842465e-07,2.641216585894084e-07,2.381717152104635e-05
4.639257635160432e-07,3.1964361368861423e-07,2.6353827906256746e-07,2.381763962443013e-05
4.636208068321501e-07,3.172228663079629e-07,2.63037198504594e-07,2.381313292816169e-05
4.6328563549960577e-07,3.148512374387613e-07,2.626254651517157e-07,2.3803535437912618e-05
4.6291904280962923e-07,3.125320018507152e-07,2.6230921800576977e-07,2.378855936282352e-05
4.625180751655546e-07,3.1026956378841254e-07,2.620915719945786e-07,2.376777753263217e-05
4.620797601112039e-07,3.080702888889145e-07,2.6197197283673574e-07,2.3740643531268428e-05
4.6160308265919573e-07,3.059431519452397e-07,2.6194713265828273e-07,2.370652730603743e-05
4.610898201664438e-07,3.038982106842722e-07,2.620124629934973e-07,2.3664793558230123e-05
4.6054471836806576e-07,3.0194450041035573e-07,2.621627193245324e-07,2.361489519221636e-05
4.5997652233396127e-07,3.000903405400698e-07,2.623919028724172e-07,2.3556420313182485e-05
4.59398234190141e-07,2.983443817930188e-07,2.626935554053437e-07,2.3489054884515828e-05
4.5882392748323603e-07,2.9671490212023247e-07,2.630614936444132e-07,2.3412487445591603e-05
4.582648916640069e-07,2.95209283614688e-07,2.634902977950137e-07,2.3326332538872323e-05
4.577297759849143e-07,2.938355071826792e-07,2.639760536969874e-07,2.323012019554697e-05
4.572281370623628e-07,2.926031578605435e-07,2.6451754820127826e-07,2.312333150018723e-05
4.567716915148282e-07,2.915224702228345e-07,2.651165510902389e-07,2.3005441402264292e-05
4.5637107793803567e-07,2.906029528987021e-07,2.657770786301423e-07,2.2875950379269545e-05
4.56033681979877e-07,2.898517875836701e-07,2.665040810942984e-07,2.2734413506619892e-05
4.557647140447368e-07,2.892721797990344e-07,2.673011797654433e-07,2.2580487429952e-05
4.5556783623608723e-07,2.888630066425644e-07,2.6816956205631885e-07,2.241398747223313e-05
4.554455233509525e-07,2.8861948740846273e-07,2.6910960161632345e-07,2.22349198356404e-05
4.5540155384936455e-07,2.885342339448908e-07,2.701225898015491e-07,2.204347055881512e-05
4.554439518575989e-07,2.885988429253243e-07,2.712115066192364e-07,2.1839959167338683e-05
4.555841365721166e-07,2.8880485017216147e-07,2.723817663444329e-07,2.1624773842494768e-05
4.5583257210245783e-07,2.891434704831784e-07,2.736403549115784e-07,2.1398325777377687e-05
4.561977585350649e-07,2.896055921656181e-07,2.7499321497191627e-07,2.116107594324431e-05
4.5669052207250643e-07,2.901820595683102e-07,2.7644369790368444e-07,2.0913596615081616e-05
4.573259495223137e-07,2.9086327593771854e-07,2.779924060708894e-07,2.0656557961026764e-05
4.581192993214938e-07,2.9163833574543535e-07,2.796368810059893e-07,2.0390665626215922e-05
4.590810228038324e-07,2.924945711674214e-07,2.813713218195063e-07,2.0116637107337348e-05
4.6021447270973186e-07,2.9341918410388604e-07,2.8318725164510195e-07,1.983518856968432e-05
4.6151562461592633e-07,2.944035837264072e-07,2.850746913394435e-07,1.9547028557747446e-05
4.6297413241363925e-07,2.95446996439917e-07,2.870226620165203e-07,1.925289536928168e-05
4.6457568159374045e-07,2.965550845155849e-07,2.8901944132703965e-07,1.895357457699133e-05
4.663052076834357e-07,2.9773471304291593e-07,2.910533868120433e-07,1.8649852536820684e-05
4.681493276831317e-07,2.989895992927331e-07,2.931134142436809e-07,1.834248161094576e-05
4.7009634255937397e-07,3.003194075957732e-07,2.9518907883763573e-07,1.8032235286683253e-05
4.721351791556426e-07,3.017226235525461e-07,2.972706500704267e-07,1.772004547835128e-05
4.7425627272946826e-07,3.0320108320374687e-07,2.993489680082881e-07,1.740714338518417e-05
4.7645351087852143e-07,3.0476185030076125e-07,3.014170375687864e-07,1.7095111431248057e-05
4.787232806136586e-07,3.064158969392045e-07,3.034726101007911e-07,1.6785801318601317e-05
4.81061026108991e-07,3.081758571965673e-07,3.055169987056348e-07,1.6481143618489074e-05
4.834595513314018e-07,3.1005300701012003e-07,3.0755127370613927e-07,1.6182929370964693e-05
4.859090473980523e-07,3.120547797525304e-07,3.095747720435121e-07,1.5892661910044448e-05
4.883965423648539e-07,3.1418517141513057e-07,3.1158525668784554e-07,1.5611515108736414e-05
4.909061077818336e-07,3.164471694447986e-07,3.1357846651796194e-07,1.5340346553191186e-05
4.934204301879399e-07,3.188444862263726e-07,3.155483093203092e-07,1.5079737174834063e-05
4.959217653984067e-07,3.213808650322529e-07,3.174878606625863e-07,1.4830115245873764e-05
4.983914961456509e-07,3.240576369787388e-07,3.1938943037070423e-07,1.4591973634994095e-05
5.008087597390079e-07,3.2687164971121345e-07,3.2124495613022005e-07,1.4366014816020046e-05
5.031494012533041e-07,3.2981461189468184e-07,3.2304848529899764e-07,1.4153073975462784e-05
5.053863594628815e-07,3.3287339091581986e-07,3.2479770165920574e-07,1.3953917647255505e-05
5.07490975205319e-07,3.360305639719025e-07,3.264917070986629e-07,1.3769115989640647e-05
5.094341562912142e-07,3.392650197096744e-07,3.28128132425139e-07,1.359909406710011e-05
5.111873526367945e-07,3.425527292044852e-07,3.2970291305708534e-07,1.3444375253117735e-05
5.127239055063439e-07,3.458681476330101e-07,3.3121157116572967e-07,1.330588047657774e-05
5.140206178792311e-07,3.4918609340178874e-07,3.326500660376273e-07,1.318503861136444e-05
5.150585380368292e-07,3.5248293253683147e-07,3.340148123349836e-07,1.3083636183694453e-05
5.158218652967323e-07,3.5573655037366944e-07,3.353018541401677e-07,1.3003577207575301e-05
5.162959486686107e-07,3.5892558236968754e-07,3.365060052586675e-07,1.2946704986787414e-05
5.164670045892457e-07,3.62028588239254e-07,3.3762087128018734e-07,1.2914683617876473e-05
5.163234135305368e-07,3.650237468534186e-07,3.386395183740198e-07,1.2908900634406105e-05
5.158563655071827e-07,3.6788911179605533e-07,3.395552192955789e-07,1.2930399598390073e-05
5.150601754853342e-07,3.706031152035406e-07,3.403617210253401e-07,1.2979855089163436e-05
5.139335137720315e-07,3.731462189155918e-07,3.410530019961101e-07,1.3057583662251433e-05
5.124802675004335e-07,3.755043405873721e-07,3.4162289177413694e-07,1.316357306087965e-05
5.1070928383865e-07,3.7767067682291753e-07,3.420648999667642e-07,1.3297483098657208e-05
5.086339636454495e-07,3.7964381630480534e-07,3.423730557507713e-07,1.3458595846585009e-05
5.062710734472086e-07,3.81425890940897e-07,3.425430645870247e-07,1.3645782071429685e-05
5.036388631722729e-07,3.830225542305118e-07,3.425718606904208e-07,1.3857553494872549e-05
5.007568309187848e-07,3.84442519423046e-07,3.424562364420097e-07,1.4092175562320095e-05
4.97646400138264e-07,3.8569576474416096e-07,3.421924619116395e-07,1.4347779117055856e-05
4.943294464311539e-07,3.867914644214469e-07,3.417765190579105e-07,1.4622444909597467e-05
4.908254072413767e-07,3.8773752523096923e-07,3.4120383693116826e-07,1.4914253938104007e-05
4.871501705356395e-07,3.8854144721663023e-07,3.404690353072902e-07,1.5221315775284614e-05
4.833179566494026e-07,3.892100760631813e-07,3.3956629124436684e-07,1.5541805967306894e-05
4.79344177729642e-07,3.8974864630078094e-07,3.384899170721216e-07,1.587400306429819e-05
4.752461313894638e-07,3.901608069560777e-07,3.372351425082434e-07,1.6216280600087936e-05
4.71041892153332e-07,3.9044942031433024e-07,3.357989545378876e-07,1.6567052869069127e-05
4.6674986049089354e-07,3.906175215245364e-07,3.341803697878945e-07,1.6924711444450687e-05
4.623887380414093e-07,3.9066844830813383e-07,3.323810332798044e-07,1.7287570007278766e-05
4.5797654708533925e-07,3.906048091578612e-07,3.304067841254658e-07,1.7653828787013118e-05
4.535289959057005e-07,3.9042779619951743e-07,3.2826826218225307e-07,1.802157679663082e-05
4.4905878775088043e-07,3.9013739572597203e-07,3.259797612392444e-07,1.838882021118182e-05
4.445770355803648e-07,3.897330414430664e-07,3.235583737142363e-07,1.875351614360969e-05
4.400964387359397e-07,3.892144854857089e-07,3.210236962132773e-07,1.9113619292725864e-05
4.356352617512205e-07,3.8858170690538563e-07,3.183963379459672e-07,1.9467135865131928e-05
4.312203622276616e-07,3.878337054572945e-07,3.156960171336593e-07,1.98121470027886e-05
4.268862538907728e-07,3.8696827457264103e-07,3.1294099293378876e-07,2.0146803207409573e-05
4.226696102724049e-07,3.8598327721331317e-07,3.101485772062901e-07,2.0469368044800345e-05
4.186032227646601e-07,3.848774820484315e-07,3.0733576237791056e-07,2.0778340439974148e-05
4.1471322447889706e-07,3.836505710768745e-07,3.0451887599331604e-07,2.1072559573786715e-05
4.1101885324873817e-07,3.823038450428693e-07,3.017123102995869e-07,2.1351220357209218e-05
4.0753256852421926e-07,3.8084132569057564e-07,2.989276217977767e-07,2.1613809729747664e-05
4.042608345830701e-07,3.7926951216804717e-07,2.961733867975367e-07,2.1859975349130527e-05
4.0120621539275214e-07,3.775955224524856e-07,2.934558351922332e-07,2.2089370837232973e-05
3.98369330820022e-07,3.7582499966672527e-07,2.90780363483661e-07,2.230156310544152e-05
3.957487258038564e-07,3.7396108554810344e-07,2.8815301470054286e-07,2.2496035259044564e-05
3.9333976651879847e-07,3.720048634409095e-07,2.855804321680344e-07,2.2672245939457363e-05
3.911367596581215e-07,3.6995776935560176e-07,2.830682163407585e-07,2.2829683915259462e-05
3.891384957596214e-07,3.678246394927577e-07,2.806199445625432e-07,2.296788288718028e-05
3.873518084314481e-07,3.656137549591852e-07,2.782386184614311e-07,2.3086404281450726e-05
3.8578995028037203e-07,3.6333383445030606e-07,2.759289349603902e-07,2.3184817029277743e-05
3.8446787250379726e-07,3.6099157253826756e-07,2.736976081016056e-07,2.3262750267843148e-05
3.833982728627745e-07,3.585911188328454e-07,2.7155178081527627e-07,2.3320085374081452e-05
3.825904935311477e-07,3.5613474028743204e-07,2.6949770880557214e-07,2.335714415889505e-05
3.820512141790615e-07,3.5362449904513476e-07,2.675408134510882e-07,2.337467238157455e-05
3.8178445628337846e-07,3.5106463800927693e-07,2.656863732964168e-07,2.3373693897607503e-05
3.817903810615893e-07,3.4846308297787306e-07,2.63939636572742e-07,2.335540086929281e-05
3.820643912706501e-07,3.458307165009999e-07,2.6230529657379717e-07,2.332108892981813e-05
3.8259671610546275e-07,3.4317936922221853e-07,2.6078694008779413e-07,2.3272103873254043e-05
3.833720304463646e-07,3.405204533576233e-07,2.593865325402705e-07,2.3209786450291423e-05
3.8436980692905774e-07,3.378642247489007e-07,2.581041710551356e-07,2.3135413124397143e-05
3.855653079795064e-07,3.352191048159688e-07,2.569384565232569e-07,2.305015132446457e-05
3.869304008030944e-07,3.325917345528313e-07,2.5588708163105373e-07,2.2955026179322825e-05
3.8843456653607867e-07,3.299874782488226e-07,2.549476574784732e-07,2.2850881976136404e-05
3.900470443889683e-07,3.274103430678599e-07,2.5411928559534897e-07,2.273834840737373e-05
3.9173981654508037e-07,3.2486273852018447e-07,2.534031916515952e-07,2.261783384088531e-05
3.9348921031932454e-07,3.223457127751102e-07,2.5280083891526453e-07,2.248955084538776e-05
3.952745325812757e-07,3.1985914214364447e-07,2.523117389962667e-07,2.2353562539407665e-05
3.9707587331369025e-07,3.174013532692808e-07,2.5193345043527353e-07,2.2209842346751867e-05
3.988733723837878e-07,3.149685100405173e-07,2.5166302341150165e-07,2.2058330724754628e-05
4.0064719275362846e-07,3.125546322778473e-07,2.5149747901528085e-07,2.189895681232189e-05
4.023777375609927e-07,3.101529960282095e-07,2.514330227563995e-07,2.1731636013176765e-05
4.0404647775042773e-07,3.077581523026542e-07,2.5146532040525696e-07,2.15562761093224e-05
4.0563653822642367e-07,3.053663796957752e-07,2.515906426797573e-07,2.1372787076057447e-05
4.0713234371652777e-07,3.0297465316333623e-07,2.518051515374539e-07,2.1181099324242247e-05
4.0851892595810816e-07,3.005803479681632e-07,2.52102984228015e-07,2.098119660464208e-05
4.0978220982103594e-07,2.981815120920526e-07,2.5247574490425147e-07,2.07731334904966e-05
4.109115621839589e-07,2.957771043838264e-07,2.529131628724157e-07,2.055703048156557e-05
4.119028780908485e-07,2.933687911868144e-07,2.5340365532258117e-07,2.033307694615064e-05
4.127584913838682e-07,2.9096385476583553e-07,2.53934801734762e-07,2.010155440917424e-05
4.1348452481087864e-07,2.885764808292912e-07,2.5449398926457573e-07,1.9862852518828976e-05
4.1408844010006406e-07,2.862269857275851e-07,2.550694634440605e-07,1.961744080460018e-05
4.145767507777508e-07,2.839395616706978e-07,2.5565113258859967e-07,1.936580183239484e-05
4.149529678662008e-07,2.8173862864326105e-07,2.5622997984440015e-07,1.910836676410906e-05
4.1521699411231226e-07,2.796465077335729e-07,2.567971137344206e-07,1.884549987654318e-05
4.153655867472461e-07,2.7768419950133235e-07,2.5734410485480104e-07,1.8577576686659345e-05
4.1539299837997976e-07,2.758718452788593e-07,2.578635369846625e-07,1.8305111942575725e-05
4.1529221192400525e-07,2.742269308925732e-07,2.583485787239535e-07,1.8028784552149007e-05
4.150567749823989e-07,2.727630159477781e-07,2.587929910998429e-07,1.7749317272285916e-05
4.1468229953444564e-07,2.7149004047538373e-07,2.5919170970348467e-07,1.746735718601137e-05
4.141668541712812e-07,2.704141607833808e-07,2.5954033954753387e-07,1.7183466045189936e-05
4.135104275446424e-07,2.6953698497508504e-07,2.598340381190129e-07,1.6898205122698862e-05
4.127147935201428e-07,2.6885580418920176e-07,2.6006686273122933e-07,1.661224674990981e-05
4.1178421699386933e-07,2.683647155060069e-07,2.602315136965061e-07,1.63264213594513e-05
4.107257337522594e-07,2.6805580707392265e-07,2.60319719568014e-07,1.6041664483140123e-05
4.0954819160086703e-07,2.6791976469029376e-07,2.603232638800402e-07,1.5758910822058692e-05
4.082609719987258e-07,2.679454943004252e-07,2.6023482283063287e-07,1.5479002094797143e-05
4.0687292502715933e-07,2.681197032832837e-07,2.60048288430577e-07,1.5202689927420608e-05
4.053910360600328e-07,2.684272437664928e-07,2.5975869732281604e-07,1.4930758245213614e-05
4.038198747769218e-07,2.688518443411836e-07,2.593616356463871e-07,1.4664149549854944e-05
4.0216337831051997e-07,2.693766031509081e-07,2.588526935212205e-07,1.4403973457007224e-05
4.004281145532978e-07,2.6998404840720617e-07,2.5822816598714926e-07,1.4151399916473093e-05
3.986250459204114e-07,2.7065648718314126e-07,2.574874367709291e-07,1.3907510584220385e-05
3.9676836631736797e-07,2.7137670547839923e-07,2.566354592664216e-07,1.367319056535993e-05
3.948739254640733e-07,2.7212811903021805e-07,2.556822746999101e-07,1.3449108583539253e-05
3.929593239830252e-07,2.7289538522084066e-07,2.546398837254448e-07,1.3235753734458067e-05
3.910434787620478e-07,2.7366637677670197e-07,2.535204064232805e-07,1.3033467630027958e-05
3.891444493604893e-07,2.744327560584567e-07,2.523361509967993e-07,1.2842498071088345e-05
3.872786903337157e-07,2.751878000875628e-07,2.510993459590649e-07,1.266315597801877e-05
3.8546199487472853e-07,2.75924707140117e-07,2.4982137458009444e-07,1.2496010094341433e-05
3.837084697376583e-07,2.766374232737745e-07,2.4851239751535767e-07,1.2341931997605535e-05
3.8202847709780025e-07,2.773218791885255e-07,2.471817630895659e-07,1.2201960402394098e-05
3.804291974271185e-07,2.77975074065181e-07,2.458389826892657e-07,1.2077106812762995e-05
3.7891669106401713e-07,2.7859309661282184e-07,2.444943200234641e-07,1.1968228373709484e-05
3.7749630482339287e-07,2.791710256090125e-07,2.4315821646178505e-07,1.187611273405759e-05
3.7617156738523226e-07,2.7970427253926875e-07,2.418397970603085e-07,1.1801742333081833e-05
3.749444464133864e-07,2.8018893991808073e-07,2.405461066050939e-07,1.174644617704778e-05
3.738188121669315e-07,2.8062212818584885e-07,2.3928290250425296e-07,1.1711809229872834e-05
3.728041238543497e-07,2.810045486546239e-07,2.3805582977362948e-07,1.16994838946138e-05
3.719147509201775e-07,2.813431747116716e-07,2.3687176121020003e-07,1.171102298792093e-05
3.7116619145554793e-07,2.816495694252346e-07,2.357404461207633e-07,1.1747757755440581e-05
3.705731883187458e-07,2.8193502398574126e-07,2.3467497067760854e-07,1.1810711449860484e-05
3.7015037025064847e-07,2.8220742394030764e-07,2.336908121706865e-07,1.1900535142626135e-05
3.6991162133219903e-07,2.824713197696493e-07,2.328045760270977e-07,1.2017474636274655e-05
3.6986716134244593e-07,2.827289324289032e-07,2.3203197680533443e-07,1.2161375710837781e-05
3.700214355618578e-07,2.829806042448633e-07,2.313852638222633e-07,1.2331708493431575e-05
3.703734039259374e-07,2.83225573750028e-07,2.3087202564721135e-07,1.2527580783851061e-05
3.709178531133744e-07,2.834639627917265e-07,2.3049580761345267e-07,1.2747735923309573e-05
3.716463820723268e-07,2.836987547128589e-07,2.3025762578829803e-07,1.2990573222844392e-05
3.725482434801818e-07,2.839355299587959e-07,2.3015778055254951e-07,1.3254224216592801e-05
3.7361236385327464e-07,2.841801545889721e-07,2.3019654646276578e-07,1.3536679495181908e-05
3.748307672170662e-07,2.844373125481736e-07,2.3037319965640855e-07,1.3835938007943234e-05
3.762005348686565e-07,2.8471062237383354e-07,2.3068581228992962e-07,1.4150123142319363e-05
3.777220350686096e-07,2.850024045226998e-07,2.3113321782737922e-07,1.4477522188780496e-05
3.793960536387925e-07,2.8531292749146586e-07,2.317166922032416e-07,1.4816577724220614e-05
3.812233570086189e-07,2.856401420612728e-07,2.324389919115365e-07,1.5165880390569535e-05
3.832052168736571e-07,2.859804451612393e-07,2.3330221747776012e-07,1.5524153152611455e-05
3.8534153709678384e-07,2.863313560768793e-07,2.3430693862773362e-07,1.5890178182931028e-05
3.8762782687497936e-07,2.866941107208312e-07,2.354520615649096e-07,1.626268015035476e-05
3.9005386775692296e-07,2.870722470490319e-07,2.367342652371118e-07,1.664025149480606e-05
3.926041804811513e-07,2.8746800801677215e-07,2.381476232597149e-07,1.7021348739349327e-05
3.952599262065797e-07,2.8788155865341397e-07,2.396836624723115e-07,1.7404313190498087e-05
3.980007955662704e-07,2.8831253977429004e-07,2.413315840901343e-07,1.7787403994573734e-05
4.0080525808166256e-07,2.887605406525849e-07,2.430788411212313e-07,1.8168852297984216e-05
4.0365104502572156e-07,2.892249476382125e-07,2.4491198433954103e-07,1.8546914734298488e-05
4.06516766903771e-07,2.897056528260573e-07,2.4681754457889664e-07,1.8919919625027364e-05
4.093823906242078e-07,2.902027382489431e-07,2.4878291019301764e-07,1.9286304709555867e-05
4.12228825738716e-07,2.907152488899352e-07,2.507972213539536e-07,1.964462918630587e-05
4.1503898456517867e-07,2.9124268903938965e-07,2.5285175192582225e-07,1.9993566214966e-05
4.1779953910176134e-07,2.9178786121982497e-07,2.549391554488781e-07,2.0331891234733995e-05
4.205006064341074e-07,2.923561850068454e-07,2.570523399204516e-07,2.065845032032479e-05
4.2313370753039975e-07,2.929526156689679e-07,2.591837159013169e-07,2.097209407835358e-05
4.2569023192382727e-07,2.935802825256429e-07,2.6132471877169125e-07,2.127162004441205e-05
4.281605680060982e-07,2.942411646756115e-07,2.634662054824982e-07,2.1555789981811072e-05
4.3053425813957654e-07,2.949382480798253e-07,2.6559934834910157e-07,2.1823433903760308e-05
4.328023447666745e-07,2.956795055529038e-07,2.677155300782786e-07,2.2073576600449587e-05
4.349599348130632e-07,2.9648098765261877e-07,2.698056622009468e-07,2.230548697172625e-05
4.3700635442502507e-07,2.973650839168816e-07,2.7186020540334137e-07,2.2518609783563626e-05
4.389438438078106e-07,2.983547878922092e-07,2.738702520271101e-07,2.271244493997369e-05
4.4077597202610646e-07,2.9946916532502603e-07,2.758290314973236e-07,2.2886471295170324e-05
4.42505816263243e-07,3.007230246346777e-07,2.777319837675922e-07,2.3040148240144352e-05
4.441350321008143e-07,3.021283453388517e-07,2.795749169222209e-07,2.3172943730635324e-05
4.4566385053064e-07,3.0369492590408423e-07,2.813525840376033e-07,2.328433768789309e-05
4.4709058226684636e-07,3.0543058012397427e-07,2.8305881488334407e-07,2.337386403145396e-05
4.484106955370596e-07,3.073410512401239e-07,2.84686592026192e-07,2.344131120130281e-05
4.4961672140986346e-07,3.094294017336175e-07,2.862273638825489e-07,2.3487000080990906e-05
4.506993940982789e-07,3.116947120840053e-07,2.876706165086393e-07,2.3511864400676067e-05
4.51650004256398e-07,3.14131303145941e-07,2.890048287301337e-07,2.351725405151048e-05
4.5246414984971034e-07,3.1673038633156e-07,2.902204426090477e-07,2.350466303072672e-05
4.531448566725977e-07,3.194819066751268e-07,2.913130487032205e-07,2.3475551766677736e-05
4.5370156873764e-07,3.223742961525397e-07,2.922838891280849e-07,2.343131139582305e-05
4.541453443238017e-07,3.253946808170939e-07,2.9313795941450425e-07,2.3373413869089622e-05
4.544849071056115e-07,3.2853092260590877e-07,2.9388155375958553e-07,2.3303666327591204e-05
4.547266150456046e-07,3.3177336331997944e-07,2.945206538066105e-07,2.322431902867957e-05
4.5487624392741604e-07,3.3511440736439536e-07,2.9506196618589465e-07,2.3137940781233765e-05
4.5493920810869276e-07,3.385466949720124e-07,2.955158775506825e-07,2.3047206504395264e-05
4.5491922673144863e-07,3.420619786738627e-07,2.958972435101902e-07,2.2954707679167854e-05
4.5481779767641727e-07,3.4565065110749733e-07,2.9622257095251877e-07,2.2862807829580186e-05
4.546354404725617e-07,3.4930099454078696e-07,2.9650700040877034e-07,2.277353914038263e-05
4.5437272032143156e-07,3.529986541724118e-07,2.967638251430845e-07,2.268852703152116e-05
4.5402927034425346e-07,3.5672665957125246e-07,2.9700544462057586e-07,2.2608949237275894e-05
4.5360257004043094e-07,3.6046609911215503e-07,2.9724347548658627e-07,2.253555655480003e-05
4.5308973762311194e-07,3.641983830248625e-07,2.9748750185803753e-07,2.246873764178892e-05
4.524918117689746e-07,3.6790833762847644e-07,2.977439769680514e-07,2.24085591481154e-05
4.518152541529048e-07,3.715855185976533e-07,2.9801626375223515e-07,2.235477051269721e-05
4.5106847731243e-07,3.7522403298731066e-07,2.9830516370468817e-07,2.2306826589479528e-05
4.502584881061355e-07,3.7882277083716654e-07,2.986095461835409e-07,2.2263950416176417e-05
4.493911342689227e-07,3.8238585486540495e-07,2.9892660518948695e-07,2.2225231650632932e-05
4.484718223529025e-07,3.859218213349232e-07,2.992511714028205e-07,2.2189744491734866e-05
4.4750474699297716e-07,3.894401680545115e-07,2.995753092792705e-07,2.2156637128269525e-05
4.464926399612216e-07,3.929471752627662e-07,2.9988913136548147e-07,2.212516579444502e-05
4.4543702621683123e-07,3.964446367634747e-07,3.001818702191008e-07,2.209470262087201e-05
4.4433743826193455e-07,3.9993067299931175e-07,3.0044269490701605e-07,2.2064741142167465e-05
4.431904706370824e-07,4.033999279951757e-07,3.0066144110455534e-07,2.2034885928348263e-05
4.4198980944458287e-07,4.0684380468351974e-07,3.0082946750501205e-07,2.200480445704188e-05
4.407270185396902e-07,4.102515210942663e-07,3.009406410479529e-07,2.197413771132792e-05
4.3939258407046787e-07,4.1361073500972365e-07,3.0099101666242013e-07,2.1942424001289544e-05
4.379763844684347e-07,4.169081775219113e-07,3.009769465894122e-07,2.1909124985324946e-05
4.3646750802140855e-07,4.201312579835255e-07,3.0089437847503015e-07,2.187374027538247e-05
4.3485444555797775e-07,4.2326846733171256e-07,3.007404929308507e-07,2.183588309296968e-05
4.331263633104148e-07,4.2630779727446775e-07,3.005153539375201e-07,2.179525988832651e-05
4.3127527604841137e-07,4.2923631812251223e-07,3.002214460672854e-07,2.175161708461828e-05
4.29297666718039e-07,4.3204209939228413e-07,2.998618610217053e-07,2.1704715502569828e-05
4.271937175752544e-07,4.347161845054698e-07,2.994398850793204e-07,2.1654342073785347e-05
4.249645899698693e-07,4.3725271672819045e-07,2.989607075565933e-07,2.160031499517319e-05
4.226107829855397e-07,4.396479695187462e-07,2.984319405607214e-07,2.1542430934969188e-05
4.2013316742036063e-07,4.4189993901810617e-07,2.978610219522824e-07,2.1480416698762485e-05
4.175341697475421e-07,4.440078142340948e-07,2.9725286225207393e-07,2.141400604590413e-05
4.1481663511296966e-07,4.4597026310360173e-07,2.9661033437519695e-07,2.1343115830562978e-05
4.119819896938482e-07,4.47783938185273e-07,2.9593556183667467e-07,2.126795833765792e-05
4.0903009101616405e-07,4.494446143814674e-07,2.952300527392449e-07,2.118900793942468e-05
4.059603466213085e-07,4.509503614566677e-07,2.944948717286605e-07,2.110689284434212e-05
4.027729850344445e-07,4.5230236460813857e-07,2.937318581055387e-07,2.1022288339054418e-05
3.994708678743213e-07,4.535025308264611e-07,2.929441420229578e-07,2.0935820646200705e-05
3.9606173285998995e-07,4.5455168814145613e-07,2.9213506643596803e-07,2.0848002266127452e-05
3.925591960644115e-07,4.554498768114069e-07,2.9130789356217573e-07,2.0759233797303023e-05
3.88981719823077e-07,4.561976988532732e-07,2.904679737578842e-07,2.0669838085150888e-05
3.853501673179017e-07,4.567971529700236e-07,2.896252664701238e-07,2.0580061619874296e-05
3.8168536805221895e-07,4.572509709381853e-07,2.8879424899252985e-07,2.0490042593213653e-05
3.780079254515124e-07,4.575613322789626e-07,2.87991207597894e-07,2.0399807475144487e-05
3.743406801864976e-07,4.577292479925517e-07,2.872316079802073e-07,2.030938677478785e-05
3.70710833524716e-07,4.5775519207020476e-07,2.865295418227666e-07,2.0219056015678533e-05
3.671486403188925e-07,4.5764007495040397e-07,2.8589776876278794e-07,2.012948687932884e-05
3.636838246223437e-07,4.5738514460405605e-07,2.853463789165004e-07,2.004163011732613e-05
3.603436211334744e-07,4.5699123763427257e-07,2.848812094121723e-07,1.9956522532261824e-05
3.571532333007925e-07,4.5645849488648694e-07,2.84503703073995e-07,1.987524742814877e-05
3.5413629361873996e-07,4.5578646204366816e-07,2.842118593730246e-07,1.979894548752651e-05
3.5131392271066236e-07,4.5497407312986853e-07,2.8400103386675573e-07,1.972873676011121e-05
3.487044675691861e-07,4.5401945433455754e-07,2.838644569183832e-07,1.9665604590821023e-05
3.463270519132596e-07,4.5291983692158137e-07,2.8379453994308265e-07,1.9610316948008488e-05
3.442055442674724e-07,4.5167217659033567e-07,2.837845943498826e-07,1.9563404353016533e-05
3.423660886168984e-07,4.5027430416581143e-07,2.838287382093132e-07,1.952518086153169e-05
3.4083036099783657e-07,4.4872550180606525e-07,2.839203713797472e-07,1.949577171529989e-05
3.396126110004951e-07,4.4702609477649995e-07,2.8405211464672225e-07,1.9475126949667262e-05
3.387215659027468e-07,4.451767586851072e-07,2.842166847663778e-07,1.9463033942436528e-05
3.38162304359048e-07,4.4317824978042183e-07,2.8440621847514073e-07,1.945913802365529e-05
3.379361004403708e-07,4.4103102768324186e-07,2.846112166853114e-07,1.9462961081218696e-05
3.3803959969562915e-07,4.387344589140542e-07,2.8482129799174024e-07,1.9473923317762218e-05
3.384644187310523e-07,4.362872884847965e-07,2.850264347045104e-07,1.9491374065814694e-05
3.3919754213443577e-07,4.3369017415304134e-07,2.852168248900865e-07,1.9514596205131092e-05
3.402224284643322e-07,4.3094746004405146e-07,2.853825105386684e-07,1.9542771789979e-05
3.415203119895977e-07,4.280666928210438e-07,2.8551418320466307e-07,1.957496716184016e-05
3.43070931536986e-07,4.2505879331402247e-07,2.8560436789638646e-07,1.9610158932978462e-05
3.4485233353203946e-07,4.219389346737723e-07,2.8564754260752924e-07,1.964725417153997e-05
3.468405229735681e-07,4.18725231311129e-07,2.856402103196691e-07,1.9685092419232134e-05
3.490101748057535e-07,4.1543601805080903e-07,2.8558241540028264e-07,1.9722459121143012e-05
3.5133602920064e-07,4.120877362581663e-07,2.8547809753076987e-07,1.975813215663815e-05
3.537928601152295e-07,4.086937883447664e-07,2.853324378190287e-07,1.979096038572473e-05
3.563540725901589e-07,4.052646446385435e-07,2.851496653253076e-07,1.9819931413174165e-05
3.589915774524458e-07,4.0180960455232844e-07,2.849335917875263e-07,1.9844177664542293e-05
3.616772597862978e-07,3.9833845679820707e-07,2.846891035865388e-07,1.9862930657147532e-05
3.643843257365835e-07,3.9486049578810637e-07,2.844225323755844e-07,1.987547509696785e-05
3.670894365892243e-07,3.9138230279816093e-07,2.8414035471756525e-07,1.9881122882632385e-05
3.697765670738569e-07,3.879069742812024e-07,2.838478132263141e-07,1.9879203101292305e-05
3.7243947385434884e-07,3.8443449966055274e-07,2.835490514150484e-07,1.986909486182092e-05
3.750802211675922e-07,3.809625451174983e-07,2.8324792953627853e-07,1.985029693175767e-05
3.777054814545119e-07,3.774876485689864e-07,2.8294844367932137e-07,1.982244557684633e-05
3.803236177697141e-07,3.740061049896965e-07,2.826545822333479e-07,1.9785251522201058e-05
3.829433745441093e-07,3.705145524450576e-07,2.823698775898495e-07,1.9738439281611818e-05
3.85572539989556e-07,3.6701068360079067e-07,2.8209775277453425e-07,1.968174802915057e-05
3.882156284638699e-07,3.634931172584288e-07,2.818422773222041e-07,1.961499158726615e-05
3.9087239977873676e-07,3.5996094283105047e-07,2.8160812452232966e-07,1.9538130268001293e-05
3.9353874979581904e-07,3.564146070161385e-07,2.814002612850409e-07,1.9451262786105936e-05
3.962090671001261e-07,3.528570171539229e-07,2.812234485404715e-07,1.935453562493074e-05
3.9887934554745776e-07,3.4929375016224606e-07,2.810816136204013e-07,1.9248097416116822e-05
4.015495445954216e-07,3.457340288218523e-07,2.809782207893765e-07,1.9132171765535086e-05
4.042222266153424e-07,3.421921901650427e-07,2.809167987490375e-07,1.900719910278125e-05
4.0689942531408045e-07,3.3868625111950214e-07,2.808997891876599e-07,1.88739640761244e-05
4.0958328311183317e-07,3.35233670273421e-07,2.809271064567152e-07,1.873362909733443e-05
4.122804226814325e-07,3.318490573703344e-07,2.809967643133938e-07,1.858763842124608e-05
4.150049904302561e-07,3.2854567912936047e-07,2.811061229093699e-07,1.843753497050903e-05
4.1777779627897477e-07,3.253368050689429e-07,2.8125167512953897e-07,1.8284766995747313e-05
4.2062283595484815e-07,3.222343081272157e-07,2.814287011678692e-07,1.8130564352102083e-05
4.235636969904203e-07,3.1924731059180285e-07,2.81632088370148e-07,1.797591376201232e-05
4.2662332198594897e-07,3.1638330351367185e-07,2.8185751724072327e-07,1.7821582626514248e-05
4.29827145649541e-07,3.136502814155333e-07,2.8210259589653345e-07,1.7668167184988886e-05
4.332033196082192e-07,3.1105717732759985e-07,2.8236763113388943e-07,1.7516222630228698e-05
4.3677751972487573e-07,3.086122618315631e-07,2.826548045173073e-07,1.736647702341238e-05
4.4056745500231284e-07,3.063216548243444e-07,2.829663052147951e-07,1.7219955901305328e-05
4.445812848545997e-07,3.0418869736012867e-07,2.8330368788503146e-07,1.7077865718088033e-05
4.488201757904318e-07,3.0221344067392645e-07,2.8366841594966827e-07,1.6941344642837658e-05
4.532814116375087e-07,3.0039270993487845e-07,2.840617832352897e-07,1.6811289793125198e-05
4.579577651065792e-07,2.987214927274755e-07,2.8448445481050976e-07,1.6688371464783995e-05
4.6283474148899605e-07,2.9719475362179753e-07,2.849372782152428e-07,1.6573262599975323e-05
4.67890043769708e-07,2.958077427944871e-07,2.854222726513331e-07,1.6466951229592183e-05
4.73095927726901e-07,2.945549559442517e-07,2.8594156630219896e-07,1.6370877913920154e-05
4.784223785419977e-07,2.9343041549980987e-07,2.864954873920411e-07,1.6286833026377387e-05
4.838388767195628e-07,2.92429313758465e-07,2.870819783077337e-07,1.621677949129612e-05
4.893141808947607e-07,2.91547853160027e-07,2.876970433692695e-07,1.616270316633944e-05
4.948162928720675e-07,2.907811787179277e-07,2.8833477008779113e-07,1.6126474545203383e-05
5.003151958227658e-07,2.9012246069563045e-07,2.889868319377817e-07,1.6109730822242178e-05
5.057871262595379e-07,2.895639291643653e-07,2.896428045270688e-07,1.6113806800677647e-05
5.112166267942529e-07,2.890977068874884e-07,2.9029125446078855e-07,1.6139697266826985e-05
5.165954646063325e-07,2.887152191662877e-07,2.909206280957942e-07,1.6188027284598448e-05
5.219192583544181e-07,2.884065429320195e-07,2.915199340584027e-07,1.6259032191859633e-05
5.271827709633893e-07,2.881612156657799e-07,2.920789439866413e-07,1.6352536575677806e-05
5.323772161001647e-07,2.879703649791432e-07,2.9258811659736405e-07,1.6467930517616695e-05
5.374915961795668e-07,2.878281110873873e-07,2.930392475476659e-07,1.6604183408705147e-05
5.425154236492058e-07,2.8773066877933933e-07,2.934260824218038e-07,1.675992195066918e-05
5.474394543586186e-07,2.876747302498838e-07,2.937438413136178e-07,1.6933556789003458e-05
5.522537007888983e-07,2.876568566451644e-07,2.93988519917246e-07,1.712342845009775e-05
5.569454007703753e-07,2.87674075429557e-07,2.941572756115776e-07,1.732792688312441e-05
5.614996177124773e-07,2.8772605628983724e-07,2.942501464368629e-07,1.7545535200451925e-05
5.65900810793752e-07,2.87817103959296e-07,2.9427162946530647e-07,1.777481127959414e-05
5.701325375228701e-07,2.879555502006946e-07,2.942298911957603e-07,1.8014379744639065e-05
5.741762214092762e-07,2.881520203745816e-07,2.9413360551366603e-07,1.826295931848689e-05
5.780115251734564e-07,2.8841833155971124e-07,2.939895911604056e-07,1.851937608849481e-05
5.816181883926961e-07,2.887664528593933e-07,2.9380324059157617e-07,1.8782525143077733e-05
5.849776122175552e-07,2.892069059475943e-07,2.935792885339546e-07,1.9051293202420582e-05
5.880727917464981e-07,2.8974668145566586e-07,2.9332074014548804e-07,1.9324479201918272e-05
5.908869186844345e-07,2.9038795843504036e-07,2.9302768128254285e-07,1.960075700439812e-05
5.934033842304031e-07,2.9112848971604016e-07,2.926980091585906e-07,1.9878693683416527e-05
5.956070624195807e-07,2.9196244382055464e-07,2.923298951279816e-07,2.0156774470827613e-05
5.974839829785394e-07,2.9288124877942425e-07,2.919240857560031e-07,2.0433397825452938e-05
5.990197932823129e-07,2.9387529802784464e-07,2.914838675099278e-07,2.0706881604185126e-05
6.001990678013189e-07,2.949357643861746e-07,2.910133250354441e-07,2.097552020002665e-05
6.010057685609783e-07,2.960558617251552e-07,2.9051685381137837e-07,2.1237652991651348e-05
6.014238209436973e-07,2.972322065479301e-07,2.900000661003272e-07,2.149169962000013e-05
6.014372916141141e-07,2.984657410903182e-07,2.894695569949578e-07,2.1736207369396787e-05
6.010311164248619e-07,2.997621531780667e-07,2.889312047432801e-07,2.1969935884762936e-05
6.001923497227647e-07,3.0113242010224263e-07,2.8838851530943746e-07,2.219190417114724e-05
5.989105532138773e-07,3.02591832884902e-07,2.878423827800545e-07,2.2401355515539995e-05
5.971773740328896e-07,3.041565856301561e-07,2.872931892000413e-07,2.259766346138317e-05
5.949862340677984e-07,3.058405695777928e-07,2.867431509359508e-07,2.278021921179105e-05
5.923320091261797e-07,3.076544680532359e-07,2.861958131437541e-07,2.294835256991977e-05
5.892111645535961e-07,3.096064193357545e-07,2.8565375508151605e-07,2.310132092129009e-05
5.856236561505911e-07,3.117023744061966e-07,2.8511718907677514e-07,2.323836426306211e-05
5.81575235563307e-07,3.1394463242200106e-07,2.845839504767121e-07,2.335879127945509e-05
5.770776587003854e-07,3.1632992388998124e-07,2.840501211591374e-07,2.346205184187831e-05
5.721479210184828e-07,3.1884998517933675e-07,2.8351046652576973e-07,2.354777467017085e-05
5.668082117415613e-07,3.2149452770435015e-07,2.8295857566441826e-07,2.361576751771184e-05
5.610848099114078e-07,3.242543754658506e-07,2.823871524308713e-07,2.3665977710598346e-05
5.550050032743509e-07,3.271232638382905e-07,2.817885062203522e-07,2.369845600764296e-05
5.485948084112069e-07,3.300973827027521e-07,2.811553530527388e-07,2.3713382380106075e-05
5.41879423238318e-07,3.33173324279877e-07,2.8048195427510966e-07,2.371110297434021e-05
5.348844752175129e-07,3.3634673064096234e-07,2.797645860441144e-07,2.3692139386388783e-05
5.276358220887532e-07,3.3961178887649496e-07,2.790007047832917e-07,2.3657198406587438e-05
5.201586334685898e-07,3.429598982029789e-07,2.781877462193953e-07,2.360712686073801e-05
5.124768637774299e-07,3.463780777401391e-07,2.7732281429854564e-07,2.3542804534963155e-05
5.046129324993506e-07,3.4984871299047513e-07,2.764038596003607e-07,2.3465068762091768e-05
4.965877003925268e-07,3.533511117282e-07,2.7543175922418426e-07,2.337469171516971e-05
4.884210262485666e-07,3.5686480978616485e-07,2.7441100748298674e-07,2.3272373245565907e-05
4.801325338853981e-07,3.6037240919306633e-07,2.733476823492825e-07,2.315873137378103e-05
4.7174156653626564e-07,3.638590383124885e-07,2.72246947223037e-07,2.3034290193838933e-05
4.632662672709997e-07,3.6730944652523033e-07,2.711127059745141e-07,2.2899466287863605e-05
4.547233456240633e-07,3.707060995817589e-07,2.699490753158052e-07,2.275455955937853e-05
4.461288091626517e-07,3.7402974174695244e-07,2.687616287266181e-07,2.25997667125871e-05
4.374980655577937e-07,3.7726075669112994e-07,2.67556861892536e-07,2.243521821421115e-05
4.288451930898762e-07,3.803799815854482e-07,2.6634056898702175e-07,2.2261005580226693e-05
4.2018293656570467e-07,3.8337100153670115e-07,2.6511748382659426e-07,2.2077179452445127e-05
4.115245823186768e-07,3.8622390148670115e-07,2.6389255277101265e-07,2.188374453468205e-05
4.028868119101391e-07,3.88936023014685e-07,2.626716156683576e-07,2.16806925356936e-05
3.9429061014098345e-07,3.91508946846945e-07,2.614605308567818e-07,2.1468073574367026e-05
3.8575957391718455e-07,3.939463734398288e-07,2.602646413567637e-07,2.1246061022317583e-05
3.7731818606821853e-07,3.962543291483524e-07,2.590906599127473e-07,2.101498959136683e-05
3.689906373016225e-07,3.984402153448896e-07,2.579492940047032e-07,2.0775374239282603e-05
3.607998336779507e-07,4.005100145912869e-07,2.568543902917456e-07,2.0527894896576732e-05
3.5276845465798187e-07,4.024665664078967e-07,2.558189309332309e-07,2.027334220732203e-05
3.4492096567181026e-07,4.0430957197901093e-07,2.548523201238316e-07,2.001256143370401e-05
3.372823624019928e-07,4.0603591417389994e-07,2.5396003259833734e-07,1.9746426678442232e-05
3.298744727083787e-07,4.0763979187703326e-07,2.5314381623600395e-07,1.9475840277398e-05
3.2271397549083254e-07,4.091128216017656e-07,2.524018564922416e-07,1.9201735912378712e-05
3.15813110646704e-07,4.1044443218380366e-07,2.5172900194974397e-07,1.892505850155845e-05
3.0918169982765224e-07,4.1162286080578406e-07,2.511173792113067e-07,1.864670401350538e-05
3.028285488206287e-07,4.126363492864879e-07,2.5055773986654265e-07,1.8367453549661497e-05
2.967613678317185e-07,4.134739597350525e-07,2.5004074153959326e-07,1.8087985090882887e-05
2.9098620757465303e-07,4.1412651645139363e-07,2.4955758496130017e-07,1.780899905622283e-05
2.855076123869319e-07,4.1458821222796275e-07,2.4910088264122077e-07,1.7531338092068578e-05
2.8032990947609145e-07,4.148573957007328e-07,2.486661245139015e-07,1.7255949500616173e-05
2.754584214653852e-07,4.149352540231096e-07,2.482526847684825e-07,1.69837544788175e-05
2.708993348174707e-07,4.148239219084764e-07,2.4786358258347914e-07,1.671560017536565e-05
2.66658784463901e-07,4.145254600621274e-07,2.4750436140869843e-07,1.6452311187468956e-05
2.6274236512798793e-07,4.1404151555606094e-07,2.471815604596844e-07,1.6194763231584454e-05
2.591555192569192e-07,4.1337354609784004e-07,2.469011838740779e-07,1.5943944526308562e-05
2.559035197813266e-07,4.125232698679646e-07,2.4666779583165175e-07,1.5700957122856173e-05
2.52991011973988e-07,4.114929729371204e-07,2.464840362078571e-07,1.5466924705522783e-05
2.5042386954197e-07,4.102857752283243e-07,2.463503601250208e-07,1.5242861421996491e-05
2.482125668232644e-07,4.089056475943833e-07,2.4626585627391033e-07,1.5029592549973764e-05
2.4637191253704144e-07,4.0735758818318046e-07,2.462300578692851e-07,1.4827788239905493e-05
2.4491638718371284e-07,4.056483787481821e-07,2.462442410937284e-07,1.4638078053084674e-05
2.438563821237208e-07,4.0378673832294753e-07,2.4631149889892925e-07,1.4461129553212087e-05
2.4319773331335173e-07,4.017832349669171e-07,2.4643665097968746e-07,1.4297633603755436e-05
2.429415373158844e-07,3.996517006276107e-07,2.466272949821677e-07,1.4148226261623584e-05
2.4308335313317387e-07,3.974113340091208e-07,2.468949269092996e-07,1.40133817744104e-05
2.4361408946813013e-07,3.950871932916169e-07,2.4725361838300674e-07,1.3893338806698084e-05
2.4452243998909676e-07,3.9270758921839423e-07,2.477167913367811e-07,1.3788114575059732e-05
2.4579704632774026e-07,3.902995684615688e-07,2.4829509035562445e-07,1.3697555728608176e-05
2.474277058666513e-07,3.878856448900194e-07,2.4899609166963e-07,1.3621360282762785e-05
2.494047162748025e-07,3.854835291512169e-07,2.4982458350915627e-07,1.3559126273508971e-05
2.517169959584242e-07,3.831083518976911e-07,2.5078282988901674e-07,1.3510523957991199e-05
2.543520649846889e-07,3.807743351655907e-07,2.5187063297027424e-07,1.3475509626044968e-05
2.572980649340435e-07,3.78493795046305e-07,2.530853290372086e-07,1.3454358548314555e-05
2.605460282823294e-07,3.7627603788031674e-07,2.544223313478398e-07,1.3447486163953767e-05
2.6409234181458e-07,3.7412810657129147e-07,2.558757130280509e-07,1.34552341887287e-05
2.67939827393984e-07,3.720556300016445e-07,2.5743800504551375e-07,1.3477771042284558e-05
2.720951072872824e-07,3.700627563917403e-07,2.5910028440680426e-07,1.3515198918170406e-05
2.765638450002726e-07,3.6815168824114775e-07,2.608532597479067e-07,1.356779283378084e-05
2.813476185789808e-07,3.6632206926292893e-07,2.626878484598173e-07,1.3636113216380886e-05
2.8644319470298426e-07,3.6457080510981867e-07,2.645946943520916e-07,1.3720906077591639e-05
2.918420642579191e-07,3.6289297188246467e-07,2.665635591755845e-07,1.3822932815778885e-05
2.975300395451786e-07,3.612833498221242e-07,2.6858320327310747e-07,1.394283011445426e-05
3.03489099007999e-07,3.5973741999500105e-07,2.7064277813761026e-07,1.4081016993024481e-05
3.0970171617341947e-07,3.5825142336821813e-07,2.727343188209868e-07,1.4237644231964756e-05
3.1615533081861906e-07,3.568220420767536e-07,2.748537412917287e-07,1.441257192283883e-05
3.2284419589169675e-07,3.554459555053611e-07,2.7699997466054675e-07,1.4605377092837735e-05
3.297667382917448e-07,3.541190827584152e-07,2.791735469157073e-07,1.4815401500252847e-05
3.3692008469913805e-07,3.528359267617793e-07,2.8137464297892004e-07,1.5041812758007294e-05
3.442957564661129e-07,3.515897181665384e-07,2.8360108653420017e-07,1.528361771636656e-05
3.5187799230247813e-07,3.50372831798483e-07,2.858478965788357e-07,1.5539609099355295e-05
3.5964376810433346e-07,3.4917680161449874e-07,2.881095648052455e-07,1.5808307404191886e-05
3.675637227631978e-07,3.4799259393419165e-07,2.903830490675704e-07,1.6087968456828767e-05
3.75603405237208e-07,3.468113812091136e-07,2.926681197540181e-07,1.637667177992965e-05
3.8372415466904775e-07,3.456255910663653e-07,2.9496557446106575e-07,1.6672461430895506e-05
3.9188380226666753e-07,3.444302951728808e-07,2.9727520304072533e-07,1.6973469388847603e-05
4.0003810773766224e-07,3.432239227914271e-07,2.9959397166280376e-07,1.7277955841370495e-05
4.0814243783373215e-07,3.4200746187087717e-07,3.019155230248909e-07,1.7584292274421492e-05
4.161525688617634e-07,3.407830389669008e-07,3.0423109479878374e-07,1.7890948809493246e-05
4.240248978793486e-07,3.395533690364088e-07,3.0653082602293237e-07,1.8196478057318232e-05
4.317167943568777e-07,3.3832328255149285e-07,3.0880586776894605e-07,1.8499467496378493e-05
4.391873960475957e-07,3.371018742835344e-07,3.110511416695785e-07,1.8798483289765306e-05
4.4639877841394684e-07,3.359014645918823e-07,3.13266420165818e-07,1.909203484804559e-05
4.533167193307685e-07,3.347338215973012e-07,3.154545169095073e-07,1.937856620818689e-05
4.599101031370184e-07,3.3360847498916476e-07,3.176179758429096e-07,1.9656492884838974e-05
4.6614954954478034e-07,3.3253426872123585e-07,3.197563104724754e-07,1.9924283790768443e-05
4.720070027050644e-07,3.315204346674077e-07,3.2186501834091085e-07,2.0180521298524645e-05
4.77456171868718e-07,3.3057530147117556e-07,3.239361539628079e-07,2.0423893647543227e-05
4.824725198390787e-07,3.2970479952383925e-07,3.2595968327835213e-07,2.06531706811522e-05
4.870330450621001e-07,3.289119412807678e-07,3.279252205593111e-07,2.086721000487485e-05
4.91116767931727e-07,3.2819662564165877e-07,3.2982373517001076e-07,2.106497152151316e-05
4.94706110053481e-07,3.27556701509263e-07,3.316479344136521e-07,2.1245527408995634e-05
4.977883663548887e-07,3.269899456157327e-07,3.3339061862875765e-07,2.1408064082179005e-05
5.003560948654401e-07,3.264941247130229e-07,3.350434823276937e-07,2.1551851046292128e-05
5.024060960115364e-07,3.260651235507753e-07,3.365982239742401e-07,2.1676208139574888e-05
5.039378673797883e-07,3.256962488993448e-07,3.38048049941403e-07,2.178053144553654e-05
5.049530035799915e-07,3.2538072685913986e-07,3.3938882924943967e-07,2.1864356424674445e-05
5.054555433563163e-07,3.251156960892138e-07,3.406216842067657e-07,2.1927428166906632e-05
5.054521975959847e-07,3.249035386773972e-07,3.4175573642320837e-07,2.1969793910620085e-05
5.04951906079284e-07,3.247497787741441e-07,3.4280651738299924e-07,2.19918736997458e-05
5.03964755343806e-07,3.246607329776628e-07,3.43790032578145e-07,2.199442791808473e-05
5.025013911119344e-07,3.24642123529848e-07,3.447179981778229e-07,2.1978412965713487e-05
5.005731452466996e-07,3.2469819100520226e-07,3.455971925837453e-07,2.1944794145039112e-05
4.98192302147497e-07,3.248318064515821e-07,3.4643116872289467e-07,2.1894413527458442e-05
4.953730098921055e-07,3.2504469764989984e-07,3.472217671902281e-07,2.1827956301570317e-05
4.921321157418587e-07,3.2533649239804075e-07,3.4796913210100745e-07,2.174597482599541e-05
4.884893795289553e-07,3.2570415788295906e-07,3.4867118798078e-07,2.164896865374942e-05
4.844679912738125e-07,3.2614326273675017e-07,3.493240153597096e-07,2.1537591975591174e-05
4.800944576769124e-07,3.266490715878079e-07,3.4992259531949685e-07,2.141290464629521e-05
4.7539715468995744e-07,3.2721572153443997e-07,3.5046116595874253e-07,2.127641799974111e-05
4.704052867402045e-07,3.278350999448185e-07,3.509335671918571e-07,2.1129884418348524e-05
4.6514874510669095e-07,3.284969290983566e-07,3.513339455089585e-07,2.0975024613557823e-05
4.5965718023298045e-07,3.291892031699313e-07,3.5165770961822014e-07,2.0813363396441653e-05
4.5395804917561295e-07,3.298983187449723e-07,3.519020162344729e-07,2.0646280999991588e-05
4.480756264283264e-07,3.306092935578306e-07,3.52064995648655e-07,2.047530144744184e-05
4.4203151363852645e-07,3.3130633925200853e-07,3.521440678351817e-07,2.0302410798751427e-05
4.3584522192022745e-07,3.319736597119929e-07,3.521349386488128e-07,2.013013469983719e-05
4.295343891189194e-07,3.325962838654862e-07,3.520319772214785e-07,1.9961358007665198e-05
4.2311528842640157e-07,3.331607160074705e-07,3.5182863281632245e-07,1.9799054874473334e-05
4.166037826126694e-07,3.336549874746188e-07,3.515173409759296e-07,1.964605306604717e-05
4.100162558100077e-07,3.340680816851484e-07,3.510900251982842e-07,1.9504877796330067e-05
4.0336993402268573e-07,3.3438942863224176e-07,3.505389221793178e-07,1.9377669906445767e-05
3.966827506717658e-07,3.346089586665213e-07,3.4985660756269146e-07,1.926614792239596e-05
3.899734984240239e-07,3.3471747796337576e-07,3.490358842725009e-07,1.917160697779589e-05
3.832616694725624e-07,3.347066273983277e-07,3.480701909922058e-07,1.909495236746253e-05
3.765664094977696e-07,3.345680787814531e-07,3.4695386392006715e-07,1.903672072135986e-05
3.699057870993173e-07,3.342931704875773e-07,3.45682664479494e-07,1.8997056661704806e-05
3.6329749750208593e-07,3.3387383827475627e-07,3.442557115277201e-07,1.897569720611438e-05
3.5676082813684173e-07,3.333040462956584e-07,3.426773851038741e-07,1.8972020101362022e-05
3.503181377738249e-07,3.325810758208641e-07,3.4095660239827205e-07,1.8985139763604507e-05
3.439942580058836e-07,3.3170553466989284e-07,3.3910440983545185e-07,1.901401443301772e-05
3.378142750179196e-07,3.306795958353275e-07,3.3713254854188407e-07,1.9057547755143256e-05
3.3180102738632433e-07,3.295058296794099e-07,3.350528043390348e-07,1.9114661463651475e-05
3.259736678517294e-07,3.2818792877549247e-07,3.328763822682036e-07,1.9184313659984106e-05
3.20347664197196e-07,3.267319030339194e-07,3.306140388206945e-07,1.926547619504024e-05
3.149353794308132e-07,3.2514634249314077e-07,3.282764918853264e-07,1.935711239062877e-05
3.09746854311828e-07,3.234414843852879e-07,3.258741705328697e-07,1.9458170347952028e-05
3.04791098207939e-07,3.216282706583814e-07,3.234170388254782e-07,1.9567582877885543e-05
3.000772160948189e-07,3.197180902894069e-07,3.209146727874004e-07,1.968426657923573e-05
2.9561412750168854e-07,3.177226092918712e-07,3.183761346977435e-07,1.980710321746694e-05
2.914093583845409e-07,3.156541124281523e-07,3.158108289962276e-07,1.9934908249493304e-05
2.8746835011149576e-07,3.135264136906524e-07,3.1323072464365e-07,2.0066435548465127e-05
2.8379527633245747e-07,3.113545824424509e-07,3.106514182699341e-07,2.0200415194956368e-05
2.8039515273288624e-07,3.091534327062241e-07,3.080902732822945e-07,2.033556459111219e-05
2.7727548830685547e-07,3.0693679881744053e-07,3.055636628072443e-07,2.0470578992667245e-05
2.744464051337225e-07,3.0471769746023604e-07,3.030856571556445e-07,2.0604147407999928e-05
2.7191930272442765e-07,3.025089341789841e-07,3.0066746188044173e-07,2.073498753442866e-05
2.697047769524782e-07,3.003254602333432e-07,2.983169201277307e-07,2.086188614664852e-05
2.678110824781709e-07,2.981866895640031e-07,2.960387213510441e-07,2.098377407280246e-05
2.662433232370709e-07,2.961150470133809e-07,2.938350867065035e-07,2.1099812072535667e-05
2.650030267374258e-07,2.941327043488903e-07,2.917064453927523e-07,2.1209410312598042e-05
2.6408867796518816e-07,2.922604583065709e-07,2.8965268983509716e-07,2.131219251346319e-05
2.6349727674155666e-07,2.905179987286334e-07,2.8767531793678985e-07,2.140794651041367e-05
2.632262304790333e-07,2.889239193390444e-07,2.857783218318724e-07,2.149654358671972e-05
2.63274516876479e-07,2.874955130348348e-07,2.839661631949781e-07,2.157782805762153e-05
2.636412902624904e-07,2.862476129804821e-07,2.8224159801975365e-07,2.165152469865441e-05
2.6432269965358076e-07,2.851909392229559e-07,2.806066685877216e-07,2.1717223051993893e-05
2.6531064840177537e-07,2.843315858195888e-07,2.7906573126431197e-07,2.17744590412092e-05
2.665944326661327e-07,2.8367105405977714e-07,2.7762635185448666e-07,2.182283006015381e-05
2.681636643780868e-07,2.832061777196041e-07,2.7629705656654394e-07,2.186206305346504e-05
2.7001070885374324e-07,2.829295394111665e-07,2.7508558288593026e-07,2.189202295302353e-05
2.7212954849901855e-07,2.8283073862447253e-07,2.739988103120708e-07,2.191267685333716e-05
2.7451132299386936e-07,2.828986291872685e-07,2.730419836950018e-07,2.192403628533255e-05
2.7714150758607657e-07,2.831233846424193e-07,2.722172751951135e-07,2.192613938109509e-05
2.8000061454355557e-07,2.8349696395574884e-07,2.71523284916703e-07,2.1919079049219967e-05
2.830665144617036e-07,2.840124747577595e-07,2.709555240793736e-07,2.190300310851158e-05
2.863172068498694e-07,2.846634665227894e-07,2.7050750484628465e-07,2.1878075864813807e-05
2.8973296746261737e-07,2.854434986073885e-07,2.701715577082312e-07,2.18444513229422e-05
2.9329631999901125e-07,2.8634612010694884e-07,2.699385929314561e-07,2.1802269649544463e-05
2.969909143068717e-07,2.873646956173471e-07,2.697979088444953e-07,2.175164765577023e-05
3.0080316512474306e-07,2.884917870503904e-07,2.6973812297900946e-07,2.169264308796276e-05
3.047256729369237e-07,2.897197221118351e-07,2.697486784779627e-07,2.1625209965084358e-05
3.0875575315987574e-07,2.910428155078315e-07,2.698206870411203e-07,2.15491769841634e-05
3.12889078377291e-07,2.924585416643609e-07,2.69946422974399e-07,2.1464264095899832e-05
3.1711603013082336e-07,2.939657831780533e-07,2.701185966134182e-07,2.1370127179575035e-05
3.214234115881316e-07,2.955616121623221e-07,2.7033063584528926e-07,2.126640224021596e-05
3.257969183009933e-07,2.972394024326231e-07,2.7057740692320577e-07,2.115272580012245e-05
3.302209915545675e-07,2.989893158140068e-07,2.708558200713708e-07,2.1028735670832103e-05
3.346779139835777e-07,3.007997802863253e-07,2.711655050492489e-07,2.08940682987353e-05
3.391480725322754e-07,3.02658624695518e-07,2.715100740276024e-07,2.0748362245696108e-05
3.436107608243442e-07,3.045538558801372e-07,2.718982632455493e-07,2.0591273328972845e-05
3.480446377586389e-07,3.0647393443187986e-07,2.72342405445721e-07,2.04225008619548e-05
3.5242721120495697e-07,3.084076056239078e-07,2.728547747641503e-07,2.0241825568437107e-05
3.567340981748069e-07,3.103443840444691e-07,2.734450164613926e-07,2.0049154556428186e-05
3.609393939783509e-07,3.122752612712235e-07,2.7411982436712734e-07,1.984454864611284e-05
3.650166575376929e-07,3.141920631285895e-07,2.748856132004736e-07,1.962821397069674e-05
3.6893977029266527e-07,3.160866241232552e-07,2.7575269256876085e-07,1.940047072658964e-05
3.7268402597643546e-07,3.179522188337103e-07,2.767353218673723e-07,1.916172392829287e-05
3.762270174216112e-07,3.197862517106077e-07,2.778471754373386e-07,1.8912445683781535e-05
3.7954824298697963e-07,3.215903148224561e-07,2.790987466246183e-07,1.8653169661500228e-05
3.826287206533006e-07,3.23367166357793e-07,2.804990280866532e-07,1.838450776835855e-05
3.8545278637700727e-07,3.251188518088343e-07,2.8205789508189386e-07,1.8107183376074208e-05
3.880107370983143e-07,3.2684717709304696e-07,2.8378649196605506e-07,1.7822041813089073e-05
3.9029902738945644e-07,3.285537081649782e-07,2.8569556415798697e-07,1.753001479923076e-05
3.923177066061561e-07,3.302390951874148e-07,2.8779306151832773e-07,1.7232062844043473e-05
3.9406806958918227e-07,3.319029059219113e-07,2.9008269718869925e-07,1.6929148010030606e-05
3.955522823750443e-07,3.33543306465305e-07,2.925648427992565e-07,1.6622283536121388e-05
3.9677348396472797e-07,3.351570223682115e-07,2.952386289337379e-07,1.6312622349072974e-05
3.977348143951026e-07,3.367400600719993e-07,2.981020640583669e-07,1.6001478945841477e-05
3.984380161131329e-07,3.382877080075068e-07,3.011507153839484e-07,1.5690267757224044e-05
3.988832194061787e-07,3.397947845905428e-07,3.043780448008121e-07,1.5380433615776947e-05
3.9907048360039637e-07,3.4125813390682e-07,3.0777736226994647e-07,1.5073415374113226e-05
3.990016662446885e-07,3.426784127768561e-07,3.113441039163894e-07,1.4770659726470405e-05
3.9868086930239203e-07,3.4405840131559537e-07,3.15077431920127e-07,1.4473704155403848e-05
3.981139553267297e-07,3.454006810796027e-07,3.189788401978104e-07,1.4184251870006897e-05
3.9730820127675524e-07,3.46706626950261e-07,3.2304766866222336e-07,1.3904102772409916e-05
3.962715589451391e-07,3.479758490837369e-07,3.272774854629107e-07,1.3634974042058524e-05
3.950115129278977e-07,3.4920740735868145e-07,3.316556262603486e-07,1.3378393419778156e-05
3.9353464217732524e-07,3.504031269713807e-07,3.3616409957364587e-07,1.3135706427084419e-05
3.918477019881093e-07,3.515692755286535e-07,3.4078051874997513e-07,1.2908089216527924e-05
3.8995976291262344e-07,3.527153257121548e-07,3.454796713832474e-07,1.269653699383941e-05
3.878834965103335e-07,3.538531486757565e-07,3.502351608008196e-07,1.2501870874493304e-05
3.8563458573783023e-07,3.549974525529069e-07,3.550197825202153e-07,1.2324753466783636e-05
3.8323002643409953e-07,3.561645587207493e-07,3.598051260400733e-07,1.2165665474831927e-05
3.806865248723004e-07,3.573690997252406e-07,3.645618386522575e-07,1.2024847434821256e-05
3.78019673329127e-07,3.586214270719104e-07,3.6926079144302795e-07,1.1902271248427205e-05
3.7524367757110854e-07,3.5992747050522524e-07,3.738740545399864e-07,1.1797662033265472e-05
3.723714442482093e-07,3.6129037634333577e-07,3.7837500384334397e-07,1.1710529319536307e-05
3.6941503650721543e-07,3.627125752477893e-07,3.827377343061832e-07,1.1640228053021316e-05
3.663863134908129e-07,3.641970109002725e-07,3.8693640642230594e-07,1.1586135765838715e-05
3.632986973029143e-07,3.657465024789611e-07,3.909453879334053e-07,1.1547910923790484e-05
3.6016952191892147e-07,3.673618781308878e-07,3.947398635978717e-07,1.1525599012025087e-05
3.5701905603168006e-07,3.690404453948223e-07,3.982963176742014e-07,1.1519468787951955e-05
3.53866527546992e-07,3.707754839930682e-07,4.0159289909177816e-07,1.152981017172518e-05
3.507284015100982e-07,3.7255684492694297e-07,4.046091330050435e-07,1.1556877751459892e-05
3.476203282374311e-07,3.7437258817276545e-07,4.073251602273872e-07,1.160086405760464e-05
3.445607257085734e-07,3.762119221230242e-07,4.097218261038617e-07,1.1661831882651005e-05
3.4157352504604866e-07,3.780686024625535e-07,4.117819829072153e-07,1.1739678326146713e-05
3.386869573762485e-07,3.799413388775141e-07,4.134914813700397e-07,1.1834145767176276e-05
3.3592931211163075e-07,3.8183022182107174e-07,4.148386883391155e-07,1.1944839261392253e-05
3.333265313968782e-07,3.837329638010204e-07,4.158138988159503e-07,1.207122276722745e-05
3.3090210154638604e-07,3.8564372270991357e-07,4.164096509742551e-07,1.2212588643964944e-05
3.286760030249831e-07,3.875541562836514e-07,4.166208452618808e-07,1.2368020203986693e-05
3.26663191785563e-07,3.8945473981647906e-07,4.164452353955564e-07,1.2536373593172267e-05
3.248735920109807e-07,3.91334684010716e-07,4.1588583414278273e-07,1.2716288759435969e-05
3.233125625148168e-07,3.9318110476662714e-07,4.1495261403154176e-07,1.2906229411220868e-05
3.219812724191582e-07,3.949787502918431e-07,4.136604616102379e-07,1.3104542310061506e-05
3.208779411760809e-07,3.967111267624882e-07,4.1202581122568776e-07,1.3309509546408886e-05
3.199990718722174e-07,3.983630897435591e-07,4.1006513528060243e-07,1.3519384930349645e-05
3.193395786520319e-07,3.999231858155814e-07,4.0779483822540066e-07,1.3732438709896722e-05
3.188925114492123e-07,4.013841277964653e-07,4.0523153724756295e-07,1.3947010397573196e-05
3.186488200488552e-07,4.0274153204936753e-07,4.023927583753544e-07,1.4161530555004981e-05
3.18596819812536e-07,4.0399239416398977e-07,3.992973787897407e-07,1.4374504759201364e-05
3.187218833597611e-07,4.05134688643908e-07,3.9596492989134727e-07,1.4584497108125244e-05
3.1900709715560694e-07,4.061675884746596e-07,3.924142726869028e-07,1.4790137318970926e-05
3.194341002138796e-07,4.0709203119985545e-07,3.886626615535243e-07,1.4990151595913445e-05
3.1998355869940837e-07,4.0791254629489217e-07,3.847256541249408e-07,1.5183407172938915e-05
3.2063638942528626e-07,4.086385873992447e-07,3.806175520757649e-07,1.5368930981209532e-05
3.213752368929049e-07,4.0928264696878185e-07,3.763518742190218e-07,1.5545857548487188e-05
3.221841267367585e-07,4.0985646936911345e-07,3.719422583283975e-07,1.5713337493175713e-05
3.23046901563704e-07,4.103682109984308e-07,3.6740353301183244e-07,1.5870489314001056e-05
3.239466401386346e-07,4.1082131438156523e-07,3.6275169475357424e-07,1.601642574348613e-05
3.2486667590440776e-07,4.1121499071487737e-07,3.5800323984325274e-07,1.6150341863897145e-05
3.257923824599243e-07,4.115453503222671e-07,3.531749170605924e-07,1.6271638624225155e-05
3.2671230165688424e-07,4.1180618046211523e-07,3.4828382568645895e-07,1.6380004760886515e-05
3.276176824360194e-07,4.119902028122653e-07,3.43347843846149e-07,1.6475374238441496e-05
3.285009105957489e-07,4.120908808196562e-07,3.383855456878388e-07,1.655778557139887e-05
3.293545693100011e-07,4.121030654612382e-07,3.33414760905383e-07,1.66272678101068e-05
3.3017252856838945e-07,4.1202208682107547e-07,3.2845116003441874e-07,1.6683838009719488e-05
3.3095258554642724e-07,4.1184301210461384e-07,3.235079263058106e-07,1.6727576739413362e-05
3.316985787238145e-07,4.1156089052652676e-07,3.1859595158264324e-07,1.675868585811369e-05
3.324196176432991e-07,4.111710022360682e-07,3.137242089055714e-07,1.677748567485013e-05
3.331262165993509e-07,4.1066943849604185e-07,3.089001835476633e-07,1.678440522014707e-05
3.3382663358538e-07,4.1005425456090095e-07,3.041304738787809e-07,1.677999955134788e-05
3.345262267453424e-07,4.0932550308214665e-07,2.994217092552904e-07,1.6764945571006752e-05
3.352281145281551e-07,4.0848475411253256e-07,2.9478074650207555e-07,1.6740000938908702e-05
3.359336558526265e-07,4.075354267914887e-07,2.9021418962526305e-07,1.6705965558419972e-05
3.3664466066753925e-07,4.0648205482840146e-07,2.857294459133697e-07,1.6663651911856135e-05
3.3736641060061265e-07,4.053282760225704e-07,2.813366446450335e-07,1.6613842207666683e-05
3.381075779991395e-07,4.040761796298678e-07,2.7704831072150925e-07,1.6557234181202483e-05
3.388769789383317e-07,4.0272721166573063e-07,2.728773924578815e-07,1.6494403408615535e-05
3.396803124061503e-07,4.012829552325532e-07,2.688360047330252e-07,1.6425795652931598e-05
3.405189276455553e-07,3.997451652763528e-07,2.649345470190287e-07,1.6351741049956953e-05
3.413908123597663e-07,3.981153136645969e-07,2.6118093028224504e-07,1.6272491106759585e-05
3.422919485469483e-07,3.963943439355917e-07,2.5758110457866076e-07,1.6188280845152206e-05
3.432161153339128e-07,3.9458313413680727e-07,2.5414014010625055e-07,1.6099432641453055e-05
3.44153940339884e-07,3.926834488910652e-07,2.508624289139889e-07,1.6006496577867732e-05
3.4509263680946953e-07,3.906987209539337e-07,2.477515472836769e-07,1.59103156972329e-05
3.460165002654758e-07,3.8863351238029645e-07,2.448101378567634e-07,1.581197265808406e-05
3.469081654781425e-07,3.8649160971594145e-07,2.4203928941028426e-07,1.5712733321404158e-05
3.477506817625427e-07,3.8427462412207775e-07,2.3943756516068e-07,1.5614009071324885e-05
3.4852913783190807e-07,3.8198182648026936e-07,2.3700077254675809e-07,1.5517272376340673e-05
3.492310222575685e-07,3.7961037474588475e-07,2.3472335688473091e-07,1.54239561773069e-05
3.498471649085163e-07,3.77155956970614e-07,2.3260088449196701e-07,1.5335388494012233e-05
3.503740552124395e-07,3.746145239126379e-07,2.3063226909310408e-07,1.525274868908146e-05
3.508151414011592e-07,3.7198530201665906e-07,2.2881975854941625e-07,1.5177017078696085e-05
3.511792168187269e-07,3.6927358913009353e-07,2.271659519538503e-07,1.5108918290198019e-05
3.5147661623480354e-07,3.664901047405261e-07,2.2567071213300175e-07,1.5048887830784924e-05
3.517160049696068e-07,3.636467554145189e-07,2.2433026245357942e-07,1.4997089439482845e-05
3.5190394844845937e-07,3.6075336288415704e-07,2.2313758835729198e-07,1.4953465763655084e-05
3.5204640776996737e-07,3.578184482905483e-07,2.2208331405442652e-07,1.491777436143324e-05
3.521512654391532e-07,3.548523032680168e-07,2.2115685958320928e-07,1.4889594931555874e-05
3.522308304202168e-07,3.518680686073833e-07,2.2034722901346255e-07,1.4868341079941323e-05
3.523013245172233e-07,3.4887958595621874e-07,2.1964337827995977e-07,1.4853298869284411e-05
3.523809685033733e-07,3.4589902225800146e-07,2.1903455398487734e-07,1.4843676584802344e-05
