2.4980854860880907e-07,5.208706176609611e-07,1.021509374478475e-06,2.3500074938854667e-05
2.510086404468632e-07,5.177895118973029e-07,1.0197967595992658e-06,2.3167887839000947e-05
2.522877707733504e-07,5.163286103369463e-07,1.0179283109122522e-06,2.2828330172404613e-05
2.5363420024729483e-07,5.164272834364518e-07,1.0159347844224095e-06,2.2482059408412616e-05
2.550392515643666e-07,5.180205421684498e-07,1.013835956580798e-06,2.212967512525046e-05
2.5649677233040727e-07,5.210380939681198e-07,1.0116411590458271e-06,2.1771695356285486e-05
2.579999138524663e-07,5.254096529712477e-07,1.0093512280134023e-06,2.140861161395101e-05
2.595391096123251e-07,5.310697105431371e-07,1.006960201607547e-06,2.1041071600359092e-05
2.611028604182413e-07,5.379575960098694e-07,1.004455416752707e-06,2.0670094786218696e-05
2.626795600046711e-07,5.460129591073396e-07,1.0018184593877709e-06,2.0297131418059895e-05
2.642583929935633e-07,5.551686240906075e-07,9.990293991854828e-07,1.9923908615528532e-05
2.6582868214606985e-07,5.653454803320191e-07,9.960748632306893e-07,1.955218664133144e-05
2.673788656318765e-07,5.764523639130015e-07,9.92960601451953e-07,1.918358623809917e-05
2.688967004512497e-07,5.883887602491736e-07,9.89726117030682e-07,1.881963877263336e-05
2.703700806111209e-07,6.010485624073172e-07,9.86453938304382e-07,1.846212575342512e-05
2.717870043406907e-07,6.143257395794497e-07,9.832671370812623e-07,1.8113483706528733e-05
2.7313539694842385e-07,6.281198446489627e-07,9.803144496528491e-07,1.77768785884206e-05
2.744043242573846e-07,6.423369887103475e-07,9.777479247415153e-07,1.7455869527256666e-05
2.755858857375335e-07,6.568859984639285e-07,9.757043423622422e-07,1.7153962439698525e-05
2.76675921974049e-07,6.716738893529796e-07,9.743009569810223e-07,1.687429834791578e-05
2.776740185297099e-07,6.866044983795894e-07,9.736425076079012e-07,1.6619491193134785e-05
2.785834413735712e-07,7.015808962083347e-07,9.73827825409742e-07,1.6391568416843663e-05
2.7940970406491197e-07,7.165093125774368e-07,9.74950599566228e-07,1.6191975656788627e-05
2.8015856550266977e-07,7.313025657541801e-07,9.770953200688414e-07,1.60215899424039e-05
2.808351431178561e-07,7.458821834519088e-07,9.803305128430255e-07,1.5880734534754222e-05
2.81443409046982e-07,7.6017703729821e-07,9.847032129047115e-07,1.5769242365821793e-05
2.81985612560233e-07,7.741189794263121e-07,9.90237972282749e-07,1.5686562952363194e-05
2.824622620853128e-07,7.876413216229675e-07,9.969398464862645e-07,1.5631866543933807e-05
2.828730607644564e-07,8.006820102118944e-07,1.0048015973281474e-06,1.5604131473785826e-05
2.832187446928276e-07,8.131857954108732e-07,1.0138156045453069e-06,1.5602216296627125e-05
2.8350225413627674e-07,8.25101887946329e-07,1.0239833523246049e-06,1.5624915437806486e-05
2.8372757992931444e-07,8.363812772479817e-07,1.0353117169598838e-06,1.5670997785593963e-05
2.83897553136784e-07,8.469774517204072e-07,1.0477976532765757e-06,1.5739235663428374e-05
2.8401309804342185e-07,8.568476400703894e-07,1.0614181714841126e-06,1.582844755208539e-05
2.840742591222236e-07,8.65952686371561e-07,1.076137033155598e-06,1.59375421377816e-05
2.8408111479550577e-07,8.74258373490195e-07,1.091920071140509e-06,1.606550586267809e-05
2.8403335286450106e-07,8.817393788805132e-07,1.1087442800032577e-06,1.6211321491505727e-05
2.839294255842682e-07,8.883843366561855e-07,1.126595961357781e-06,1.6373864019499028e-05
2.837664208869777e-07,8.941988413765232e-07,1.1454641795058528e-06,1.6551812396760948e-05
2.8354081549942174e-07,8.992019914047025e-07,1.1653352036621212e-06,1.6743609353227425e-05
2.832495932829669e-07,9.034190493824205e-07,1.1861868982458118e-06,1.6947504941843562e-05
2.828905752166773e-07,9.068813581173534e-07,1.2079819053470665e-06,1.7161663198354548e-05
2.8246145259083727e-07,9.096371523757776e-07,1.2306621112927477e-06,1.7384250421507165e-05
2.819585889967688e-07,9.117629668044732e-07,1.2541461491393877e-06,1.7613450972190813e-05
2.8137726055793574e-07,9.133641191887928e-07,1.2783296641781428e-06,1.7847427262126833e-05
2.8071396868319123e-07,9.145611087812764e-07,1.303089188903408e-06,1.808427955156104e-05
2.799687292305099e-07,9.154705199826176e-07,1.3282912827730505e-06,1.8322038403891864e-05
2.791443658660495e-07,9.161954323350256e-07,1.3538054805056652e-06,1.855868659432119e-05
2.7824373839912186e-07,9.168296635952316e-07,1.3795161956276043e-06,1.879223960383884e-05
2.772683126908835e-07,9.174657092001075e-07,1.4053285190555545e-06,1.902090123288161e-05
2.7621860621754505e-07,9.181970945558705e-07,1.4311660733628626e-06,1.9243196130807608e-05
2.750947896361323e-07,9.191152391085074e-07,1.4569643142272754e-06,1.9457978604852725e-05
2.7389691947720924e-07,9.20304515216444e-07,1.482663695130854e-06,1.9664352707576565e-05
2.726256118694845e-07,9.218372080737286e-07,1.5082033042974214e-06,1.9861587413807942e-05
2.7128296698193114e-07,9.23770140983743e-07,1.5335145340408232e-06,2.0049049610469206e-05
2.6987226911240365e-07,9.261445108148769e-07,1.5585164541199525e-06,2.0226142610284837e-05
2.683966993283988e-07,9.289885961437486e-07,1.5831151370574414e-06,2.039225771405359e-05
2.6685866735757425e-07,9.323255133112128e-07,1.6072075799513068e-06,2.0546787859354087e-05
2.652598101928701e-07,9.3618616292834e-07,1.6306883012038755e-06,2.0689221615465733e-05
2.6360091563396e-07,9.406193502446498e-07,1.6534562683469876e-06,2.08192368108404e-05
2.618819628062513e-07,9.45692484969099e-07,1.6754196908431412e-06,2.093674219500894e-05
2.6010326904432286e-07,9.514820910823557e-07,1.696495333700315e-06,2.1041918495995645e-05
2.582674803422813e-07,9.580582223581495e-07,1.7166051444694945e-06,2.113523465598089e-05
2.563799325819016e-07,9.65475589553195e-07,1.7356761511414227e-06,2.121735672941926e-05
2.5444673059632284e-07,9.737803714241678e-07,1.7536405606655976e-06,2.1289041406772887e-05
2.524729626184742e-07,9.830245650819388e-07,1.7704316922300571e-06,2.1351114016227804e-05
2.504626563524581e-07,9.932761504277222e-07,1.785980151994484e-06,2.1404469221934023e-05
2.484202913168876e-07,1.004621956378509e-06,1.8002147824852497e-06,2.145006968750775e-05
2.463522165065423e-07,1.0171640055423617e-06,1.813066343417601e-06,2.1488948273764936e-05
2.442662887874269e-07,1.0310109769535331e-06,1.8244690174485141e-06,2.1522181309850683e-05
2.42170403987093e-07,1.046266371087885e-06,1.834358720295984e-06,2.1550838303873362e-05
2.4007148104632373e-07,1.0630137418811241e-06,1.8426730147723961e-06,2.1575944868034545e-05
2.3797600628833923e-07,1.0813025248343302e-06,1.849355252500517e-06,2.159850398977198e-05
2.3589218697036162e-07,1.101140922306507e-06,1.8543596696816471e-06,2.161957482394031e-05
2.338312049529833e-07,1.122497369654169e-06,1.8576531587638318e-06,2.1640319018851842e-05
2.318055643031533e-07,1.145306685994409e-06,1.8592124417261226e-06,2.1661935568371548e-05
2.2982631957247272e-07,1.1694761965216402e-06,1.8590218552618931e-06,2.168551334323736e-05
2.2790193475288235e-07,1.1948896305472452e-06,1.8570779557602336e-06,2.171190567074729e-05
2.260396420568081e-07,1.2214105419075097e-06,1.8533970036125217e-06,2.1741746068804332e-05
2.24247544924726e-07,1.2488871099242444e-06,1.8480160475263046e-06,2.1775630167502392e-05
2.2253477586468893e-07,1.2771591527522884e-06,1.8409859997977936e-06,2.181432303659712e-05
2.2091064626304775e-07,1.306066466096862e-06,1.832362536404416e-06,2.1858843441688064e-05
2.1938504881483187e-07,1.3354538916481205e-06,1.8222002184906799e-06,2.191040763009611e-05
2.1796903533047052e-07,1.3651712712747095e-06,1.8105523798076165e-06,2.1970291318716788e-05
2.1667442275514196e-07,1.3950721276982463e-06,1.797475277544105e-06,2.203966724321116e-05
2.155125410533453e-07,1.4250142568895688e-06,1.7830308768041118e-06,2.2119469046545442e-05
2.1449237159434733e-07,1.4548613768117732e-06,1.7672855770518874e-06,2.221032073430354e-05
2.1362007168528898e-07,1.484482330968399e-06,1.750307976713564e-06,2.231252580046137e-05
2.129009061008381e-07,1.5137477003123998e-06,1.7321682600844646e-06,2.2426120393586192e-05
2.123409680667597e-07,1.5425313221380553e-06,1.7129389510195924e-06,2.255104826930213e-05
2.1194660060388445e-07,1.5707218271304701e-06,1.6926968878086862e-06,2.268743149650489e-05
2.117229622418361e-07,1.5982368632033345e-06,1.671526172102448e-06,2.283573857013748e-05
2.116733654122628e-07,1.6250278912831586e-06,1.6495202027192087e-06,2.2996700968559464e-05
2.117988820227284e-07,1.6510700357827895e-06,1.6267808080145824e-06,2.317107102313574e-05
2.120990545626121e-07,1.6763428127437426e-06,1.6034138328417572e-06,2.335937409330217e-05
2.1257512341827692e-07,1.7008167468619626e-06,1.5795243205266345e-06,2.3561774730977068e-05
2.132320346786021e-07,1.7244563899180194e-06,1.5552185069114167e-06,2.377824525101728e-05
2.1407601194433602e-07,1.7472344950598614e-06,1.5306129226770094e-06,2.400902195255032e-05
2.1511167428209253e-07,1.7691453299297073e-06,1.5058405137757068e-06,2.4254921595159672e-05
2.163411768265871e-07,1.7902116570099296e-06,1.4810486743989217e-06,2.4517209759312305e-05
2.1776335872735706e-07,1.8104846715045731e-06,1.4563944111409212e-06,2.4797235903951494e-05
2.1937307592654424e-07,1.83003537242758e-06,1.4320404070198224e-06,2.5096158991517294e-05
2.211613734863768e-07,1.8489381818491384e-06,1.408148711232769e-06,2.541481785428376e-05
2.231160942427132e-07,1.8672548232892482e-06,1.3848693632562114e-06,2.5753660377885627e-05
2.252237343786117e-07,1.8850276464304616e-06,1.3623286021839665e-06,2.611267051790353e-05
2.2747183049368056e-07,1.9022835059522647e-06,1.3406232381140785e-06,2.6491285749686897e-05
2.298494162771212e-07,1.919042876319306e-06,1.319822151777711e-06,2.688834238131641e-05
2.323458463498734e-07,1.9353273356825557e-06,1.2999717423604106e-06,2.730209129842403e-05
2.34950079462781e-07,1.9511606163348685e-06,1.2811026980821511e-06,2.7730291200491387e-05
2.3765030674072265e-07,1.9665623921373653e-06,1.263237853902218e-06,2.8170341967133728e-05
2.404334010128785e-07,1.981537796708458e-06,1.24640117620373e-06,2.8619404651240875e-05
2.432858157107903e-07,1.9960723344445145e-06,1.2306263680849035e-06,2.907447394665465e-05
2.461958398808401e-07,2.010141707761889e-06,1.2159643577380118e-06,2.9532407985798785e-05
2.491540023982256e-07,2.0237306296541125e-06,1.2024872756919412e-06,2.99899493219076e-05
2.521511421670827e-07,2.0368452936538925e-06,1.1902826347374963e-06,3.0443753666032563e-05
2.5517752451622736e-07,2.0495157471608847e-06,1.1794377913591065e-06,3.089041749518512e-05
2.582246927556905e-07,2.061793836073137e-06,1.1700243737636794e-06,3.1326512067980715e-05
2.6128739395249416e-07,2.0737460871691865e-06,1.1620892479209551e-06,3.1748637303561e-05
2.643624761035841e-07,2.085438396611533e-06,1.1556509934198685e-06,3.215348084755932e-05
2.6744616556118266e-07,2.096917744638517e-06,1.150700906506337e-06,3.25378644542088e-05
2.7053264679465644e-07,2.1082006687973844e-06,1.1472097098922638e-06,3.289878091186499e-05
2.736134990369991e-07,2.1192726047863328e-06,1.1451384115025156e-06,3.323343475891659e-05
2.766772790106589e-07,2.130095656100905e-06,1.144449999494838e-06,3.3539273406362923e-05
2.797102942854248e-07,2.1406195906884154e-06,1.1451215375555168e-06,3.381396685816917e-05
2.826980475372934e-07,2.1507881172724848e-06,1.1471540274445292e-06,3.405536340573125e-05
2.856256647605375e-07,2.1605366315025776e-06,1.1505724549852967e-06,3.4261520742891736e-05
2.8847743908252804e-07,2.1697881031004057e-06,1.1554141478916694e-06,3.4430819817052136e-05
2.9123695136733734e-07,2.178453633509415e-06,1.161711921979726e-06,3.456205097183817e-05
2.9388825943293625e-07,2.186436279961074e-06,1.1694783712180894e-06,3.465440104923171e-05
2.964169994200569e-07,2.1936354439825984e-06,1.1786960348147591e-06,3.470738568803355e-05
2.98810518661717e-07,2.1999520780514447e-06,1.1893166063371162e-06,3.472084791725532e-05
3.010579559180062e-07,2.2052951521905617e-06,1.2012669606262422e-06,3.4695074935815385e-05
3.0315119625232694e-07,2.2095868897523327e-06,1.2144554421775361e-06,3.4630897522551226e-05
3.050860238382894e-07,2.212764212328043e-06,1.2287746336261329e-06,3.4529643343221836e-05
3.068624647400325e-07,2.214777617027224e-06,1.2441036001094326e-06,3.439300191379277e-05
3.0848432802416897e-07,2.215588543821461e-06,1.26031232125743e-06,3.422289865529491e-05
3.09958482496608e-07,2.2151649462846413e-06,1.2772656714458592e-06,3.402139609987344e-05
3.1129364221036673e-07,2.213476861004493e-06,1.2948254312532649e-06,3.3790597938411424e-05
3.1249872590345604e-07,2.2104934378608053e-06,1.3128516250642478e-06,3.353255173500448e-05
3.135828317771781e-07,2.2061807836637693e-06,1.3312037607695455e-06,3.3249217603607516e-05
3.1455684158459605e-07,2.200501937699421e-06,1.349742285072988e-06,3.2942533846805436e-05
3.1543308660307807e-07,2.1934229077601496e-06,1.3683293290683213e-06,3.2614474122370945e-05
3.1622251199436216e-07,2.1849250310820096e-06,1.3868276305658416e-06,3.2267039191332255e-05
3.169326477215915e-07,2.1750177398604982e-06,1.4050998289620036e-06,3.190224992817801e-05
3.1756785516166874e-07,2.1637441727176985e-06,1.4230100602259463e-06,3.152213751178344e-05
3.181306308781528e-07,2.1511752296779284e-06,1.4404264216293512e-06,3.1128676646304855e-05
3.18622659930275e-07,2.1373946760131373e-06,1.4572235838062768e-06,3.072370817667785e-05
3.190450471831613e-07,2.12248395192209e-06,1.4732858028783006e-06,3.0308954906662323e-05
3.19398093832864e-07,2.106514323715249e-06,1.4885095686524163e-06,2.9886176018281654e-05
3.196815674650309e-07,2.0895461391518652e-06,1.5028056628518852e-06,2.9457342358954963e-05
3.1989529349943405e-07,2.071629202348217e-06,1.5160995465360643e-06,2.9024653617586303e-05
3.2003968160295967e-07,2.052802978859788e-06,1.5283279971218146e-06,2.8590408324716997e-05
3.2011654090246017e-07,2.0330989803662013e-06,1.539433222443725e-06,2.8156866431997186e-05
3.201294284579241e-07,2.0125435174002582e-06,1.549359489444192e-06,2.7726165679446764e-05
3.2008301654957983e-07,1.9911591157079617e-06,1.5580563450932497e-06,2.7300273336126105e-05
3.199828407566178e-07,1.9689656223586186e-06,1.5654877052066003e-06,2.6880958331622212e-05
3.198360838687121e-07,1.945981812443062e-06,1.5716423591293724e-06,2.646978204216421e-05
3.196518439004277e-07,1.9222282309203662e-06,1.5765403582609085e-06,2.6068089653788752e-05
3.194397491250057e-07,1.897730828370273e-06,1.5802301376341044e-06,2.567699606471137e-05
3.1920824635868923e-07,1.872524911072384e-06,1.5827752274890312e-06,2.5297385131129972e-05
3.189637868663923e-07,1.8466599170699696e-06,1.5842384199332829e-06,2.492991071397734e-05
3.187105744951031e-07,1.8202023401230919e-06,1.5846742630636456e-06,2.4574976271888024e-05
3.184512998251457e-07,1.793231861424028e-06,1.584129626189501e-06,2.423273723677753e-05
3.181892688410139e-07,1.7658334618169131e-06,1.582644358468046e-06,2.39031869072372e-05
3.179302074885438e-07,1.7380979353949913e-06,1.5802505643625817e-06,2.358629188776248e-05
3.176823864034293e-07,1.7101343775353604e-06,1.576973001307883e-06,2.3282081753313397e-05
3.1745586535216376e-07,1.6820795292263746e-06,1.5728300108971475e-06,2.2990650447324594e-05
3.172623567877394e-07,1.654091923168866e-06,1.5678348471820957e-06,2.2712111524109506e-05
3.171158718662514e-07,1.6263370378798417e-06,1.561999077253801e-06,2.244655463879003e-05
3.170320157264865e-07,1.5989731778796385e-06,1.555337332605827e-06,2.2194000522794567e-05
3.170251478149485e-07,1.572141437822392e-06,1.5478707411563948e-06,2.195434408836592e-05
3.1710568524355715e-07,1.5459622891433502e-06,1.539629116456907e-06,2.172730716460295e-05
3.1727886227635e-07,1.5205394144103717e-06,1.530653350185445e-06,2.1512432319513088e-05
3.175445526664898e-07,1.495966766974785e-06,1.5209956741409388e-06,2.1309108060682932e-05
3.1789808413224423e-07,1.4723340060531759e-06,1.5107143712219655e-06,2.1116595038606813e-05
3.183324254459164e-07,1.4497272338071683e-06,1.4998651541663688e-06,2.0934071330666786e-05
3.188412006127589e-07,1.4282256473735192e-06,1.4884956949701304e-06,2.076070904551127e-05
3.194197877628181e-07,1.4078971352334552e-06,1.4766459314400112e-06,2.0595713722083406e-05
3.2006352243803175e-07,1.3887931118395022e-06,1.4643500913862837e-06,2.04382838814502e-05
3.207663714706161e-07,1.3709437505265766e-06,1.451637159744796e-06,2.028755681560116e-05
3.215212679758894e-07,1.354358032385986e-06,1.4385314541612292e-06,2.014259528342631e-05
3.223197470670436e-07,1.3390278841101108e-06,1.4250538273791682e-06,2.000240060735868e-05
3.231511133454387e-07,1.3249323860876414e-06,1.4112227045174125e-06,1.986594420116066e-05
3.2400303137649627e-07,1.3120414657296541e-06,1.3970562823467187e-06,1.973221353111317e-05
3.248633328169161e-07,1.3003187167712394e-06,1.3825748760010285e-06,1.9600249048329508e-05
3.257217039392781e-07,1.2897219187940095e-06,1.3677999903288684e-06,1.9469162228378032e-05
3.265703392498967e-07,1.2802011163595702e-06,1.3527508361878505e-06,1.9338160432616987e-05
3.2740358678049715e-07,1.271696201293366e-06,1.3374429348502553e-06,1.920661179375628e-05
3.282170104772986e-07,1.2641360949493983e-06,1.3218908434028094e-06,1.9074120647269174e-05
3.290064283442243e-07,1.2574396089777046e-06,1.3061126037942051e-06,1.894054879162652e-05
3.297675908522204e-07,1.2515170172817344e-06,1.2901328081607964e-06,1.880597793126321e-05
3.304960928659289e-07,1.246271490424934e-06,1.2739819369363328e-06,1.867063555767691e-05
3.311872071628242e-07,1.2416005286084127e-06,1.257691544793133e-06,1.853478447907745e-05
3.318361165736748e-07,1.2373978485985948e-06,1.241289913036465e-06,1.8398611080508747e-05
3.3243821678980647e-07,1.2335552515424879e-06,1.2248033212956177e-06,1.8262176925677595e-05
3.329891977552652e-07,1.2299647028368956e-06,1.208260148838064e-06,1.8125438500971868e-05
3.334852946600636e-07,1.2265210903823696e-06,1.1916914444399392e-06,1.7988283178692346e-05
3.3392395142512367e-07,1.2231249710245716e-06,1.1751271319117137e-06,1.7850572900789312e-05
3.3430462851192694e-07,1.2196862227661931e-06,1.1585916298363978e-06,1.7712252265955998e-05
3.3462861182056763e-07,1.2161299677761283e-06,1.1421024549397327e-06,1.7573486814358515e-05
3.348972358120173e-07,1.2124030682996442e-06,1.125671746482857e-06,1.743467893683035e-05
3.3510995728780887e-07,1.2084778652262472e-06,1.1093077499517418e-06,1.7296337247018118e-05
3.352641815226069e-07,1.2043485916818503e-06,1.093015548422981e-06,1.7158961760123602e-05
3.3535753867045805e-07,1.2000191049685214e-06,1.0767994302313315e-06,1.7023100455245043e-05
3.3539052526255325e-07,1.1954900299054341e-06,1.0606676488478942e-06,1.6889531484834276e-05
3.3536589445424106e-07,1.1907542350894054e-06,1.0446375193646822e-06,1.6759329616974364e-05
3.352857355522759e-07,1.185799977549591e-06,1.0287389987378491e-06,1.6633723114210662e-05
3.351504343607481e-07,1.1806151201017307e-06,1.0130140289625985e-06,1.6513903638177414e-05
3.349598692386454e-07,1.1751878600831232e-06,9.975098640852384e-07,1.640091073411176e-05
3.347145781855368e-07,1.169505250652654e-06,9.82271845160356e-07,1.6295579815800084e-05
3.344158998128645e-07,1.1635536765163401e-06,9.673414155959174e-07,1.6198520993520125e-05
3.340652552251317e-07,1.1573210530208151e-06,9.527569454752044e-07,1.6110103742053075e-05
3.336634024440337e-07,1.150796935479988e-06,9.385530316246954e-07,1.603043791905088e-05
3.3321031997509014e-07,1.1439720102645607e-06,9.247581591196621e-07,1.5959368836451718e-05
3.3270545642894765e-07,1.136842401311725e-06,9.113935875874577e-07,1.5896500380955226e-05
3.3214800771124074e-07,1.1294171691650144e-06,8.984741417732626e-07,1.584123275360672e-05
3.31537228256591e-07,1.1217210567943305e-06,8.860078535856123e-07,1.5792798303125933e-05
3.3087256204526054e-07,1.1137913860861715e-06,8.739948167225744e-07,1.5750295476715882e-05
3.3015353788528447e-07,1.1056758768454564e-06,8.624298442342196e-07,1.5712717617453465e-05
3.293797208021828e-07,1.0974324867777941e-06,8.51307964595965e-07,1.5678973883888438e-05
3.285508405234531e-07,1.0891254432333082e-06,8.406259415134136e-07,1.564791640692487e-05
3.276669489828375e-07,1.0808169830519214e-06,8.303795433582803e-07,1.5618372880521617e-05
3.267281541386385e-07,1.0725630436833036e-06,8.205640082244666e-07,1.5589172175630316e-05
3.257338321897259e-07,1.06442036711959e-06,8.111803437424206e-07,1.555916891977361e-05
3.2468232476865374e-07,1.0564606411800913e-06,8.022412046779244e-07,1.552727669034117e-05
3.23572182633944e-07,1.0487785865988096e-06,7.937696964149235e-07,1.549252194524331e-05
3.224040532444212e-07,1.0414874914432379e-06,7.857922644838485e-07,1.545411403801395e-05
3.211811810656827e-07,1.034707066266835e-06,7.783316214260323e-07,1.5411473674952274e-05
3.199084942922888e-07,1.0285517865160514e-06,7.714027207984803e-07,1.5364186212754008e-05
3.185914736633757e-07,1.0231233879406341e-06,7.650115522002601e-07,1.5311947825627446e-05
3.1723501765251456e-07,1.0185055728788623e-06,7.59155387939668e-07,1.525458133633735e-05
3.1584258512751076e-07,1.0147597508687709e-06,7.538230276225117e-07,1.5192124663373862e-05
3.144159237068779e-07,1.0119248886021331e-06,7.489952452566631e-07,1.5124937191021262e-05
3.129550505867281e-07,1.010022431717715e-06,7.446469177988357e-07,1.505374445033252e-05
3.114585764790993e-07,1.0090617195562098e-06,7.407511047118195e-07,1.4979599210353399e-05
3.0992438038610506e-07,1.0090417755836572e-06,7.372828039971226e-07,1.4903773973792165e-05
3.0835056915906165e-07,1.0099496351120258e-06,7.342208006361756e-07,1.482758727396424e-05
3.0673796195213096e-07,1.0117579783001364e-06,7.315493207920935e-07,1.4752266178342582e-05
3.050932434023365e-07,1.0144241034029438e-06,7.292601660696941e-07,1.4678952482893692e-05
3.0342903380611146e-07,1.01789074163465e-06,7.273528131259372e-07,1.4608781651545893e-05
3.017609443868118e-07,1.0220907010803163e-06,7.258319304174891e-07,1.454295541874704e-05
3.0010457657159337e-07,1.02695610053917e-06,7.247050656465959e-07,1.4482817301301113e-05
2.984730785728562e-07,1.0324271215908443e-06,7.23983541238748e-07,1.4429883127205291e-05
2.968757989887e-07,1.0384540266096286e-06,7.236870888943602e-07,1.4385766651904655e-05
2.953193437652801e-07,1.044992480497123e-06,7.23846176690914e-07,1.4352041272109964e-05
2.9381002332796405e-07,1.0519986713255177e-06,7.244956868439641e-07,1.4330108640536398e-05
2.9235509717845757e-07,1.0594282597078357e-06,7.256661330615841e-07,1.4321094369404385e-05
2.909623711145722e-07,1.067235500174833e-06,7.273840585202717e-07,1.4325766302747393e-05
2.896399274252316e-07,1.0753688975025756e-06,7.296818049446139e-07,1.4344492013777007e-05
2.883963943038716e-07,1.0837663636153757e-06,7.326088061723997e-07,1.4377273140294116e-05
2.872404156830708e-07,1.0923550603981806e-06,7.362387172147617e-07,1.4423903758626688e-05
2.8617951776095125e-07,1.101057302016494e-06,7.406682452134377e-07,1.4484234319662325e-05
2.852201972631261e-07,1.1097994351725608e-06,7.460073501419631e-07,1.455836831513443e-05
2.8436924122597986e-07,1.118517865101722e-06,7.52365990291034e-07,1.4646646256602865e-05
2.836342953464459e-07,1.127158207522637e-06,7.59841570482092e-07,1.4749486894816946e-05
2.830225296873975e-07,1.1356693267208901e-06,7.685081877378295e-07,1.4867210951675231e-05
2.825385646724457e-07,1.1439966547081112e-06,7.784101381086564e-07,1.4999952348247907e-05
2.821840476991721e-07,1.1520783307369914e-06,7.895621110294379e-07,1.5147798019181189e-05
2.819590472036562e-07,1.1598453841311427e-06,8.019528012739234e-07,1.5311093166173692e-05
2.8186306339380177e-07,1.1672244209923496e-06,8.155472170914646e-07,1.5490598391448485e-05
2.8189468439293296e-07,1.174141301313543e-06,8.302881166107452e-07,1.5687370776348667e-05
2.8205076590206826e-07,1.1805242293391277e-06,8.460994066734045e-07,1.5902524553059105e-05
2.823262836839446e-07,1.1863047379016654e-06,8.628930685072928e-07,1.613700902818352e-05
2.8271517474300904e-07,1.1914180433993371e-06,8.805795925532068e-07,1.639144953205965e-05
2.832113176181294e-07,1.1958042578889902e-06,8.990804864177313e-07,1.6666070057361516e-05
2.838087283391933e-07,1.199408982593293e-06,9.183391617355913e-07,1.6960687169028013e-05
2.8450143861988456e-07,1.202182041696563e-06,9.383249557682056e-07,1.727474641249685e-05
2.8528375294125925e-07,1.2040761965863229e-06,9.590270854671634e-07,1.7607382795464746e-05
2.8615037384604354e-07,1.205048905354012e-06,9.804395391729543e-07,1.7957483249245356e-05
2.8709676287469374e-07,1.205067100219294e-06,1.002544964594147e-06,1.8323703687615845e-05
2.881198292551321e-07,1.2041118684454916e-06,1.025309102520058e-06,1.87044321184975e-05
2.892169387818936e-07,1.2021793633597617e-06,1.0486857121016512e-06,1.9097753476748073e-05
2.903842280977911e-07,1.1992761139923977e-06,1.0726208676853472e-06,1.9501456021930854e-05
2.9161742217546497e-07,1.195413061465971e-06,1.097051775742262e-06,1.991308934917844e-05
2.9291359383038695e-07,1.190605252630979e-06,1.1219033769128813e-06,2.0330071523356865e-05
2.94271002127396e-07,1.1848763911307957e-06,1.1470858695060673e-06,2.074980284407372e-05
2.956874736428765e-07,1.1782615908780992e-06,1.1724943872148102e-06,2.1169737567355827e-05
2.9715827102376104e-07,1.1708055055229912e-06,1.1980107799642105e-06,2.1587420968548827e-05
2.98675194058768e-07,1.162558022191074e-06,1.2235067669321979e-06,2.2000534310490264e-05
3.002284674890377e-07,1.1535705298595292e-06,1.248846887830396e-06,2.2406950040452268e-05
3.0180867233275623e-07,1.1438939474412096e-06,1.2738906128930646e-06,2.2804754279241792e-05
3.0340583023827085e-07,1.1335780900202438e-06,1.2984952482266862e-06,2.3192229395767638e-05
3.050079457704549e-07,1.1226714109189368e-06,1.3225191559492274e-06,2.3567820906336603e-05
3.066016801165889e-07,1.1112204527131494e-06,1.345823531969565e-06,2.393007986922387e-05
3.081736105608129e-07,1.099270129214408e-06,1.3682742721301684e-06,2.4277592799205524e-05
3.0971066717444053e-07,1.0868656939485192e-06,1.3897447444188151e-06,2.460896116413344e-05
3.112006692395464e-07,1.0740535202374337e-06,1.4101196521337808e-06,2.492284504537547e-05
3.1263251394009066e-07,1.060879014423853e-06,1.4293009624415285e-06,2.521802443427137e-05
3.13995393165707e-07,1.0473856663516218e-06,1.4472108841865554e-06,2.549344073424534e-05
3.152794671321456e-07,1.033616656482749e-06,1.4637871258132696e-06,2.5748207671115586e-05
3.164794273697284e-07,1.0196157138293677e-06,1.4789751942082574e-06,2.5981588712922745e-05
3.175971218081841e-07,1.0054275043872357e-06,1.4927239096940706e-06,2.6192936108310665e-05
3.186392772050936e-07,9.910990625776524e-07,1.5049863236647845e-06,2.638161919405021e-05
3.196126086015584e-07,9.766806319326617e-07,1.515726339904176e-06,2.654699280143817e-05
3.2052087333106844e-07,9.622243231035999e-07,1.5249278872214026e-06,2.668841193469117e-05
3.213648912746511e-07,9.477814776501277e-07,1.5326008521333891e-06,2.6805273793262064e-05
3.22144474033906e-07,9.334012348512579e-07,1.5387806850387131e-06,2.689710429124595e-05
3.2286088949621394e-07,9.19129842768256e-07,1.5435233719768663e-06,2.696371129411848e-05
3.235180710859477e-07,9.050090599792022e-07,1.5468987768038863e-06,2.7005331752881625e-05
3.241219726628792e-07,8.910752228218206e-07,1.5489829009745016e-06,2.70226350716997e-05
3.246793670531343e-07,8.773595404602082e-07,1.54984950862271e-06,2.701655650821325e-05
3.251968151878085e-07,8.638895378777504e-07,1.549565796413103e-06,2.698807803668877e-05
3.256794108418739e-07,8.506934587500382e-07,1.54819412211916e-06,2.693808880436292e-05
3.2613027486318233e-07,8.378067022094491e-07,1.5457932566392397e-06,2.6867375911072e-05
3.265517359839612e-07,8.252757442509724e-07,1.5424158650720155e-06,2.677668322600347e-05
3.269466718081385e-07,8.13155881012919e-07,1.5381070942728431e-06,2.6666740479514285e-05
3.273182066835365e-07,8.015037643180532e-07,1.5329062376263663e-06,2.653829739579141e-05
3.276682428368683e-07,7.903694474087804e-07,1.5268482278490763e-06,2.639227554963665e-05
3.279969266232142e-07,7.797913713964349e-07,1.5199627700276953e-06,2.6229927084330842e-05
3.283033831496069e-07,7.697952497140794e-07,1.512273075520713e-06,2.6052769975086864e-05
3.285864629652461e-07,7.603971659773956e-07,1.5037975376838643e-06,2.5862361433090248e-05
3.288459689268254e-07,7.516091333895454e-07,1.4945531622560337e-06,2.5660134336929518e-05
3.29083917350378e-07,7.43443170155329e-07,1.484558577725185e-06,2.544738884212904e-05
3.29303649702322e-07,7.359115800629951e-07,1.4738388094539415e-06,2.522547138077279e-05
3.295078643619432e-07,7.290238479168671e-07,1.4624319509545403e-06,2.4996075496181517e-05
3.296981980130867e-07,7.227826925018968e-07,1.4503927622206418e-06,2.476142000862343e-05
3.298761278696216e-07,7.171842834548632e-07,1.4377897278324273e-06,2.452415839492849e-05
3.3004334607332486e-07,7.12224450110373e-07,1.4246976654569753e-06,2.4287143396644226e-05
3.302005968905655e-07,7.079049752371995e-07,1.411190158218403e-06,2.4053206820594903e-05
3.303461254281084e-07,7.042332769262668e-07,1.3973332497082019e-06,2.382499935364672e-05
3.3047553499747005e-07,7.012153795173906e-07,1.3831813242709902e-06,2.360488869322809e-05
3.3058247061945076e-07,6.988478913957973e-07,1.3687784068741142e-06,2.3394903436894282e-05
3.306588143397586e-07,6.971156359672926e-07,1.354164793585503e-06,2.319670607850768e-05
3.306952397284558e-07,6.959969578669712e-07,1.3393829082573634e-06,2.301158054608749e-05
3.306828351475204e-07,6.95471011899638e-07,1.3244772330186888e-06,2.284041754194395e-05
3.306143246061316e-07,6.955207779293285e-07,1.3094900299390894e-06,2.268369622059597e-05
3.3048422046593873e-07,6.961342506928667e-07,1.2944584032493968e-06,2.2541490823019065e-05
3.3028881779833414e-07,6.973068546869637e-07,1.2794148733216614e-06,2.2413527189404294e-05
3.300260356739178e-07,6.990410920237669e-07,1.2643892341140918e-06,2.22992753935967e-05
3.29694760079267e-07,7.01343388318344e-07,1.2494093416102408e-06,2.219805871954074e-05
3.292940773760053e-07,7.042251954169856e-07,1.2345004174655307e-06,2.210917494385536e-05
3.288227703392698e-07,7.077086890806559e-07,1.2196843294390332e-06,2.203200008687622e-05
3.282790700781486e-07,7.118281244560425e-07,1.2049799555897926e-06,2.1966032348984632e-05
3.2766066433785e-07,7.16622153213072e-07,1.190404087208318e-06,2.1910895825181127e-05
3.2696536462378057e-07,7.221219454472585e-07,1.1759721092955694e-06,2.1866356252275347e-05
3.2619341119254067e-07,7.283419121286343e-07,1.1616980289978962e-06,2.1832343360421296e-05
3.253506384495522e-07,7.352759313104032e-07,1.1475941650604523e-06,2.180893668587459e-05
3.2444893997035045e-07,7.42898333347271e-07,1.1336707768235624e-06,2.179630592291344e-05
3.235035931417869e-07,7.511687539429122e-07,1.1199353199886066e-06,2.179463091550286e-05
3.225307070031401e-07,7.600413824916097e-07,1.106391882081281e-06,2.1804007318976324e-05
3.2154531673143076e-07,7.694757421509513e-07,1.0930414308273599e-06,2.182434471671758e-05
3.205592577236192e-07,7.79441770736276e-07,1.0798827927232737e-06,2.1855322952448e-05
3.1958017225646055e-07,7.899167657852848e-07,1.066916251346837e-06,2.1896429315822288e-05
3.186127859088593e-07,8.008795141335534e-07,1.0541508917709512e-06,2.194699698503448e-05
3.1766087041219676e-07,8.123064511416623e-07,1.0416104174506392e-06,2.200620996155117e-05
3.1672776596645924e-07,8.241738049911428e-07,1.029331331856623e-06,2.207312201428654e-05
3.158159386410873e-07,8.364697405059433e-07,1.0173540153719065e-06,2.214671711156344e-05
3.149264279972383e-07,8.492088951090336e-07,1.0057125572335622e-06,2.222596534344245e-05
3.140580814953872e-07,8.624341560912129e-07,9.94429449053973e-07,2.230980901139488e-05
3.1320744224072483e-07,8.762042453281044e-07,9.835166392186458e-07,2.2397099408606688e-05
3.1236920051672355e-07,8.905786766985391e-07,9.72979277543735e-07,2.2486554029950773e-05
3.1153650718998497e-07,9.056067530527296e-07,9.62817596295e-07,2.257675801108127e-05
3.107020539071909e-07,9.213185507096895e-07,9.53025830487092e-07,2.2666219949126376e-05
3.098593839220238e-07,9.377174179347383e-07,9.435918667436819e-07,2.2753503918932705e-05
3.090027311713203e-07,9.54777577656412e-07,9.345021321331594e-07,2.2837386264539412e-05
3.081262489677105e-07,9.724472894685228e-07,9.257495850804735e-07,2.2916906361617512e-05
3.072243763726061e-07,9.90654257035415e-07,9.173372952810895e-07,2.299127257613253e-05
3.062927718546588e-07,1.0093104128638763e-06,9.092749570116394e-07,2.3059744193428907e-05
3.053280575913168e-07,1.0283157550326125e-06,9.015733434041846e-07,2.31215880980014e-05
3.043266352672796e-07,1.047562500983875e-06,8.942422470182781e-07,2.317608365543306e-05
3.0328428621266433e-07,1.0669382610438135e-06,8.872914004506969e-07,2.3222533124353768e-05
3.021967139738914e-07,1.0863267904635969e-06,8.807295394266363e-07,2.3260259327229386e-05
3.01059932706747e-07,1.105608891675985e-06,8.745601067541115e-07,2.328860718237887e-05
2.998701881522908e-07,1.124665096828191e-06,8.687772467614784e-07,2.330705149555329e-05
2.986236900252412e-07,1.1433790498318078e-06,8.633649111065157e-07,2.3315390640964546e-05
2.973163224779494e-07,1.161641417612338e-06,8.582981097963263e-07,2.3313793767652168e-05
2.959437639205977e-07,1.1793544380293122e-06,8.535449051746774e-07,2.3302624371344104e-05
2.945021779532333e-07,1.1964348460492836e-06,8.490688130524042e-07,2.328221470899588e-05
2.929892505887811e-07,1.2128118050326923e-06,8.448306873431141e-07,2.32527644183393e-05
2.914057981084993e-07,1.2284202314706744e-06,8.407899604761652e-07,2.3214461257216777e-05
2.8975749561890923e-07,1.2431947420553483e-06,8.369062957481768e-07,2.3167783323419533e-05
2.880546632863833e-07,1.2570687143260764e-06,8.331414350264411e-07,2.311375097857941e-05
2.8630946936714146e-07,1.2699779832366159e-06,8.294604020178189e-07,2.305393921876924e-05
2.845331771364211e-07,1.2818665519211785e-06,8.258317532191374e-07,2.2990302917311943e-05
2.8273546704081934e-07,1.2926918614269837e-06,8.222276451957012e-07,2.292496288279224e-05
2.8092539306788745e-07,1.3024267969244994e-06,8.186250648675991e-07,2.2860017450532865e-05
2.791134741675756e-07,1.3110572669628037e-06,8.150063309414026e-07,2.279738469213805e-05
2.7731371492922644e-07,1.318576773714555e-06,8.113562049085458e-07,2.273868331197232e-05
2.7554315015652627e-07,1.3249820333897092e-06,8.076585249621213e-07,2.268516165798692e-05
2.738191918024684e-07,1.33027413233293e-06,8.038957241382078e-07,2.263767703419617e-05
2.721576160796515e-07,1.3344622171539228e-06,8.00049369560688e-07,2.25967124273648e-05
2.7057181351753213e-07,1.3375626198462422e-06,7.961003831519709e-07,2.2562397217753195e-05
2.6907301639895e-07,1.339594974993749e-06,7.92030196885133e-07,2.2534529737706688e-05
2.676726941601391e-07,1.3405816890391656e-06,7.878221135081703e-07,2.251263742341313e-05
2.6638487052751504e-07,1.3405499054716328e-06,7.834618612012636e-07,2.24960740790508e-05
2.652247966937973e-07,1.33953064936451e-06,7.789385962956295e-07,2.2484129698191355e-05
2.642063438002349e-07,1.3375567435332337e-06,7.742469406320761e-07,2.2476143405415004e-05
2.633411613230384e-07,1.3346643269505968e-06,7.693888753242287e-07,2.247159724308562e-05
2.6263842949760014e-07,1.3308948811812951e-06,7.643727936505876e-07,2.2470165561563367e-05
2.6210457622446535e-07,1.3262937060842569e-06,7.592086206426793e-07,2.247172580411483e-05
2.617437917310381e-07,1.3209066974427636e-06,7.539052011741644e-07,2.2476348808637484e-05
2.6155889261979685e-07,1.3147769103551795e-06,7.48477658089012e-07,2.2484263648700823e-05
2.6155159941749194e-07,1.307941225945454e-06,7.429608517024938e-07,2.249578227956084e-05
2.6172251692655194e-07,1.3004286526677815e-06,7.37415774274028e-07,2.251120703034092e-05
2.6207218140207885e-07,1.2922610830295846e-06,7.319227551701544e-07,2.2530755127944226e-05
2.626033444477465e-07,1.2834560471768033e-06,7.265671948958719e-07,2.255449416826e-05
2.6332270162841767e-07,1.2740309265701162e-06,7.214272017110014e-07,2.2582300559054185e-05
2.642406702751349e-07,1.2640065899223174e-06,7.165708518999072e-07,2.26138896054372e-05
2.6536874390233805e-07,1.2534072304711251e-06,7.120633418264267e-07,2.264889624528643e-05
2.667161580639757e-07,1.2422580760719371e-06,7.079738978449718e-07,2.268692405212095e-05
2.682893384262161e-07,1.230585423194605e-06,7.043729489772375e-07,2.2727540458034908e-05
2.7009331972555506e-07,1.2184171255843636e-06,7.013218981341069e-07,2.2770269277447214e-05
2.721323370485236e-07,1.2057801394981043e-06,6.988649432911394e-07,2.2814620064104e-05
2.7441015668164173e-07,1.1926982111092209e-06,6.970277682132278e-07,2.2860112349393052e-05
2.76929850641847e-07,1.1791929554205635e-06,6.958201004852778e-07,2.290622544433452e-05
2.796918861025228e-07,1.1652871643113195e-06,6.95237738863685e-07,2.295232300159992e-05
2.8269244995263555e-07,1.151008926217706e-06,6.952635587295236e-07,2.299769387132372e-05
2.8592334359751765e-07,1.1363947553337866e-06,6.958701302701875e-07,2.304171469537143e-05
2.8937253790465204e-07,1.121488771805747e-06,6.970259428022148e-07,2.308395852798816e-05
2.9302461435140646e-07,1.1063375311760895e-06,6.987035121728186e-07,2.312414282953574e-05
2.968608080205422e-07,1.0909838770860908e-06,7.008845688021833e-07,2.316198682551831e-05
3.0085946874852014e-07,1.0754644143425272e-06,7.035577060117491e-07,2.319708411766973e-05
3.0499749994129964e-07,1.0598124298999605e-06,7.067102649945717e-07,2.322885748501136e-05
3.092524168319309e-07,1.0440628600600572e-06,7.103246016164139e-07,2.325662111880321e-05
3.1360484130810817e-07,1.0282549699403713e-06,7.14384726178963e-07,2.3279696193613205e-05
3.180393523742601e-07,1.0124323991981483e-06,7.18886143502902e-07,2.329747800274284e-05
3.2254241746086e-07,9.966406744109464e-07,7.238378332840355e-07,2.3309422857137425e-05
3.2710124896447876e-07,9.80922067775605e-07,7.292534626913614e-07,2.3314999305226605e-05
3.317059692528087e-07,9.653119867865975e-07,7.351395523513292e-07,2.3313669421084227e-05
3.363514915799113e-07,9.498401429143595e-07,7.414896518387059e-07,2.3305007217896248e-05
3.410369891663307e-07,9.34533538545084e-07,7.48284225476018e-07,2.3288935511234805e-05
3.457646678281121e-07,9.194186755485704e-07,7.554911860305916e-07,2.3265806047031602e-05
3.505384562426232e-07,9.045241347371292e-07,7.630669217335382e-07,2.323620859158241e-05
3.5536267821792437e-07,8.898834961174824e-07,7.70960579958053e-07,2.3200802104490745e-05
3.6024076313542036e-07,8.755362742842054e-07,7.791200835663081e-07,2.316034591999465e-05
3.651732586735856e-07,8.615258817851446e-07,7.874949136128257e-07,2.3115738720319465e-05
3.701559247818097e-07,8.478965606862847e-07,7.960346743268462e-07,2.306793205214715e-05
3.7517893231717746e-07,8.3469095649909e-07,8.046868059413108e-07,2.3017795309695e-05
3.80226980930915e-07,8.219473053752499e-07,8.133953522805705e-07,2.296601020887164e-05
3.852806517337801e-07,8.096958947038399e-07,8.221000848163823e-07,2.2913017807453807e-05
3.903193122546616e-07,7.979567054235501e-07,8.307357625092076e-07,2.285901979931977e-05
3.9532520005159186e-07,7.867396307751015e-07,8.392326140949197e-07,2.280402202584813e-05
4.002868278357654e-07,7.760463740936599e-07,8.475179222220676e-07,2.274788471039678e-05
4.051992721509376e-07,7.658720524906333e-07,8.55518700498942e-07,2.269034497737237e-05
4.100618954955367e-07,7.562070849286821e-07,8.631678132792113e-07,2.263102613058084e-05
4.148750658047056e-07,7.470406911799924e-07,8.704125863037229e-07,2.256947387508025e-05
4.1963716942867773e-07,7.383639419351469e-07,8.772199227178673e-07,2.2505223188395868e-05
4.2434495878257976e-07,7.301709323643641e-07,8.83574233491511e-07,2.2437847210577662e-05
4.289965983298408e-07,7.224590037644693e-07,8.89470114209341e-07,2.236693982396244e-05
4.335923358906421e-07,7.152267732881815e-07,8.949071273866959e-07,2.2292053651645026e-05
4.3813185003034666e-07,7.084693279020426e-07,8.998942510556723e-07,2.221267146598548e-05
4.426112410948738e-07,7.021743062654047e-07,9.044619668627441e-07,2.2128235409463586e-05
4.470213426465145e-07,6.963215513418612e-07,9.086716952791298e-07,2.203818113506807e-05
4.5134766310021927e-07,6.908852595010065e-07,9.126143511202287e-07,2.1941950384835987e-05
4.555715012653592e-07,6.85836680354794e-07,9.163990733848565e-07,2.183900512991334e-05
4.596713984101322e-07,6.811457471288579e-07,9.2013959268883e-07,2.172886109140465e-05
4.636240977041666e-07,6.767820504711541e-07,9.239429514920648e-07,2.161113894437289e-05
4.6740506493907273e-07,6.7271620314214e-07,9.279024864045895e-07,2.148561329278185e-05
4.709902615846229e-07,6.68920079839588e-07,9.320955317434807e-07,2.1352231507590447e-05
4.74358947003984e-07,6.653657097428471e-07,9.365819612521549e-07,2.121108551760184e-05
4.774945859632875e-07,6.620263318898221e-07,9.414018944686468e-07,2.1062338837564763e-05
4.803834032642555e-07,6.588805746802404e-07,9.465759941978808e-07,2.0906144899866532e-05
4.830129668330336e-07,6.559144795758911e-07,9.521090902878328e-07,2.074262637909088e-05
4.853721855111034e-07,6.531185401132681e-07,9.579954692044307e-07,2.0571949106370807e-05
4.87452347738031e-07,6.504854998879025e-07,9.642256769917259e-07,2.039440612585476e-05
4.892478673380675e-07,6.480130789115746e-07,9.707932332258251e-07,2.021039567726356e-05
4.907554417000789e-07,6.45708867172072e-07,9.776974310584858e-07,2.0020318116332807e-05
4.919721300743657e-07,6.435946266016904e-07,9.849422897697269e-07,1.982450430066993e-05
4.928943617692471e-07,6.417084206473033e-07,9.925367133115759e-07,1.9623208564644665e-05
4.935186010197567e-07,6.40101369635045e-07,1.0004970522925572e-06,1.9416637105120195e-05
4.93842209807815e-07,6.388278256684199e-07,1.0088473291071112e-06,1.920498152764793e-05
4.938632948537294e-07,6.379348609982725e-07,1.0176152094121328e-06,1.898843010069913e-05
4.93580056613975e-07,6.374575662518432e-07,1.0268263891090942e-06,1.8767202106337117e-05
4.929905385805152e-07,6.374195137646265e-07,1.0364989981560577e-06,1.85416808804292e-05
4.920928274330911e-07,6.378361787258332e-07,1.0466386583900615e-06,1.8312569520281243e-05
4.908849965398949e-07,6.387194775504461e-07,1.057235528892963e-06,1.808091496479072e-05
4.893647679319368e-07,6.400792347537085e-07,1.0682649014933796e-06,1.784799820969985e-05
4.87530068467724e-07,6.419206576111509e-07,1.0796930587169776e-06,1.7615194691312056e-05
4.853801532422021e-07,6.442429913648564e-07,1.0914868031445683e-06,1.738385231241274e-05
4.829156736320275e-07,6.470445223911188e-07,1.1036219237739875e-06,1.715520896502295e-05
4.801380755103861e-07,6.503325774312721e-07,1.1160884301108897e-06,1.6930388160378408e-05
4.77049430442675e-07,6.541309953202374e-07,1.1288919924882572e-06,1.6710441215523275e-05
4.736525498473074e-07,6.58479461837194e-07,1.142049396529233e-06,1.6496344506794412e-05
4.699512363995607e-07,6.63426976721509e-07,1.1555777677419974e-06,1.6288929516230984e-05
4.6595078112300045e-07,6.69025804142404e-07,1.1694830193346556e-06,1.6088830536340757e-05
4.61658509373777e-07,6.753288876370014e-07,1.1837552723992282e-06,1.589656117648014e-05
4.570846281743029e-07,6.823867011409149e-07,1.1983726218076564e-06,1.5712696181195193e-05
4.5224305948454563e-07,6.902387187043869e-07,1.2133052680391672e-06,1.5537957800691922e-05
4.4715036909433696e-07,6.989037807306922e-07,1.2285133389632366e-06,1.5373118487338607e-05
4.418233842292221e-07,7.083769307737711e-07,1.2439420872006227e-06,1.521893462703998e-05
4.3627849342016315e-07,7.186326252196605e-07,1.2595203269046877e-06,1.5076277418456533e-05
4.305322377448288e-07,7.296298553675559e-07,1.275162443691748e-06,1.4946281942788129e-05
4.246010157071908e-07,7.413160816210466e-07,1.2907724056653672e-06,1.4830308192402707e-05
4.1850101878854155e-07,7.53629164747738e-07,1.306247905962745e-06,1.4729777330056384e-05
4.122502988566882e-07,7.664998276121174e-07,1.321483410440755e-06,1.4646041435014953e-05
4.0587076506594796e-07,7.798571059387594e-07,1.336372223859541e-06,1.458034246602767e-05
3.9938693460419853e-07,7.936332742040669e-07,1.3508080718998192e-06,1.4533799701768347e-05
3.9282313401107626e-07,8.077630176612315e-07,1.3646888208133235e-06,1.4507347260465585e-05
3.8620259978075e-07,8.221794484486302e-07,1.3779225897014499e-06,1.4501634326338364e-05
3.795477669278797e-07,8.368146475263577e-07,1.3904303597809343e-06,1.4516940950596958e-05
3.728796888256081e-07,8.516061681980821e-07,1.4021418685719481e-06,1.4553144337982416e-05
3.6621807170324894e-07,8.665034575359112e-07,1.4129892700109815e-06,1.4609777590312286e-05
3.5958366164622085e-07,8.81470219002329e-07,1.4229047798468951e-06,1.4686172487004514e-05
3.5300054333893765e-07,8.964828652016051e-07,1.431823789018665e-06,1.4781582637628696e-05
3.4649544569056175e-07,9.115248536798441e-07,1.4396881117813186e-06,1.4895211736477585e-05
3.4009524684377234e-07,9.265789856301037e-07,1.4464443660715966e-06,1.5026190660835501e-05
3.338252135359265e-07,9.416216632182337e-07,1.45204071848314e-06,1.5173570639511042e-05
3.277086176948864e-07,9.56620033129204e-07,1.4564266319975989e-06,1.5336334783466242e-05
3.217668495889207e-07,9.715316925693016e-07,1.4595543214955837e-06,1.5513390255418468e-05
3.160186954913057e-07,9.863077559523001e-07,1.461380301809228e-06,1.5703536311165798e-05
3.1047919886331293e-07,1.000900137536566e-06,1.4618673879818362e-06,1.590547794531044e-05
3.0515946652689545e-07,1.0152715387641331e-06,1.4609857061843896e-06,1.6117973757712564e-05
3.000668794571925e-07,1.0294019659723801e-06,1.458712118584855e-06,1.6340090321708482e-05
2.9520502928671925e-07,1.0432851547266784e-06,1.4550300772433225e-06,1.6571369014331656e-05
2.905746625052608e-07,1.0569172541198972e-06,1.4499299384514318e-06,1.681175477704918e-05
2.8617690935307414e-07,1.0702872573615164e-06,1.4434085479147829e-06,1.7061348214251285e-05
2.820166619772469e-07,1.0833733509805162e-06,1.435469346292287e-06,1.7320128257639247e-05
2.781021635207304e-07,1.0961432230779634e-06,1.4261240314358654e-06,1.7587813495784258e-05
2.744415626376028e-07,1.1085558020647786e-06,1.4153936636589866e-06,1.786403938833473e-05
2.710406927507053e-07,1.120562114441305e-06,1.403306742443467e-06,1.8148771476969398e-05
2.679027452734268e-07,1.1321056854192386e-06,1.3898960156140212e-06,1.844256292371168e-05
2.6502855417383406e-07,1.1431239891138675e-06,1.3751972819322277e-06,1.8746433723333344e-05
2.6241800134156624e-07,1.1535505069717578e-06,1.3592495523115243e-06,1.9061536694769494e-05
2.6007116056411124e-07,1.1633178648258499e-06,1.3420949350455005e-06,1.9388823226577755e-05
2.579869722539298e-07,1.1723614121329107e-06,1.3237796385721572e-06,1.9728798517896586e-05
2.561612878773255e-07,1.180620560734618e-06,1.304357725988099e-06,2.0081409689231185e-05
2.545865828945836e-07,1.1880405287423972e-06,1.2838943631946288e-06,2.0446055008071368e-05
2.532532161675921e-07,1.1945788470876262e-06,1.2624639757780293e-06,2.0821664333849724e-05
2.521515888565804e-07,1.2002121584854871e-06,1.2401456988663715e-06,2.1206802098338408e-05
2.512738167559296e-07,1.2049365541064442e-06,1.2170213813676723e-06,2.1599740300218897e-05
2.5061369962536656e-07,1.2087626092997823e-06,1.193176967929313e-06,2.199849815779556e-05
2.501653651800673e-07,1.2117088785139415e-06,1.1687041606073177e-06,2.2400897329981508e-05
2.499220144142733e-07,1.2137956438994038e-06,1.1436983897384723e-06,2.2804633848749438e-05
2.4987594679746926e-07,1.2150432166152264e-06,1.118254077542627e-06,2.320732087892464e-05
2.500189218690886e-07,1.2154774726322456e-06,1.0924623253633142e-06,2.360649815428845e-05
2.503415757657985e-07,1.215136868803452e-06,1.0664117619131285e-06,2.399964398762105e-05
2.50833051144308e-07,1.2140748776520576e-06,1.0401891718730557e-06,2.438419859979639e-05
2.514817356756119e-07,1.21235670326091e-06,1.0138783924682215e-06,2.475758148146184e-05
2.522754906037425e-07,1.2100499036349015e-06,9.875588028619163e-07,2.5117213686954e-05
2.5320131778005385e-07,1.2072134339660108e-06,9.61305600127e-07,2.546057427792145e-05
2.54246854264817e-07,1.2038932225971769e-06,9.351930821509652e-07,2.5785280260736986e-05
2.554020689848321e-07,1.2001237587104308e-06,9.093010727936266e-07,2.6089148600463142e-05
2.566581982217383e-07,1.1959292799050596e-06,8.837217367107643e-07,2.6370222708836663e-05
2.580064326044415e-07,1.1913242663435655e-06,8.585595889074268e-07,2.662676610583238e-05
2.594385125749764e-07,1.18631695424504e-06,8.33922016001131e-07,2.6857231006842928e-05
2.609479849617596e-07,1.1809143927130587e-06,8.099084129914597e-07,2.706023035959e-05
2.625311860929773e-07,1.1751237898371851e-06,7.866068217922475e-07,2.7234533620708663e-05
2.641867534968587e-07,1.168950306218989e-06,7.640981594524287e-07,2.7379070859195332e-05
2.6591346807090906e-07,1.1623957594682655e-06,7.424620609485922e-07,2.749293009501933e-05
2.677082615500232e-07,1.1554591028782974e-06,7.21779596991033e-07,2.7575346755524237e-05
2.695656277453679e-07,1.14813712637444e-06,7.021327108117522e-07,2.7625694307945807e-05
2.714779267562447e-07,1.1404245549405789e-06,6.836016402865936e-07,2.7643491435759728e-05
2.734358594254201e-07,1.1323133843582242e-06,6.662603893722618e-07,2.762841179908592e-05
2.75430034198771e-07,1.123792330228802e-06,6.501725901413101e-07,2.758028027463156e-05
2.774537203097432e-07,1.114847836466773e-06,6.353904502332057e-07,2.7499079110110327e-05
2.795050381418325e-07,1.1054679677564699e-06,6.219543522642602e-07,2.7384968924737838e-05
2.815880999214397e-07,1.0956480378785663e-06,6.098906453911694e-07,2.7238293227152235e-05
2.837129268201891e-07,1.0853940691277978e-06,5.992098740703558e-07,2.7059585269422346e-05
2.85893180259354e-07,1.0747218241698922e-06,5.89907035583826e-07,2.6849631031083388e-05
2.8814232727787525e-07,1.0636529507463994e-06,5.819627387107224e-07,2.660954330923176e-05
2.904702007252255e-07,1.0522118314898528e-06,5.753449709542942e-07,2.634074219428382e-05
2.928815062828296e-07,1.0404244959046192e-06,5.700109941204226e-07,2.604483420628992e-05
2.9537709388844124e-07,1.0283173979973377e-06,5.659083492600043e-07,2.5723468212729866e-05
2.979568075470169e-07,1.015915316075123e-06,5.629762182522554e-07,2.537823871290263e-05
3.0062109226792853e-07,1.0032404625228e-06,5.611501855774477e-07,2.501065486907168e-05
3.033702273075965e-07,9.903140471100058e-07,5.603715457213583e-07,2.4622147814061937e-05
3.06203291536308e-07,9.77159376171776e-07,5.60597017120164e-07,2.42141059549162e-05
3.091187782187876e-07,9.638056335007612e-07,5.618028610859038e-07,2.37879992321638e-05
3.121150334781685e-07,9.502923602864828e-07,5.639809973563004e-07,2.33456440236228e-05
3.151900290558675e-07,9.366716428159872e-07,5.671284714831814e-07,2.28894528633895e-05
3.183432744825007e-07,9.230045969245708e-07,5.712352590314425e-07,2.242240680221961e-05
3.2157850272118785e-07,9.093551304690464e-07,5.762770761575748e-07,2.194776224407908e-05
3.2490323753250605e-07,8.957851415795056e-07,5.822156943973062e-07,2.1468731534552333e-05
3.283253732833531e-07,8.823505560402654e-07,5.890030001727642e-07,2.0988310208215187e-05
3.318496221982739e-07,8.690978090992699e-07,5.965840492661374e-07,2.0509358731941518e-05
3.354760209064169e-07,8.560627702744555e-07,6.049001239278809e-07,2.003490166773506e-05
3.392001528281684e-07,8.432719234611702e-07,6.138954060383412e-07,1.956836116229537e-05
3.430137569023713e-07,8.307434071458438e-07,6.235239236929487e-07,1.911352765381268e-05
3.4690522736078487e-07,8.184871510404448e-07,6.337494575012272e-07,1.8674375246658278e-05
3.508602498044228e-07,8.065050853166263e-07,6.445384664602261e-07,1.825488493625016e-05
3.5486331440675024e-07,7.947924441905391e-07,6.558533159031245e-07,1.7858914585819622e-05
3.5889865859825563e-07,7.83340800629688e-07,6.676498937365907e-07,1.7490088903388693e-05
3.6294942365637385e-07,7.721422274971512e-07,6.798770888214489e-07,1.7151685076042623e-05
3.669979822402159e-07,7.611919063701942e-07,6.924769129006039e-07,1.6846518888111295e-05
3.7102823220395045e-07,7.504877112851861e-07,7.053876410871256e-07,1.657685812327124e-05
3.750264357657758e-07,7.400288469066211e-07,7.185486210906029e-07,1.6344371288167567e-05
3.789806901661988e-07,7.298146704924538e-07,7.319018567579251e-07,1.6150097075034747e-05
3.8288137412972045e-07,7.19842856413424e-07,7.453895520644071e-07,1.5994450303835276e-05
3.8672072075541477e-07,7.101080976061055e-07,7.589533279930347e-07,1.5877287011892064e-05
3.904904477789186e-07,7.006030985698187e-07,7.725416904399764e-07,1.5797997572209454e-05
3.9418043274606697e-07,6.91320351095073e-07,7.861226644105934e-07,1.575560142625099e-05
3.977786268354716e-07,6.822524231054474e-07,7.9968900358872e-07,1.574885891452877e-05
4.012704640710368e-07,6.733922664374986e-07,8.132498791257646e-07,1.5776388983499148e-05
4.0463935177404325e-07,6.647346283399101e-07,8.268173921288306e-07,1.583675045240537e-05
4.0786941302894407e-07,6.562761546863538e-07,8.40400266106179e-07,1.5928478154663125e-05
4.109475519511336e-07,6.480150834494307e-07,8.540067948181774e-07,1.6050096383348362e-05
4.1386258199643433e-07,6.399528084845026e-07,8.676474706725143e-07,1.6200114603369652e-05
4.166038204522326e-07,6.320942701443704e-07,8.813304514720791e-07,1.637700100928126e-05
4.191613008581485e-07,6.244459345240334e-07,8.950557351054977e-07,1.6579141979831746e-05
4.215260316944893e-07,6.170152600005477e-07,9.088173952132534e-07,1.6804786594128154e-05
4.236889441855512e-07,6.098116237436331e-07,9.22612046687208e-07,1.705198827768452e-05
4.2563997504326454e-07,6.028449437791597e-07,9.36442637825925e-07,1.7318600663988765e-05
4.273693531469954e-07,5.961227638972475e-07,9.503127337846399e-07,1.7602345660177773e-05
4.2886967213125255e-07,5.89650381204021e-07,9.642182462385858e-07,1.7900876397030263e-05
4.301357692492319e-07,5.834356310753736e-07,9.781463461406663e-07,1.821178631570661e-05
4.3116333671721613e-07,5.7749448581237e-07,9.920830659559617e-07,1.8532615907953448e-05
4.3194837255237816e-07,5.718520723310419e-07,1.0060226724072908e-06,1.8860901417962052e-05
4.3248765159397707e-07,5.665376318189357e-07,1.0199727905598157e-06,1.9194230639532683e-05
4.3277952821042614e-07,5.615772229043418e-07,1.0339543633328218e-06,1.953025879279737e-05
4.3282353338366605e-07,5.569898352188527e-07,1.0479966323811293e-06,1.986672324513888e-05
4.326195302239317e-07,5.527890321756377e-07,1.0621278342618242e-06,2.020150203379624e-05
4.3216889396511314e-07,5.489869261744777e-07,1.0763653308683614e-06,2.0532662345221807e-05
4.31475838801431e-07,5.455972549247067e-07,1.0907092908037157e-06,2.0858457379647088e-05
4.3054630847771377e-07,5.426380008843231e-07,1.1051416097908828e-06,2.1177287844589128e-05
4.293867841170972e-07,5.401333598478164e-07,1.1196287502555589e-06,2.1487643392440266e-05
4.280052525264264e-07,5.381127072220785e-07,1.1341243054236444e-06,2.178804600513899e-05
4.264129123117826e-07,5.366063897433866e-07,1.148569976498932e-06,2.2077013328637855e-05
4.2462486049662643e-07,5.356415373370024e-07,1.1628982300569499e-06,2.2353064578243846e-05
4.226591220856779e-07,5.352410175421504e-07,1.1770372543343529e-06,2.261480287966569e-05
4.2053438100401677e-07,5.354237696242417e-07,1.1909152572568715e-06,2.286104241899021e-05
4.1826820093198816e-07,5.362029968991521e-07,1.2044625661927623e-06,2.309088209650209e-05
4.158766176166064e-07,5.37585102880237e-07,1.2176118169558823e-06,2.330367894198888e-05
4.1337408040595545e-07,5.395730867947645e-07,1.2302962877792206e-06,2.349895635720769e-05
4.107734516316608e-07,5.421692343884551e-07,1.2424472901449364e-06,2.367633619797799e-05
4.0808628780085147e-07,5.453719158199429e-07,1.2539936069600001e-06,2.383558496367629e-05
4.0532367417882927e-07,5.491723399213541e-07,1.2648636593191382e-06,2.397669835517973e-05
4.024981148908942e-07,5.535582820453897e-07,1.2749878778617608e-06,2.4099870229026278e-05
3.996243664319243e-07,5.585215668797122e-07,1.2843021959830272e-06,2.4205373469590986e-05
3.967170258854071e-07,5.640629869393174e-07,1.2927540356657782e-06,2.429345978597215e-05
3.937880218439968e-07,5.701943724812884e-07,1.3003058396643449e-06,2.4364303747493296e-05
3.908480995514619e-07,5.769396154581446e-07,1.3069315365382092e-06,2.4417978489798064e-05
3.8791036919166153e-07,5.843318239375134e-07,1.312608596399871e-06,2.4454449008140856e-05
3.8499138764535065e-07,5.924037600916167e-07,1.3173120911855815e-06,2.4473573450631908e-05
3.8210979301059936e-07,6.011762926560728e-07,1.3210139410914243e-06,2.447511679113384e-05
3.792857339414482e-07,6.106525255080162e-07,1.3236853583311462e-06,2.445877991120591e-05
3.7654216707278023e-07,6.208196453130462e-07,1.32529973654451e-06,2.442422595330658e-05
3.739057795359158e-07,6.316553248615591e-07,1.3258342760048634e-06,2.437109776527398e-05
3.714053787677954e-07,6.43134059904136e-07,1.3252692872710422e-06,2.4299047268837077e-05
3.6906861765968045e-07,6.552284314015922e-07,1.323586899807251e-06,2.420777857821693e-05
3.6691943983511475e-07,6.679043528421682e-07,1.320771199136494e-06,2.409707685969419e-05
3.6497769523702934e-07,6.811169346295611e-07,1.3168087569545477e-06,2.3966802128155026e-05
3.6325968280074757e-07,6.948122142822361e-07,1.3116891201171387e-06,2.381686954458211e-05
3.6177722661622187e-07,7.089310841077604e-07,1.3054064541069904e-06,2.364725956663728e-05
3.6053620954902646e-07,7.234109578158578e-07,1.2979616831983234e-06,2.3458052148821812e-05
3.595366207271181e-07,7.381869841846814e-07,1.2893632136509096e-06,2.324943706735673e-05
3.587732547955845e-07,7.531951129144015e-07,1.2796255773653178e-06,2.3021691993298585e-05
3.582364493780924e-07,7.683743163921711e-07,1.2687677200443856e-06,2.277515758386431e-05
3.579142703834071e-07,7.836645449858257e-07,1.2568131850634369e-06,2.2510219602499772e-05
3.5779577101259903e-07,7.990023494715315e-07,1.2437913277898972e-06,2.2227294557931227e-05
3.5787253573953827e-07,8.143187562111414e-07,1.2297392608173626e-06,2.1926826357103428e-05
3.581370160760132e-07,8.295397183630214e-07,1.2147060286385898e-06,2.1609298764982283e-05
3.585796886979024e-07,8.445865902707289e-07,1.1987552102906784e-06,2.127525431543397e-05
3.591884855559493e-07,8.593770826498946e-07,1.1819616123362957e-06,2.092530667377681e-05
3.599509519088456e-07,8.738293614131781e-07,1.1644047905535462e-06,2.0560138856803063e-05
3.6085635106604063e-07,8.878690553951466e-07,1.1461636184867823e-06,2.0180500908162232e-05
3.618954801774213e-07,9.014342178198612e-07,1.1273146560003068e-06,1.9787232910502288e-05
3.6305854171838397e-07,9.144739241581072e-07,1.10793502616619e-06,1.9381323383895318e-05
3.643330926221041e-07,9.269433810526892e-07,1.0881047519219295e-06,1.8964004070798982e-05
3.657042037912943e-07,9.388015376061394e-07,1.0679045677470427e-06,1.8536825539439607e-05
3.671575489438378e-07,9.500114692848144e-07,1.0474133857219131e-06,1.810160093052926e-05
3.686824295222525e-07,9.605401169025653e-07,1.0267109053312916e-06,1.7660237653802948e-05
3.70270511204916e-07,9.703569628744264e-07,1.0058845386137683e-06,1.7214614878390687e-05
3.7191159626341096e-07,9.794326960879836e-07,9.850339646440928e-07,1.6766564006777393e-05
3.7359136286348594e-07,9.877382454250424e-07,9.642682854196287e-07,1.63179040259696e-05
3.7529279656468155e-07,9.9524490162888e-07,9.436986605271072e-07,1.5870498160886293e-05
3.769997895980512e-07,1.001925092383685e-06,9.234326183855051e-07,1.542627758859659e-05
3.7869972537927756e-07,1.0077532117050316e-06,9.035715389175455e-07,1.4987179462472785e-05
3.803825502834072e-07,1.012706913728851e-06,8.842089502052214e-07,1.4555036216848273e-05
3.820381176418281e-07,1.0167678112034048e-06,8.654306137630938e-07,1.4131504781860846e-05
3.8365472797721796e-07,1.0199211749807457e-06,8.473186461953666e-07,1.3718087308311654e-05
3.852189621535073e-07,1.0221560701960085e-06,8.299553455511976e-07,1.3316241985667524e-05
3.867165362845385e-07,1.0234654420721192e-06,8.13421605672469e-07,1.2927525319368824e-05
3.8813403375714003e-07,1.0238460769951169e-06,7.977918229157449e-07,1.2553656035408175e-05
3.894596502294751e-07,1.0233010971090158e-06,7.83129038809402e-07,1.219644482283881e-05
3.9068230720501385e-07,1.0218451763818762e-06,7.694824399107172e-07,1.1857643400400185e-05
3.917911952505505e-07,1.0195082349268586e-06,7.568885577552923e-07,1.1538807858162089e-05
3.9277650232795656e-07,1.0163336783293413e-06,7.45374750425548e-07,1.1241239943054078e-05
3.9362964841786905e-07,1.012372801117381e-06,7.349618615793339e-07,1.096599013070562e-05
3.9434259871810423e-07,1.0076800213015316e-06,7.25664808993763e-07,1.0713873887012588e-05
3.949078666477805e-07,1.0023099820365015e-06,7.174918158592705e-07,1.0485523220623076e-05
3.9531902433346674e-07,9.963165369844966e-07,7.104424267424597e-07,1.0281540033127232e-05
3.955702599124202e-07,9.897543544531828e-07,7.04505456461104e-07,1.0102693118412795e-05
3.9565573907472476e-07,9.82680780092386e-07,6.996618660452704e-07,9.94996773719501e-06
3.9556967869765756e-07,9.751554513217792e-07,6.958935075237732e-07,9.824414938160464e-06
3.953065541047744e-07,9.672376706721728e-07,6.931886686413882e-07,9.726954431461986e-06
3.948612092256556e-07,9.589829143894144e-07,6.915379819494427e-07,9.658250616938133e-06
3.942287778624354e-07,9.504404130043631e-07,6.909279531446011e-07,9.618699635044994e-06
3.93404733816285e-07,9.416526945688881e-07,6.91342253758965e-07,9.60857643225199e-06
3.9238622984015325e-07,9.32658129130027e-07,6.927702376270854e-07,9.62826325004643e-06
3.911739465316432e-07,9.234967361482807e-07,6.952146821341928e-07,9.678347208182608e-06
3.897722093536091e-07,9.142140032957608e-07,6.986931152820173e-07,9.759544801161037e-06
3.881873103336029e-07,9.04857242799642e-07,7.032328183794237e-07,9.872580554532628e-06
3.8642601378169726e-07,8.954684043900856e-07,7.088620516987273e-07,1.0018083638031513e-05
3.844955467984202e-07,8.86080968000568e-07,7.156003383100415e-07,1.019650378296682e-05
3.8240365122127406e-07,8.767208045733068e-07,7.23450914019833e-07,1.040804772766655e-05
3.801576954180624e-07,8.674066086954498e-07,7.323973684404424e-07,1.0652634697072611e-05
3.777651016788196e-07,8.581504044754944e-07,7.424047183990807e-07,1.0929873276742892e-05
3.752349261916504e-07,8.489607595393386e-07,7.534230127004687e-07,1.1239056555317447e-05
3.7257790121778025e-07,8.398467467048202e-07,7.653905301845835e-07,1.1579155079162435e-05
3.6980604989663034e-07,8.308184483117816e-07,7.782350536943756e-07,1.1948793869042418e-05
3.6693340256716254e-07,8.218836437306817e-07,7.918736411689586e-07,1.234623080697491e-05
3.639762111157391e-07,8.130445759317116e-07,8.062126903769752e-07,1.2769359990557531e-05
3.609518606864246e-07,8.042980041520302e-07,8.211503371227074e-07,1.3215755580804925e-05
3.5787742770132645e-07,7.956377257321667e-07,8.36581283383737e-07,1.3682782347731107e-05
3.5476894629649476e-07,7.870566431705832e-07,8.524014431593968e-07,1.4167753924697332e-05
3.5164130578081717e-07,7.785469455530133e-07,8.685107566871323e-07,1.4668049300784805e-05
3.485077810242081e-07,7.701002342690931e-07,8.848154969999374e-07,1.5181155177281272e-05
3.453799396937867e-07,7.617104662517581e-07,9.012294365872764e-07,1.5704686459387127e-05
3.422684564944553e-07,7.533781801708216e-07,9.176712455258371e-07,1.6236394336906914e-05
3.3918331738812014e-07,7.451108652948616e-07,9.34059861597993e-07,1.677412941221317e-05
3.361335627105434e-07,7.36918814536522e-07,9.503114232772655e-07,1.7315782886750734e-05
3.33127602099101e-07,7.288113419906974e-07,9.663377442136015e-07,1.7859252393202004e-05
3.301737964318105e-07,7.207966360401996e-07,9.820456562018544e-07,1.840241787810639e-05
3.2728117169058005e-07,7.128837127321151e-07,9.97337725312312e-07,1.894310081539399e-05
3.244596139165829e-07,7.050830921367716e-07,1.0121140927200226e-06,1.9479048807179145e-05
3.217185936121042e-07,6.974055473555109e-07,1.0262750131055722e-06,2.0007974788695265e-05
3.190652638082741e-07,6.89861504264065e-07,1.0397246702336935e-06,2.0527595380575084e-05
3.1650395634016013e-07,6.824617908328654e-07,1.0523778148351915e-06,2.1035638338329065e-05
3.1403796312783214e-07,6.752172194483403e-07,1.0641690465823314e-06,2.152986610613042e-05
3.116714754815417e-07,6.681365218669182e-07,1.0750591009398957e-06,2.200814537046993e-05
3.0940930641422557e-07,6.612252765794412e-07,1.0850311888069349e-06,2.2468513313300346e-05
3.072558915001361e-07,6.544875897944976e-07,1.0940789424710535e-06,2.290916349487213e-05
3.052156303361948e-07,6.479298965663887e-07,1.1021953232371263e-06,2.3328363671916533e-05
3.0329295714201285e-07,6.415631020191161e-07,1.1093686515192198e-06,2.37244091152316e-05
3.014907542754602e-07,6.354006231990811e-07,1.115585118766986e-06,2.409565938367888e-05
2.9980936228649137e-07,6.294579705509189e-07,1.1208350953495706e-06,2.444061000049848e-05
2.982474596968368e-07,6.237567356902967e-07,1.125120118849125e-06,2.475798027132808e-05
2.968027166762305e-07,6.183249044133208e-07,1.1284558886601975e-06,2.504682342415028e-05
2.95471228016582e-07,6.131906417958355e-07,1.1308677274745809e-06,2.530658034314013e-05
2.9424755876558397e-07,6.083777492649049e-07,1.1323817052163445e-06,2.5537009280560583e-05
2.9312614335506977e-07,6.039069399707243e-07,1.133019210722687e-06,2.573803827597105e-05
2.921020842529437e-07,5.997981147604632e-07,1.1327979793664757e-06,2.5909621297323185e-05
2.9117041709500624e-07,5.960697369703803e-07,1.1317358865442115e-06,2.6051659152828838e-05
2.9032534854925586e-07,5.927373577975144e-07,1.1298527840552537e-06,2.616400062860819e-05
2.895607416773344e-07,5.898135950436066e-07,1.127169362601104e-06,2.6246473783237444e-05
2.888709960822501e-07,5.873082759346534e-07,1.1237054689935092e-06,2.629893177828708e-05
2.8825098624505445e-07,5.852271822478602e-07,1.119479221147912e-06,2.632139679800685e-05
2.87696612898577e-07,5.835700781406836e-07,1.114507201435356e-06,2.6314291935208208e-05
2.872070833751597e-07,5.823292673619277e-07,1.1088065513130871e-06,2.6278545469397066e-05
2.8678566596858857e-07,5.81489370782814e-07,1.1023972143565993e-06,2.621544955088411e-05
2.864376801043991e-07,5.81029698215781e-07,1.0953015378098968e-06,2.612642102990965e-05
2.861687127187948e-07,5.809291528026888e-07,1.0875423247108914e-06,2.601283109905545e-05
2.859837574727449e-07,5.811696681233221e-07,1.0791433656172742e-06,2.58759969079636e-05
2.8588625758020465e-07,5.817358447204423e-07,1.070134092998201e-06,2.5717401144337618e-05
2.8587778369205214e-07,5.826129722299981e-07,1.0605553205334071e-06,2.553899913154989e-05
2.859589992872825e-07,5.837844586531162e-07,1.0504635546237822e-06,2.534332145598021e-05
2.861311787834255e-07,5.852292540747669e-07,1.039933298376893e-06,2.5133320998551912e-05
2.863969996664181e-07,5.869218773788482e-07,1.0290537825324336e-06,2.4912144839624687e-05
2.8676002113756554e-07,5.888348476792635e-07,1.0179196787147358e-06,2.468294122670214e-05
2.872232518796373e-07,5.909413279777812e-07,1.0066251465211152e-06,2.4448713839627366e-05
2.877877141725363e-07,5.932178164469611e-07,9.95269095146767e-07,2.4212228002729928e-05
2.884521613677832e-07,5.956453846187414e-07,9.839678563333984e-07,2.397596436193314e-05
2.8921424341859137e-07,5.982074681910479e-07,9.728632890626878e-07,2.3742099679006562e-05
2.900717629327353e-07,6.008881780028694e-07,9.62116638410397e-07,2.351250093441023e-05
2.91022450963288e-07,6.036756339435435e-07,9.518904475347539e-07,2.328871777320262e-05
2.920623872734836e-07,6.065667758410977e-07,9.423292088454616e-07,2.3071958857110817e-05
2.931848164320128e-07,6.095674426220032e-07,9.335474451213857e-07,2.2863072227713032e-05
2.9438073694505127e-07,6.126871080421746e-07,9.256279387008665e-07,2.266256318892337e-05
2.956407091281775e-07,6.159339174835929e-07,9.186277854992599e-07,2.247065655188003e-05
2.969564726139765e-07,6.193156098758672e-07,9.125876171466572e-07,2.228738770944339e-05
2.9832096391544874e-07,6.228439823437644e-07,9.075399895806619e-07,2.2112700458002887e-05
2.9972662988669876e-07,6.265354445855961e-07,9.035162175230692e-07,2.194652111806099e-05
3.011644157934903e-07,6.304061706510711e-07,9.005523490147518e-07,2.1788784308832888e-05
3.0262471073333066e-07,6.344678347799589e-07,8.986907494537514e-07,2.163943139828235e-05
3.0409929510365016e-07,6.387275103781972e-07,8.979740719266519e-07,2.149842057175824e-05
3.055823708612877e-07,6.431886076736868e-07,8.98440800248986e-07,2.136573714572857e-05
3.070688183422805e-07,6.478503057963428e-07,9.001345246033592e-07,2.124137418480851e-05
3.085514533379306e-07,6.527075079117856e-07,9.031210473319023e-07,2.112529841082306e-05
3.100205707196409e-07,6.577520062904733e-07,9.074970620647293e-07,2.1017419079184626e-05
3.114656234148209e-07,6.629743986675275e-07,9.133853453602987e-07,2.0917548081460198e-05
3.128763254307189e-07,6.683690728231157e-07,9.209235145808716e-07,2.082536714778573e-05
3.14241995669022e-07,6.739393234515186e-07,9.302514555768345e-07,2.074042407782028e-05
3.1555112260717416e-07,6.796945688502225e-07,9.414963665589823e-07,2.0662131940279682e-05
3.167923966324095e-07,6.856411581618874e-07,9.54757157317147e-07,2.058976098775774e-05
3.1795582619424236e-07,6.917757016516025e-07,9.700939481200694e-07,2.0522458287081408e-05
3.190327330409834e-07,6.980836420393424e-07,9.8752505287882e-07,2.0459305402566875e-05
3.200147222513897e-07,7.04539918059723e-07,1.0070291707813758e-06,2.039936415052411e-05
3.2089252780646803e-07,7.11110092724231e-07,1.028549139184188e-06,2.0341661195013102e-05
3.21656035138162e-07,7.177527021023445e-07,1.0519947065754682e-06,2.028514650273844e-05
3.222957728545184e-07,7.244227700382269e-07,1.077245532154212e-06,2.022869397164179e-05
3.228042890305463e-07,7.310757352210642e-07,1.1041576956896251e-06,2.01711459012548e-05
3.2317673505184326e-07,7.376721870738379e-07,1.1325732319587424e-06,2.011137509403142e-05
3.234115450204848e-07,7.44182309091116e-07,1.1623299616271134e-06,2.0048380788414213e-05
3.2351051781821745e-07,7.50586047703452e-07,1.1932704863327236e-06,1.998142029481744e-05
3.234774910484755e-07,7.568677192643633e-07,1.2252487397995659e-06,1.9910090000759555e-05
3.2331651028696153e-07,7.630099241689082e-07,1.258133277323771e-06,1.983426670925603e-05
3.230304716006287e-07,7.68992379471644e-07,1.2918086934165769e-06,1.9753954188625786e-05
3.2262070602354697e-07,7.747963576347141e-07,1.3261744603259821e-06,1.966917653690574e-05
3.2208748079664943e-07,7.804119173008784e-07,1.361139377328146e-06,1.9579975019941345e-05
3.214316401734458e-07,7.858439634041904e-07,1.3966138792203708e-06,1.9486430320474867e-05
3.206571036784041e-07,7.911130547510795e-07,1.432503634049811e-06,1.938864549194665e-05
3.19772637375709e-07,7.962495650912763e-07,1.468703581263133e-06,1.928671814148006e-05
3.1879202869837947e-07,8.01284959358307e-07,1.5050915035476091e-06,1.9180793818594933e-05
3.1773214084590307e-07,8.062467523697031e-07,1.5415256312071988e-06,1.9071247259622767e-05
3.1660974639490445e-07,8.111583305970417e-07,1.5778498110245291e-06,1.8958839020767688e-05
3.15440347797714e-07,8.160379126495983e-07,1.6139022306292474e-06,1.8844661332329866e-05
3.142388324564735e-07,8.208948285651685e-07,1.6495228896850372e-06,1.8729938189013172e-05
3.130195274612689e-07,8.257287704941772e-07,1.6845591216064214e-06,1.8615840908204466e-05
3.117965189630691e-07,8.305336422483819e-07,1.7188665505708637e-06,1.850339010464758e-05
3.105845755214085e-07,8.352997766529566e-07,1.7523041438947997e-06,1.839353493606241e-05
3.09398730713623e-07,8.400132578506825e-07,1.7847296770966988e-06,1.8287405501352758e-05
3.082526108132296e-07,8.446592465225621e-07,1.8159998748472333e-06,1.8186496603496035e-05
3.071568763524307e-07,8.492314301206451e-07,1.8459729404360569e-06,1.809262233765637e-05
3.061182652892657e-07,8.537416165350346e-07,1.8745108516123647e-06,1.8007745224455288e-05
3.0514009609062683e-07,8.582233695218272e-07,1.901479423131313e-06,1.7933809113746695e-05
3.042249449975054e-07,8.627274502235182e-07,1.926746792995725e-06,1.7872608847484024e-05
3.0337730912647217e-07,8.673103990356886e-07,1.9501839158693482e-06,1.7825702553463162e-05
3.026034631131149e-07,8.720217500452186e-07,1.9716682446301757e-06,1.7794369503682964e-05
3.0190960475625555e-07,8.768983514902632e-07,1.99108748386337e-06,1.7779594705388102e-05
3.0130036386142967e-07,8.81968598586688e-07,2.0083400123520144e-06,1.7782060311326205e-05
3.007776952867362e-07,8.872593118905777e-07,2.023333377242929e-06,1.7802143311826714e-05
3.0034025111366485e-07,8.927976781716505e-07,2.035984678076039e-06,1.7839905565355507e-05
2.99983585709502e-07,8.986083206442348e-07,2.0462235988807684e-06,1.7895063279543454e-05
2.997010637093383e-07,9.047097419300696e-07,2.053995333033335e-06,1.7966967819957813e-05
2.994850544982137e-07,9.111126620784719e-07,2.059260161930031e-06,1.8054640631081048e-05
2.99327598739478e-07,9.17820472158302e-07,2.061990013767461e-06,1.8156874935265846e-05
2.992207010861327e-07,9.248308932710205e-07,2.062165254442379e-06,1.82723809690268e-05
2.991573823931329e-07,9.321359561570458e-07,2.0597737015940644e-06,1.839991495674101e-05
2.991326381837026e-07,9.397188223605568e-07,2.054811900051826e-06,1.8538343300010643e-05
2.9914239946450364e-07,9.475510172144926e-07,2.0472870141920384e-06,1.8686659905764328e-05
2.9918138886622525e-07,9.555948698433614e-07,2.037217058014581e-06,1.8843996043321663e-05
2.9924237135521803e-07,9.63811728303822e-07,2.0246301474377393e-06,1.9009615646236455e-05
2.993176375655125e-07,9.721708409207158e-07,2.009565088890858e-06,1.9182873296425324e-05
2.994013202475095e-07,9.80652278800042e-07,1.9920729244907366e-06,1.9363149721434355e-05
2.9949018752185576e-07,9.892421419954012e-07,1.972217010465861e-06,1.9549783472800212e-05
2.995823089769083e-07,9.979246420558727e-07,1.950070744863824e-06,1.9742001709490895e-05
2.9967525679682543e-07,1.0066768566720456e-06,1.9257154334898464e-06,1.9938892590469295e-05
2.997652805371242e-07,1.015467003561012e-06,1.899239728679338e-06,2.013944573481627e-05
2.998476314954281e-07,1.0242534585399158e-06,1.870738171798259e-06,2.034259329964787e-05
2.9991749181130897e-07,1.032983950830399e-06,1.840308681042537e-06,2.05472064526844e-05
2.999705749023189e-07,1.0415963312576387e-06,1.8080526720236946e-06,2.075209395386178e-05
3.0000267472535444e-07,1.0500206859129525e-06,1.7740792815344024e-06,2.095604362181075e-05
3.000091883805439e-07,1.0581826655046038e-06,1.7385102607830063e-06,2.1157882958512285e-05
2.9998608506637177e-07,1.0660094160341586e-06,1.701480949053078e-06,2.135649708502853e-05
2.999309390075814e-07,1.0734363738934271e-06,1.663139613692219e-06,2.1550783376569334e-05
2.998421508244855e-07,1.0804109716035956e-06,1.623651107480788e-06,2.1739593935423145e-05
2.9971726711688147e-07,1.0868932471201344e-06,1.5831999956581694e-06,2.1921705365414107e-05
2.995521501920714e-07,1.0928556381923406e-06,1.5419837142322941e-06,2.209582917317341e-05
2.993417189215006e-07,1.0982826627408552e-06,1.5002007051352087e-06,2.2260695051414146e-05
2.990817571479861e-07,1.1031691023180113e-06,1.4580452984192498e-06,2.241519497132295e-05
2.987701605186959e-07,1.1075149850546629e-06,1.4157094535071819e-06,2.2558484970939614e-05
2.98406243462422e-07,1.1113195662858464e-06,1.373383504685371e-06,2.268995364783221e-05
2.97988997321964e-07,1.1145782080673334e-06,1.3312522129687776e-06,2.280909442665944e-05
2.9751633562004556e-07,1.1172816956708692e-06,1.2894889483218245e-06,2.291540416889873e-05
2.9698520333667e-07,1.1194164071867652e-06,1.2482526687336466e-06,2.3008367570021435e-05
2.963914838361267e-07,1.120966920461027e-06,1.2076876624089954e-06,2.308747813629273e-05
2.9573005859072746e-07,1.121920373570571e-06,1.1679227783677734e-06,2.3152240778955145e-05
2.949956560540193e-07,1.1222674715452092e-06,1.1290713168733094e-06,2.3202170251605358e-05
2.941843557594345e-07,1.1219987066541241e-06,1.0912362246568395e-06,2.3236862834617942e-05
2.932944386153702e-07,1.1211007280192489e-06,1.054519805239444e-06,2.325619332732529e-05
2.923254842369644e-07,1.1195565358496285e-06,1.0190302417725705e-06,2.3260503449001527e-05
2.9127687071154873e-07,1.1173485847229713e-06,9.848812694340506e-07,2.325058551382509e-05
2.9014733312156945e-07,1.1144634320938756e-06,9.521894112508933e-07,2.3227497607846583e-05
2.8893583109088394e-07,1.110897653892785e-06,9.210711705442696e-07,2.3192368053699904e-05
2.8764340905237176e-07,1.1066637403444562e-06,8.91637782716472e-07,2.314627286101373e-05
2.8627497131847837e-07,1.1017920338731146e-06,8.639871156560743e-07,2.309027218652548e-05
2.8483897416319555e-07,1.0963250449144074e-06,8.381957485228868e-07,2.302561541842207e-05
2.8334514948530693e-07,1.0903074980240723e-06,8.143158488105715e-07,2.2953904454184445e-05
2.818028933548943e-07,1.0837806894770179e-06,7.92379708905561e-07,2.2877032949951396e-05
2.8022136858258417e-07,1.0767856836749816e-06,7.724068024188452e-07,2.2796984975833985e-05
2.7861000556071897e-07,1.0693720170757583e-06,7.544053366085568e-07,2.271565436851249e-05
2.769781842830093e-07,1.0616041095981487e-06,7.383703519195444e-07,2.2634736559417788e-05
2.75334048342587e-07,1.053560845448876e-06,7.24285369264137e-07,2.2555677682483867e-05
2.736837649398336e-07,1.0453312129685562e-06,7.121272754594274e-07,2.247965542967372e-05
2.720325151269852e-07,1.0370113693179175e-06,7.018697146868488e-07,2.2407576221839087e-05
2.703864835128914e-07,1.0287041179091757e-06,6.934823158059158e-07,2.2340090231267068e-05
2.6875509399547036e-07,1.0205160276049463e-06,6.869267124058363e-07,2.227761353042812e-05
2.671532062325584e-07,1.012548313644334e-06,6.82152163523241e-07,2.222032231503808e-05
2.65600981097692e-07,1.0048857429010631e-06,6.790926617319878e-07,2.2168125713385287e-05
2.641210107215843e-07,9.975912733763911e-07,6.776667384807897e-07,2.2120676369842107e-05
2.627360532979461e-07,9.907073022268309e-07,6.777801147625334e-07,2.2077429942692345e-05
2.614687344832312e-07,9.842582308008988e-07,6.793297798298158e-07,2.203772139806308e-05
2.60341532386315e-07,9.782520359776278e-07,6.822073040129218e-07,2.2000863423604928e-05
2.593753320346387e-07,9.72683129283427e-07,6.863004008745575e-07,2.1966256426056688e-05
2.5858712584744496e-07,9.675361551351344e-07,6.914943776743736e-07,2.1933446990819448e-05
2.57989668284904e-07,9.627880231125018e-07,6.976733173225251e-07,2.190211323598624e-05
2.575929517169256e-07,9.58410395448132e-07,7.047193700585466e-07,2.1872018252243077e-05
2.574040736906357e-07,9.543759813335761e-07,7.125124799790031e-07,2.184296336335474e-05
2.5742540353913324e-07,9.506661389825384e-07,7.209327265871895e-07,2.181474640722397e-05
2.576539641564724e-07,9.472761969812508e-07,7.298633186544838e-07,2.1787125226620333e-05
2.580827148992072e-07,9.442181884101643e-07,7.391920380423632e-07,2.17597798367744e-05
2.587022838516989e-07,9.415216177564579e-07,7.488110448560612e-07,2.173228185412325e-05
2.595020472129488e-07,9.392309354730543e-07,7.586169838154608e-07,2.1704125925877054e-05
2.6047100792285664e-07,9.373969913401636e-07,7.685123264861466e-07,2.1674833241062007e-05
2.615993596374032e-07,9.360646998212238e-07,7.784055630368426e-07,2.164403324510649e-05
2.628806008754049e-07,9.352643508667622e-07,7.882096806532428e-07,2.1611473823170685e-05
2.6431372056128e-07,9.350101771663552e-07,7.978405955342852e-07,2.157700866766053e-05
2.659038164326223e-07,9.353048552293188e-07,8.072158104477948e-07,2.154059790284489e-05
2.676596348354255e-07,9.361476054176977e-07,8.162546220736974e-07,2.150231456428568e-05
2.695896373348786e-07,9.375413667735248e-07,8.248816747374626e-07,2.1462313388683136e-05
2.7169877142508605e-07,9.394949696831592e-07,8.330330992259719e-07,2.1420730287919592e-05
2.739867140813099e-07,9.420205388931312e-07,8.406624680700923e-07,2.1377574168202185e-05
2.7644795227653963e-07,9.4512727254685e-07,8.477434352232921e-07,2.1332698053780976e-05
2.790729754874628e-07,9.488133000624508e-07,8.542673310182137e-07,2.1285856397771072e-05
2.818492166400985e-07,9.53060154059602e-07,8.602360432943892e-07,2.123681321787545e-05
2.8476205321896373e-07,9.578324838297278e-07,8.656531355201725e-07,2.1185474248004875e-05
2.877966953812116e-07,9.630810256813514e-07,8.705183044277529e-07,2.1131983644212264e-05
2.9093987431399284e-07,9.687458347648845e-07,8.74827542548935e-07,2.1076707032710007e-05
2.941807107731391e-07,9.747586110382436e-07,8.785757062227487e-07,2.102010117981688e-05
2.9751108373120737e-07,9.810459677121224e-07,8.817577237837843e-07,2.0962555531216684e-05
3.0092440618670413e-07,9.875358022427395e-07,8.843688370070676e-07,2.0904300668453905e-05
3.044134185865628e-07,9.94164215279793e-07,8.864049081540002e-07,2.084540403671528e-05
3.0797013563929355e-07,1.0008775742842128e-06,8.878615845680876e-07,2.078578399635029e-05
3.115880279302285e-07,1.0076284506385023e-06,8.887327246438131e-07,2.0725212105814628e-05
3.152635980631585e-07,1.014370156471431e-06,8.89012313837924e-07,2.066339814529476e-05
3.189962626197877e-07,1.0210570900756657e-06,8.887033335553768e-07,2.060023511610891e-05
3.2278715869579125e-07,1.0276533237399679e-06,8.878296212953599e-07,2.0536048292825272e-05
3.266375576987105e-07,1.0341428806260631e-06,8.864408914161019e-07,2.047160194871508e-05
3.3054698885651345e-07,1.0405348446612428e-06,8.846065696209191e-07,2.040788241874292e-05
3.345110306505398e-07,1.0468617751550928e-06,8.82404033926672e-07,2.0345861535134868e-05
3.3852027963486035e-07,1.053171753622731e-06,8.799086760078791e-07,2.0286361590245456e-05
3.425620468274031e-07,1.059516652624011e-06,8.771882703772741e-07,2.0230087548727146e-05
3.4662331877056407e-07,1.0659407344496315e-06,8.743008553614333e-07,2.0177841010304675e-05
3.506921623437841e-07,1.072474320240579e-06,8.712966266377662e-07,2.0130740820140227e-05
3.547569811738429e-07,1.079135657619185e-06,8.682243476659534e-07,2.009023416135343e-05
3.588049184601361e-07,1.085936238112843e-06,8.65138566152062e-07,2.0057928509164498e-05
3.628204497039917e-07,1.0928819531845804e-06,8.62103226079261e-07,2.003541133771319e-05
3.667846219001875e-07,1.0999692900012801e-06,8.59191076070228e-07,2.002412619891427e-05
3.7067532252885937e-07,1.1071821213118549e-06,8.564792796258998e-07,2.0025302660175963e-05
3.744686364935036e-07,1.11449469262406e-06,8.540426220871013e-07,2.0039931808580663e-05
3.7814057091188954e-07,1.1218798949468794e-06,8.519495609275281e-07,2.0068768063505312e-05
3.816680577345998e-07,1.1293152762395395e-06,8.502649993834319e-07,2.0112344363984468e-05
3.850287577216649e-07,1.1367819065854936e-06,8.490548008322146e-07,2.0170989392346685e-05
3.882004695616787e-07,1.144259338980841e-06,8.483829018182038e-07,2.024480893915628e-05
3.9116102571569856e-07,1.1517213215536689e-06,8.483025171178995e-07,2.0333621778555082e-05
3.938884680616587e-07,1.1591338548440019e-06,8.488526840388834e-07,2.043690114624049e-05
3.9636138455890937e-07,1.1664554358220501e-06,8.500621791857233e-07,2.055375513381738e-05
3.98559815691171e-07,1.1736374794057078e-06,8.519517266261576e-07,2.068295711537478e-05
4.004667447795458e-07,1.1806241715642945e-06,8.545305092549372e-07,2.0823053292773362e-05
4.020695156740472e-07,1.1873532863567923e-06,8.57791647194846e-07,2.0972525244317768e-05
4.0336015834608477e-07,1.1937580053260326e-06,8.617116470412957e-07,2.112991894517604e-05
4.0433396384295406e-07,1.1997697354198723e-06,8.662549361660376e-07,2.1293895669737434e-05
4.049872802055451e-07,1.2053228076556179e-06,8.713802629431084e-07,2.146324347164951e-05
4.0531661618321946e-07,1.2103585144921314e-06,8.770458140326435e-07,2.1636881930841847e-05
4.053190653776603e-07,1.214824377369693e-06,8.832151462244923e-07,2.1813851111697e-05
4.0499236265773773e-07,1.2186703332798215e-06,8.898642685852188e-07,2.199328236515032e-05
4.043346182259022e-07,1.2218475597179345e-06,8.969836445829593e-07,2.2174365909065005e-05
4.033449923459861e-07,1.2243101337845188e-06,9.04573061313504e-07,2.235631299643392e-05
4.0202546273923346e-07,1.226016222400165e-06,9.126335361234671e-07,2.253829150460417e-05
4.003823117010255e-07,1.2269312567858722e-06,9.211591681217684e-07,2.2719350402310527e-05
3.984258028198813e-07,1.2270345291893428e-06,9.30133320390815e-07,2.289838781748284e-05
3.961684267122665e-07,1.2263219303501384e-06,9.39532044723362e-07,2.3074174593483466e-05
3.93623578330312e-07,1.2248001859046986e-06,9.493293004246609e-07,2.3245395877324115e-05
3.908054318980081e-07,1.222478123248037e-06,9.59499122570689e-07,2.341069346141945e-05
3.877290194297212e-07,1.2193624815125401e-06,9.700162110873169e-07,2.356870707588188e-05
3.844099170162839e-07,1.2154589654473242e-06,9.808554058257075e-07,2.371809199143801e-05
3.808650485324101e-07,1.2107732488001785e-06,9.919881566029276e-07,2.385751472881501e-05
3.771151049997266e-07,1.2053100019515027e-06,1.0033782034193305e-06,2.3985667879990785e-05
3.7318586527796006e-07,1.1990726272106344e-06,1.0149808837414499e-06,2.410131597273487e-05
3.6910713832789397e-07,1.1920639887080956e-06,1.0267444683140102e-06,2.4203351319444126e-05
3.64910529180017e-07,1.1842880022408713e-06,1.0386095019775058e-06,2.429085354170216e-05
3.606270315171815e-07,1.175753217597347e-06,1.0505073776463758e-06,2.436316302045625e-05
3.562862710171233e-07,1.1664768518632212e-06,1.062361027580987e-06,2.4419936771834096e-05
3.5191758623395407e-07,1.156487661260725e-06,1.0740877258003469e-06,2.446110491488854e-05
3.4755034577751806e-07,1.145828617400267e-06,1.0856024516067832e-06,2.448673129139845e-05
3.4321333077347176e-07,1.134559688079772e-06,1.0968199352804596e-06,2.4496911172938465e-05
3.3893438257027673e-07,1.1227597679292105e-06,1.10765474573993e-06,2.449178088852254e-05
3.347393863484664e-07,1.1105252289442012e-06,1.1180217629015631e-06,2.4471555321308143e-05
3.3065056620794505e-07,1.0979614927636152e-06,1.1278394652773395e-06,2.443650438559441e-05
3.266860281862185e-07,1.0851721953565287e-06,1.1370339348677126e-06,2.438688850025907e-05
3.2286112300840957e-07,1.072257447383117e-06,1.1455390712890754e-06,2.4322933227793398e-05
3.191902276297383e-07,1.0593215510327688e-06,1.1532931959772683e-06,2.4244924671053807e-05
3.1568737638488965e-07,1.0464774588079816e-06,1.1602368902475495e-06,2.415337226969367e-05
3.123651146625256e-07,1.0338398136596943e-06,1.1663144395754243e-06,2.4049032149967882e-05
3.092326376151146e-07,1.0215118158369554e-06,1.1714771276456634e-06,2.3932738223822706e-05
3.062948869494638e-07,1.0095766191702075e-06,1.1756864069220784e-06,2.380521738281001e-05
3.035528743449697e-07,9.98097396544068e-07,1.1789159529784453e-06,2.366703080626554e-05
3.0100441360295853e-07,9.871212257144582e-07,1.1811508789740992e-06,2.351869262869092e-05
2.98644608741069e-07,9.766807657313548e-07,1.1823832387913e-06,2.3360944293670252e-05
2.9646626763669605e-07,9.667934667753346e-07,1.1826075348138423e-06,2.3194999223351832e-05
2.944607142506057e-07,9.574625929120287e-07,1.1818201912121573e-06,2.302257311533256e-05
2.926187894459413e-07,9.486832098735841e-07,1.1800209599155304e-06,2.2845753191660847e-05
2.9093232768713287e-07,9.404510146686891e-07,1.1772130906369336e-06,2.2666848162902443e-05
2.8939617453268904e-07,9.327681678530876e-07,1.1734037311613978e-06,2.248825211848392e-05
2.880081241992724e-07,9.256429000367878e-07,1.1686059755380877e-06,2.2312311924920293e-05
2.867658953775652e-07,9.190841835182932e-07,1.162839389007522e-06,2.214120914462911e-05
2.8566471085788695e-07,9.130955198388064e-07,1.1561271874235343e-06,2.1976867461882712e-05
2.846972854428565e-07,9.0767269906835e-07,1.148494672656304e-06,2.182089525030075e-05
2.8385500890564535e-07,9.028062524505207e-07,1.1399732462367006e-06,2.167456833592037e-05
2.831297297317315e-07,8.98484685278841e-07,1.1306070259959187e-06,2.1538821503663905e-05
2.825161204807657e-07,8.946950159789227e-07,1.120454684456413e-06,2.141422008502394e-05
2.820136743303969e-07,8.914203405013012e-07,1.1095827917921214e-06,2.1300954244427382e-05
2.8162596814635813e-07,8.886385226491803e-07,1.098055705776427e-06,2.119889847769248e-05
2.8135689638639826e-07,8.86325600774355e-07,1.085930163500071e-06,2.1107711204404322e-05
2.812071998229771e-07,8.844597206686184e-07,1.0732556674746643e-06,2.1026948045595138e-05
2.811736955057854e-07,8.83021421393937e-07,1.0600762567452243e-06,2.0956179152951826e-05
2.812513295200517e-07,8.819942614326353e-07,1.0464321344756132e-06,2.089507823874833e-05
2.814362610134756e-07,8.81368236316157e-07,1.0323623411499394e-06,2.0843467577201682e-05
2.8172693802083074e-07,8.811410375403015e-07,1.0179077026926813e-06,2.080134980036485e-05
2.821235459062009e-07,8.813135169652509e-07,1.0031116643042777e-06,2.076893398942142e-05
2.826279008415129e-07,8.818831389940796e-07,9.88018997079078e-07,2.074660929843993e-05
2.832424344563152e-07,8.828417242510776e-07,9.726758344915013e-07,2.073484493579952e-05
2.839675359994433e-07,8.841789950249901e-07,9.571326206089323e-07,2.0734056353567898e-05
2.847994918862948e-07,8.858875422701227e-07,9.414466320167765e-07,2.074448138982584e-05
2.8573013221360806e-07,8.879635291550594e-07,9.256805225397919e-07,2.076610328506441e-05
2.867478777185563e-07,8.904023489230026e-07,9.098978098234742e-07,2.079866355200123e-05
2.878405130091611e-07,8.931936569078037e-07,8.941599063480038e-07,2.0841738264577285e-05
2.889993521420497e-07,8.963189792087956e-07,8.785261856153669e-07,2.08947938594364e-05
2.902217643581548e-07,8.997513023393184e-07,8.630530199473648e-07,2.0957213706872612e-05
2.9150952888094675e-07,9.03455835173279e-07,8.47791423675849e-07,2.1028333580649552e-05
2.928649340038961e-07,9.073916227991106e-07,8.327896578641091e-07,2.1107471161731463e-05
2.942876400666086e-07,9.115136927745963e-07,8.181008887731584e-07,2.11939077859397e-05
2.957735008589473e-07,9.157778850397356e-07,8.03785899630572e-07,2.128681548982503e-05
2.9731622526601126e-07,9.201478239086449e-07,7.899064851331113e-07,2.1385182377275824e-05
2.989107837767396e-07,9.245970167802822e-07,7.765168680249281e-07,2.148781867584312e-05
3.005553376710299e-07,9.291036020900923e-07,7.636615460651953e-07,2.1593487498947807e-05
3.0225124162359577e-07,9.336454614056612e-07,7.51381031356991e-07,2.1701096464239365e-05
3.040031187754647e-07,9.382030387649988e-07,7.397179300392878e-07,2.180980027033861e-05
3.058185884530127e-07,9.4276709366936e-07,7.287151325916983e-07,2.1918941763825587e-05
3.0770573279940785e-07,9.4734382854385e-07,7.184111469547303e-07,2.2027901491564887e-05
3.0966947517486163e-07,9.519557483569702e-07,7.088420545555902e-07,2.2135962108983042e-05
3.1170974269783375e-07,9.566400957118856e-07,7.000459390609644e-07,2.224226801932084e-05
