5.132241304637053e-07,5.360875997592802e-07,8.775655227730711e-07,1.9583503755376496e-05
5.1757329745868e-07,5.3796530646351e-07,8.753330073660792e-07,1.9736737345804536e-05
5.21862900254275e-07,5.400000338665595e-07,8.729930564820208e-07,1.9893682992804607e-05
5.260988310734555e-07,5.422189419620031e-07,8.705217373375033e-07,2.0053176337768852e-05
5.302867799192514e-07,5.446493411539732e-07,8.678986176326798e-07,2.0214050425752586e-05
5.344310417960044e-07,5.4731336958886e-07,8.65106145119034e-07,2.037514637278044e-05
5.385339851263235e-07,5.502273051903395e-07,8.62128483791502e-07,2.053526727652662e-05
5.425954243095577e-07,5.534032759898145e-07,8.589502069790042e-07,2.0693130199390013e-05
5.466129099706243e-07,5.56851979624454e-07,8.55556902623993e-07,2.0847384113868078e-05
5.505829292282517e-07,5.605853720722693e-07,8.519366993830954e-07,2.099668463777865e-05
5.545010311434081e-07,5.646167294212506e-07,8.480798770462832e-07,2.113979639990907e-05
5.583612773961015e-07,5.689574069617537e-07,8.439772632894539e-07,2.1275716254197905e-05
5.621565388836852e-07,5.736139230816264e-07,8.396193275942288e-07,2.1403776207507145e-05
5.658783138591419e-07,5.785871361891665e-07,8.349971790176271e-07,2.1523645418129315e-05
5.695158094483053e-07,5.83871020682125e-07,8.301074677422448e-07,2.163520540725842e-05
5.73055879551024e-07,5.89451033183649e-07,8.249595051265211e-07,2.1738366153577508e-05
5.764828032363729e-07,5.953042579884522e-07,8.195781510581767e-07,2.1832938721379024e-05
5.797772928965038e-07,6.014012081998172e-07,8.139997800478055e-07,2.1918627156961955e-05
5.829171257535123e-07,6.077076433423758e-07,8.082647454509228e-07,2.1995082936066267e-05
5.858795334667325e-07,6.14185481849906e-07,8.024102270506199e-07,2.2061932680661342e-05
5.886424342665821e-07,6.207942713489234e-07,7.964664216466829e-07,2.211878777215058e-05
5.911841639553313e-07,6.274939457110238e-07,7.904573614310358e-07,2.2165352656181464e-05
5.934833465064793e-07,6.342461745099404e-07,7.844032803333317e-07,2.2201629654009687e-05
5.955185982179743e-07,6.41013864652726e-07,7.783218910087006e-07,2.2227999007159765e-05
5.972686075264547e-07,6.477614058936319e-07,7.722298822595155e-07,2.2245077372546705e-05
5.987143975116143e-07,6.544554480264671e-07,7.661441802157136e-07,2.225350516464243e-05
5.998418501654839e-07,6.610644538842629e-07,7.600813126403496e-07,2.2253805965617662e-05
6.006413759744817e-07,6.675577156905945e-07,7.54056573783408e-07,2.224642154452002e-05
6.011062897145953e-07,6.739058038888424e-07,7.480840699425725e-07,2.223197552161792e-05
6.0123278886281e-07,6.800813460452532e-07,7.421759225145977e-07,2.2211571305995856e-05
6.010207289331197e-07,6.860582274640099e-07,7.363408211922514e-07,2.2186837041857214e-05
6.004738156029978e-07,6.918128446274882e-07,7.30584101290108e-07,2.215972132525178e-05
5.995992636364584e-07,6.973296902653654e-07,7.24908422715254e-07,2.2132253341792414e-05
5.984064583693141e-07,7.026057195231136e-07,7.193128041445983e-07,2.2106377686067583e-05
5.969055219632438e-07,7.076485057203833e-07,7.137923993270341e-07,2.208383981977121e-05
5.95107114558681e-07,7.124703233309016e-07,7.083425597275647e-07,2.20660928554254e-05
5.930218985145722e-07,7.170858885268012e-07,7.029648125379586e-07,2.2054247487711872e-05
5.90658899116039e-07,7.215176782976469e-07,6.97670247538645e-07,2.2049082083111726e-05
5.880250104453436e-07,7.258009166089885e-07,6.924804602488787e-07,2.205107917906156e-05
5.851268813486381e-07,7.299794927063323e-07,6.87427173857393e-07,2.206044234091308e-05
5.819735739680247e-07,7.340957288216818e-07,6.825485590748294e-07,2.2077081371328518e-05
5.785773949892601e-07,7.381822149657856e-07,6.778826839665197e-07,2.2100592399344215e-05
5.749520272464911e-07,7.422587703175898e-07,6.734641682148419e-07,2.2130268184457816e-05
5.711098479030242e-07,7.463326904923471e-07,6.693285608030365e-07,2.2165156903312837e-05
5.670609892664558e-07,7.504017272295806e-07,6.655205088141876e-07,2.220417079387262e-05
5.6281543420958e-07,7.544600065290206e-07,6.620968534112814e-07,2.2246217710554364e-05
5.583873121125285e-07,7.585025066439837e-07,6.59120555232715e-07,2.2290294095681617e-05
5.537979188485072e-07,7.62523542234451e-07,6.566506082556357e-07,2.2335510036659424e-05
5.490746773539612e-07,7.665122868241637e-07,6.547357865876704e-07,2.2381084471932824e-05
5.442472774249332e-07,7.704509505664662e-07,6.534147755080743e-07,2.2426340485919737e-05
5.393435610799549e-07,7.743169342783611e-07,6.527189422101022e-07,2.2470683515202144e-05
5.343868007241406e-07,7.780870600270217e-07,6.52671902541765e-07,2.2513547684323792e-05
5.293953324091046e-07,7.817398391202442e-07,6.532855649039708e-07,2.255433073463482e-05
5.243840854981941e-07,7.852536677645494e-07,6.545580182734453e-07,2.259235125843356e-05
5.193666858796265e-07,7.88604636205206e-07,6.564769654841933e-07,2.2626860339074406e-05
5.143565112112061e-07,7.917674463615288e-07,6.59028216966549e-07,2.2657122222175367e-05
5.093657637524342e-07,7.947178716499805e-07,6.622042121636075e-07,2.268250317811593e-05
5.044041146755461e-07,7.974338012879007e-07,6.660057132174841e-07,2.270247484825389e-05
4.994787194875298e-07,7.998940906578426e-07,6.704352343619721e-07,2.2716538754388308e-05
4.945954887620399e-07,8.020771059525194e-07,6.754876478450204e-07,2.272416283219476e-05
4.89760750736632e-07,8.039615987071091e-07,6.811441581294293e-07,2.272478086815528e-05
4.849827240478937e-07,8.055290805537912e-07,6.87371631424683e-07,2.271782300594845e-05
4.802733836191049e-07,8.067644239698869e-07,6.941262882446866e-07,2.270274093888241e-05
4.7565008795145533e-07,8.076549202730831e-07,7.013605683285738e-07,2.267906475761065e-05
4.7113440602705916e-07,8.081916767812597e-07,7.090309583876316e-07,2.264651647205284e-05
4.6674880813290607e-07,8.083748851143134e-07,7.17102308638409e-07,2.2605105271982003e-05
4.6251464322065355e-07,8.082194060591476e-07,7.255455056084457e-07,2.2555132529144024e-05
4.5845275577579887e-07,8.07755125703489e-07,7.343311090283323e-07,2.2497123171460395e-05
4.545842759512373e-07,8.070198341718834e-07,7.434245412572913e-07,2.2431724134905084e-05
4.5092868474560135e-07,8.060500937600043e-07,7.527847471538816e-07,2.2359586223036345e-05
4.4750104984885714e-07,8.048774996780773e-07,7.623641420793001e-07,2.2281255476405624e-05
4.443117547777521e-07,8.035295333434516e-07,7.721087010548796e-07,2.2197130777795292e-05
4.413681296209147e-07,8.020300988359753e-07,7.81959491464467e-07,2.210751360285976e-05
4.386752392633955e-07,8.003990485374348e-07,7.918555957108898e-07,2.20126887012197e-05
4.362347549487727e-07,7.986524024383991e-07,8.017356500322997e-07,2.1912965173023176e-05
4.340437566867832e-07,7.968038717178187e-07,8.115375001175262e-07,2.180866365925919e-05
4.3209612057606877e-07,7.948662259354791e-07,8.211990718633697e-07,2.170007928605278e-05
4.303861619751504e-07,7.928500211385856e-07,8.306608411042888e-07,2.158753192971072e-05
4.289104340807226e-07,7.907605820582148e-07,8.398666006639518e-07,2.147154909533313e-05
4.276662960307785e-07,7.885966866258759e-07,8.487616257605234e-07,2.1352970270663336e-05
4.266508334390965e-07,7.863516067817589e-07,8.572918129700663e-07,2.123283255302248e-05
4.258614739811485e-07,7.840156813670855e-07,8.654062953905819e-07,2.111222875676076e-05
4.25297033628888e-07,7.815804987012889e-07,8.730602539660198e-07,2.099227237135231e-05
4.249586071376899e-07,7.790418869394228e-07,8.802136965440002e-07,2.087406339801973e-05
4.2484873728953033e-07,7.763984230327003e-07,8.868278867892094e-07,2.0758603746350565e-05
4.249681876585719e-07,7.736497873479059e-07,8.92863892417712e-07,2.0646718579323762e-05
4.253127130257733e-07,7.708009914323737e-07,8.982836409667699e-07,2.0539001495804143e-05
4.258720955725192e-07,7.678696047161855e-07,9.030515426208721e-07,2.043577696855668e-05
4.2663088600512533e-07,7.648878452565194e-07,9.071362833318586e-07,2.033709377907601e-05
4.275692501628855e-07,7.618964104436874e-07,9.105128842910387e-07,2.0242747374076265e-05
4.286637833070057e-07,7.589361368107711e-07,9.131659449540041e-07,2.0152310064384422e-05
4.298887493581522e-07,7.56045168364653e-07,9.15094975727952e-07,2.006516998984448e-05
4.312176444788279e-07,7.532624652316031e-07,9.16318872006078e-07,1.998058748423547e-05
4.3262439567352045e-07,7.506333501374073e-07,9.168759932207188e-07,1.989776025324349e-05
4.3408383324702177e-07,7.482122029237748e-07,9.168206322411623e-07,1.9815886471168693e-05
4.355727453505824e-07,7.46061055142643e-07,9.162171877329836e-07,1.973421770833662e-05
4.370719869744361e-07,7.442458906955063e-07,9.1513356488412e-07,1.9652077247543703e-05
4.3856723667580176e-07,7.428302768916106e-07,9.136373552583158e-07,1.9568821564456853e-05
4.400474142263674e-07,7.418674491979628e-07,9.117945426060519e-07,1.948378227744063e-05
4.415034784766441e-07,7.413972901661346e-07,9.096685781549606e-07,1.9396249514673936e-05
4.4292965336447496e-07,7.414491178571188e-07,9.073212561871386e-07,1.9305496509593882e-05
4.443255936043107e-07,7.420425196510631e-07,9.048147314558924e-07,1.9210816233177826e-05
4.45696234720125e-07,7.431847868379583e-07,9.022109272803719e-07,1.9111567466472792e-05
4.470482200527657e-07,7.448699822917998e-07,8.995677304363753e-07,1.9007229395561102e-05
4.48386074292641e-07,7.470793167651629e-07,8.969346068703146e-07,1.8897451167092603e-05
4.497114836593972e-07,7.497820686338162e-07,8.943501988679735e-07,1.878207841735532e-05
4.5102475675472744e-07,7.529396047207824e-07,8.918426257482069e-07,1.8661136078192656e-05
4.5232553794110023e-07,7.565100131807316e-07,8.89433614362026e-07,1.853476965413498e-05
4.536120028919137e-07,7.60448650255368e-07,8.871471804368334e-07,1.840317214401105e-05
4.548798678152445e-07,7.647071758259673e-07,8.850171463629198e-07,1.826652644355252e-05
4.5612261772045965e-07,7.692364309840656e-07,8.830869749480951e-07,1.8125008725571067e-05
4.57334263204039e-07,7.739926708796926e-07,8.814039761944315e-07,1.7978877132583342e-05
4.585133199669262e-07,7.789415084904676e-07,8.800133944030235e-07,1.7828557095621312e-05
4.5966276331254795e-07,7.840560792931556e-07,8.789545721642124e-07,1.7674599657560092e-05
4.607854350154989e-07,7.893139038871705e-07,8.782590283291634e-07,1.7517541884787705e-05
4.618805871283682e-07,7.946973062275685e-07,8.779495487191555e-07,1.735780619024956e-05
4.6294333909271096e-07,8.001932247780656e-07,8.780389085552277e-07,1.7195718361386293e-05
4.639655256876505e-07,8.057881258836278e-07,8.785279063967405e-07,1.7031632238155008e-05
4.649376792525328e-07,8.114631740532508e-07,8.794053813306333e-07,1.686605408505964e-05
4.65850430004621e-07,8.171964055234459e-07,8.806516238786209e-07,1.6699647434024273e-05
4.666943029436465e-07,8.229706333968613e-07,8.822419096993202e-07,1.6533133656620625e-05
4.6746096766223364e-07,8.287801585945777e-07,8.841482969851094e-07,1.636717958937652e-05
4.6814673289075157e-07,8.346321997767753e-07,8.863407119344626e-07,1.6202335335655855e-05
4.687534480764303e-07,8.405440684844578e-07,8.887863092185623e-07,1.603908390423886e-05
4.6928513543581637e-07,8.465368142483215e-07,8.914472838042301e-07,1.5877994575623926e-05
4.697450847380558e-07,8.526266112413528e-07,8.942817899439573e-07,1.571982988967297e-05
4.701353904474538e-07,8.588191428354541e-07,8.972489428882736e-07,1.5565484404166228e-05
4.7045708730313357e-07,8.651090465832703e-07,9.003109868021904e-07,1.5415816148441697e-05
4.707115878784109e-07,8.714807054657841e-07,9.034293677380968e-07,1.5271504776078805e-05
4.7090352278246117e-07,8.77908385571014e-07,9.065611040083284e-07,1.5132997556725241e-05
4.710412073011982e-07,8.843569373926771e-07,9.096602119297735e-07,1.5000540257744891e-05
4.7113325458736257e-07,8.907838778447998e-07,9.126828293293724e-07,1.4874257169726739e-05
4.7118504110307426e-07,8.971418255883282e-07,9.155947677078464e-07,1.475423675139379e-05
4.7119807070278866e-07,9.033813226422798e-07,9.183786185438722e-07,1.4640650358343204e-05
4.7117196880612824e-07,9.094558385070811e-07,9.210350567535394e-07,1.4533921320388824e-05
4.7110803873011065e-07,9.15326840853796e-07,9.235783637417114e-07,1.4434800857111926e-05
4.7101352970290364e-07,9.209639928220349e-07,9.260321078603449e-07,1.4344230554249105e-05
4.709050666550457e-07,9.263397102133215e-07,9.284284102164896e-07,1.4263099132693793e-05
4.708086249243085e-07,9.314226623108722e-07,9.308077714210892e-07,1.4192066247096827e-05
4.707552091489086e-07,9.361751076280806e-07,9.332148127781585e-07,1.413155895547504e-05
4.7077449313482495e-07,9.405538784044478e-07,9.356920769263659e-07,1.4081996052798966e-05
4.708906986120363e-07,9.4451214206602e-07,9.382793243327913e-07,1.4044110654488178e-05
4.7112470155798905e-07,9.480008608107276e-07,9.410183811140764e-07,1.4019082335836966e-05
4.715003167773362e-07,9.509703387999122e-07,9.439539895323784e-07,1.400838772605592e-05
4.7204788936933184e-07,9.533734068166437e-07,9.471261060856692e-07,1.4013556442178992e-05
4.72802424810831e-07,9.551702673591731e-07,9.505628091290688e-07,1.4036000084389593e-05
4.7379908141288406e-07,9.563307428471994e-07,9.54284256080203e-07,1.4076916788794839e-05
4.75068671299767e-07,9.568328393338757e-07,9.583147715165828e-07,1.4137215829186627e-05
4.766339364930505e-07,9.566635493494776e-07,9.626918602289871e-07,1.4217447152815356e-05
4.785075592126881e-07,9.55823399877129e-07,9.674664629519483e-07,1.4317747315881192e-05
4.806919842190171e-07,9.543287035284964e-07,9.72698229501584e-07,1.4437816793108493e-05
4.831797746884164e-07,9.522075161698618e-07,9.784514085647636e-07,1.4576938728656784e-05
4.859552590671462e-07,9.494910507784464e-07,9.847923407303076e-07,1.4734025931556435e-05
4.889985408452876e-07,9.462067055560585e-07,9.917877077575778e-07,1.4907684957472695e-05
4.922884243838502e-07,9.423772387981535e-07,9.995025214845673e-07,1.5096300550049496e-05
4.958011448802561e-07,9.380240059174576e-07,1.0079954802430443e-06,1.5298125908541753e-05
4.995077735889515e-07,9.331716205203623e-07,1.0173110095985514e-06,1.551136035765464e-05
5.03373501462075e-07,9.278524634723364e-07,1.027471284957955e-06,1.5734218695412303e-05
5.07358932349639e-07,9.221062189235796e-07,1.0384722373478121e-06,1.5964992208298495e-05
5.114242546315836e-07,9.15973020133922e-07,1.0502838226095064e-06,1.6202084725422196e-05
5.155356788275829e-07,9.094870352642299e-07,1.0628529140918155e-06,1.6444023729122935e-05
5.196683609908172e-07,9.026761838608391e-07,1.0761086486426678e-06,1.6689467389095416e-05
5.238022223284802e-07,8.95565068963224e-07,1.089969296809228e-06,1.693720712775515e-05
5.279158666580267e-07,8.881758736543541e-07,1.1043487150229357e-06,1.7186129058950963e-05
5.319844551983964e-07,8.805274796953916e-07,1.1191617458265088e-06,1.7435117153957777e-05
5.359812172210455e-07,8.726351384692509e-07,1.1343277969401891e-06,1.7682956581080593e-05
5.398805938572948e-07,8.645106144155094e-07,1.1497716750580485e-06,1.7928330213403945e-05
5.436606582647942e-07,8.561623231405774e-07,1.1654229697239088e-06,1.8169926019011703e-05
5.473028000518471e-07,8.475956197982825e-07,1.1812148481847858e-06,1.840655589993583e-05
5.507906071723265e-07,8.388131544700326e-07,1.1970810516272592e-06,1.8637180881760736e-05
5.541096215808568e-07,8.298154651592506e-07,1.2129520985127886e-06,1.886085243721875e-05
5.572466077956883e-07,8.206036879397048e-07,1.228753041372745e-06,1.9076645376322972e-05
5.601879494064831e-07,8.111861850118251e-07,1.2444036708637236e-06,1.928362183535463e-05
5.629181905509129e-07,8.015855949047014e-07,1.2598211268730637e-06,1.948081941830968e-05
5.654194814702697e-07,7.918392940999552e-07,1.2749219658265286e-06,1.9667250821803038e-05
5.676720178954626e-07,7.819924714799306e-07,1.289621003932764e-06,1.984192793891627e-05
5.696547133567294e-07,7.720910548955801e-07,1.3038301144084072e-06,2.0003917000928765e-05
5.713453556511401e-07,7.621795263129152e-07,1.317461518374371e-06,2.015239859877032e-05
5.727205866259429e-07,7.523011178948683e-07,1.3304352808287176e-06,2.0286722254738908e-05
5.73756494449213e-07,7.424973284417791e-07,1.342686203178363e-06,2.0406470132115645e-05
5.744300147714853e-07,7.328074190791798e-07,1.3541647397482238e-06,2.051151661551743e-05
5.747214942176521e-07,7.23268840725688e-07,1.3648309896183e-06,2.0602029937452592e-05
5.746183691517624e-07,7.139188134188833e-07,1.3746464434003998e-06,2.0678380335737728e-05
5.741169418601607e-07,7.047962886644641e-07,1.38356914154521e-06,2.0740988932258808e-05
5.732195891463546e-07,6.959420618676889e-07,1.3915538180485588e-06,2.0790189509284048e-05
5.719308194758093e-07,6.873959773308712e-07,1.3985542557965521e-06,2.0826164411485528e-05
5.702563856210638e-07,6.791926595934336e-07,1.4045252605418114e-06,2.0848976359335213e-05
5.682040186235572e-07,6.713592393250863e-07,1.409424817601985e-06,2.085864876251878e-05
5.65783391030151e-07,6.639171687344138e-07,1.4132171001902348e-06,2.0855216828885456e-05
5.63005150954899e-07,6.568853442604287e-07,1.4158761654685262e-06,2.0838763833543602e-05
5.598796701667206e-07,6.502815287844305e-07,1.4173896047861844e-06,2.0809540251309465e-05
5.564169444754429e-07,6.441219397551989e-07,1.417758115801849e-06,2.0768111486244348e-05
5.526278799475593e-07,6.384188191217257e-07,1.41699197997535e-06,2.071534248927956e-05
5.48525380790556e-07,6.331772734510237e-07,1.4151141058956597e-06,2.0652221441297626e-05
5.441242371031048e-07,6.28394172136151e-07,1.4121709936287427e-06,2.0579691266581825e-05
5.394400802169286e-07,6.240587415395522e-07,1.4082411737994527e-06,2.0498608984171067e-05
5.344887016360872e-07,6.20153129527326e-07,1.4034330407846993e-06,2.0409919969018605e-05
5.292870946039464e-07,6.1665322536654e-07,1.3978725480238763e-06,2.0314980610575795e-05
5.238558892959799e-07,6.135295106916757e-07,1.391688012520675e-06,2.0215745405747728e-05
5.182203715741321e-07,6.107473558624804e-07,1.3849987640405164e-06,2.0114668478431705e-05
5.124081365724935e-07,6.082683287285401e-07,1.3779088894520006e-06,2.0014455755451403e-05
5.064457280872103e-07,6.060530657549667e-07,1.3705055762318562e-06,1.9917828183721115e-05
5.003567306163215e-07,6.040628440541833e-07,1.3628609256581786e-06,1.9827344106329292e-05
4.941610986251912e-07,6.02258785184926e-07,1.3550347762476105e-06,1.9745270771520868e-05
4.878759137717123e-07,6.006016249270665e-07,1.347077810357232e-06,1.967348797816268e-05
4.815179100906895e-07,5.990531579199271e-07,1.3390346061246584e-06,1.9613432367572792e-05
4.751059595164665e-07,5.975779465539125e-07,1.3309435748351577e-06,1.9566094652263612e-05
4.6866185361159115e-07,5.961451560577491e-07,1.3228329638581415e-06,1.9532045712267368e-05
4.6221107630371075e-07,5.947302350299388e-07,1.3147179983245173e-06,1.9511454821611685e-05
4.557846092333952e-07,5.933150340058795e-07,1.3066039568304858e-06,1.950410106109036e-05
4.494188956656546e-07,5.918864923714356e-07,1.298494006358046e-06,1.9509406316409428e-05
4.4315351077784816e-07,5.90435612733479e-07,1.2903964003856442e-06,1.9526506323212587e-05
4.3702951199706563e-07,5.889575354358621e-07,1.2823270210856137e-06,1.9554360610331282e-05
4.310882272278797e-07,5.874517514721678e-07,1.2743079202420229e-06,1.9591889363667468e-05
4.2536865418633496e-07,5.859206394409018e-07,1.2663638911664543e-06,1.9638105383953016e-05
4.199048567275815e-07,5.843673404657904e-07,1.258517485199265e-06,1.9692198161605933e-05
4.1472535945947377e-07,5.827959150889621e-07,1.2507844017292187e-06,1.975355264266353e-05
4.098537466542088e-07,5.812123133202724e-07,1.243172749560298e-06,1.982172753112077e-05
4.0530966935263965e-07,5.796240081816956e-07,1.2356857502946943e-06,1.9896427472415078e-05
4.011104121134483e-07,5.780398135290571e-07,1.2283233449038944e-06,1.9977479237163227e-05
3.972712926805451e-07,5.764693149853043e-07,1.2210812591536492e-06,2.0064787520024364e-05
3.9380418582000924e-07,5.749202050977917e-07,1.213951476856206e-06,2.015824484125207e-05
3.9071614834890753e-07,5.733954853556977e-07,1.206926686570854e-06,2.025762707726233e-05
3.880089576372643e-07,5.718927367222166e-07,1.2000055625610988e-06,2.0362551165700685e-05
3.85679053031401e-07,5.704060958004138e-07,1.1931927191556565e-06,2.0472521348069438e-05
3.837183997848789e-07,5.689310133714774e-07,1.1864917853734386e-06,2.058698922533397e-05
3.821168736060172e-07,5.674691197146662e-07,1.1798984483302044e-06,2.0705354736567404e-05
3.808643491516832e-07,5.660295479996543e-07,1.1733991885291278e-06,2.0826936718849053e-05
3.799507178384381e-07,5.64626700847053e-07,1.1669738990171398e-06,2.0950968562941186e-05
3.793654016946906e-07,5.632764215281607e-07,1.1605987384847898e-06,2.1076609830976047e-05
3.7909752351675883e-07,5.619919489935629e-07,1.1542476403833062e-06,2.1202954432895586e-05
3.791356497232232e-07,5.607817968181281e-07,1.1478939996736948e-06,2.1329076106859478e-05
3.7946682976049967e-07,5.59650531370564e-07,1.1415145958049002e-06,2.1454111843501625e-05
3.8007535769731155e-07,5.586000985055899e-07,1.1350930822170552e-06,2.1577300218104778e-05
3.809422135349456e-07,5.576301850896379e-07,1.1286200516467328e-06,2.1697952476198508e-05
3.8204655582481306e-07,5.567388753813238e-07,1.1220920390118028e-06,2.1815398618435427e-05
3.833679585486592e-07,5.559241350829218e-07,1.1155122935078115e-06,2.1928932710721345e-05
3.848862090743885e-07,5.55184681055254e-07,1.1088929978410554e-06,2.203777510084088e-05
3.865788759340413e-07,5.545191334746237e-07,1.102256353844462e-06,2.214105633416668e-05
3.8842043925609547e-07,5.539240546823253e-07,1.0956304611305657e-06,2.2237822595734405e-05
3.903848061145506e-07,5.533925616199936e-07,1.0890408131229314e-06,2.2327080145375127e-05
3.924486998786486e-07,5.529156303091527e-07,1.082505501925402e-06,2.2407865291150388e-05
3.945921829193626e-07,5.524856903102658e-07,1.076036864030904e-06,2.2479283965213048e-05
3.9679584747535577e-07,5.520984651765975e-07,1.0696427186977504e-06,2.2540504866665592e-05
3.9903831946312325e-07,5.5175124237726e-07,1.0633244475599213e-06,2.2590743272272518e-05
4.0129649295906603e-07,5.514404337393525e-07,1.0570756651227708e-06,2.262929772923106e-05
4.0354702382079455e-07,5.511624240604327e-07,1.0508825544384757e-06,2.265567785882876e-05
4.0576817554149383e-07,5.509200092873143e-07,1.0447262086813731e-06,2.266971262116416e-05
4.079423047254703e-07,5.507310329445584e-07,1.0385890669530978e-06,2.267152204590092e-05
4.1005775310208823e-07,5.506303586514541e-07,1.0324632098783979e-06,2.266142996820109e-05
4.121085905764951e-07,5.506616589650224e-07,1.0263550220637214e-06,2.263990107540476e-05
4.14091825231184e-07,5.508668300340662e-07,1.0202859530471238e-06,2.260748158202568e-05
4.1600414054976367e-07,5.512816322042391e-07,1.0142941468274615e-06,2.2564738030470386e-05
4.178413220312568e-07,5.519366786145057e-07,1.0084379339326837e-06,2.251221740132212e-05
4.1960044882398355e-07,5.528576148374529e-07,1.0027965535374596e-06,2.245043436784301e-05
4.2128185117742134e-07,5.540624881303809e-07,9.97464141733095e-07,2.2379870443040004e-05
4.2288825435309354e-07,5.555598777078927e-07,9.925367084439842e-07,2.2300972874989167e-05
4.244221422676704e-07,5.573507466454393e-07,9.880968796306172e-07,2.221415743225429e-05
4.258840893174117e-07,5.594332583004114e-07,9.842049810942663e-07,2.2119813517727795e-05
4.272723660668764e-07,5.618070995131626e-07,9.808991191338707e-07,2.20182989727538e-05
4.2858361503197203e-07,5.644740227399896e-07,9.781985319426105e-07,2.19099308632103e-05
4.2981509781169147e-07,5.67435602994392e-07,9.761061240547512e-07,2.179499033787228e-05
4.309670104008672e-07,5.706915483044705e-07,9.746104260725453e-07,2.167374166841867e-05
4.320429711284685e-07,5.74241570158361e-07,9.736869274030668e-07,2.1546440463932566e-05
4.330488266903891e-07,5.780928572704389e-07,9.73299366093742e-07,2.14133099300508e-05
4.339904996906066e-07,5.822692532955876e-07,9.734044694404305e-07,2.127452248447208e-05
4.3487219716242725e-07,5.868143987149884e-07,9.739621716597955e-07,2.1130227278871663e-05
4.3569670702965524e-07,5.917866178012105e-07,9.749468062421611e-07,2.0980580274993067e-05
4.3646694477604896e-07,5.972494550494975e-07,9.76352376898673e-07,2.0825734754004602e-05
4.371863663837093e-07,6.032632583963058e-07,9.781902993634e-07,2.0665827571101653e-05
4.3785765163738957e-07,6.098811844102089e-07,9.804832053128594e-07,2.0500998788405603e-05
4.38480801264225e-07,6.171476769095523e-07,9.832580212476778e-07,2.0331434135558373e-05
4.390523639111849e-07,6.250956838539774e-07,9.865394936740851e-07,2.0157407013947197e-05
4.395665963464322e-07,6.337429390854707e-07,9.903452518901793e-07,1.997931520348344e-05
4.4001733673147755e-07,6.430892718893695e-07,9.946823781787064e-07,1.9797705080598182e-05
4.4039866640759324e-07,6.531160479020816e-07,9.995449887886102e-07,1.961325946305803e-05
4.4070406236722106e-07,6.63788965238163e-07,1.004915383785177e-06,1.9426749026947204e-05
4.409253005415541e-07,6.750631743332586e-07,1.010769277837574e-06,1.9238971316925208e-05
4.410522325816271e-07,6.868876561486019e-07,1.0170791941733757e-06,1.9050688526590447e-05
4.410740427890632e-07,6.992078197210525e-07,1.0238124630337749e-06,1.8862583523372136e-05
4.409816152076577e-07,7.119669264213654e-07,1.0309278047232988e-06,1.867525156554197e-05
4.4076975851530755e-07,7.251068687989821e-07,1.0383752282080489e-06,1.8489192299991027e-05
4.4043801294837057e-07,7.385685190801841e-07,1.0460985748263602e-06,1.830476978108063e-05
4.399899104943611e-07,7.522913125591773e-07,1.0540372238780378e-06,1.812217478395524e-05
4.394327041747389e-07,7.662116796637563e-07,1.0621265676899821e-06,1.7941441856175658e-05
4.3877798783310573e-07,7.802609694728564e-07,1.0702989343706801e-06,1.776254909744563e-05
4.3804042881646e-07,7.943660076094849e-07,1.078484773510234e-06,1.7585552336621446e-05
4.372341435467201e-07,8.084549413077751e-07,1.086612516307955e-06,1.7410629255623588e-05
4.363698307942615e-07,8.224651538791177e-07,1.0946072161103932e-06,1.7238017355447313e-05
4.3545463230853346e-07,8.363471772364574e-07,1.102391299768247e-06,1.706795887448062e-05
4.3449346007378e-07,8.500619193943063e-07,1.109888998352404e-06,1.6900688799612014e-05
4.33490332812269e-07,8.63572768341143e-07,1.1170296524422586e-06,1.6736416304701873e-05
4.324493947903907e-07,8.768382036698747e-07,1.1237463796408888e-06,1.6575277322382235e-05
4.3137443130794154e-07,8.898112356746296e-07,1.1299746071067517e-06,1.641727894445426e-05
4.3026684852393525e-07,9.024458469495754e-07,1.1356535026183657e-06,1.6262279197240293e-05
4.2912446654063283e-07,9.147044975191551e-07,1.1407274174820324e-06,1.6110042175234442e-05
4.2794212035375793e-07,9.265606610033951e-07,1.1451481517595606e-06,1.5960360013670022e-05
4.267129295073178e-07,9.379948716493809e-07,1.1488806777401942e-06,1.581315205142873e-05
4.2543010042282726e-07,9.489884610312472e-07,1.151908648451427e-06,1.5668460663209767e-05
4.2409011303080523e-07,9.59521152336227e-07,1.1542364266220029e-06,1.5526382287042083e-05
4.226961637956503e-07,9.695731267804855e-07,1.1558900877280523e-06,1.5387003407860145e-05
4.212596148115614e-07,9.7912620033252e-07,1.1569163662176622e-06,1.5250381547550305e-05
4.19798499518995e-07,9.881619133591574e-07,1.1573737127486283e-06,1.5116627825515685e-05
4.183342335933884e-07,9.966595564982184e-07,1.1573178998087015e-06,1.4986041267773206e-05
4.168896022095187e-07,1.0045960939064017e-06,1.156792984365857e-06,1.4859162785324833e-05
4.1548903230905575e-07,1.011947165726854e-06,1.1558318749467516e-06,1.4736771481470813e-05
4.141581983232652e-07,1.0186878839294932e-06,1.154460181476991e-06,1.4619870847670487e-05
4.1292182106011357e-07,1.0247946080240105e-06,1.1526970194755324e-06,1.4509595146096696e-05
4.118019105417847e-07,1.0302510000509616e-06,1.150554178680875e-06,1.4407044841272613e-05
4.108166638362754e-07,1.0350566685316879e-06,1.148037910018327e-06,1.4313141302248056e-05
4.0998003759425116e-07,1.0392304576239456e-06,1.1451539630460884e-06,1.42285354314839e-05
4.093034864597796e-07,1.0428051244051858e-06,1.1419143527673028e-06,1.4153576140961526e-05
4.08797446990659e-07,1.0458194278046462e-06,1.1383431815234014e-06,1.4088341983265018e-05
4.084717102635425e-07,1.0483126275065657e-06,1.1344780694512855e-06,1.4032707153247448e-05
4.0833891461626247e-07,1.0503206507288412e-06,1.130366309157346e-06,1.3986393348998252e-05
4.084183795401278e-07,1.0518753364332257e-06,1.126057420259887e-06,1.3948993149203414e-05
4.087326693547837e-07,1.0530094154000472e-06,1.1215947765544122e-06,1.3919991895547985e-05
4.092994836765919e-07,1.0537645114548329e-06,1.117010386474993e-06,1.3898796459687812e-05
4.101275973560488e-07,1.0541968203104445e-06,1.112326011246154e-06,1.388474365626333e-05
4.112182500452181e-07,1.0543752968087583e-06,1.1075590219873246e-06,1.3877091675438367e-05
4.125674712325197e-07,1.0543717886681118e-06,1.1027274959218994e-06,1.3875048105131329e-05
4.1416720502287437e-07,1.0542516641805038e-06,1.0978505864491293e-06,1.3877848334571249e-05
4.160059765129719e-07,1.0540719994559843e-06,1.0929453023758386e-06,1.3884822443023798e-05
4.180694731695713e-07,1.0538828469328156e-06,1.0880236638695123e-06,1.3895405706851882e-05
4.203407539904921e-07,1.0537260857164538e-06,1.0830924295376734e-06,1.3909111190608395e-05
4.227999280730603e-07,1.0536366352752632e-06,1.078154411194154e-06,1.3925490896663947e-05
4.254241850746082e-07,1.0536501474905944e-06,1.0732093279242396e-06,1.39440919886828e-05
4.281904400143828e-07,1.0538100039711486e-06,1.068252834758185e-06,1.3964417453480435e-05
4.310803686738736e-07,1.0541666378418669e-06,1.0632747792109941e-06,1.398591170409645e-05
4.3408308360924146e-07,1.0547717164854055e-06,1.0582597783965638e-06,1.4007975397762878e-05
4.3719263201984585e-07,1.055672128468043e-06,1.0531908050662053e-06,1.4029978373513821e-05
4.4040350274713346e-07,1.05690720916699e-06,1.0480537310413428e-06,1.4051245500413806e-05
4.437075191349714e-07,1.0585147453081124e-06,1.0428396265132591e-06,1.4071038086513813e-05
4.470923099483529e-07,1.0605462246249178e-06,1.0375417501181374e-06,1.4088564660297491e-05
4.505420384456854e-07,1.0630799413388816e-06,1.0321494543505385e-06,1.410302434771308e-05
4.540400439858672e-07,1.0662218995734415e-06,1.0266450083320154e-06,1.4113677511320777e-05
4.575700021376684e-07,1.070095184299222e-06,1.021005025009218e-06,1.4119922228726648e-05
4.611153160528693e-07,1.074822474984593e-06,1.0152030773380471e-06,1.4121311346938613e-05
4.646592443803955e-07,1.0805072854593395e-06,1.009211725924309e-06,1.4117487741182026e-05
4.681856018274279e-07,1.0872223944445242e-06,1.003007279500747e-06,1.4108110097674033e-05
4.7167901696815604e-07,1.0950113657403042e-06,9.96577494536742e-07,1.4092841911363418e-05
4.7512396779456775e-07,1.1038985999452778e-06,9.899242770892357e-07,1.4071429794932294e-05
4.78502745381407e-07,1.1138969294866376e-06,9.83058891285499e-07,1.404382293235419e-05
4.817946786326562e-07,1.1250070696040426e-06,9.759984322695177e-07,1.4010203055451508e-05
4.849780743354455e-07,1.1372128489667195e-06,9.687678616717805e-07,1.3970884528855097e-05
4.880348827290319e-07,1.150478467577747e-06,9.614027197035685e-07,1.3926212539371646e-05
4.909558506961525e-07,1.1647477972576453e-06,9.539483190983172e-07,1.3876550154831014e-05
4.937409492103915e-07,1.1799437285487543e-06,9.464540839022408e-07,1.3822292658591147e-05
4.963942820893604e-07,1.1959707247694212e-06,9.389651085488607e-07,1.3763829592992826e-05
4.989190639167809e-07,1.212721377805986e-06,9.315164704034628e-07,1.3701476033064192e-05
5.013154223095681e-07,1.2300806591732395e-06,9.241327360995606e-07,1.3635439480672744e-05
5.035797942719644e-07,1.2479255455194122e-06,9.168309641636408e-07,1.3565832727498586e-05
5.057059799838001e-07,1.26612471596045e-06,9.096251918432173e-07,1.349271217629496e-05
5.076866786063747e-07,1.2845399597182646e-06,9.025299363644478e-07,1.3416122846647915e-05
5.09513110372487e-07,1.3030270871030093e-06,8.955600353824399e-07,1.3336111565363224e-05
5.11174312035599e-07,1.3214372857247123e-06,8.887279214616543e-07,1.3252711348591181e-05
5.126593879464072e-07,1.3396216178128994e-06,8.82043725731695e-07,1.3165951037661446e-05
5.139623009225835e-07,1.3574382984209158e-06,8.755183289732997e-07,1.3075933429766675e-05
5.150853103876937e-07,1.3747600204661809e-06,8.691625429351621e-07,1.2983009245783432e-05
5.16038645344881e-07,1.3914779331195386e-06,8.629827406451294e-07,1.2887937402572825e-05
5.168390827457749e-07,1.40749977643596e-06,8.569806903623127e-07,1.279182420073192e-05
5.175097997107447e-07,1.4227435696277631e-06,8.511593609639568e-07,1.2695902876080072e-05
5.180788289496638e-07,1.4371318297052618e-06,8.455298737855985e-07,1.2601389410925335e-05
5.185767049677929e-07,1.450590403928969e-06,8.401150993441045e-07,1.2509435951284465e-05
5.190378976238457e-07,1.4630504609263113e-06,8.349491917874288e-07,1.2421106320116526e-05
5.195028766710728e-07,1.474449423061689e-06,8.300762226912258e-07,1.2337368354135553e-05
5.200142367257335e-07,1.4847317040679115e-06,8.255490789178285e-07,1.2259103760164852e-05
5.206091833913972e-07,1.4938507160059332e-06,8.214253990377373e-07,1.2187170551891009e-05
5.213152716156472e-07,1.5017684629055957e-06,8.177594072390207e-07,1.212254429426651e-05
5.221509537700547e-07,1.5084523302004187e-06,8.145935325430777e-07,1.2066428367792414e-05
5.231275963717702e-07,1.5138740016386987e-06,8.119542653287163e-07,1.202020970471972e-05
5.242506175664071e-07,1.5180119103556887e-06,8.098525756731973e-07,1.198530407566839e-05
5.255199372086121e-07,1.5208528260282669e-06,8.082868639574878e-07,1.196299172203283e-05
5.269301464323877e-07,1.5223890834697494e-06,8.072484344526463e-07,1.1954286440022036e-05
5.284701298938285e-07,1.5226143055210273e-06,8.067283605053741e-07,1.1959877658535256e-05
5.301224662214572e-07,1.5215223290415687e-06,8.067213538872817e-07,1.1980159902978535e-05
5.318650362902179e-07,1.5191086721683687e-06,8.072256288556113e-07,1.2015298097416623e-05
5.336779100719293e-07,1.5153709701732831e-06,8.082424666327799e-07,1.2065279376054145e-05
5.355519213602402e-07,1.5103085952335587e-06,8.09777043056216e-07,1.2129943536366846e-05
5.374894157911745e-07,1.503923816511265e-06,8.118376983649262e-07,1.2208990339431004e-05
5.394975530863616e-07,1.4962245520387008e-06,8.144314831429594e-07,1.230197567251179e-05
5.415839413109145e-07,1.487227154148699e-06,8.175588063542154e-07,1.2408327701950982e-05
5.437556437695246e-07,1.4769572630161869e-06,8.21211300311092e-07,1.2527396175810154e-05
5.460167795216443e-07,1.4654485337641624e-06,8.253733449009834e-07,1.2658552356601147e-05
5.483657451983223e-07,1.4527422712616946e-06,8.30024544614686e-07,1.2801373573522033e-05
5.507944356692167e-07,1.4388892553198549e-06,8.351390919092951e-07,1.2955861970158545e-05
5.532891976837464e-07,1.4239499988661337e-06,8.406826870837663e-07,1.3122527076850255e-05
5.558328221399461e-07,1.4079914435449112e-06,8.466142002215434e-07,1.3302228417824173e-05
5.584071356993304e-07,1.3910844044131122e-06,8.528934777852209e-07,1.3495873793977604e-05
5.609947282177694e-07,1.3733035517278386e-06,8.59486814377186e-07,1.3704139895638276e-05
5.635777146644865e-07,1.3547258329911914e-06,8.66364254201815e-07,1.3927363703243826e-05
5.661358168790848e-07,1.3354271457805253e-06,8.734922080894581e-07,1.4165726341262603e-05
5.686489457166829e-07,1.3154805528309566e-06,8.808279885332728e-07,1.4419611531846753e-05
5.71102568977105e-07,1.294955927409907e-06,8.883192022435116e-07,1.4689763886586982e-05
5.734891521062445e-07,1.2739207277476784e-06,8.959065714874195e-07,1.4977097620888931e-05
5.758067344610283e-07,1.2524420435772996e-06,9.035272264749563e-07,1.5282404181149558e-05
5.780607600101051e-07,1.2305871945790324e-06,9.1111690889628e-07,1.5606183022263888e-05
5.80266246857415e-07,1.2084215209711977e-06,9.186119636710172e-07,1.5948578037852037e-05
5.824436584844265e-07,1.186006419723358e-06,9.25952654485684e-07,1.6309341799707098e-05
5.846115229605471e-07,1.1634002624135895e-06,9.330874621415308e-07,1.6687815720868797e-05
5.867823819307204e-07,1.1406604348697307e-06,9.399766427558168e-07,1.708293283893314e-05
5.889621018718865e-07,1.1178431619563825e-06,9.46593301220672e-07,1.7493230812561538e-05
5.91149680356736e-07,1.0950015145253924e-06,9.529198424211315e-07,1.7916884462203634e-05
5.933373062253063e-07,1.0721845931680073e-06,9.589417976758926e-07,1.8351775458137825e-05
5.955118886224144e-07,1.049437499683018e-06,9.646473432178073e-07,1.879556566895937e-05
5.976579604632428e-07,1.0268002567637615e-06,9.700346234480088e-07,1.9245735634443022e-05
5.997601456442882e-07,1.004307655432637e-06,9.751180391354214e-07,1.9699612501841668e-05
6.018045184234418e-07,9.81992162043308e-07,9.799270008441255e-07,2.0154424535834642e-05
6.037797782088115e-07,9.598882954016994e-07,9.844981716386149e-07,2.06073668161773e-05
6.056774027436496e-07,9.380364046329727e-07,9.888655065832914e-07,2.1055653635752576e-05
6.074898391115536e-07,9.16483672813542e-07,9.930530033900502e-07,2.1496573184686735e-05
6.092082921437605e-07,8.952798278367361e-07,9.970726085970681e-07,2.1927548831140367e-05
6.108219576894674e-07,8.744707854675724e-07,1.0009264880497964e-06,2.234616848032375e-05
6.123182570061107e-07,8.540960367467766e-07,1.004609956917139e-06,2.2750172047668037e-05
6.136821502298106e-07,8.341889407689101e-07,1.0081120348659209e-06,2.3137438654573974e-05
6.148950713218922e-07,8.14776384423729e-07,1.0114160559085234e-06,2.3505985886333765e-05
6.159354864747587e-07,7.958785183912829e-07,1.0145024874728136e-06,2.3853951522564137e-05
6.167802835111034e-07,7.775105700745513e-07,1.0173516990593162e-06,2.4179562136974546e-05
6.174054000277342e-07,7.596850798299273e-07,1.0199448334680705e-06,2.4481134101922368e-05
6.177859557727683e-07,7.424121357405366e-07,1.022262638569647e-06,2.4757113718197863e-05
6.178965522099253e-07,7.256995756335446e-07,1.0242839970237283e-06,2.5006111641145145e-05
6.177122797663343e-07,7.095561716147642e-07,1.0259860199891278e-06,2.522691472311216e-05
6.172111532147197e-07,6.939957413583689e-07,1.0273456285871493e-06,2.5418497484513026e-05
6.163769806463456e-07,6.790379917608262e-07,1.0283440070651142e-06,2.558004388874809e-05
6.152003071385049e-07,6.647056409148072e-07,1.0289723272470714e-06,2.57109596664883e-05
6.136789121774917e-07,6.510198730573931e-07,1.0292318290674215e-06,2.581084032269581e-05
6.11821230397354e-07,6.379970108916258e-07,1.029128110338968e-06,2.58793997431772e-05
6.096494187418125e-07,6.256491500258009e-07,1.0286660565583149e-06,2.591642085578537e-05
6.071967601020442e-07,6.139864785045685e-07,1.0278467268023886e-06,2.592177285107176e-05
6.045024963613978e-07,6.030163389987089e-07,1.026664825687567e-06,2.589547712390796e-05
6.016089886871573e-07,5.927397732399178e-07,1.0251085172474694e-06,2.583779093194003e-05
5.985587254482026e-07,5.831500966808448e-07,1.0231628901591379e-06,2.5749287885550306e-05
5.953893629844592e-07,5.742352117721086e-07,1.0208151291648053e-06,2.563088008713857e-05
5.921303865029176e-07,5.659826687482609e-07,1.018057800832525e-06,2.5483731691066002e-05
5.888029443546376e-07,5.583853905061058e-07,1.0148881491702243e-06,2.53091117332904e-05
5.854216187309226e-07,5.514454482300417e-07,1.0113048823629783e-06,2.5108293079955525e-05
5.819977491013407e-07,5.451752546110752e-07,1.0073058543668459e-06,2.488253386902131e-05
5.785428746705638e-07,5.39595918394455e-07,1.0028888410805745e-06,2.463308294978012e-05
5.750689214457467e-07,5.3473219212553e-07,9.980544168732815e-07,2.436116459415372e-05
5.715854170790262e-07,5.30608032229424e-07,9.928078301093152e-07,2.4067984225492663e-05
5.680984548402709e-07,5.27246852043186e-07,9.87159695015806e-07,2.3754847162402373e-05
5.646124587648103e-07,5.246741461795306e-07,9.8112770142328e-07,2.342340588717626e-05
5.61132067788184e-07,5.229186047366272e-07,9.747376872954777e-07,2.307584912746281e-05
5.576636406393623e-07,5.220100492382232e-07,9.680212009000484e-07,2.2714815484302373e-05
5.54215922195034e-07,5.219756023266453e-07,9.610113117559136e-07,2.234309199508497e-05
5.507984396319696e-07,5.228381228139457e-07,9.537397070662886e-07,2.1963339233375734e-05
5.474195901132918e-07,5.246169571784638e-07,9.462350035147293e-07,2.157801682946625e-05
5.440876047138288e-07,5.273261347904645e-07,9.385209966822693e-07,2.1189574224453767e-05
5.408126798671912e-07,5.309691244098708e-07,9.306150034143871e-07,2.080077034143808e-05
5.376058287203595e-07,5.355359188173229e-07,9.2252732268906e-07,2.041482958170681e-05
5.344747838507373e-07,5.410062306905324e-07,9.142623243971407e-07,2.003533764751524e-05
5.314215915290277e-07,5.473553925222743e-07,9.058211589395023e-07,1.9666040806622368e-05
5.284439396950087e-07,5.545581107903126e-07,8.972060512181362e-07,1.9310677509119228e-05
5.255378701492971e-07,5.625905940155615e-07,8.884262591365709e-07,1.897284337065596e-05
5.226985765286189e-07,5.714370549399414e-07,8.795045298336815e-07,1.8655877195848945e-05
5.199190254601964e-07,5.811014083759828e-07,8.704797979232309e-07,1.836277079107144e-05
5.171889224149354e-07,5.916123841162857e-07,8.614030050174852e-07,1.8096095400682418e-05
5.144951740365305e-07,6.030133061534367e-07,8.523288616262259e-07,1.785794154052655e-05
5.118234803860475e-07,6.153439656195854e-07,8.433082987927438e-07,1.764986871005227e-05
5.09160501893921e-07,6.286266968833778e-07,8.343840138152156e-07,1.7472862150982064e-05
5.064946757470893e-07,6.428609184713741e-07,8.255891773467541e-07,1.732731943786529e-05
5.03815055792164e-07,6.580238873853808e-07,8.169480671344556e-07,1.7213087536786592e-05
5.011105903191936e-07,6.740758061940876e-07,8.084777618639555e-07,1.7129550273023448e-05
4.983707003050521e-07,6.90967910381332e-07,8.001896814738408e-07,1.7075767113595253e-05
4.955855582178077e-07,7.086496003757897e-07,7.92090324989884e-07,1.705064153711857e-05
4.927457807734401e-07,7.270725638729064e-07,7.841827718563983e-07,1.70530573476111e-05
4.89842957097677e-07,7.461918411973752e-07,7.764684134869909e-07,1.708194823886092e-05
4.8687082415582e-07,7.659628695650363e-07,7.689469927505981e-07,1.713633599386269e-05
4.838248767331586e-07,7.863361496645718e-07,7.616161240913028e-07,1.72153692706922e-05
4.807003886084903e-07,8.072528703285455e-07,7.54470998676969e-07,1.7318341798559063e-05
4.774916194284281e-07,8.286440550301041e-07,7.475037958473946e-07,1.7444671772628018e-05
4.74193801443974e-07,8.504338879845939e-07,7.40704025045897e-07,1.7593857813217027e-05
4.7080586688532705e-07,8.725426075661318e-07,7.340610440412193e-07,1.7765414555636052e-05
4.6733084402500926e-07,8.948843960212417e-07,7.275676563908309e-07,1.7958757217004627e-05
4.6377454327703525e-07,9.173630813568466e-07,7.212217608434205e-07,1.8173042371067647e-05
4.601443722539851e-07,9.398706666120278e-07,7.150261107716031e-07,1.840705088368095e-05
4.56448552224246e-07,9.622897810253724e-07,7.089887236117994e-07,1.8659171866438607e-05
4.526965805497861e-07,9.844995077662805e-07,7.031224731377254e-07,1.892745895545662e-05
4.4890001333719434e-07,1.0063840558939828e-06,6.974420742181857e-07,1.9209717987675687e-05
4.450713696879987e-07,1.0278421335292156e-06,6.919615370551114e-07,1.9503603281058748e-05
4.412225480475475e-07,1.0487932882443705e-06,6.866940389149477e-07,1.9806695065421607e-05
4.3736481607418954e-07,1.0691786242588577e-06,6.816510443029705e-07,2.0116532569816266e-05
4.3350912937732246e-07,1.0889563807628932e-06,6.768393412231764e-07,2.043060796901849e-05
4.2966568537977927e-07,1.1080938030603461e-06,6.72259933179348e-07,2.0746352931038172e-05
4.2584401393210725e-07,1.1265581870993248e-06,6.679110971770825e-07,2.106113673656791e-05
4.2205456278833926e-07,1.1443137597800886e-06,6.63791883064529e-07,2.1372279431008576e-05
4.183102018339187e-07,1.1613275957707894e-06,6.599016104871527e-07,2.1677097175854666e-05
4.146249655208753e-07,1.1775779342522392e-06,6.562382918406429e-07,2.1973008691098786e-05
4.1101068168919747e-07,1.1930568369264768e-06,6.528005481566598e-07,2.225765898783953e-05
4.074755278481924e-07,1.2077663906955171e-06,6.495892509819857e-07,2.252894532294466e-05
4.040264545579114e-07,1.2217114551740926e-06,6.466072148596291e-07,2.2784948065589638e-05
4.006733303949104e-07,1.2348915036485892e-06,6.438623814553461e-07,2.3023909985563346e-05
3.9743282086872397e-07,1.2472946930183008e-06,6.413737492498403e-07,2.324431361227496e-05
3.943306314668525e-07,1.2588963641945595e-06,6.391740365011695e-07,2.3444945312136648e-05
3.9139835009286924e-07,1.2696611697714714e-06,6.373071185551993e-07,2.3624865180465867e-05
3.886657265476164e-07,1.2795480887599069e-06,6.358228273156719e-07,2.3783321685885e-05
3.861558196210702e-07,1.2885177191224694e-06,6.347736165648189e-07,2.3919718360740907e-05
3.838850891258231e-07,1.296537659419663e-06,6.342141750409268e-07,2.4033730854500524e-05
3.818644173957285e-07,1.3035820795769804e-06,6.341998581523591e-07,2.412547501527947e-05
3.800994257102329e-07,1.309627562011645e-06,6.347809573760882e-07,2.4195488978204005e-05
3.785905065572486e-07,1.3146500939283998e-06,6.359960797794466e-07,2.4244522065990085e-05
3.773331817603245e-07,1.3186250575442516e-06,6.378701551310482e-07,2.427332002073541e-05
3.763205017692079e-07,1.3215286938622569e-06,6.404167364082825e-07,2.4282531038264678e-05
3.7554684976666726e-07,1.3233397534122221e-06,6.436395420514389e-07,2.4272815542891144e-05
3.7500896757260595e-07,1.3240409256094494e-06,6.475314813451377e-07,2.424514183214846e-05
3.747031232312807e-07,1.3236194546970649e-06,6.520739058183791e-07,2.420102447843173e-05
3.7462246466722743e-07,1.322067263964583e-06,6.572377978638322e-07,2.4142501010571785e-05
3.7475736572673603e-07,1.3193815589548944e-06,6.629852323897118e-07,2.4071937065983372e-05
3.750971299627568e-07,1.315565641611927e-06,6.692696471455914e-07,2.3991840767707206e-05
3.7563017851061866e-07,1.3106281866027984e-06,6.760355803859506e-07,2.3904727861285397e-05
3.763428984570393e-07,1.3045814208630121e-06,6.832189687467658e-07,2.381300082976963e-05
3.7722066946743114e-07,1.2974406237295505e-06,6.907489813138817e-07,2.3718837844431047e-05
3.7825155934840104e-07,1.2892242521023256e-06,6.985520651329484e-07,2.362412210203659e-05
3.794273103780173e-07,1.2799540013748694e-06,7.065566611117536e-07,2.353042415389916e-05
3.8073962652586243e-07,1.2696569013834655e-06,7.146958323596761e-07,2.3439015138823372e-05
3.821766837881301e-07,1.258369821620625e-06,7.229073357812208e-07,2.3350873285026566e-05
3.8372249037968017e-07,1.2461449547962536e-06,7.311322726451177e-07,2.3266662005781852e-05
3.853579399913621e-07,1.2330544972361895e-06,7.39314461431208e-07,2.318671060534636e-05
3.870628070891685e-07,1.2191904392439902e-06,7.474013372175358e-07,2.311104644227545e-05
3.888170772604985e-07,1.2046565727926734e-06,7.553432795105008e-07,2.303947957653569e-05
3.9060062010789563e-07,1.1895569180596735e-06,7.63090880102682e-07,2.297170898353966e-05
3.9239316691184953e-07,1.1739870602704913e-06,7.705931559991515e-07,2.290741811130652e-05
3.9417548195472066e-07,1.158030353388106e-06,7.777973377523217e-07,2.2846333066204683e-05
3.95929588000269e-07,1.1417581027090651e-06,7.846500479467229e-07,2.2788253131233882e-05
3.976379983352617e-07,1.125232629031978e-06,7.91100210627147e-07,2.273308148586412e-05
3.9928477172715847e-07,1.1085128473143254e-06,7.971027166779679e-07,2.268084038258221e-05
4.0085736491089566e-07,1.0916602025438887e-06,8.026207278970227e-07,2.2631645535368728e-05
4.0234649864449636e-07,1.074738998575363e-06,8.076253711005957e-07,2.2585665451052977e-05
4.0374671438492776e-07,1.0578099654086291e-06,8.120943040738724e-07,2.2543088760728697e-05
4.050584971857389e-07,1.0409244783087856e-06,8.160113989808117e-07,2.2504068632439003e-05
4.062866910938944e-07,1.0241246450245085e-06,8.193675785129714e-07,2.2468634440052427e-05
4.074353386636447e-07,1.0074485235670342e-06,8.221604345177668e-07,2.2436629408869e-05
4.0850478105316293e-07,9.909399737486977e-07,8.243909190759229e-07,2.2407698925878308e-05
4.094923083492967e-07,9.746616836211112e-07,8.260594634827425e-07,2.2381285795689467e-05
4.103939302413349e-07,9.587047342502485e-07,8.27164520380272e-07,2.2356624385778257e-05
4.112057837827828e-07,9.431875647660088e-07,8.277036654197369e-07,2.2332764113940523e-05
4.11926040833087e-07,9.282441623237484e-07,8.276769132856599e-07,2.230863420977023e-05
4.1255869024142434e-07,9.140080468579113e-07,8.270913925020733e-07,2.2283166877948458e-05
4.131157886833534e-07,9.005984965991274e-07,8.259650748465663e-07,2.22554623703449e-05
4.136138774893818e-07,8.881121570717899e-07,8.243271395518006e-07,2.2224880912007706e-05
4.1406793054667857e-07,8.766206440967569e-07,8.222134851103371e-07,2.219099499832701e-05
4.1448917927614533e-07,8.661720481657774e-07,8.196603163858902e-07,2.2153502400236762e-05
4.148878953278136e-07,8.56795716135918e-07,8.167015947413849e-07,2.2112187836421304e-05
4.152774307793085e-07,8.485112969725006e-07,8.133695637187035e-07,2.206688654151033e-05
4.156750941084225e-07,8.413366324185354e-07,8.09693857383792e-07,2.201740121278549e-05
4.160992431904778e-07,8.35287929470958e-07,8.057005435884472e-07,2.196342377980885e-05
4.165658474513849e-07,8.303749102782156e-07,8.014136825957198e-07,2.1904544959021274e-05
4.1708651253353783e-07,8.265973758102308e-07,7.968572982228127e-07,2.1840369165912853e-05
4.1766774010575007e-07,8.23946599309171e-07,7.920549635252932e-07,2.1770657497206413e-05
4.1831110892018275e-07,8.224110592812498e-07,7.870278560545093e-07,2.1695391107233983e-05
4.190141547531804e-07,8.219820257067084e-07,7.817939669759827e-07,2.16147335769294e-05
4.19771566913864e-07,8.226542117453478e-07,7.763691262763537e-07,2.1528941430450907e-05
4.205760886922777e-07,8.244205027364355e-07,7.707682615558626e-07,2.143827119293738e-05
4.2141875015629843e-07,8.272645655577287e-07,7.650050666297646e-07,2.1342937854339528e-05
4.222891093766552e-07,8.311560338236443e-07,7.590901848368127e-07,2.1243136278261828e-05
4.2317646636939493e-07,8.360498764985216e-07,7.530295980398416e-07,2.1139077642956733e-05
4.240711719393167e-07,8.418891703127232e-07,7.468245072403841e-07,2.1031001541835384e-05
4.249645457812877e-07,8.486087205341995e-07,7.404728788462607e-07,2.091916156685467e-05
4.258481383817028e-07,8.561366954587791e-07,7.33971305241402e-07,2.080380978975476e-05
4.26713549396445e-07,8.643943784580145e-07,7.273158987633356e-07,2.0685184878246734e-05
4.2755233250320743e-07,8.732964781012449e-07,7.205025672874686e-07,2.056350245429525e-05
4.283550974105608e-07,8.827523167892665e-07,7.135272637911282e-07,2.043899112724497e-05
4.291104157885118e-07,8.926663102112362e-07,7.063862490704934e-07,2.031199364103801e-05
4.298050028243393e-07,9.029375979691419e-07,6.990768378528369e-07,2.0183049650357725e-05
4.3042474822654286e-07,9.134595575343832e-07,6.915990458005496e-07,2.0052861565327952e-05
4.3095507037168076e-07,9.241202795371351e-07,6.83957710749114e-07,1.9922167953441407e-05
4.313812757743165e-07,9.348049344130892e-07,6.761655058203589e-07,1.979162981607624e-05
4.3169077141168105e-07,9.454000767149364e-07,6.682473101426441e-07,1.9661773130198225e-05
4.318765239709493e-07,9.557994264152245e-07,6.602450364791997e-07,1.953296861723602e-05
4.3193868826521723e-07,9.65908260096365e-07,6.522213473233832e-07,1.9405465839407194e-05
4.318832096304826e-07,9.756430194321557e-07,6.44258787961955e-07,1.9279495984471758e-05
4.3171960664848615e-07,9.849283506073544e-07,6.364520901301221e-07,1.915537157151005e-05
4.314600562373168e-07,9.936954031992794e-07,6.288972929387812e-07,1.9033510265883185e-05
4.311200653019056e-07,1.001880318916605e-06,6.216825302685399e-07,1.891440360103276e-05
4.307189075887023e-07,1.0094225315054348e-06,6.148816027644218e-07,1.879858893813601e-05
4.30278262436045e-07,1.016264943902307e-06,6.085508837075032e-07,1.8686630751773976e-05
4.298208039088732e-07,1.022354575621405e-06,6.027309993859412e-07,1.857908864939651e-05
4.2936942248399246e-07,1.0276418216259632e-06,5.974510747176859e-07,1.8476518223655205e-05
4.2894512001766796e-07,1.032079869692322e-06,5.927315215711621e-07,1.8379601442613386e-05
4.2856440955537295e-07,1.0356253532024888e-06,5.88586337495488e-07,1.8289391276541048e-05
4.28238706758081e-07,1.0382392556981917e-06,5.850265191158013e-07,1.820748141992393e-05
4.2797569890220154e-07,1.0398873494427502e-06,5.820631497220415e-07,1.8135932044540327e-05
4.277812547524714e-07,1.0405416139167771e-06,5.797111581590611e-07,1.807699276736768e-05
4.276602967544136e-07,1.0401844963376886e-06,5.779942175125015e-07,1.80327873197162e-05
4.276164773922613e-07,1.0388137601055772e-06,5.769475667004203e-07,1.8005078358729866e-05
4.276532471035405e-07,1.0364433504193995e-06,5.766177263676324e-07,1.7995225471903273e-05
4.277768519018091e-07,1.03310002475075e-06,5.770607482756234e-07,1.8004434762071663e-05
4.2799780384539425e-07,1.0288186358729788e-06,5.783388666455304e-07,1.8034104547758865e-05
4.283289472710021e-07,1.023637687358069e-06,5.805131396391122e-07,1.808590605049868e-05
4.287818375010881e-07,1.0175970099862562e-06,5.836326827541912e-07,1.8161593993961264e-05
4.293646665471549e-07,1.0107381140091894e-06,5.87726341493917e-07,1.8262790499611583e-05
4.3008273115416487e-07,1.0031039019982383e-06,5.928002179251693e-07,1.8390833277992527e-05
4.309383482108979e-07,9.94736262050909e-07,5.988388471264276e-07,1.854667429737897e-05
4.31928938611687e-07,9.85674282774277e-07,6.05808079430975e-07,1.873081534210592e-05
4.330461435298128e-07,9.759546895288352e-07,6.13660224150869e-07,1.894326287272608e-05
4.3427712967913456e-07,9.656129855843474e-07,6.223413216841346e-07,1.91835133123182e-05
4.35606357869288e-07,9.546832544833138e-07,6.317967947781861e-07,1.9450579221010583e-05
4.3701632101600217e-07,9.431970169752735e-07,6.419715298501854e-07,1.974303151744004e-05
4.384875762637451e-07,9.311848806095841e-07,6.528071117590275e-07,2.0059036365860524e-05
4.399997979625818e-07,9.186843057420677e-07,6.642415891901327e-07,2.0396386595790444e-05
4.415333184830659e-07,9.057492297420132e-07,6.762114296523384e-07,2.075254292557867e-05
4.4306925992410603e-07,8.924514292087393e-07,6.886527028962698e-07,2.1124710355021915e-05
4.445893479119359e-07,8.788712755421202e-07,7.015002532597723e-07,2.1509939661829792e-05
4.460765813704502e-07,8.650864475630352e-07,7.14685296691638e-07,2.19052084237088e-05
4.4751617484344504e-07,8.511660262415102e-07,7.281335159558073e-07,2.2307469836703548e-05
4.488967740621521e-07,8.371706536655479e-07,7.417645687360762e-07,2.271369633531705e-05
4.502107959995759e-07,8.231568877081157e-07,7.554923824065753e-07,2.312092344391528e-05
4.5145215839603844e-07,8.091824516714381e-07,7.692262519407616e-07,2.3526272276030584e-05
4.526131649844218e-07,7.953079649879332e-07,7.828725270082634e-07,2.3926947938300132e-05
4.5368372899864723e-07,7.815951247917824e-07,7.963362766419075e-07,2.432023152340298e-05
4.546537022314703e-07,7.68104831449149e-07,8.095227505559081e-07,2.4703471597925835e-05
4.5551662680940524e-07,7.548970394521423e-07,8.223382861875593e-07,2.507408547184796e-05
4.56270914959795e-07,7.420340508889907e-07,8.34690781362848e-07,2.5429608610802092e-05
4.569169234436616e-07,7.295859032687175e-07,8.464906626766802e-07,2.576777740839238e-05
4.574543056354793e-07,7.17631281401774e-07,8.576526723169704e-07,2.608654908724324e-05
4.578822275540266e-07,7.062516084491859e-07,8.680989716253725e-07,2.6384037046378172e-05
4.5820016563493174e-07,6.955224854707057e-07,8.777639484436309e-07,2.665844899847809e-05
4.584079646305786e-07,6.855075785594799e-07,8.865978059828783e-07,2.690808326337149e-05
4.5850644700672075e-07,6.762584773989193e-07,8.945649115693951e-07,2.713137127394439e-05
4.584991628165826e-07,6.678198870273176e-07,9.016380519644553e-07,2.7326916309653048e-05
4.5839329850951035e-07,6.602365566057173e-07,9.077941426396322e-07,2.7493483725008256e-05
4.58198704453411e-07,6.535589624479015e-07,9.130134218104643e-07,2.7629996075297553e-05
4.57926004025176e-07,6.478439866763292e-07,9.172788804894389e-07,2.773562298572749e-05
4.575846487253548e-07,6.431478375661557e-07,9.205749975153143e-07,2.7809908284261565e-05
4.5718256801304634e-07,6.39515739477878e-07,9.228882984986178e-07,2.785279079598114e-05
4.5672739082971287e-07,6.369764099965861e-07,9.242093778786364e-07,2.7864515756672602e-05
4.5622613445076114e-07,6.355433814576258e-07,9.245343063114752e-07,2.7845532872379413e-05
4.556829987035158e-07,6.352195734053293e-07,9.238653272479422e-07,2.7796407066402307e-05
4.5509846419544156e-07,6.360012664171717e-07,9.222107320937496e-07,2.7717753836589928e-05
4.544702838615757e-07,6.378790838357397e-07,9.195833187759134e-07,2.7610237150728832e-05
4.537945669357938e-07,6.408359329394517e-07,9.159979236704432e-07,2.747459588081286e-05
4.5306702424434717e-07,6.44844417148226e-07,9.114701657043188e-07,2.7311631432981853e-05
4.522844883662208e-07,6.498661628125809e-07,9.060196609735784e-07,2.7122161549363397e-05
4.5144576232924527e-07,6.558548000525367e-07,8.99677616889957e-07,2.6906986951204698e-05
4.5055163293831643e-07,6.627617467302589e-07,8.924929860126161e-07,2.6666919840636347e-05
4.4960407289745645e-07,6.705395505515166e-07,8.845312321210115e-07,2.640295626814121e-05
4.4860500044669724e-07,6.791410427425222e-07,8.758659443336223e-07,2.611657681733688e-05
4.4755519679877045e-07,6.885189473305911e-07,8.665694381295771e-07,2.580990786145696e-05
4.464545348088133e-07,6.986273178837936e-07,8.567079203151598e-07,2.548554766917903e-05
4.453042934139136e-07,7.094206404800052e-07,8.463414411088205e-07,2.514629027561731e-05
4.441083108094351e-07,7.208492917888976e-07,8.355251731878169e-07,2.4795027851534524e-05
4.4287075961087894e-07,7.328550402938184e-07,8.243097090665438e-07,2.443475666994827e-05
4.4159372612990043e-07,7.453693912052978e-07,8.12741748221203e-07,2.406854099783737e-05
4.4027727991348093e-07,7.583145286621492e-07,8.008659529772005e-07,2.3699441486494475e-05
4.3892198229108494e-07,7.716053387106672e-07,7.887253126562261e-07,2.3330431290796685e-05
4.375317778813283e-07,7.851520327093064e-07,7.763593591938479e-07,2.296430578900912e-05
4.361141142798582e-07,7.988647634464215e-07,7.638030103127792e-07,2.2603607443761968e-05
4.3467710072930404e-07,8.126581226539789e-07,7.510874408455711e-07,2.225057653631157e-05
4.3322666215080435e-07,8.264511909304781e-07,7.382434697502809e-07,2.190711267039305e-05
4.317659183459737e-07,8.401664486719059e-07,7.253078723358239e-07,2.157473838684405e-05
4.3029615103626926e-07,8.537330056079114e-07,7.123296978362727e-07,2.125458300680127e-05
4.2881768572881046e-07,8.670915616051636e-07,6.993711781548156e-07,2.0947405747315725e-05
4.273307006445618e-07,8.801954364188673e-07,6.865011728452462e-07,2.0653653481336786e-05
4.2583601780944095e-07,8.930064635252497e-07,6.737864317081541e-07,2.03735164094788e-05
4.24335237163274e-07,9.054894033353401e-07,6.612880455106552e-07,2.0106954147799263e-05
4.2283065361573977e-07,9.176083708512009e-07,6.490648679416101e-07,1.9853707888110032e-05
4.2132548167490113e-07,9.293267856007364e-07,6.371804639310949e-07,1.9613324189505546e-05
4.198248767239079e-07,9.406106589195187e-07,6.257082839108428e-07,1.938519693197578e-05
4.1833785559471017e-07,9.514306954198044e-07,6.147321998723984e-07,1.916861854664034e-05
4.1687723704381473e-07,9.617593829267907e-07,6.043437589918839e-07,1.8962828983862088e-05
4.154558745960416e-07,9.715666036935447e-07,5.946366803194554e-07,1.876705593143308e-05
4.140844363391741e-07,9.80819404075041e-07,5.856988392280982e-07,1.8580550061111373e-05
4.127757699807723e-07,9.894852308273564e-07,5.776052643203736e-07,1.8402615243608068e-05
4.115504836500285e-07,9.975336095133158e-07,5.704142907974471e-07,1.823261680123108e-05
4.10435443954161e-07,1.0049361641110284e-06,5.641672696570202e-07,1.8069960668136406e-05
4.094579786493493e-07,1.0116693719862269e-06,5.588928337916571e-07,1.791406316637264e-05
4.086433740117289e-07,1.0177192404877408e-06,5.546126128705254e-07,1.776433587559803e-05
4.080148876896093e-07,1.0230824810035015e-06,5.51342839484916e-07,1.7620186447175638e-05
4.075919487878474e-07,1.0277633269511723e-06,5.490929549710903e-07,1.7481020677809048e-05
4.073872442971661e-07,1.0317694351338932e-06,5.478683765098311e-07,1.7346253294595313e-05
4.074053575887515e-07,1.0351088350029574e-06,5.476790645593962e-07,1.721533555784875e-05
4.0764348980085093e-07,1.0377877794964209e-06,5.485469553810711e-07,1.7087767892702655e-05
4.0809355913364967e-07,1.0398095032409515e-06,5.505075011286626e-07,1.6963093214941418e-05
4.0874371523746756e-07,1.0411758004629069e-06,5.536065441060458e-07,1.6840905965240617e-05
4.095781685577961e-07,1.0418928390133906e-06,5.578940590520209e-07,1.6720856806651625e-05
4.1057723602837523e-07,1.0419773797850167e-06,5.634166158455803e-07,1.660263849689366e-05
4.117183050483186e-07,1.0414571687369567e-06,5.702108049140721e-07,1.6485985775569838e-05
4.1297647928997063e-07,1.0403651254527508e-06,5.782968254895684e-07,1.637065956579556e-05
4.143251943866282e-07,1.0387331617140916e-06,5.876723751047413e-07,1.6256391628466142e-05
4.1573815248043276e-07,1.0365911059933028e-06,5.98310172456482e-07,1.6142859128251097e-05
4.171923840347671e-07,1.0339705396517698e-06,6.101595741167247e-07,1.6029721468499606e-05
4.186695364692516e-07,1.0309084605093005e-06,6.231499578258237e-07,1.5916686628341645e-05
4.201541017680296e-07,1.027447183951142e-06,6.371945186264717e-07,1.5803594015772203e-05
4.216314518128515e-07,1.0236306977603134e-06,6.521944856688038e-07,1.5690471644966667e-05
4.2308694480635815e-07,1.019499562139146e-06,6.680449870879874e-07,1.5577491801302628e-05
4.245051477378984e-07,1.0150875258898022e-06,6.846421086413882e-07,1.5464859915381804e-05
4.258700051198937e-07,1.0104218919979755e-06,7.018899287109467e-07,1.535277631828927e-05
4.271662964730515e-07,1.005526236325765e-06,7.19706881881216e-07,1.524149511997118e-05
4.2838032658303225e-07,1.000424263187947e-06,7.380261125379954e-07,1.5131344542180366e-05
4.2949876427403347e-07,9.951457990992716e-07,7.567864556718265e-07,1.5022641760436276e-05
4.3050748530336283e-07,9.897328970385263e-07,7.759213520646169e-07,1.4915604968413074e-05
4.313927673497504e-07,9.84241128933422e-07,7.95353460796976e-07,1.4810406980940573e-05
4.321452823923705e-07,9.787339671744938e-07,8.149958050877682e-07,1.470737967532204e-05
4.327638442097108e-07,9.732731275145313e-07,8.347573925860454e-07,1.4607172236597769e-05
4.3325514575645846e-07,9.67910399433674e-07,8.545494031805155e-07,1.4510692783451776e-05
4.3363288039307746e-07,9.62684068779273e-07,8.742871403731922e-07,1.4418920656076035e-05
4.339208315835538e-07,9.576191867291506e-07,8.938868744021711e-07,1.4332746785067307e-05
4.3415375463094967e-07,9.527296794132915e-07,9.132620415718195e-07,1.4252903920866297e-05
4.343702993631383e-07,9.480208449484208e-07,9.323226878699444e-07,1.418007198363757e-05
4.346045758332135e-07,9.434927584131628e-07,9.509769843194496e-07,1.4115159412264904e-05
4.348841953700013e-07,9.391454438753927e-07,9.691327976691588e-07,1.4059516098603477e-05
4.352337650216004e-07,9.349833311882075e-07,9.866992003001369e-07,1.4014892922948868e-05
4.356786457909288e-07,9.310150729349294e-07,1.0035870088966823e-06,1.3983249299627411e-05
4.3624680164325095e-07,9.272498329190658e-07,1.0197079430223859e-06,1.39665542400444e-05
4.3696863242141545e-07,9.236974228584023e-07,1.0349748656359695e-06,1.3966615939592692e-05
4.378737736016078e-07,9.203738769395056e-07,1.049305236374149e-06,1.3984954082068246e-05
4.389859795137135e-07,9.173021681083059e-07,1.0626251912005624e-06,1.4022717909352045e-05
4.4031985189920843e-07,9.145050694673799e-07,1.0748694922519935e-06,1.4080627259488392e-05
4.4188159945327815e-07,9.12002179044236e-07,1.085978425929574e-06,1.4158942316256006e-05
4.436727073378153e-07,9.098155291863441e-07,1.0958973716176243e-06,1.4257479835619625e-05
4.456929654288191e-07,9.07973665796714e-07,1.1045800756763736e-06,1.4375656014875738e-05
4.479402318726262e-07,9.065073098559763e-07,1.1119915720716044e-06,1.451252786720325e-05
4.5040939055696496e-07,9.054400014992449e-07,1.1181077467949377e-06,1.466683878929068e-05
4.5309456037089615e-07,9.04780891096978e-07,1.1229120542733513e-06,1.4837089637351392e-05
4.559920123249996e-07,9.045235038252502e-07,1.126392864314044e-06,1.5021641855460348e-05
4.590985250758604e-07,9.046479327111841e-07,1.1285438507379981e-06,1.5218839967955975e-05
4.6240707276271457e-07,9.051226021381759e-07,1.1293656234686424e-06,1.542711341932224e-05
4.659050728497584e-07,9.05905300588464e-07,1.1288664100189492e-06,1.5645015770800142e-05
4.6957531285960963e-07,9.069444334526005e-07,1.1270615445389436e-06,1.5871221091351598e-05
4.733967773686368e-07,9.081806545084194e-07,1.1239722685376384e-06,1.610453180605883e-05
4.773453670377401e-07,9.095485919256277e-07,1.119626222528149e-06,1.6343900564504462e-05
4.813954386715697e-07,9.109784135898191e-07,1.114061087025742e-06,1.658842570675332e-05
4.855205596175587e-07,9.123975780801405e-07,1.1073267796448938e-06,1.683729000709824e-05
4.89692853328998e-07,9.137329349701738e-07,1.0994812964959163e-06,1.7089649340558528e-05
4.938826585805502e-07,9.149131702314018e-07,1.090583699984021e-06,1.734453200100386e-05
4.980588546414211e-07,9.158724423164299e-07,1.0806903309137342e-06,1.7600817736822203e-05
5.021890766775409e-07,9.165545524453005e-07,1.0698545210303782e-06,1.7857280050491127e-05
5.062395245581394e-07,9.169149528306416e-07,1.0581286281131316e-06,1.8112615406620048e-05
5.101747118387939e-07,9.169201205166642e-07,1.0455677164630803e-06,1.8365444929778765e-05
5.139582001771214e-07,9.165452326994072e-07,1.032231190878759e-06,1.861433129956455e-05
5.175541492864648e-07,9.157703719688587e-07,1.0181810249227677e-06,1.8857826997331312e-05
5.209280809076022e-07,9.145771781812094e-07,1.0034813713434887e-06,1.9094528513085622e-05
5.240468812623078e-07,9.129474059088436e-07,9.882027099053771e-07,1.9323093270046286e-05
5.268791058522877e-07,9.108621687945509e-07,9.724270859563064e-07,1.954220492542096e-05
5.293955979634157e-07,9.083012643930704e-07,9.562495288304094e-07,1.975053098038805e-05
5.315710942866997e-07,9.052432028966043e-07,9.397746342001316e-07,1.99467295782684e-05
5.333867465018932e-07,9.016661888508692e-07,9.231106058167395e-07,2.0129514436545127e-05
5.348304501086885e-07,8.975500484576635e-07,9.063634103746391e-07,2.0297749374846053e-05
5.358941470023775e-07,8.92878194558697e-07,8.896319734435051e-07,2.045053999520513e-05
5.365713342403353e-07,8.876377801546219e-07,8.730041264171055e-07,2.058726415119014e-05
5.368562271038001e-07,8.818183011122795e-07,8.565547270287956e-07,2.0707498996362466e-05
5.367439623846364e-07,8.754110065067959e-07,8.403479960491734e-07,2.0810909540782692e-05
5.362315033795099e-07,8.684098492893234e-07,8.244420587586277e-07,2.0897196912346475e-05
5.353181072320992e-07,8.60813593947266e-07,8.08891169005383e-07,2.096611567687925e-05
5.340048874494644e-07,8.526299844856061e-07,7.937442445310813e-07,2.101751382770197e-05
5.322949664241292e-07,8.438812002265671e-07,7.790418591490517e-07,2.1051363647859626e-05
5.301947999828386e-07,8.346056138398941e-07,7.64814437693787e-07,2.106775809301053e-05
5.277150399480377e-07,8.248536903497554e-07,7.510835492772385e-07,2.1066898843009505e-05
5.248697901949015e-07,8.14682098081256e-07,7.378664035040657e-07,2.1049185279974026e-05
5.216751524055292e-07,8.041494470602456e-07,7.25181657734803e-07,2.101537590443378e-05
5.18147825876678e-07,7.933155870058102e-07,7.13053842977192e-07,2.0966615507229385e-05
5.14303674682341e-07,7.822445351349012e-07,7.01513767205596e-07,2.0904284961618482e-05
5.101569794664279e-07,7.710055805563395e-07,6.905942730934677e-07,2.0829810946540934e-05
5.057210208453104e-07,7.596690273627626e-07,6.803246849933884e-07,2.074454019387055e-05
5.010093154832114e-07,7.483005617712844e-07,6.707274739430011e-07,2.0649789610321208e-05
4.960369974388687e-07,7.36958028151048e-07,6.618175299870325e-07,2.0547086394727027e-05
4.908224569149533e-07,7.256910446083072e-07,6.536037900814303e-07,2.0438352478508457e-05
4.853889788640005e-07,7.145443397857821e-07,6.460932809032532e-07,2.032583265145825e-05
4.797662241155985e-07,7.035629943670114e-07,6.392952648728428e-07,2.021186864813184e-05
4.739904377019561e-07,6.92794056675026e-07,6.33221585164329e-07,2.0098687987703923e-05
4.681015378648133e-07,6.8228324489764e-07,6.278823568037195e-07,1.998825691683649e-05
4.6213983677858715e-07,6.720705511511622e-07,6.232799850407851e-07,1.9882190478954238e-05
4.561466147905179e-07,6.621876302890769e-07,6.194051166724647e-07,1.97817040993553e-05
4.5016545804856596e-07,6.526575656711993e-07,6.162362242850523e-07,1.9687599777770712e-05
4.442400561984869e-07,6.434963935893823e-07,6.137423603537255e-07,1.9600287364372548e-05
4.3841104953815096e-07,6.347150708514298e-07,6.118866575515711e-07,1.9519832506684382e-05
4.3271560736534577e-07,6.2632125888917e-07,6.106275534017282e-07,1.9446019767956027e-05
4.2718867971810863e-07,6.183217037738665e-07,6.099180241575727e-07,1.9378419841528005e-05
4.2186269536072563e-07,6.107240875403685e-07,6.097061232282414e-07,1.931645042467244e-05
4.1676536135421843e-07,6.035353964372228e-07,6.099382606572781e-07,1.925942806846649e-05
4.119181161935789e-07,5.967581240515479e-07,6.105628619440483e-07,1.9206620162718053e-05
4.073370153485185e-07,5.903885468346104e-07,6.115321131042846e-07,1.9157307181984398e-05
4.030354950961743e-07,5.844182007374099e-07,6.128039366073252e-07,1.911083505950668e-05
3.9902611246322863e-07,5.78836106220926e-07,6.143470365688855e-07,1.906661405007768e-05
3.953189827504508e-07,5.736292820677546e-07,6.161459234988959e-07,1.902406714792993e-05
3.9191885185016326e-07,5.687829053389953e-07,6.182000685888721e-07,1.8982581731578167e-05
3.888239909268885e-07,5.642831393922421e-07,6.205168692583927e-07,1.8941483757269063e-05
3.860275737837786e-07,5.601215862545848e-07,6.231035571115298e-07,1.8900020111225706e-05
3.8352158088273994e-07,5.562969068524023e-07,6.259625089002893e-07,1.8857354948607503e-05
3.813019321447397e-07,5.52812389640375e-07,6.290900028487596e-07,1.881258509247077e-05
3.7937011510849437e-07,5.496729022478071e-07,6.324758040213407e-07,1.8764789962164176e-05
3.777297002733785e-07,5.468826513019671e-07,6.361032615708174e-07,1.87131592297834e-05
3.7638282546331465e-07,5.444421751003507e-07,6.399505594335899e-07,1.8657156519147667e-05
3.753304339276219e-07,5.423456454984568e-07,6.439920703315675e-07,1.8596582461582048e-05
3.7457383815033977e-07,5.405803759300984e-07,6.481997397358508e-07,1.853150146826936e-05
3.7411441744465343e-07,5.391274235801158e-07,6.525440030745494e-07,1.8462126782890302e-05
3.7395287187745617e-07,5.379627182421026e-07,6.569927717776986e-07,1.838873479165714e-05
3.74089541424991e-07,5.370597356142231e-07,6.615111722252625e-07,1.831161344751958e-05
3.745236261906915e-07,5.363931955414726e-07,6.660667059104273e-07,1.823102180006492e-05
3.752512929232665e-07,5.359425372958617e-07,6.706381438555955e-07,1.8147161056794746e-05
3.7626561695236065e-07,5.356947660277401e-07,6.752211959704807e-07,1.8060176489822912e-05
3.7755825533796797e-07,5.35646628215126e-07,6.79827692837498e-07,1.7970176871769522e-05
3.791203857072485e-07,5.35805197895853e-07,6.844801486516199e-07,1.7877267455560237e-05
3.8094236133327063e-07,5.361845341621899e-07,6.892038694011626e-07,1.7781626549187927e-05
3.830127420315714e-07,5.367990575519432e-07,6.940185410523239e-07,1.7683623824834312e-05
3.8531750577609993e-07,5.376588913141517e-07,6.989329115085863e-07,1.7583908791920276e-05
3.8784090895531544e-07,5.387695904342734e-07,7.039452588658823e-07,1.748338755974789e-05
3.905679367053885e-07,5.401337525339529e-07,7.090469405858327e-07,1.7383080651239166e-05
3.9348575589633886e-07,5.417520053408176e-07,7.142241409236213e-07,1.7283936332440937e-05
3.9658232252780256e-07,5.436218045403419e-07,7.194584517697258e-07,1.7186708463258275e-05
3.9984371484664594e-07,5.457344139444763e-07,7.247303749079597e-07,1.7091943472169595e-05
4.032532022352651e-07,5.480731721895486e-07,7.300241410419213e-07,1.7000008613193702e-05
4.067930144854689e-07,5.50614695455015e-07,7.353284207871938e-07,1.691109965386287e-05
4.104472678637909e-07,5.533318136205953e-07,7.406339548804413e-07,1.682528928399883e-05
4.142031085289823e-07,5.561967967358665e-07,7.459338983494571e-07,1.6742713127490405e-05
4.180492694319844e-07,5.591835586522e-07,7.512286144976914e-07,1.6663795180364608e-05
4.2197570961392744e-07,5.622676911942107e-07,7.565326905843966e-07,1.6589287686835634e-05
4.259750545816498e-07,5.654244250110397e-07,7.618793351116051e-07,1.652011778749888e-05
4.3004108192116697e-07,5.686259900911027e-07,7.673166476295963e-07,1.6457206591359436e-05
4.3416494291709443e-07,5.718407228879458e-07,7.728977312887155e-07,1.6401346315539405e-05
4.3833431687462967e-07,5.750351786173534e-07,7.786715940736245e-07,1.635319851750215e-05
4.4253424236160886e-07,5.781772789282799e-07,7.846773116033937e-07,1.6313477317076022e-05
4.4674654779478427e-07,5.812375108919881e-07,7.909418451868115e-07,1.628319089432745e-05
4.509496755633261e-07,5.841882611506676e-07,7.974814776597444e-07,1.6263707713735278e-05
4.5511992001795815e-07,5.870031132027126e-07,8.043033186380144e-07,1.6256619398123464e-05
4.5923256962816717e-07,5.896562819096872e-07,8.11404070395287e-07,1.626354803947049e-05
4.6326253220591107e-07,5.921222829744344e-07,8.187674793667391e-07,1.6285991765721398e-05
4.6718501163708296e-07,5.943772730381721e-07,8.26363712805267e-07,1.6325219035380786e-05
4.7097659353745863e-07,5.964023501715615e-07,8.341527966985114e-07,1.638220742590298e-05
4.746163896824126e-07,5.981865989987859e-07,8.420916025085946e-07,1.645762671512975e-05
4.780861102294183e-07,5.997273070193551e-07,8.501423709354041e-07,1.655185752950716e-05
4.813686716257425e-07,6.01027520024172e-07,8.582795559269409e-07,1.6665020679506102e-05
4.844466804626063e-07,6.020930328739254e-07,8.664909457573448e-07,1.6796978175732863e-05
4.873017470369484e-07,6.029300614632859e-07,8.747722191035839e-07,1.694728601538182e-05
4.899146488584624e-07,6.035445354814878e-07,8.831186315936974e-07,1.7115138545862325e-05
4.92267156426303e-07,6.039431781202379e-07,8.91519427264839e-07,1.729937158552049e-05
4.94345307575914e-07,6.041342317199683e-07,8.99958178910219e-07,1.749854910856803e-05
4.961411583293473e-07,6.041268652605408e-07,9.08417299564909e-07,1.7711103332458154e-05
4.976518718939803e-07,6.039308916982199e-07,9.168828092413241e-07,1.7935475118365746e-05
4.988790800068503e-07,6.03556735790539e-07,9.253449867524151e-07,1.817020626270708e-05
4.998292262502794e-07,6.030143274328853e-07,9.337927342378729e-07,1.841397580299548e-05
5.00512620402313e-07,6.023126365931885e-07,9.422062850139704e-07,1.8665611800567528e-05
5.009412277929908e-07,6.014620382323946e-07,9.50554110821244e-07,1.892408696305552e-05
5.011261961250931e-07,6.004774340785979e-07,9.587944284122259e-07,1.91884818130352e-05
5.010761062102709e-07,5.993804696467333e-07,9.668806559247931e-07,1.945792311806513e-05
5.007986342488984e-07,5.982029218951137e-07,9.747702492052955e-07,1.9731515304587424e-05
5.00305551210236e-07,5.969898594875069e-07,9.824330486477876e-07,2.000827052599022e-05
4.996161998215637e-07,5.957967976628229e-07,9.898553059787936e-07,2.0287061159162798e-05
4.987563841940372e-07,5.946800712154728e-07,9.97037892032685e-07,2.056663086249967e-05
4.977543595253654e-07,5.93687554870337e-07,1.0039897960064371e-06,2.0845641637591587e-05
4.966382993651052e-07,5.928567213351555e-07,1.0107226335546983e-06,2.1122700955022198e-05
4.95437718250379e-07,5.922184083730188e-07,1.017251039002233e-06,2.1396371145399207e-05
4.941845608819654e-07,5.917987783559595e-07,1.0235979391064234e-06,2.166520087006216e-05
4.929097982489962e-07,5.916172293225672e-07,1.02980176746758e-06,2.192779517672701e-05
4.916392144777556e-07,5.916846834034089e-07,1.0359209768014594e-06,2.218286582103783e-05
4.903925605284207e-07,5.920041873644731e-07,1.0420307844543491e-06,2.2429174942049262e-05
4.891843323193214e-07,5.925728929531406e-07,1.0482133459137302e-06,2.266542033991976e-05
4.88023970981577e-07,5.933867104453946e-07,1.0545457445155188e-06,2.2890194541243828e-05
4.869165233603766e-07,5.944467227965952e-07,1.061088790000123e-06,2.310204383637367e-05
4.858648969276064e-07,5.957621411334374e-07,1.0678813534381866e-06,2.329957466411929e-05
4.848722596016662e-07,5.973479954455834e-07,1.074942670362145e-06,2.3481575999491445e-05
4.839419893567254e-07,5.992210989613504e-07,1.0822773663535692e-06,2.364711779048569e-05
4.83076375396473e-07,6.013966981146703e-07,1.0898779853374105e-06,2.379555690844826e-05
4.822770821217438e-07,6.038848453456912e-07,1.0977255685147795e-06,2.392643633132665e-05
4.815461007604975e-07,6.066873553269758e-07,1.105790141406605e-06,2.403935253172496e-05
4.808861285213688e-07,6.097982433992821e-07,1.1140323706414449e-06,2.413388417060373e-05
4.803012619278077e-07,6.132068547404091e-07,1.122406932290668e-06,2.420961064983023e-05
4.797971485974232e-07,6.169009349275078e-07,1.1308651639248668e-06,2.426616737040348e-05
4.793827812250261e-07,6.208677749336856e-07,1.1393555149895069e-06,2.430326806262143e-05
4.790753800752582e-07,6.250917781523716e-07,1.1478253475190402e-06,2.4320705185449427e-05
4.789012648907211e-07,6.295502541340331e-07,1.1562266128271489e-06,2.431844208846287e-05
4.788890462572268e-07,6.342115805864151e-07,1.1645220993828742e-06,2.429680556891523e-05
4.790627519561011e-07,6.390368844533864e-07,1.17268828473475e-06,2.425657235006941e-05
4.794408228356045e-07,6.439841429866361e-07,1.1807157050680384e-06,2.419885012923053e-05
4.800382932004155e-07,6.49011915285849e-07,1.188608755792968e-06,2.4124895705874256e-05
4.808685906241724e-07,6.540793523727578e-07,1.196382104187605e-06,2.403598390396741e-05
4.819446100608586e-07,6.59144166456733e-07,1.2040514622771955e-06,2.393337539497134e-05
4.832786961255454e-07,6.641623126857131e-07,1.211623658926007e-06,2.3818449202353585e-05
4.848812122628635e-07,6.690889947765219e-07,1.21909234397039e-06,2.369290003241478e-05
4.867592941235044e-07,6.738806784810734e-07,1.2264401228239105e-06,2.3558769008702983e-05
4.889160814247384e-07,6.784984553266117e-07,1.2336441678352577e-06,2.341829217055177e-05
4.913491193328835e-07,6.829097697297641e-07,1.24068111507656e-06,2.327374048672507e-05
4.940489307927154e-07,6.87086962939273e-07,1.2475275911892108e-06,2.312732339831242e-05
4.969989694128475e-07,6.910049574261432e-07,1.2541565186181748e-06,2.298110739491081e-05
5.0017625007404e-07,6.94640458626631e-07,1.2605328426454505e-06,2.2836918696836178e-05
5.035527972677559e-07,6.97972670774428e-07,1.266612457951095e-06,2.269626115759281e-05
5.070982843583205e-07,7.009830238151858e-07,1.2723460845060592e-06,2.256028678465469e-05
5.107824134241585e-07,7.036536428348372e-07,1.2776853518191306e-06,2.2429818614079638e-05
5.145764964021779e-07,7.059667656047374e-07,1.282585154040883e-06,2.2305397133273072e-05
5.184554314096232e-07,7.079052338095714e-07,1.2870012562381078e-06,2.2187317365539623e-05
5.223993829902206e-07,7.094541271607505e-07,1.2908885730681029e-06,2.2075648389917537e-05
5.263945460339337e-07,7.106029561249123e-07,1.294203188270831e-06,2.197024041161892e-05
5.304338748409278e-07,7.113457181859463e-07,1.2969047005948388e-06,2.1870730517708092e-05
5.34515896407234e-07,7.116790200143285e-07,1.2989554305437478e-06,2.177658642276865e-05
5.386410491157386e-07,7.11600304524587e-07,1.3003180411339044e-06,2.168719912117784e-05
5.428091616781909e-07,7.111066022855276e-07,1.3009539702184786e-06,2.160196199560003e-05
5.470187072830314e-07,7.101947101510591e-07,1.3008229810034277e-06,2.1520294915683773e-05
5.512657974633478e-07,7.088630149742484e-07,1.2998842018623092e-06,2.1441650556666094e-05
5.555427068022022e-07,7.071124184986348e-07,1.2980998497934972e-06,2.1365533698334973e-05
5.598371120082843e-07,7.049447697624456e-07,1.2954412564685438e-06,2.1291510566241947e-05
5.641333059273968e-07,7.023605264095884e-07,1.2918929750387438e-06,2.1219187868856388e-05
5.68413968989066e-07,6.99357942944612e-07,1.2874520247654554e-06,2.1148167219016247e-05
5.726595764342619e-07,6.959343387804527e-07,1.2821248534725322e-06,2.1077990147891952e-05
5.768466364497256e-07,6.920883923504065e-07,1.2759245910378616e-06,2.1008116722214606e-05
5.80948844747075e-07,6.878222393184024e-07,1.2688690337190868e-06,2.0937984692793697e-05
5.849411364203982e-07,6.831424135207502e-07,1.2609803716103759e-06,2.0867101638765165e-05
5.888017468890646e-07,6.780589476981309e-07,1.2522861067570421e-06,2.079506507456074e-05
5.925103521251051e-07,6.72583605216344e-07,1.2428190135733844e-06,2.07215086797198e-05
5.96046377459874e-07,6.667284222987018e-07,1.2326157625177356e-06,2.0646053542939774e-05
5.993898210508987e-07,6.605046509584665e-07,1.221715133986937e-06,2.0568293098945088e-05
6.025217012338915e-07,6.53922833794461e-07,1.210156323523934e-06,2.048778907711197e-05
6.054227504527205e-07,6.469939592555647e-07,1.1979766149296287e-06,2.0404067763307847e-05
6.080725283766567e-07,6.397302865845832e-07,1.185208876539121e-06,2.031663518130282e-05
6.104497828048273e-07,6.321462778639286e-07,1.1718814770372574e-06,2.022502847961029e-05
6.125332831849245e-07,6.242604067279332e-07,1.1580201415634938e-06,2.0128896048287782e-05
6.143023979608196e-07,6.160960558004604e-07,1.1436493909005186e-06,2.0028081656874607e-05
6.157367098923166e-07,6.076802613230104e-07,1.1287949239319685e-06,1.992270310152938e-05
6.168152581031411e-07,5.990414855269279e-07,1.1134877519924964e-06,1.981322286889671e-05
6.175165417789775e-07,5.902076575442354e-07,1.0977657398013093e-06,1.970044940081981e-05
6.178192708689879e-07,5.812048908815614e-07,1.0816699502000702e-06,1.958540139898403e-05
6.177034878597542e-07,5.720571595112204e-07,1.0652404577434687e-06,1.9469090601552373e-05
6.171518852884949e-07,5.627868743789937e-07,1.0485157449412731e-06,1.935236292329258e-05
6.161509493180671e-07,5.534156365084363e-07,1.031532864374797e-06,1.923586213043635e-05
6.146916918535973e-07,5.439648012292487e-07,1.014325626892861e-06,1.912005798753798e-05
6.127703990565061e-07,5.344563864897303e-07,9.969228110807805e-07,1.9005269723367927e-05
6.103891601817093e-07,5.249144832666601e-07,9.793481138736349e-07,1.889169555758736e-05
6.075546142174206e-07,5.1536576161096e-07,9.616213691946795e-07,1.8779521994178823e-05
6.042754085134804e-07,5.058378834210576e-07,9.437608771962095e-07,1.866911866517688e-05
6.005608378879139e-07,4.963570864704607e-07,9.257869233432328e-07,1.856115638467283e-05
5.964217190402712e-07,4.869466828793223e-07,9.077244949135746e-07,1.8456512982365785e-05
5.918739462888929e-07,4.77627071911186e-07,8.896022690306595e-07,1.8356051319319252e-05
5.869425458761915e-07,4.6841771940004386e-07,8.714493044520956e-07,1.8260438592696373e-05
5.816616008708525e-07,4.593399301533734e-07,8.532935449772543e-07,1.8170141462730216e-05
5.760702099073679e-07,4.5041722139191067e-07,8.351617854011772e-07,1.8085664340984053e-05
5.702079588996169e-07,4.4167353674726964e-07,8.170787781689573e-07,1.800788027482904e-05
5.641117385502552e-07,4.3313350392893904e-07,7.990663486789686e-07,1.793815902406945e-05
5.578148522836613e-07,4.2482408227206285e-07,7.811438841434673e-07,1.7878218795888627e-05
5.513479177735847e-07,4.16773206306748e-07,7.633295373367415e-07,1.7829880560768837e-05
5.447403909312743e-07,4.0900769709895356e-07,7.456407554312412e-07,1.7794859333335934e-05
5.380228948534656e-07,4.015552237780667e-07,7.280940463841674e-07,1.7774615528730114e-05
5.312293262529065e-07,3.9444937475698423e-07,7.10704889766065e-07,1.777026673367278e-05
5.243955394466225e-07,3.8773420740430477e-07,6.934877249065834e-07,1.778254363017723e-05
5.175550950275334e-07,3.8146424442507355e-07,6.764563870152657e-07,1.781177250909885e-05
5.107366572419445e-07,3.756983272621757e-07,6.596256439134089e-07,1.7857885783398113e-05
5.039638258598833e-07,3.704922798324396e-07,6.430118144180184e-07,1.7920448325468727e-05
4.97254991024827e-07,3.6589595559407567e-07,6.266310618405454e-07,1.799867830394493e-05
4.906238465068223e-07,3.619542466829986e-07,6.104982493159018e-07,1.8091480471746523e-05
4.84081527291781e-07,3.5870933560030886e-07,5.946284030825794e-07,1.8197522788188247e-05
4.77637747650154e-07,3.5620304361247274e-07,5.79038061606773e-07,1.831534346056182e-05
4.7129978984538496e-07,3.5447689215147293e-07,5.637445793784012e-07,1.8443455822865302e-05
4.650723692843257e-07,3.5356732921055016e-07,5.487649314993656e-07,1.8580439314215524e-05
4.5895987216254254e-07,3.5349996401304003e-07,5.341148471201457e-07,1.872501110367538e-05
4.5296855892026156e-07,3.542878834924075e-07,5.198081653265997e-07,1.887606219515595e-05
4.4710649073329295e-07,3.559325392381135e-07,5.05856549338759e-07,1.9032652372383097e-05
4.41382833102444e-07,3.584264861327458e-07,4.922699567772445e-07,1.9193977902084265e-05
4.3580887559943895e-07,3.617596245019551e-07,4.790583287073926e-07,1.9359321213238942e-05
4.303998834855608e-07,3.659253253984368e-07,4.6623265035692607e-07,1.952798832021966e-05
4.251763931956989e-07,3.709218863765928e-07,4.5380409776799327e-07,1.969924421190032e-05
4.2016346200715117e-07,3.767489554876751e-07,4.417832498302172e-07,1.987225627978985e-05
4.153876408156233e-07,3.8340104534743e-07,4.3017958821856716e-07,2.0046094092928765e-05
4.1087466824276644e-07,3.908634375858347e-07,4.190001780979021e-07,2.0219836374860832e-05
4.066480356522182e-07,3.991143426796612e-07,4.0824874215928154e-07,2.0392712048677867e-05
4.027262460123529e-07,4.0813072826090217e-07,3.979261488808624e-07,2.0564148814187672e-05
3.9912048472164825e-07,4.178931901730269e-07,3.8803249767259977e-07,2.0733731373877005e-05
3.958347495556806e-07,4.283864881115785e-07,3.785699476552786e-07,2.090115596124587e-05
3.928672535227689e-07,4.3959527511854354e-07,3.695429427345355e-07,2.1066211379879747e-05
3.902112250703117e-07,4.5149787184999247e-07,3.6095629815189184e-07,2.1228753575763128e-05
3.87854791702841e-07,4.640614457147793e-07,3.5281655117957934e-07,2.1388646721121984e-05
3.857813632829001e-07,4.77241565712918e-07,3.451350469500059e-07,2.1545683585157424e-05
3.83971096488581e-07,4.909862398552177e-07,3.379259071664797e-07,2.1699512645629475e-05
3.824021974011847e-07,5.052404180635167e-07,3.3120017221264025e-07,2.184959963425044e-05
3.8105149453711646e-07,5.199473866413363e-07,3.249623601310874e-07,2.1995265568849438e-05
3.7989514897387855e-07,5.350473631909206e-07,3.192107414165296e-07,2.213582472927097e-05
3.7890975433249326e-07,5.504759490547506e-07,3.139393473128213e-07,2.2270762596086646e-05
3.78072846518669e-07,5.661642541437662e-07,3.0914037568552786e-07,2.239983419885236e-05
3.773625285029544e-07,5.820403153839543e-07,3.048061143714796e-07,2.252302224854765e-05
3.767571807580009e-07,5.980301746910419e-07,3.009297686707689e-07,2.2640390048324663e-05
3.762357236889191e-07,6.140576521132664e-07,2.9750506059596894e-07,2.275190596684534e-05
3.757775791244942e-07,6.300434690789729e-07,2.945254331588965e-07,2.285732695224541e-05
3.753623045849684e-07,6.459054734746138e-07,2.919848162351302e-07,2.2956177976118986e-05
3.7497076598203406e-07,6.615602702727388e-07,2.8987963574922626e-07,2.304778799313096e-05
3.745881840102526e-07,6.769250354302808e-07,2.882087138444909e-07,2.313136716899631e-05
3.742059522806154e-07,6.919195208104019e-07,2.8697034846643386e-07,2.320619021545752e-05
3.738197484533386e-07,7.064678369297862e-07,2.861591914206035e-07,2.3271894657110817e-05
3.7342624463926287e-07,7.204990077207898e-07,2.857650424958389e-07,2.33287000368344e-05
3.7302268872022857e-07,7.339470082198985e-07,2.8577441703103855e-07,2.3377344703981755e-05
3.7260880383012924e-07,7.467513549656395e-07,2.861730771495117e-07,2.3418817376890783e-05
3.7218660121907846e-07,7.588580381500563e-07,2.8694627005544273e-07,2.345409311869978e-05
3.717577010547443e-07,7.702189125972216e-07,2.8807719766753964e-07,2.348399721040344e-05
3.7132184616401866e-07,7.807892096564245e-07,2.895464509797005e-07,2.3509294864121077e-05
3.7087741658883565e-07,7.905260543665789e-07,2.9133267148101344e-07,2.353096108221873e-05
3.7042158410862936e-07,7.993892122440079e-07,2.9341369480874884e-07,2.355035236731493e-05
3.6994989629060493e-07,8.073429747598473e-07,2.957674876694196e-07,2.356913185635008e-05
3.694565752938417e-07,8.14358918525205e-07,2.983718937235249e-07,2.358908437405102e-05
3.689354385337788e-07,8.204188627133241e-07,3.012040581030674e-07,2.361195498845359e-05
3.6838144931543743e-07,8.255163764776793e-07,3.042408763866403e-07,2.363932272893956e-05
3.677925675034339e-07,8.296561031092791e-07,3.074597034421955e-07,2.36724970567896e-05
3.67170662858807e-07,8.328509174240961e-07,3.1083818429027075e-07,2.371244064764216e-05
3.6652100134980714e-07,8.351183022325027e-07,3.1435311697988946e-07,2.375973592462812e-05
3.6585046259196744e-07,8.364783207988247e-07,3.179800208332397e-07,2.381460822831569e-05
3.6516544776594207e-07,8.369530230557016e-07,3.216956443939196e-07,2.3876971204546266e-05
3.644705178820905e-07,8.365660064711672e-07,3.254811513968961e-07,2.394644153595616e-05
3.637681941618406e-07,8.353424268786001e-07,3.2932123428133333e-07,2.402233046536445e-05
3.630598437599528e-07,8.333099510871979e-07,3.3320064364416013e-07,2.41036643319998e-05
3.623461982759022e-07,8.3050037207657e-07,3.371036504769767e-07,2.4189260048351408e-05
3.6162716085840543e-07,8.269503786203663e-07,3.410165191698781e-07,2.4277833695986678e-05
3.6090185832505977e-07,8.227011160619432e-07,3.449290714223424e-07,2.4368096487420004e-05
3.6016825511817115e-07,8.17798155327332e-07,3.488341847711231e-07,2.4458803918292662e-05
3.5942234578924143e-07,8.12291253174854e-07,3.5272628654175664e-07,2.454876504119205e-05
3.5865856151825095e-07,8.062319058143141e-07,3.5660010627851525e-07,2.4636856079829238e-05
3.57871436487814e-07,7.996693564556309e-07,3.604511893039615e-07,2.472205204733545e-05
3.5705684081443e-07,7.926478953901821e-07,3.6427755503558677e-07,2.480342802869842e-05
