3.421675687685757e-07,8.260099122744728e-07,2.335536030296171e-06,9.31627275367048e-06
3.4379866136124294e-07,8.212545145970605e-07,2.3798115365861747e-06,9.287292609589353e-06
3.454650902093856e-07,8.160845833452484e-07,2.42162181575874e-06,9.282547912572149e-06
3.471700361024787e-07,8.105276430864877e-07,2.4607594744900983e-06,9.302068974649236e-06
3.4891699857095764e-07,8.046059693987077e-07,2.4970318055155534e-06,9.345801500211367e-06
3.50707444503719e-07,7.983377653044892e-07,2.530258339441829e-06,9.413703015293567e-06
3.525399866676226e-07,7.917381574224823e-07,2.5602706971947682e-06,9.505777664488342e-06
3.5441081944611565e-07,7.848215261020474e-07,2.586915634797256e-06,9.622031874191783e-06
3.5631368000884133e-07,7.776070152942904e-07,2.610059069922504e-06,9.76236769260923e-06
3.582390205901215e-07,7.701227936062062e-07,2.629590194005029e-06,9.926457998849413e-06
3.601735685476669e-07,7.624039071437324e-07,2.645424700765424e-06,1.011365960103884e-05
3.621008405943585e-07,7.544859652399032e-07,2.6575036072737467e-06,1.0323037218186943e-05
3.6400208826785006e-07,7.464014757630399e-07,2.6657900833190164e-06,1.0553539685686732e-05
3.658572692828684e-07,7.381828531111685e-07,2.6702704452567957e-06,1.0804233891738498e-05
3.676460142767978e-07,7.298699137519086e-07,2.670956631216174e-06,1.1074391890968892e-05
3.6934800913444635e-07,7.215150619165838e-07,2.6678833716150232e-06,1.1363371731351226e-05
3.709429105707539e-07,7.131812481342346e-07,2.661101260131187e-06,1.1670443859974984e-05
3.7241095678695566e-07,7.049349462613485e-07,2.6506746976225844e-06,1.1994684907656364e-05
3.737337606005419e-07,6.96839386827547e-07,2.636688807676789e-06,1.233499514390156e-05
3.748943369408658e-07,6.889498665255906e-07,2.61925645936738e-06,1.2690316198422802e-05
3.7587699266165936e-07,6.813111302028197e-07,2.598515632597298e-06,1.3059927222699796e-05
3.766672794812599e-07,6.739567954455136e-07,2.574618853605316e-06,1.3443495065898473e-05
3.772517505331215e-07,6.669099121345488e-07,2.547722249471353e-06,1.3840838827084124e-05
3.77618432135692e-07,6.601840561117506e-07,2.517979085465868e-06,1.4251685896230185e-05
3.777584634187071e-07,6.537846863056448e-07,2.4855389631390842e-06,1.4675543091298235e-05
3.776666447636529e-07,6.477105666488981e-07,2.4505513984870524e-06,1.5111625346169168e-05
3.7733978176353674e-07,6.419550221959132e-07,2.4131698526012997e-06,1.5558825519200862e-05
3.7677589026383354e-07,6.365061470592378e-07,2.373551733579784e-06,1.6015724855167715e-05
3.7597568584485176e-07,6.313461171049141e-07,2.3318566591297507e-06,1.6480624971305205e-05
3.749435370545544e-07,6.264514483420779e-07,2.288251545475656e-06,1.695159682010275e-05
3.7368637894613405e-07,6.21795717827407e-07,2.2429232462900584e-06,1.7426538048960927e-05
3.7221235367364343e-07,6.173544016562271e-07,2.196086993347465e-06,1.7903217686119498e-05
3.7053005232351995e-07,6.13108961148439e-07,2.147980278148865e-06,1.8379302669900405e-05
3.686476429308928e-07,6.09046826135348e-07,2.098846692829652e-06,1.8852374215143148e-05
3.665723561238313e-07,6.0515777730905e-07,2.048927870389122e-06,1.9319942136317487e-05
3.6431089791348134e-07,6.014305648109612e-07,1.998473594762705e-06,1.9779471495185066e-05
3.618704257138902e-07,5.978516808582107e-07,1.9477579931360388e-06,2.022841800615277e-05
3.5925940691843355e-07,5.94406597011865e-07,1.8970876406118408e-06,2.0664262628228922e-05
3.5648740585971117e-07,5.910843051730976e-07,1.846801060429701e-06,2.1084572327141988e-05
3.5356422965159686e-07,5.878818216215586e-07,1.7972629925237731e-06,2.1487084761206933e-05
3.504995477777999e-07,5.848037368236503e-07,1.7488527672485055e-06,2.1869761069540038e-05
3.473027857813036e-07,5.818592826621868e-07,1.7019445122835706e-06,2.2230796378306256e-05
3.4398275632903125e-07,5.790610624177009e-07,1.6568825427894762e-06,2.2568621503834008e-05
3.405471417265332e-07,5.764243343903562e-07,1.6139638518478946e-06,2.288189794113739e-05
3.3700254356247967e-07,5.739659007287408e-07,1.5734378486368503e-06,2.316947962391905e-05
3.333551262616297e-07,5.717029251751839e-07,1.5355186540688988e-06,2.343034726363737e-05
3.2961091983664853e-07,5.696508905614444e-07,1.5003952910946032e-06,2.3663576248821626e-05
3.257757569749105e-07,5.678210595044333e-07,1.468233322404383e-06,2.386835362630109e-05
3.218554026325501e-07,5.662187496736696e-07,1.4391722843982266e-06,2.404397570633572e-05
3.1785555253059147e-07,5.648432140242935e-07,1.4133227315519276e-06,2.4189811083845223e-05
3.13781755271099e-07,5.636899206095346e-07,1.3907638466948165e-06,2.4305296477162595e-05
3.096405824915035e-07,5.627548701391233e-07,1.371543413921004e-06,2.4389993056399e-05
3.054420326309664e-07,5.620388996157431e-07,1.3556808983110963e-06,2.444364531602628e-05
3.012005008510857e-07,5.615500547281215e-07,1.34317092676939e-06,2.446617034808763e-05
2.9693298152806984e-07,5.613033025439119e-07,1.3339879585569284e-06,2.4457593005476856e-05
2.926577570274022e-07,5.613177831845996e-07,1.328098289962936e-06,2.4418007003158726e-05
2.883960156351529e-07,5.616123893903506e-07,1.325477230928791e-06,2.434757772654993e-05
2.841729040733976e-07,5.622011588788127e-07,1.3261180199245385e-06,2.424655784554088e-05
2.800155089611812e-07,5.630906844966339e-07,1.3300224109305643e-06,2.411535364980549e-05
2.7595037934576105e-07,5.64280969861755e-07,1.3371790512798313e-06,2.395466641778233e-05
2.720017338960134e-07,5.657675927270135e-07,1.3475522507122349e-06,2.376559514693665e-05
2.681896614708867e-07,5.675415731353437e-07,1.3610965597937096e-06,2.354958558079108e-05
2.645296208792773e-07,5.695878613131267e-07,1.377783539654517e-06,2.33082724649212e-05
2.610339286499833e-07,5.718857784919717e-07,1.3976162107930491e-06,2.304332979876129e-05
2.5771310939267785e-07,5.744114382714527e-07,1.4206226144461226e-06,2.2756380673898776e-05
2.545754512541557e-07,5.771398561608719e-07,1.446834776784975e-06,2.244896336029956e-05
2.516262585654022e-07,5.800448885232516e-07,1.4762621367477518e-06,2.2122534855464652e-05
2.4886825758393764e-07,5.830979913854567e-07,1.5088690242979709e-06,2.177851866953452e-05
2.463020096387988e-07,5.862684225477426e-07,1.544566386579666e-06,2.141846501684261e-05
2.4392575132047913e-07,5.895240718425809e-07,1.5832200096742691e-06,2.104432167759549e-05
2.4173590350205925e-07,5.928308471844245e-07,1.6246646249368084e-06,2.0658594094017987e-05
2.397285888931089e-07,5.961514373717565e-07,1.668710442153873e-06,2.0264194164940783e-05
2.3790145842613193e-07,5.994455481301293e-07,1.715139755253681e-06,1.986409761249089e-05
2.362546747628045e-07,6.026726566246245e-07,1.7637020230714978e-06,1.9461072512169875e-05
2.3479005118764252e-07,6.057956809921997e-07,1.8141143239286758e-06,1.9057627854423637e-05
2.3350985899177607e-07,6.087838455225322e-07,1.8660678289302247e-06,1.8656215306417144e-05
2.324166577790978e-07,6.1161526745385e-07,1.9192386976513576e-06,1.825954912723896e-05
2.3151248205724372e-07,6.142779296964029e-07,1.973300617746604e-06,1.7870764938139553e-05
2.3079707447780022e-07,6.167667983273654e-07,2.027933932525056e-06,1.749330264673673e-05
2.3026721270184923e-07,6.190794717047955e-07,2.082826876451382e-06,1.7130667450528166e-05
2.2991721750049014e-07,6.212146686903622e-07,2.1376696688516747e-06,1.6786223710811775e-05
2.2973932890392695e-07,6.231746112031535e-07,2.192148373501348e-06,1.6463038629990216e-05
2.2972425427664186e-07,6.249692212503429e-07,2.245944882781307e-06,1.6163758561918595e-05
2.2986249635754023e-07,6.266182830726952e-07,2.298742019527343e-06,1.5890532786257785e-05
2.3014559208485537e-07,6.281493764851391e-07,2.350229477376206e-06,1.5645006032715014e-05
2.3056642736937385e-07,6.295953844495432e-07,2.4001095896269023e-06,1.54283649427528e-05
2.311186608539484e-07,6.309957458290096e-07,2.448103347857997e-06,1.5241374854791129e-05
2.3179569768433185e-07,6.323977921794175e-07,2.4939546063579566e-06,1.5084368486580819e-05
2.3259017832083216e-07,6.338525980408242e-07,2.537430598488896e-06,1.4957228086567758e-05
2.3349441550543127e-07,6.354072079261532e-07,2.5783199579494014e-06,1.4859407639868771e-05
2.3450076469627165e-07,6.370995731011525e-07,2.6164295336016614e-06,1.4789994559274353e-05
2.35601248393394e-07,6.389581679607334e-07,2.651580479552605e-06,1.4747795919096545e-05
2.3678743817109853e-07,6.410032191958458e-07,2.6836057187814025e-06,1.4731436285026071e-05
2.380509427055452e-07,6.432485038584137e-07,2.712350431051891e-06,1.473945030432418e-05
2.393832383516268e-07,6.457046365581871e-07,2.737674060349274e-06,1.4770351711127694e-05
2.407749283443922e-07,6.483816529254872e-07,2.7594536328574976e-06,1.4822677605398822e-05
2.422167208238971e-07,6.512882615946033e-07,2.777590875592693e-06,1.4895015399048324e-05
2.43702831770826e-07,6.544282831921878e-07,2.79202099568424e-06,1.498599688626914e-05
2.4523361976481017e-07,6.577975139721293e-07,2.802716179808776e-06,1.5094252268920376e-05
2.468146164414393e-07,6.61384425471695e-07,2.8096808306090117e-06,1.521835944191022e-05
2.4845303560247715e-07,6.651728418449941e-07,2.812941676364296e-06,1.535681292219636e-05
2.5015471650387423e-07,6.691421546478365e-07,2.812538751329015e-06,1.5508006034038765e-05
2.519230414428381e-07,6.732668631299418e-07,2.808523140815284e-06,1.5670246667257387e-05
2.5375871058649127e-07,6.775195891719432e-07,2.800961282135736e-06,1.5841813640110222e-05
2.556595498195668e-07,6.818748381239779e-07,2.789937752599157e-06,1.602099149023197e-05
2.576213865277431e-07,6.863081756907815e-07,2.7755510709117385e-06,1.6206050948543148e-05
2.596398620766162e-07,6.907924472886125e-07,2.7579092731153248e-06,1.639522331668246e-05
2.617118254141818e-07,6.95297571106221e-07,2.73713479215526e-06,1.6586708511986033e-05
2.6383578850545996e-07,6.997956153440795e-07,2.713375419835e-06,1.6778717306324802e-05
2.660113408240977e-07,7.042670583205723e-07,2.6868080930803325e-06,1.6969562904761733e-05
2.682376833028979e-07,7.087051265819727e-07,2.6576284223468144e-06,1.715778698484954e-05
2.705127556616627e-07,7.131162817589127e-07,2.626033992326629e-06,1.7342216987382998e-05
2.728347077591207e-07,7.175164646956541e-07,2.592213352701921e-06,1.7521908554361716e-05
2.7520498782404147e-07,7.219259126488474e-07,2.556344013782384e-06,1.7696059723714104e-05
2.7763094793940054e-07,7.263638099413806e-07,2.51859833607795e-06,1.7863963386369372e-05
2.8012741657768066e-07,7.308446015794132e-07,2.47915467128053e-06,1.802497581187084e-05
2.827168136790512e-07,7.353780713202043e-07,2.438207014829712e-06,1.8178461858024147e-05
2.854266445195184e-07,7.399689477876484e-07,2.3959659981250853e-06,1.832373232824356e-05
2.88285667344322e-07,7.446139977809614e-07,2.352649204114481e-06,1.846004429881105e-05
2.913211580285211e-07,7.49302001353218e-07,2.3084674554737305e-06,1.8586688870131132e-05
2.945563697666328e-07,7.540182481355693e-07,2.263618633862762e-06,1.870308413958881e-05
2.980073049132061e-07,7.587489574639681e-07,2.218293045455547e-06,1.8808789466349512e-05
3.016810799316539e-07,7.63483085577277e-07,2.1726830374720038e-06,1.8903456787400102e-05
3.0557682877456414e-07,7.682121680215795e-07,2.126987498697701e-06,1.898678040839892e-05
3.0968787531817213e-07,7.729287625048284e-07,2.08140837885552e-06,1.905849539135767e-05
3.14004882438933e-07,7.776248710222561e-07,2.0361430496257143e-06,1.91184278752626e-05
3.1851864107201534e-07,7.822918314019216e-07,1.9913767253005415e-06,1.916651937609374e-05
3.232200277854348e-07,7.869204748399122e-07,1.947278049641309e-06,1.9202788319341808e-05
3.28098455580439e-07,7.914994004725926e-07,1.904000258799916e-06,1.922728536536356e-05
3.331409085638269e-07,7.960119269097517e-07,1.8616853296001088e-06,1.9240067455024506e-05
3.38330740224353e-07,8.004341273306781e-07,1.8204647782471328e-06,1.9241178659370786e-05
3.4364680746822536e-07,8.047360529564852e-07,1.7804543386172578e-06,1.9230644119319446e-05
3.490641542897999e-07,8.088872392292465e-07,1.741748367891846e-06,1.920847814326469e-05
3.54555377649959e-07,8.128632247842891e-07,1.7044217223558137e-06,1.917469928077966e-05
3.600924401547697e-07,8.166473160951622e-07,1.6685356338062525e-06,1.9129374340160143e-05
3.6564883401423476e-07,8.202274164462981e-07,1.634138251965925e-06,1.9072700575398105e-05
3.712005015920568e-07,8.235926275592821e-07,1.6012601786249909e-06,1.900506556675017e-05
3.767249355666864e-07,8.267327434220573e-07,1.5699114977143733e-06,1.8927033173951613e-05
3.821994341401089e-07,8.29639749829488e-07,1.5400816135998012e-06,1.8839271986710525e-05
3.87600305543261e-07,8.323077838183138e-07,1.511740304715459e-06,1.8742462027347087e-05
3.929050751356155e-07,8.347297514313919e-07,1.4848410751896344e-06,1.86372230210746e-05
3.9809641858686426e-07,8.368935525458264e-07,1.45932864997326e-06,1.8524118679848386e-05
4.031638114701817e-07,8.387816220607696e-07,1.4351483820294691e-06,1.8403733531136497e-05
4.0810143828132647e-07,8.403728784140751e-07,1.412254259045898e-06,1.827673796500517e-05
4.129040386543789e-07,8.416441985689399e-07,1.3906168569950888e-06,1.8143879891498748e-05
4.175636835311658e-07,8.425713414789082e-07,1.3702300654061541e-06,1.800592937814046e-05
4.2206949794444e-07,8.431301157022471e-07,1.3511108438697823e-06,1.786362695803059e-05
4.264087071000383e-07,8.432971596627435e-07,1.3332909998350227e-06,1.7717649750201013e-05
4.3056721422204426e-07,8.430501853597823e-07,1.3168038473314943e-06,1.7568592142601752e-05
4.34530868551606e-07,8.423683502607101e-07,1.3016711786001292e-06,1.7416976372415037e-05
4.3828762353652427e-07,8.412327205905323e-07,1.2879005893011171e-06,1.7263346334896265e-05
4.41828805451041e-07,8.396266345826902e-07,1.2754970410703682e-06,1.7108480887911505e-05
4.451484870836874e-07,8.375361843008309e-07,1.2644795109298661e-06,1.6953602863385517e-05
4.482412069984554e-07,8.349507201713321e-07,1.2548926963270064e-06,1.6800383510556156e-05
4.5109980154548464e-07,8.318629751037124e-07,1.2468097894485686e-06,1.6650743783124217e-05
4.537154493990083e-07,8.28268955183547e-07,1.2403235267363082e-06,1.6506608278361167e-05
4.5607898088211747e-07,8.241684276744283e-07,1.2355270474025768e-06,1.6369718045912238e-05
4.581811725369643e-07,8.195653909539268e-07,1.2324932348106496e-06,1.624160942090473e-05
4.6001253329616796e-07,8.144663969892984e-07,1.2312611420824144e-06,1.6123831982524542e-05
4.6156347813435364e-07,8.088775142956123e-07,1.2318334705643032e-06,1.601820844290599e-05
4.628243396293184e-07,8.028030040027317e-07,1.2341822519761401e-06,1.5926843352261733e-05
4.637857173852146e-07,7.962461692141869e-07,1.2382542194320056e-06,1.5851912863581023e-05
4.644399586305022e-07,7.892106833837397e-07,1.24397192420868e-06,1.5795457681194698e-05
4.6478324110052006e-07,7.817019333930305e-07,1.2512354106669164e-06,1.5759256445994095e-05
4.648172375888622e-07,7.737304728303457e-07,1.2599301617279222e-06,1.574475200387749e-05
4.6454943339275226e-07,7.653180661903831e-07,1.2699410743092664e-06,1.5753005164008252e-05
4.639914461384403e-07,7.565012316510896e-07,1.2811674001901576e-06,1.578467116661983e-05
4.6315599738517024e-07,7.473286874416105e-07,1.2935346538093686e-06,1.5840006378492055e-05
4.620543804861704e-07,7.378573238892651e-07,1.306999336109349e-06,1.5918884235613596e-05
4.606955287008457e-07,7.281523826257729e-07,1.3215401063776975e-06,1.6020791315892348e-05
4.5908706396342343e-07,7.182908390291576e-07,1.3371386003270285e-06,1.6144817617441185e-05
4.572375751981306e-07,7.083636760932272e-07,1.3537666104576359e-06,1.628967664713595e-05
4.551573536341645e-07,6.984740847481901e-07,1.3713911621358074e-06,1.6453763695645568e-05
4.528569760557871e-07,6.887308838816574e-07,1.389991133556943e-06,1.6635233770607173e-05
4.5034663106564247e-07,6.792396973886021e-07,1.409570781954874e-06,1.6832072860587732e-05
4.4763708467051055e-07,6.700960314846854e-07,1.4301604720135886e-06,1.7042148229337232e-05
4.4474016343920316e-07,6.613825658154128e-07,1.4518044766746911e-06,1.7263257199571798e-05
4.4166776698911955e-07,6.531698548349785e-07,1.4745435426892925e-06,1.7493186313143397e-05
4.384312939353907e-07,6.455179645235116e-07,1.498399480900262e-06,1.7729748784677247e-05
4.350437535965264e-07,6.384775143324651e-07,1.523363970508131e-06,1.7970785643793453e-05
4.315228627435811e-07,6.320892188630745e-07,1.5493932815795876e-06,1.821415807729425e-05
4.2789114745466794e-07,6.26382203923956e-07,1.5764093676918595e-06,1.8457747271848638e-05
4.241730676618632e-07,6.213746578356961e-07,1.6043039119848405e-06,1.8699456094757863e-05
4.2039205808687077e-07,6.170779040669624e-07,1.6329425182831463e-06,1.893721820796521e-05
4.1656878528831537e-07,6.13498575544638e-07,1.6621686772392692e-06,1.9169037490669185e-05
4.1272033052814726e-07,6.106363569556649e-07,1.691810031580557e-06,1.939304511544468e-05
4.0885997030197897e-07,6.084822125663799e-07,1.72169003346683e-06,1.9607507599613428e-05
4.0499795870570523e-07,6.070213063839737e-07,1.7516414638379124e-06,1.9810773259762348e-05
4.0114308694387997e-07,6.062388678464114e-07,1.781514127893253e-06,2.000123342468749e-05
3.9730392165138e-07,6.061248780451471e-07,1.811175107668987e-06,2.017733293912038e-05
3.934896945010057e-07,6.066753967610864e-07,1.840506341430724e-06,2.0337595387990343e-05
3.8971090905009213e-07,6.078898227332749e-07,1.869400631924628e-06,2.0480643626726128e-05
3.8597867293951245e-07,6.097649184584649e-07,1.8977540049792542e-06,2.0605226974033247e-05
3.82302760776576e-07,6.122895612195257e-07,1.9254579165355207e-06,2.0710278755804426e-05
3.786900485118608e-07,6.15442576905211e-07,1.9523954566451835e-06,2.079501505254382e-05
3.751446775577642e-07,6.191921094193657e-07,1.978441184375711e-06,2.085902480842345e-05
3.7166946494780907e-07,6.234960974445644e-07,2.003464333669844e-06,2.0902266540906616e-05
3.682664992443717e-07,6.283045926792387e-07,2.0273339534976694e-06,2.0924969974501176e-05
3.6493681048808157e-07,6.335631327058591e-07,2.0499223432673773e-06,2.09275178118317e-05
3.616813873311423e-07,6.392153671283515e-07,2.0711064938390544e-06,2.0910346714503748e-05
3.585027311408069e-07,6.452034818073686e-07,2.090770237698182e-06,2.0873883908878906e-05
3.554044047843414e-07,6.514667719310807e-07,2.108808563715642e-06,2.0818554191268952e-05
3.5238966582245247e-07,6.579410343455794e-07,2.125132980355273e-06,2.074484816179297e-05
3.494610127445988e-07,6.645614142897786e-07,2.139674061135743e-06,2.065337789675684e-05
3.466207441717032e-07,6.71266783940426e-07,2.1523787556127708e-06,2.054486706291776e-05
3.438725277076708e-07,6.780012933906831e-07,2.1632071601658863e-06,2.042009208456585e-05
3.4122253431724657e-07,6.847131746999446e-07,2.1721366735119512e-06,2.0279858235774684e-05
3.3867829259201664e-07,6.913535426032337e-07,2.179173442292804e-06,2.0125127615292897e-05
3.362462819612079e-07,6.978757284717185e-07,2.184360847281365e-06,1.995725210799384e-05
3.339303372839716e-07,7.042343563026573e-07,2.187775234572664e-06,1.9778029283063722e-05
3.3173154139510736e-07,7.103844829323616e-07,2.1895090963410383e-06,1.9589488217487232e-05
3.2964879082534053e-07,7.162823009004694e-07,2.1896521265955715e-06,1.939372566352565e-05
3.276792933615186e-07,7.218873301767309e-07,2.1882819772601696e-06,1.9192967124452647e-05
3.258200101106019e-07,7.271646316451447e-07,2.185467736132253e-06,1.8989612875238238e-05
3.240702079887613e-07,7.320868285625141e-07,2.181279315797358e-06,1.8786130765317085e-05
3.224333953020016e-07,7.366346362811002e-07,2.1757950105835844e-06,1.8584918451723374e-05
3.2091833883296717e-07,7.407936519039393e-07,2.169105827142601e-06,1.838823082085534e-05
3.195389285454174e-07,7.445498046454039e-07,2.1613165555865648e-06,1.8198176717686946e-05
3.1831096924776324e-07,7.478881208484308e-07,2.1525396139932966e-06,1.80167261739826e-05
3.1724720525267076e-07,7.507943891360609e-07,2.142883432516922e-06,1.7845662389179845e-05
3.16354679232255e-07,7.5325577885106e-07,2.1324461985689137e-06,1.7686490017374662e-05
3.156350045298644e-07,7.552596197323822e-07,2.1213177618093653e-06,1.7540350990753705e-05
3.150857592825399e-07,7.567929251817163e-07,2.1095801172931254e-06,1.7407988940266305e-05
3.147021873667737e-07,7.578436231983149e-07,2.097303221776798e-06,1.7289797483726113e-05
3.144789687979854e-07,7.584026197680519e-07,2.0845455799056603e-06,1.718593373811083e-05
3.144123667098129e-07,7.584663399286395e-07,2.071364719499149e-06,1.709640345941619e-05
3.14501924214925e-07,7.580382326013148e-07,2.0578288997965302e-06,1.7021069794628595e-05
3.147493036045397e-07,7.571274906182991e-07,2.044019340149509e-06,1.695965967343921e-05
3.151549223477541e-07,7.557468971647244e-07,2.0300219038932458e-06,1.6911843943968052e-05
3.1571584859216253e-07,7.539123351975272e-07,2.01591480030545e-06,1.6877330991640357e-05
3.1642624337799625e-07,7.516426288073905e-07,2.0017586295781582e-06,1.685587117543403e-05
3.172796181517452e-07,7.489580535763959e-07,1.9875929665712534e-06,1.6847199301904542e-05
3.1827125961118305e-07,7.458794191351959e-07,1.973441279818602e-06,1.6851021792081762e-05
3.19399641481744e-07,7.424292368856871e-07,1.959320410233494e-06,1.686711882588341e-05
3.206672572441902e-07,7.386325001913507e-07,1.945248451340276e-06,1.6895523393041364e-05
3.220799160657015e-07,7.345149245712666e-07,1.9312477994378344e-06,1.6936599054780928e-05
3.236436182721923e-07,7.301003661165198e-07,1.9173438348146422e-06,1.6990890827821166e-05
3.253611464659213e-07,7.254098090073715e-07,1.9035629504210318e-06,1.7058853026591463e-05
3.2723059024561337e-07,7.20461657122747e-07,1.8899331634860237e-06,1.7140660719876064e-05
3.2924567181019816e-07,7.152716810318724e-07,1.876486113647899e-06,1.723625671024225e-05
3.3139628938403394e-07,7.098531743482166e-07,1.8632580996901505e-06,1.7345662889351088e-05
3.3366932850905864e-07,7.042208919676128e-07,1.8502906112828633e-06,1.7469354873082788e-05
3.360511996887532e-07,6.983997350331385e-07,1.8376293563161842e-06,1.7608376579668034e-05
3.385305041975693e-07,6.924322320494844e-07,1.8253187198116104e-06,1.776410621144695e-05
3.4109833810643896e-07,6.863794131304175e-07,1.813393430728941e-06,1.7937869662098718e-05
3.43747451324087e-07,6.803172587154805e-07,1.801871970678048e-06,1.8130620240553014e-05
3.464715268630724e-07,6.743315169472431e-07,1.7907543078334176e-06,1.834278313596761e-05
3.492643333498922e-07,6.68510400859399e-07,1.7800267015906415e-06,1.8574230967162803e-05
3.5211981212432534e-07,6.629393566676898e-07,1.7696737927294828e-06,1.882430883642827e-05
3.5503301273626755e-07,6.577031388352007e-07,1.7596914969223976e-06,1.9091881990096985e-05
3.580006779762968e-07,6.528908548687071e-07,1.7500936280390056e-06,1.937540519498521e-05
3.6102190038447524e-07,6.485955036810915e-07,1.740913127710726e-06,1.9672987821462192e-05
3.6409779737109364e-07,6.449052761982503e-07,1.732202930052879e-06,1.998243975551289e-05
3.672289525630601e-07,6.41892203857762e-07,1.7240349317703503e-06,2.0301324470159224e-05
3.704135880334541e-07,6.396064563980603e-07,1.7164922101019666e-06,2.0627043031650672e-05
3.73648421942731e-07,6.38078136018451e-07,1.7096573379219499e-06,2.095693726275736e-05
3.769293634834128e-07,6.373226846862819e-07,1.7036034719803615e-06,2.128837918484014e-05
3.8025068677851977e-07,6.373470059620344e-07,1.6983884810780398e-06,2.1618811575651174e-05
3.83605095762834e-07,6.38155289733665e-07,1.6940497365503808e-06,2.1945741048691527e-05
3.869851544492664e-07,6.397523579778235e-07,1.6906037885665182e-06,2.226673505151657e-05
3.9038402951219594e-07,6.421419761473062e-07,1.6880550579567033e-06,2.2579455235307223e-05
3.937952778581536e-07,6.453211601175973e-07,1.6864074204026662e-06,2.288170002001685e-05
3.972127671685053e-07,6.492754034796718e-07,1.6856707766894648e-06,2.317142049258172e-05
4.006310004582354e-07,6.53978406263745e-07,1.6858616406572599e-06,2.344671032006043e-05
4.040449166135075e-07,6.593938647761664e-07,1.686998883296631e-06,2.370579194181445e-05
4.0744836525622367e-07,6.654754794688834e-07,1.689096005712799e-06,2.3947001823175186e-05
4.1083260956056187e-07,6.72166859897441e-07,1.692154737356209e-06,2.4168768978341466e-05
4.1418607544852187e-07,6.794043648426659e-07,1.6961638506242348e-06,2.436961507821064e-05
4.174949951129985e-07,6.871214207838529e-07,1.7010997879586383e-06,2.454818090768953e-05
4.207448245283219e-07,6.952524105817515e-07,1.7069236346776387e-06,2.4703225444201746e-05
4.239214127721823e-07,7.037360581256181e-07,1.7135762055096762e-06,2.483359095421236e-05
4.2701070396142297e-07,7.125167721222252e-07,1.7209779759262089e-06,2.493818985962902e-05
4.299976707295869e-07,7.21543523319431e-07,1.7290353515496186e-06,2.501603919221177e-05
4.328654866862303e-07,7.307697580132269e-07,1.7376483471053089e-06,2.50663108104125e-05
4.355958866118413e-07,7.401556490983718e-07,1.7467166794628268e-06,2.5088342441121986e-05
4.3817161321118134e-07,7.496678805711862e-07,1.7561439616911288e-06,2.5081601848975048e-05
4.4057951910080644e-07,7.592747043560037e-07,1.7658382449661992e-06,2.504565774570101e-05
4.428120630713773e-07,7.689424017234831e-07,1.775709598706353e-06,2.4980190638076185e-05
4.448667045247009e-07,7.786364712665404e-07,1.7856685764974583e-06,2.4885028960820317e-05
4.467431776979784e-07,7.883217480529341e-07,1.7956252554038291e-06,2.4760216976316078e-05
4.484397681129156e-07,7.979592963455279e-07,1.805487548883157e-06,2.460611909266581e-05
4.4995137258537063e-07,8.075058045709156e-07,1.8151644258023209e-06,2.442347258234151e-05
4.5127038621043434e-07,8.169167002798637e-07,1.8245768926897003e-06,2.4213309099505045e-05
4.523891384579013e-07,8.261486597326858e-07,1.83366782408684e-06,2.3976808433621908e-05
4.533025250443494e-07,8.351601764077435e-07,1.8424027931782689e-06,2.371520280499144e-05
4.5400929530075473e-07,8.439103913020284e-07,1.850764470175989e-06,2.342976934236321e-05
4.5451093305351094e-07,8.523565945619244e-07,1.8587445122970595e-06,2.3121857552369235e-05
4.5480965993189095e-07,8.60453012583518e-07,1.866334231660917e-06,2.279288613079627e-05
4.549074888099643e-07,8.681521558288148e-07,1.8735188930796168e-06,2.244432109152606e-05
4.5480609731340723e-07,8.754072577809937e-07,1.8802793677660736e-06,2.2077745821158625e-05
4.5450661560174704e-07,8.821742462978701e-07,1.8865975180141685e-06,2.1695068450033e-05
4.540094148026171e-07,8.884128755385028e-07,1.8924623353329616e-06,2.1298677041905244e-05
4.5331461107827127e-07,8.940875225612671e-07,1.8978760281066928e-06,2.089134016383089e-05
4.524229218072025e-07,8.991682253291586e-07,1.902854642920456e-06,2.047593002773652e-05
4.5133631343224153e-07,9.036326149971188e-07,1.907418696140739e-06,2.0055188407959305e-05
4.500588224210538e-07,9.074686990422413e-07,1.911579937258443e-06,1.963168273144039e-05
4.485971530689577e-07,9.106765642482841e-07,1.915334812241033e-06,1.9207996450623082e-05
4.469603663832981e-07,9.132664661983927e-07,1.9186661513628203e-06,1.878702330321489e-05
4.4515876451124496e-07,9.152535112325485e-07,1.9215468743119992e-06,1.8372100147355303e-05
4.4320219647694786e-07,9.166525086694588e-07,1.9239412493249684e-06,1.7966874557087682e-05
4.410986389961706e-07,9.174756223100952e-07,1.9258040948570598e-06,1.7575050833275523e-05
4.388539376374425e-07,9.177316542506508e-07,1.9270809274459117e-06,1.7200158139079673e-05
4.3647211423356715e-07,9.174251559091135e-07,1.92771075879074e-06,1.6845368701477954e-05
4.3395583352964057e-07,9.165559298634396e-07,1.927630071532743e-06,1.651335951556433e-05
4.3130718101101064e-07,9.151201777576121e-07,1.9267752224675783e-06,1.6206224587596242e-05
4.2852791520912645e-07,9.131138763025213e-07,1.925083935726357e-06,1.5925447976722128e-05
4.2561906977491215e-07,9.105368028414659e-07,1.9225012059905638e-06,1.5671931513439663e-05
4.2258070666023326e-07,9.073937187071855e-07,1.918993222643905e-06,1.5446055545515023e-05
4.194122922095593e-07,9.036935588258415e-07,1.914564571313745e-06,1.5247760085316903e-05
4.16114085403806e-07,8.994506472854063e-07,1.9092662266245214e-06,1.5076643652067916e-05
4.1268799802337775e-07,8.946882916458293e-07,1.9031845204524914e-06,1.4932055771946118e-05
4.091368043593656e-07,8.894422364693925e-07,1.8964180838559143e-06,1.4813148430741455e-05
4.054640268796377e-07,8.837601870250238e-07,1.8890646530183224e-06,1.4718902162835846e-05
4.016744785406289e-07,8.776957491509434e-07,1.8812299143922264e-06,1.4648179680193934e-05
3.9777370404015215e-07,8.713009258493584e-07,1.8730463353136262e-06,1.459980133575919e-05
3.93768450517896e-07,8.646213777418829e-07,1.8646825101067338e-06,1.4572586427416657e-05
3.896687379217e-07,8.576947576460691e-07,1.8563358622036758e-06,1.4565354985114707e-05
3.854879130712461e-07,8.505511367262313e-07,1.8482132898394761e-06,1.4576934682077044e-05
3.812401842833292e-07,8.432139016212816e-07,1.840508425702404e-06,1.4606187688760676e-05
3.7693873130187655e-07,8.357003629386501e-07,1.833386748234463e-06,1.4652022416998053e-05
3.725954932375261e-07,8.2802379970511e-07,1.826984587111333e-06,1.4713360550824798e-05
3.6822189664816104e-07,8.201977249355763e-07,1.821413779987754e-06,1.4789071407884424e-05
3.63829790938173e-07,8.122404970186173e-07,1.8167610875354863e-06,1.487791981108884e-05
3.5943177339354475e-07,8.041781599132359e-07,1.8130827249921139e-06,1.4978591019458747e-05
3.550408390149387e-07,7.960445176342169e-07,1.810401121949204e-06,1.5089781227648364e-05
3.50670674200056e-07,7.878793564208884e-07,1.8087069544682751e-06,1.5210246230841675e-05
3.4633745210286896e-07,7.797261932539765e-07,1.8079626637828696e-06,1.5338776949909727e-05
3.42060955775039e-07,7.71628900032732e-07,1.8081047909405525e-06,1.5474177311186883e-05
3.3786247474437235e-07,7.636282271659885e-07,1.8090489534095925e-06,1.5615277897165114e-05
3.3376158685550235e-07,7.557621670306234e-07,1.8107008585650417e-06,1.5760945267482915e-05
3.2977562701041284e-07,7.480683825535482e-07,1.8129691901045398e-06,1.5910050362055507e-05
3.2592072578360853e-07,7.405827745926464e-07,1.8157732364314637e-06,1.6061418791431564e-05
3.2221156976742593e-07,7.333352639272498e-07,1.8190424004358304e-06,1.6213815523978892e-05
3.1866046535778964e-07,7.263471100839643e-07,1.8227091409075325e-06,1.6365980897128005e-05
3.152769257960279e-07,7.196301256130645e-07,1.8267001134791203e-06,1.6516694738749625e-05
3.120682531225638e-07,7.131870281305566e-07,1.8309319773396007e-06,1.6664848769203126e-05
3.09040705330588e-07,7.070130948352696e-07,1.835313997644476e-06,1.680952564030233e-05
3.061995125575629e-07,7.011005232198879e-07,1.8397517102145684e-06,1.6950045551824193e-05
3.03547757082e-07,6.954454453816897e-07,1.844145953434553e-06,1.7085918971547584e-05
3.0108558222928427e-07,6.900527769895569e-07,1.8483903201823363e-06,1.7216724983105137e-05
2.988100616848617e-07,6.849353224577527e-07,1.8523732429982058e-06,1.7341998795499245e-05
2.9671539236664185e-07,6.801089414762033e-07,1.8559847667824269e-06,1.7461177903914864e-05
2.947934986023602e-07,6.75586621251154e-07,1.8591218317760948e-06,1.7573597642202402e-05
2.930362430075109e-07,6.71375085824405e-07,1.8616873276427646e-06,1.7678507610246858e-05
2.9143945522866173e-07,6.674783306995839e-07,1.863587120896146e-06,1.7775114242633875e-05
2.900054017662776e-07,6.639067051825157e-07,1.8647316962596301e-06,1.7862710821012242e-05
2.887403682060878e-07,6.6068249968822e-07,1.865041753605793e-06,1.7940915952029153e-05
2.876496304050462e-07,6.578355942770589e-07,1.8644541081722698e-06,1.8009860784821548e-05
2.867351357318693e-07,6.553948030415101e-07,1.862924653401941e-06,1.8070137462895614e-05
2.8599647666664486e-07,6.533838997475608e-07,1.8604253750513684e-06,1.8122567683215093e-05
2.854313414206214e-07,6.518224698575272e-07,1.856937300913852e-06,1.816797621438453e-05
2.8503426338522027e-07,6.507273026571806e-07,1.8524458763371121e-06,1.8207093019036654e-05
2.847957653906549e-07,6.501120966715836e-07,1.846943135975351e-06,1.824068663085237e-05
2.847032941142911e-07,6.499851499861572e-07,1.8404326242706261e-06,1.826986961635852e-05
2.8474333342160823e-07,6.503470351706183e-07,1.83292850972767e-06,1.8296289270602787e-05
2.849026186187244e-07,6.51189889219827e-07,1.8244486227975769e-06,1.832205719742688e-05
2.851680276318044e-07,6.524967669292953e-07,1.8150086218275783e-06,1.8349562021742788e-05
2.8552723679012797e-07,6.542405670772135e-07,1.8046205430868759e-06,1.83813044100084e-05
2.859700253598587e-07,6.563854868030289e-07,1.7932951230233254e-06,1.841975007258194e-05
2.864884980478357e-07,6.588924102138859e-07,1.7810482607344558e-06,1.846717525454304e-05
2.870764153045923e-07,6.617246720751358e-07,1.7679100848634038e-06,1.852551951474765e-05
2.8772821525265927e-07,6.648500114541112e-07,1.7539313851961392e-06,1.859627180196648e-05
2.884382987411527e-07,6.682388427657293e-07,1.7391826321815673e-06,1.8680419273368944e-05
2.89201302413178e-07,6.718610900119207e-07,1.7237452732003262e-06,1.8778460079033785e-05
2.900123995421453e-07,6.756830462010191e-07,1.7077005094235826e-06,1.889043197771916e-05
2.9086652841044656e-07,6.796656660611476e-07,1.6911216233921646e-06,1.901594659765624e-05
2.9175785534753816e-07,6.837660665439766e-07,1.6740716526964568e-06,1.9154264601384907e-05
2.926807020764589e-07,6.879436797702229e-07,1.656606275879571e-06,1.9304392238775267e-05
2.9363031471922133e-07,6.921691648379257e-07,1.638781147830616e-06,1.94651662652746e-05
2.946019831066952e-07,6.964301724289544e-07,1.620659507937616e-06,1.9635348371010944e-05
2.955901734517921e-07,7.00729409383117e-07,1.6023144699537383e-06,1.981372723912432e-05
2.965889778198894e-07,7.050763472477758e-07,1.5838247123906675e-06,1.9999179808376433e-05
2.975924929115437e-07,7.094789840224193e-07,1.565268101866023e-06,2.0190688061330888e-05
2.985941783692525e-07,7.139396040944382e-07,1.5467183613919109e-06,2.0387351349576894e-05
2.9958583656477053e-07,7.18452473141254e-07,1.5282451085381046e-06,2.0588386048748616e-05
3.0055734466991305e-07,7.230024203496321e-07,1.5099129184233176e-06,2.0793070584809667e-05
3.0149785603121893e-07,7.275655426909894e-07,1.491776195013067e-06,2.1000649852801693e-05
3.023981095868648e-07,7.321111518362374e-07,1.4738734980438378e-06,2.1210252351113e-05
3.032524351462161e-07,7.366036025033291e-07,1.4562267746399159e-06,2.14208491089642e-05
3.040584875001759e-07,7.410036416871127e-07,1.438844773762615e-06,2.163127500006984e-05
3.048148029792459e-07,7.452692000284266e-07,1.4217267279543462e-06,2.184031457381981e-05
3.0551875739684784e-07,7.493564486834748e-07,1.4048647306790994e-06,2.204678538292077e-05
3.061662201498534e-07,7.53221281247811e-07,1.3882462243322837e-06,2.2249556766686435e-05
3.0675274813053787e-07,7.568198446553744e-07,1.3718568877865835e-06,2.2447530811017127e-05
3.0727559221877573e-07,7.601085534447041e-07,1.3556808987462584e-06,2.2639627221873934e-05
3.077347350013402e-07,7.630460006710031e-07,1.3397002233845391e-06,2.28247701376834e-05
3.0813232997555826e-07,7.655963341984145e-07,1.3238992690800301e-06,2.3001863940308286e-05
3.0847141961840485e-07,7.677305538916723e-07,1.3082733150566745e-06,2.316975993920972e-05
3.0875477661619394e-07,7.694248392637931e-07,1.2928318628323938e-06,2.332724644521913e-05
3.089841561218369e-07,7.706594768124917e-07,1.277593071459633e-06,2.3473099909041618e-05
3.0915987949251925e-07,7.714210981288626e-07,1.2625746824822612e-06,2.360617599941583e-05
3.09281408777891e-07,7.71705663660973e-07,1.2477897974571656e-06,2.3725501947427688e-05
3.0934880346994944e-07,7.715176676110762e-07,1.2332492779046342e-06,2.383038890689356e-05
3.093632739714679e-07,7.70865407313747e-07,1.2189650635844387e-06,2.392053661151524e-05
3.0932652352732075e-07,7.697568676621033e-07,1.2049505684675621e-06,2.399601419739435e-05
3.0924035415519104e-07,7.681994978796204e-07,1.191218728207863e-06,2.4057092850018368e-05
3.0910681803557924e-07,7.662018321897982e-07,1.1777787493754824e-06,2.410404444103583e-05
3.0892859508850477e-07,7.637731916263192e-07,1.1646342993903198e-06,2.413702304242393e-05
3.0871036827582016e-07,7.609212996965927e-07,1.151785445806507e-06,2.4156055363446985e-05
3.0846014700335415e-07,7.576511730965119e-07,1.1392322276580791e-06,2.416108183056915e-05
3.081886651896954e-07,7.53967607991942e-07,1.1269761218500014e-06,2.4151989853151654e-05
3.079081571447407e-07,7.498784748695227e-07,1.1150183821590106e-06,2.412866983170673e-05
3.076314439167917e-07,7.453950265095434e-07,1.1033600392228477e-06,2.4091183827414865e-05
3.073711438786225e-07,7.405306744975026e-07,1.0920069489208249e-06,2.403997355191309e-05
3.071396766324421e-07,7.353003116983848e-07,1.0809723859967608e-06,2.397588250879016e-05
3.069489295579702e-07,7.297193746987241e-07,1.0702715864563521e-06,2.3899969969057595e-05
3.068086049349962e-07,7.238028204148745e-07,1.0599169186156625e-06,2.3813289702341025e-05
3.0672472783584786e-07,7.17564524635332e-07,1.0499220628875538e-06,2.3716760604880607e-05
3.066995851680904e-07,7.110168203722715e-07,1.0403107021602473e-06,2.36112319159258e-05
3.0673282432652693e-07,7.04170890723836e-07,1.031120172660168e-06,2.3497760364077232e-05
3.0682220356692226e-07,6.970384093205558e-07,1.0223954267546992e-06,2.3377887993763587e-05
3.0696331703801924e-07,6.896321905902385e-07,1.0141771701036526e-06,2.325369425409349e-05
3.071496917922533e-07,6.819645303762111e-07,1.0064930906595091e-06,2.312764809412788e-05
3.073742486633922e-07,6.740457725307047e-07,9.99357634354723e-07,2.3002411171364403e-05
3.0763158884223196e-07,6.658844667380611e-07,9.927772345283e-07,2.288067167634561e-05
3.079193663660753e-07,6.574884057915893e-07,9.86752927845125e-07,2.276502119127929e-05
3.0823746343695324e-07,6.488668727695189e-07,9.812779152865653e-07,2.265785711448829e-05
3.085872890172944e-07,6.400329249520637e-07,9.76335063962419e-07,2.256128936743936e-05
3.089726490147253e-07,6.310033880707462e-07,9.71897323136141e-07,2.24770629696168e-05
3.093987645493444e-07,6.217970545538842e-07,9.679307296362226e-07,2.2406520734471367e-05
3.098689860022972e-07,6.124330419016874e-07,9.64399483804834e-07,2.2350586801410683e-05
3.1038325716316217e-07,6.029301355143395e-07,9.612696358159605e-07,2.2309739216927483e-05
3.109387274459008e-07,5.93307710430564e-07,9.58508340879022e-07,2.2283997931618783e-05
3.1153020719944385e-07,5.835887853767949e-07,9.560817162156129e-07,2.227297899840868e-05
3.121502991320307e-07,5.738044034913463e-07,9.53956364826704e-07,2.2276014441247946e-05
3.127900221992277e-07,5.639972723884744e-07,9.521062542422512e-07,2.2292289963480364e-05
3.1344029101878336e-07,5.542211646266481e-07,9.505205525863571e-07,2.232096306679298e-05
3.1409376416857536e-07,5.445342159628122e-07,9.49205152849184e-07,2.236124945187368e-05
3.147461384432004e-07,5.349908548760267e-07,9.481775463097263e-07,2.2412473083236886e-05
3.153962842689607e-07,5.256384429762382e-07,9.474604164434429e-07,2.247408434327404e-05
3.160446909013559e-07,5.165187946267194e-07,9.470754082263881e-07,2.2545649037926246e-05
3.1669119254241517e-07,5.076712716082329e-07,9.470369312744123e-07,2.2626806845605603e-05
3.173337979547552e-07,4.991354237068426e-07,9.473496029599028e-07,2.2717216474245755e-05
3.17968525301293e-07,4.909538007633773e-07,9.480108827588005e-07,2.2816502187041324e-05
3.1858962625485603e-07,4.831751118010074e-07,9.490153280989263e-07,2.292418471759376e-05
3.1919013756468305e-07,4.758560882768491e-07,9.503569130543651e-07,2.3039603284409564e-05
3.1976220259593913e-07,4.6906165800791216e-07,9.520298504534805e-07,2.316188838680401e-05
3.202969377956605e-07,4.62862380156384e-07,9.540322726712453e-07,2.3289996130089483e-05
3.207844359091206e-07,4.5732713120705117e-07,9.56372395709544e-07,2.342274714421036e-05
3.2121469149696214e-07,4.5251415845686216e-07,9.590689980585415e-07,2.355885512221599e-05
3.215792642118664e-07,4.484667917721729e-07,9.621434631496e-07,2.3696971152814763e-05
3.218719993238493e-07,4.4521600283036224e-07,9.656107382580013e-07,2.383573145352523e-05
3.2208932568429296e-07,4.4278553567813215e-07,9.694751318119335e-07,2.3973775138846805e-05
3.222327289535449e-07,4.4119307180540855e-07,9.73730287056808e-07,2.4109760849846968e-05
3.22310636388307e-07,4.4044802724024e-07,9.783628937262568e-07,2.4242415309194488e-05
3.223353931229267e-07,4.405512759052608e-07,9.833609731699006e-07,2.4370569360833178e-05
3.22319128106255e-07,4.414961224177057e-07,9.887234102742442e-07,2.449315769465458e-05
3.222733591879882e-07,4.4326760363601503e-07,9.944651088647258e-07,2.460920452828563e-05
3.222096961618543e-07,4.4584243709430645e-07,1.0006150945864072e-06,2.471779115503669e-05
3.2213844904347956e-07,4.4919355761899654e-07,1.0072093702729544e-06,2.48180007991183e-05
3.220669058876675e-07,4.532979961782386e-07,1.014282173402969e-06,2.490887205793185e-05
3.219990776816173e-07,4.58143128651356e-07,1.0218571490390184e-06,2.4989409455896452e-05
3.219362616598792e-07,4.637284186266494e-07,1.0299402802199557e-06,2.5058674290342555e-05
3.218777344844941e-07,4.7006219437994794e-07,1.0385200104138485e-06,2.51158997416511e-05
3.2182111356232804e-07,4.771553977004101e-07,1.047577008699634e-06,2.51605357150504e-05
3.21762558716997e-07,4.850153770686971e-07,1.0570965768898406e-06,2.519221404021296e-05
3.216978587960468e-07,4.936406041817396e-07,1.0670721423224977e-06,2.5210688190819423e-05
3.2162368007540457e-07,5.030171631419472e-07,1.0774968521175706e-06,2.521577977792085e-05
3.2153812925696057e-07,5.131180152106336e-07,1.0883552714440031e-06,2.520734738357842e-05
3.2144223845971444e-07,5.239040617730609e-07,1.0996271135908398e-06,2.5185270919464302e-05
3.213418014141467e-07,5.35327585920925e-07,1.1112995194627872e-06,2.5149452828182638e-05
3.212462999052087e-07,5.473400600601535e-07,1.1233771565647171e-06,2.5099844581290922e-05
3.211654474062293e-07,5.599025132711368e-07,1.1358851530708749e-06,2.5036453976858678e-05
3.211071979965513e-07,5.729941281234413e-07,1.1488663746337112e-06,2.495930107321106e-05
3.210785862899317e-07,5.866157990821382e-07,1.1623752443749659e-06,2.4868358226834745e-05
3.210871012778733e-07,6.007865615214526e-07,1.1764690812414015e-06,2.476352245685456e-05
3.21140214602318e-07,6.155327919752567e-07,1.1911982510339559e-06,2.464463026555936e-05
3.2124386187159554e-07,6.308741273455307e-07,1.206595794215938e-06,2.4511495275969782e-05
3.214013673425963e-07,6.468141823439969e-07,1.2226694033452786e-06,2.436394705329052e-05
3.216125567440227e-07,6.633414235167163e-07,1.2394001794976698e-06,2.4201840918401398e-05
3.218741585824009e-07,6.804357020230934e-07,1.25674744895273e-06,2.402503324256397e-05
3.2218276195765836e-07,6.980722297841528e-07,1.2746592375170953e-06,2.3833363459528025e-05
3.225372390327577e-07,7.162211833377518e-07,1.2930878042346622e-06,2.36266622331516e-05
3.229377421235165e-07,7.348458494901777e-07,1.311998429428532e-06,2.340476643040152e-05
3.2338339558309717e-07,7.539009153908766e-07,1.3313621544782316e-06,2.316753180371003e-05
3.2387094782893487e-07,7.73331357730648e-07,1.351144149019822e-06,2.291484880033077e-05
3.2439485404241484e-07,7.930725651141235e-07,1.3713066409616704e-06,2.264666304778693e-05
3.249495240151659e-07,8.130517339217154e-07,1.3918273177903534e-06,2.2362995842527327e-05
3.255319910823361e-07,8.331892735053454e-07,1.4127154159205058e-06,2.2063960214431688e-05
3.261418238810268e-07,8.533993910507199e-07,1.434011818695108e-06,2.1749770757395653e-05
3.2677962273711065e-07,8.735923921947927e-07,1.4557755363612971e-06,2.1420741317508984e-05
3.274463714674376e-07,8.936804210287064e-07,1.4780652331842897e-06,2.1077268679942307e-05
3.281423653146277e-07,9.135818111239805e-07,1.5009215987858497e-06,2.071981520748387e-05
3.2886629594610665e-07,9.332191462269421e-07,1.5243547124718852e-06,2.0348900469939538e-05
3.296163127637237e-07,9.525154236828024e-07,1.548340227935722e-06,1.9965104436790348e-05
3.303910446950457e-07,9.713952145155016e-07,1.5728230085136516e-06,1.956909294115888e-05
3.311886816931256e-07,9.8978969191005e-07,1.5977216869917204e-06,1.916165978628006e-05
3.320059028649746e-07,1.0076418886311429e-06,1.622931359952683e-06,1.874374640869693e-05
3.3283828738892845e-07,1.0249112183609277e-06,1.6483263470584225e-06,1.831641530215236e-05
3.336810024896016e-07,1.0415750788258477e-06,1.6737633243893454e-06,1.7880791479310306e-05
3.345287352359173e-07,1.057625913557617e-06,1.6990841949241468e-06,1.743801045015424e-05
3.3537587328885606e-07,1.073066016681728e-06,1.7241194464806346e-06,1.6989224017277225e-05
3.362173898390624e-07,1.0879023891689156e-06,1.748692229686467e-06,1.6535645592222727e-05
3.370498613815771e-07,1.102141632020823e-06,1.7726232341146783e-06,1.6078542096508075e-05
3.378724012788145e-07,1.1157855610411925e-06,1.7957377264071968e-06,1.5619164849174954e-05
3.3868755695343924e-07,1.1288297790502399e-06,1.8178740168224332e-06,1.5158704562138535e-05
3.395024897802359e-07,1.1412668814756598e-06,1.8388887248601967e-06,1.46983121057875e-05
3.403300843955587e-07,1.1530922215029443e-06,1.8586565375631599e-06,1.4239178868828507e-05
3.411885622537364e-07,1.1643064492874292e-06,1.8770673734817382e-06,1.3782646289809931e-05
3.4209921665177066e-07,1.1749132991952604e-06,1.8940240390114551e-06,1.3330269342364278e-05
3.430834597432568e-07,1.184917209974486e-06,1.909441316771886e-06,1.2883777335543919e-05
3.441600539486678e-07,1.1943223799293384e-06,1.9232452585073106e-06,1.2444958613830274e-05
3.45343157818783e-07,1.2031319013185013e-06,1.935370756632679e-06,1.2015540738349267e-05
3.466422005290199e-07,1.211348617758469e-06,1.9457590089395146e-06,1.1597139450613325e-05
3.480632678430419e-07,1.2189767989365264e-06,1.9543594106060667e-06,1.1191318410107485e-05
3.49609775907108e-07,1.2260195561440898e-06,1.961136999592705e-06,1.0799703586740167e-05
3.512812124770279e-07,1.232473786014264e-06,1.966079116355639e-06,1.042402516628064e-05
3.530719321785659e-07,1.2383298069924765e-06,1.969194199658219e-06,1.0066034738004514e-05
3.54972024479709e-07,1.2435761124412358e-06,1.9705040607539728e-06,9.727365420418658e-06
3.569692644925964e-07,1.2482044303286659e-06,1.9700356724262587e-06,9.40942351481447e-06
3.590501745324765e-07,1.2522118968053587e-06,1.967816916659523e-06,9.113337945500926e-06
3.6119998886967174e-07,1.255598867350089e-06,1.963878211812424e-06,8.83993448852286e-06
3.6340342953165567e-07,1.2583639794279608e-06,1.958257709268972e-06,8.589719140569126e-06
3.656467854667954e-07,1.2605022109203189e-06,1.9510062122222264e-06,8.362924627603011e-06
3.6791843744557255e-07,1.2620084197674016e-06,1.942189954948121e-06,8.159687735180536e-06
3.7020693603271276e-07,1.262881080767742e-06,1.931888743349706e-06,7.980296480269566e-06
3.7249985582669593e-07,1.2631223001780269e-06,1.9201877506933825e-06,7.825303624762943e-06
3.747854173307336e-07,1.2627365958645651e-06,1.9071671452718811e-06,7.695412171952654e-06
3.770545914397589e-07,1.2617303108779231e-06,1.8928966464046749e-06,7.5912585583982845e-06
3.793003914499649e-07,1.2601110051696768e-06,1.8774369931555267e-06,7.5132489515307675e-06
3.8151534831868646e-07,1.257886352992723e-06,1.8608440310262688e-06,7.461557556072307e-06
3.8369097859023883e-07,1.2550620369745694e-06,1.8431717214600204e-06,7.436341046358432e-06
3.858194535228897e-07,1.251640725307138e-06,1.824474300684716e-06,7.438017933559743e-06
3.878945006380065e-07,1.247626185650029e-06,1.8048077227589984e-06,7.46735047249375e-06
3.8991089266446684e-07,1.2430302018759716e-06,1.7842296254444714e-06,7.525297952998744e-06
3.9186400248076465e-07,1.2378751702269944e-06,1.7627993615148753e-06,7.612821141056766e-06
3.9374900047799786e-07,1.232191307764967e-06,1.7405801475884818e-06,7.730745413665689e-06
3.955593418523676e-07,1.2260118751692397e-06,1.7176423474560195e-06,7.879671890466158e-06
3.972866468647106e-07,1.2193677002096058e-06,1.6940654058018886e-06,8.05991242341703e-06
3.989228199185657e-07,1.2122830109677576e-06,1.6699377667835731e-06,8.271444616069291e-06
4.004622502586333e-07,1.204774902488971e-06,1.6453553537789405e-06,8.513894253032143e-06
4.019013759923379e-07,1.19685457876441e-06,1.6204171976300517e-06,8.78655585953113e-06
4.0323588511614643e-07,1.1885282368389083e-06,1.5952176409280563e-06,9.08842855911143e-06
4.0445903666193365e-07,1.1797986874372368e-06,1.5698406719814796e-06,9.418215270618433e-06
4.055626843451726e-07,1.1706677308947737e-06,1.5443620870878055e-06,9.774289796056382e-06
4.0653884901618134e-07,1.1611370070621456e-06,1.5188580380037638e-06,1.0154693172238788e-05
4.073795926236858e-07,1.1512068970327658e-06,1.493413434686761e-06,1.055719360843811e-05
4.0807630315785065e-07,1.140876137557592e-06,1.4681222704730913e-06,1.097940272868329e-05
4.086214761231904e-07,1.1301453240680818e-06,1.4430778061169712e-06,1.1418919838998684e-05
4.090123121814737e-07,1.119024538951442e-06,1.4183606805650048e-06,1.1873457338159085e-05
4.0925224311055095e-07,1.1075403011123597e-06,1.3940329868620014e-06,1.234090552943958e-05
4.093494378513568e-07,1.095735739940514e-06,1.3701394368407585e-06,1.2819329028494082e-05
4.0931387252466986e-07,1.083663530768249e-06,1.3467154355163205e-06,1.3306911465513487e-05
4.091545633495954e-07,1.071377458247668e-06,1.3238003961135842e-06,1.3801879723838254e-05
4.088786628694914e-07,1.0589282369791545e-06,1.3014483589370285e-06,1.430245468390272e-05
4.084922072196513e-07,1.0463640548354312e-06,1.2797281329810274e-06,1.4806841403930664e-05
4.0800054911231533e-07,1.0337325881682646e-06,1.2587134754275714e-06,1.5313212664978103e-05
4.074081561361404e-07,1.021080501711527e-06,1.238471055135287e-06,1.5819664870522606e-05
4.0671890888550575e-07,1.008449565088995e-06,1.2190562803124788e-06,1.632419547080915e-05
4.059363771472633e-07,9.958732100755012e-07,1.2005210141385172e-06,1.6824731503135687e-05
4.050628864368485e-07,9.83375947978102e-07,1.182927063251774e-06,1.731916984528691e-05
4.040983308082229e-07,9.709751436679378e-07,1.1663574988568295e-06,1.7805402193764712e-05
4.030400234755419e-07,9.586851661413478e-07,1.1509225385820538e-06,1.8281347019683893e-05
4.0188410310613366e-07,9.465211718422579e-07,1.1367566174810498e-06,1.8744992078934986e-05
4.006284388944346e-07,9.344991057074169e-07,1.1240019423183722e-06,1.919442349321084e-05
3.9927478571922287e-07,9.226338378001837e-07,1.1127844411620918e-06,1.962786054385504e-05
3.9782822261344425e-07,9.109375822532799e-07,1.1031987324903822e-06,2.0043708530839967e-05
3.962952760996409e-07,8.994180629580774e-07,1.0953095923992752e-06,2.0440576207124123e-05
3.946824413819483e-07,8.88077113226373e-07,1.0891620859024277e-06,2.0817247934126694e-05
3.9299530789961755e-07,8.769110803007868e-07,1.0847895609263642e-06,2.1172643181466176e-05
3.912387263687162e-07,8.659133661060676e-07,1.082214830695215e-06,2.1505757484444488e-05
3.894175928436257e-07,8.550780740406294e-07,1.0814465017224991e-06,2.181559920390603e-05
3.875366967161428e-07,8.444033379655275e-07,1.0824748763432723e-06,2.2101161748688845e-05
3.8559976315267525e-07,8.33893303686465e-07,1.0852701278924335e-06,2.2361443292930827e-05
3.8360953937830636e-07,8.235567243527332e-07,1.089781828049087e-06,2.2595510941504644e-05
3.815695097810953e-07,8.134028814754685e-07,1.0959384742517329e-06,2.2802580137845603e-05
3.794850216791077e-07,8.034395077382262e-07,1.1036495314626144e-06,2.2982057934319456e-05
3.773619897550468e-07,7.936734725727265e-07,1.1128116519808997e-06,2.3133541846710753e-05
3.7520465137005774e-07,7.841110906651094e-07,1.1233173055220238e-06,2.3256799138597258e-05
3.7301460612714617e-07,7.747574939582109e-07,1.1350656875419546e-06,2.3351744166689256e-05
3.707916254330067e-07,7.656167359686884e-07,1.1479719588328777e-06,2.341844624806277e-05
3.685350371351047e-07,7.566932605487923e-07,1.161965609466741e-06,2.3457173519527285e-05
3.6624481683461203e-07,7.479946395450617e-07,1.176978992075837e-06,2.346841651921328e-05
3.6392302871720293e-07,7.395352609158198e-07,1.1929388018772685e-06,2.3452857261370802e-05
3.6157454446293923e-07,7.313385226802717e-07,1.209769037323293e-06,2.341130495747812e-05
3.592053311881951e-07,7.234342840169482e-07,1.2274023108035056e-06,2.3344626596849235e-05
3.568202919235381e-07,7.158519562389301e-07,1.2457911377560628e-06,2.3253685384124498e-05
3.5442292806522757e-07,7.086140281210565e-07,1.2649140580078862e-06,2.3139300644807057e-05
3.5201615211903017e-07,7.017343854203689e-07,1.284774935946815e-06,2.300224524646454e-05
3.496029839914556e-07,6.952216537062133e-07,1.3053943328244064e-06,2.2843264643356533e-05
3.47187313203897e-07,6.890848781614192e-07,1.326794155313065e-06,2.266308323684976e-05
3.4477515760355174e-07,6.833378669381314e-07,1.3489808252259055e-06,2.2462395950015935e-05
3.423746275411746e-07,6.779997522287229e-07,1.371933061353289e-06,2.224186287542922e-05
3.3999380488788407e-07,6.730913491441974e-07,1.3955981915227848e-06,2.200211110084097e-05
3.376388849478847e-07,6.686288231443382e-07,1.419896861186271e-06,2.174374217623208e-05
3.3531396979394214e-07,6.646185223943265e-07,1.4447303482109301e-06,2.1467347526805374e-05
3.330225602661968e-07,6.610562446020497e-07,1.469985729615136e-06,2.1173533985266312e-05
3.307696745746928e-07,6.579311772402297e-07,1.4955414174147708e-06,2.086295377907308e-05
3.285615930444949e-07,6.552312240287424e-07,1.5212755495712431e-06,2.053631654248923e-05
3.264030228949519e-07,6.529450860642813e-07,1.547074671550858e-06,2.0194373266531084e-05
3.242957508190345e-07,6.510613011119894e-07,1.5728389958995578e-06,1.9837899437655926e-05
3.2224057576111413e-07,6.495678060314949e-07,1.5984813386644138e-06,1.9467694245092897e-05
3.2023960458259393e-07,6.484522853412801e-07,1.6239199326941868e-06,1.908457739293236e-05
3.182966184893029e-07,6.477018866428889e-07,1.6490694191552782e-06,1.868937690014931e-05
3.164157806302589e-07,6.473025997316749e-07,1.67383454580805e-06,1.828292372591809e-05
3.1459989233134013e-07,6.472391170878662e-07,1.6981080499553352e-06,1.7866060570513284e-05
3.128501960299734e-07,6.474962946607324e-07,1.7217714255139675e-06,1.7439657275706396e-05
3.1116756325892855e-07,6.480626375253372e-07,1.744698252385524e-06,1.7004627167417333e-05
3.0955340767406404e-07,6.489326294510671e-07,1.7667597266139504e-06,1.6561949429108892e-05
3.0801031719767187e-07,6.501039176418099e-07,1.787827952210489e-06,1.6112689901050524e-05
3.0654163722592073e-07,6.515707877122535e-07,1.8077749016413098e-06,1.5657996057990522e-05
3.0514970702986606e-07,6.533193052969899e-07,1.8264721427706856e-06,1.5199065348739667e-05
3.0383507884437087e-07,6.553263791496851e-07,1.8437968282003919e-06,1.4737108848968975e-05
3.025979428968885e-07,6.575610503190989e-07,1.8596443886543518e-06,1.427332462511185e-05
3.014396378807008e-07,6.599864431523497e-07,1.873941791467434e-06,1.3808887996887128e-05
3.0036224851699627e-07,6.625621034889805e-07,1.8866520934280888e-06,1.3344951134431365e-05
2.993685719065697e-07,6.652466670975193e-07,1.8977676948805125e-06,1.2882657457857507e-05
2.984643894381409e-07,6.679995715406996e-07,1.907298469818684e-06,1.2423187429727405e-05
2.9765941573684987e-07,6.707800849031736e-07,1.915261159964962e-06,1.1967788186555135e-05
2.969644517233164e-07,6.735452529473675e-07,1.9216716364411705e-06,1.1517770732270853e-05
2.9638813142812504e-07,6.76250830799859e-07,1.926540033658225e-06,1.107453335163891e-05
2.959359083848176e-07,6.788560119467501e-07,1.92987091721068e-06,1.0639576213431557e-05
2.956105298822242e-07,6.813280607785034e-07,1.9316690766395337e-06,1.0214442571489296e-05
2.954132305580038e-07,6.836432927061574e-07,1.9319452429729072e-06,9.800632138906903e-06
2.953441507102605e-07,6.857856137673198e-07,1.930716441175744e-06,9.399541501442476e-06
2.954015264848795e-07,6.87745287102252e-07,1.928003266999501e-06,9.012429470205265e-06
2.9558202126417176e-07,6.895174968778089e-07,1.923828294535485e-06,8.640397334742694e-06
2.958820057962465e-07,6.910994105244573e-07,1.918215228364564e-06,8.284383423907539e-06
2.962975309549553e-07,6.924866371607883e-07,1.9111872656566346e-06,7.945162264784574e-06
2.9682351538333484e-07,6.936713302040528e-07,1.9027655084856017e-06,7.623342898011763e-06
2.9745349317299216e-07,6.94642400924511e-07,1.8929682538780238e-06,7.319393717727338e-06
2.981802986416929e-07,6.953858424508389e-07,1.8818115909048184e-06,7.033693891900778e-06
2.989974516587359e-07,6.958843846039406e-07,1.8693122480829785e-06,6.766586104129661e-06
2.998995397876113e-07,6.961178588382075e-07,1.8554934090130727e-06,6.518479804970812e-06
3.008809351771896e-07,6.960649575329527e-07,1.840392666117627e-06,6.2899684840276314e-06
3.019346015287368e-07,6.957057800102675e-07,1.8240679630549538e-06,6.0818067219323115e-06
3.030519241225325e-07,6.950239223749871e-07,1.8065972098498901e-06,5.894844386367442e-06
3.042236264976338e-07,6.940067793999522e-07,1.7880714974499318e-06,5.730087665357464e-06
3.0544178917186626e-07,6.926447065381929e-07,1.7685857154739792e-06,5.588737388016928e-06
3.067027513860259e-07,6.909301584791005e-07,1.7482326277413486e-06,5.472073187569965e-06
3.080100753280829e-07,6.888560412881728e-07,1.7271047711545174e-06,5.381276713514055e-06
3.093742209604813e-07,6.864141276914458e-07,1.7053018062390575e-06,5.317281956038524e-06
3.108078588868262e-07,6.835959138340736e-07,1.6829358553682801e-06,5.280719262662691e-06
3.123215927167247e-07,6.803951815348532e-07,1.6601302537209688e-06,5.27198424749989e-06
3.139228574402308e-07,6.768099195756293e-07,1.6370125708390258e-06,5.291324215621843e-06
3.156159781800261e-07,6.728451889257179e-07,1.6137044107204869e-06,5.338831875573968e-06
3.174022818115245e-07,6.68519288662507e-07,1.5903134980409363e-06,5.4143778577059925e-06
3.192806517389674e-07,6.638692590858349e-07,1.5669339735150709e-06,5.5175544813226745e-06
3.212476487666737e-07,6.589518406915868e-07,1.543651204642999e-06,5.6476665098490875e-06
3.232966942248248e-07,6.53840795899428e-07,1.5205427127662976e-06,5.8037889253846976e-06
3.2541775905592e-07,6.486193846180244e-07,1.4976764484588856e-06,5.9848527463998686e-06
3.275984388883733e-07,6.433685302148293e-07,1.4751126885621382e-06,6.189685730473467e-06
3.298252103230917e-07,6.381576226303616e-07,1.45290701611095e-06,6.417023814151126e-06
3.320834175820305e-07,6.330424817320574e-07,1.4311081690423972e-06,6.665557671976124e-06
3.343565671130377e-07,6.280686560888889e-07,1.4097530849603902e-06,6.93399853403496e-06
3.366266188772636e-07,6.232749884672271e-07,1.3888656076260624e-06,7.221106461103003e-06
3.388758275792789e-07,6.186936852765453e-07,1.3684596017722766e-06,7.525665643551552e-06
3.410888149752945e-07,6.143483537271932e-07,1.3485425212577844e-06,7.846413027142011e-06
3.4325263093249165e-07,6.102534402218052e-07,1.3291167795457015e-06,8.181979306477372e-06
3.4535578971602944e-07,6.064162436604832e-07,1.3101797220718755e-06,8.530973262528726e-06
3.473892895261797e-07,6.028403105707928e-07,1.2917232765043706e-06,8.892181318160961e-06
3.493473451042278e-07,5.995289574131426e-07,1.2737327388908395e-06,9.264648310211023e-06
3.512249463585833e-07,5.964890749849473e-07,1.2561858444315078e-06,9.64757031516708e-06
3.5301551613968437e-07,5.937340011368565e-07,1.2390541319519423e-06,1.0040151945471203e-05
3.5471129757540306e-07,5.912833546459522e-07,1.2223058108726994e-06,1.0441527620855024e-05
3.5630476074478775e-07,5.891613162183275e-07,1.205908084113638e-06,1.0850806686833153e-05
3.5778899680045327e-07,5.87395411772017e-07,1.1898281245126514e-06,1.1267312115243375e-05
3.591566995149356e-07,5.860142818555256e-07,1.1740332801298789e-06,1.169086701797665e-05
3.6039914399775075e-07,5.850434876845864e-07,1.1584912422436113e-06,1.2121821256327027e-05
3.6150700815756323e-07,5.845008762788428e-07,1.1431697906031076e-06,1.2560774466497396e-05
3.624727316928781e-07,5.843932596753013e-07,1.1280362289379149e-06,1.3008244716663796e-05
3.632924234353614e-07,5.847164389008903e-07,1.1130588617245509e-06,1.3464475108214535e-05
3.6396611894916405e-07,5.854592991545963e-07,1.0982112688305928e-06,1.3929371837821525e-05
3.644959960917281e-07,5.866092870028797e-07,1.08347563730446e-06,1.4402478525169519e-05
3.64883697942915e-07,5.881565167786615e-07,1.0688424453550294e-06,1.4882945450669132e-05
3.6512936601084156e-07,5.900962745759284e-07,1.054308184859156e-06,1.5369522083866104e-05
3.6523236309834316e-07,5.924296277605282e-07,1.0398721033314602e-06,1.5860601159354488e-05
3.651916251278924e-07,5.951606699731307e-07,1.0255319350363895e-06,1.6354311629059644e-05
3.650053568741529e-07,5.982906894857934e-07,1.011280986513492e-06,1.6848629920048193e-05
3.6467107724843935e-07,6.018147177800125e-07,9.971081663343679e-07,1.7341470142968697e-05
3.6418670299889175e-07,6.057246957033339e-07,9.830006762453158e-07,1.7830742740618413e-05
3.635520217954054e-07,6.100141000278042e-07,9.689491757953484e-07,1.831439912514836e-05
3.627691578247583e-07,6.146785938464863e-07,9.549533352734207e-07,1.879046606258701e-05
3.618418146383242e-07,6.197140860777568e-07,9.410236770383631e-07,1.9257058179975322e-05
3.60774019901609e-07,6.251136343545666e-07,9.271774567990866e-07,1.971237758158705e-05
3.5956962937811864e-07,6.308644855244828e-07,9.134325391629021e-07,2.0154729170113487e-05
3.582337720679768e-07,6.369494735142807e-07,8.998075565446489e-07,2.058255178953376e-05
3.5677500823427634e-07,6.433535077880869e-07,8.863307610202617e-07,2.0994425268534085e-05
3.5520551547626794e-07,6.500676965520736e-07,8.730504146585049e-07,2.1389032721408965e-05
3.535388303979811e-07,6.570847861636596e-07,8.600374163772905e-07,2.176510070708e-05
3.517872255506585e-07,6.64390605204936e-07,8.473773886891624e-07,2.2121345833590755e-05
3.4996100385194894e-07,6.719597320347318e-07,8.351582203274887e-07,2.2456457560204752e-05
3.48070480862244e-07,6.797561432966814e-07,8.234602521003604e-07,2.2769149891800877e-05
3.461286530832252e-07,6.877349012243543e-07,8.123520371372965e-07,2.305826705275917e-05
3.441507859177061e-07,6.95843148164856e-07,8.018919183087884e-07,2.332286403067403e-05
3.421509237874065e-07,7.040214873747831e-07,7.921322609577704e-07,2.356220617949684e-05
3.401400401549756e-07,7.122071364583023e-07,7.83121503862473e-07,2.3775710048502442e-05
3.381280791101241e-07,7.203380514785815e-07,7.749024444978444e-07,2.396287824489688e-05
3.361270352407522e-07,7.28354429663882e-07,7.675082369561795e-07,2.412326857509025e-05
3.3415158315974224e-07,7.361966256229392e-07,7.60958300640528e-07,2.425650997878368e-05
3.3221664032572396e-07,7.43803602792306e-07,7.552564123196499e-07,2.4362356489949842e-05
3.303345533319657e-07,7.511142885385279e-07,7.503930188834628e-07,2.444073340525172e-05
3.285145528372479e-07,7.580710268197626e-07,7.463511531097933e-07,2.449172326707324e-05
3.267640309090421e-07,7.64624117324227e-07,7.431115522441627e-07,2.451552238726888e-05
3.2509063465749326e-07,7.707349012844908e-07,7.406537439413641e-07,2.4512414161106244e-05
3.235042131309221e-07,7.763752599412156e-07,7.389538836889206e-07,2.4482744271392262e-05
3.220168300206723e-07,7.81524048211856e-07,7.37981524587628e-07,2.4426883026412532e-05
3.2064103038276076e-07,7.861627858878199e-07,7.376976952127275e-07,2.434519078198569e-05
3.193877140456798e-07,7.902731906973052e-07,7.380555880427259e-07,2.423801388392593e-05
3.182641171766463e-07,7.938366640279853e-07,7.390023931918064e-07,2.4105720280985792e-05
3.172726482860576e-07,7.968346867512137e-07,7.404802479098856e-07,2.394875642108904e-05
3.164109591791352e-07,7.992493913357493e-07,7.424267676504386e-07,2.376769598295371e-05
3.156726112315693e-07,8.01063602716729e-07,7.447765993197817e-07,2.3563256992533968e-05
3.150481054322947e-07,8.022609520089031e-07,7.474631413918683e-07,2.333628315768594e-05
3.1452675045090196e-07,8.028265050833915e-07,7.504204124260769e-07,2.308772072736163e-05
3.1409877090472624e-07,8.027478406107853e-07,7.535877105296182e-07,2.2818649838019957e-05
3.1375577344577194e-07,8.020162325338992e-07,7.569142101883256e-07,2.253033496092854e-05
3.134893942562232e-07,8.006261516093299e-07,7.603573005703695e-07,2.2224177812824644e-05
3.1329002683941014e-07,7.985730945782719e-07,7.638783279423905e-07,2.1901601712547063e-05
3.131467326207317e-07,7.958526374631373e-07,7.674424297780133e-07,2.1563991574704453e-05
3.1304784627848647e-07,7.924622979327273e-07,7.710190708150473e-07,2.121269830653857e-05
3.129812772233985e-07,7.88404485320963e-07,7.74579808743948e-07,2.084905369642592e-05
3.1293509643823965e-07,7.836873936648988e-07,7.780978950811448e-07,2.047438554668133e-05
3.128993212815813e-07,7.783242693921141e-07,7.81551972836189e-07,2.0090052453774687e-05
3.128669289581541e-07,7.723348175665895e-07,7.849296921984772e-07,1.969752602471676e-05
3.128329337005361e-07,7.657476683648587e-07,7.88227019641126e-07,1.929851160996277e-05
3.127932084630504e-07,7.585994400647545e-07,7.914433353342442e-07,1.8895014293610194e-05
3.1274368955633677e-07,7.509309207325893e-07,7.945782096371753e-07,1.848927905210264e-05
3.12679996152294e-07,7.427842913513814e-07,7.97634063692738e-07,1.808365826495712e-05
3.125977120717824e-07,7.342037579587749e-07,8.006210195280626e-07,1.7680479492090615e-05
3.12492460904428e-07,7.252378314644997e-07,8.035596994553101e-07,1.7281928381736592e-05
3.123596216973353e-07,7.159398953862596e-07,8.064808942390069e-07,1.6889975441554346e-05
3.12194532497402e-07,7.063683427467248e-07,8.094214707569741e-07,1.6506406413121473e-05
3.1199300559750337e-07,6.965873596529277e-07,8.124166859734035e-07,1.61329414440522e-05
3.1175159377359226e-07,6.86664323931518e-07,8.15492659263739e-07,1.577132766281868e-05
3.1146782761206694e-07,6.766634003149844e-07,8.18664248427754e-07,1.5423324565425962e-05
3.11140624435061e-07,6.666415259235686e-07,8.219366392054788e-07,1.5090613042075033e-05
3.107707144217502e-07,6.566506381439611e-07,8.253065438094565e-07,1.4774703450323168e-05
3.1036123427111165e-07,6.467427151298325e-07,8.287672190132966e-07,1.4476886975562854e-05
3.099177653116686e-07,6.369713726747637e-07,8.323211335321687e-07,1.4198239147974487e-05
3.0944659514042847e-07,6.273890762893251e-07,8.359914464675751e-07,1.3939692438230994e-05
3.089522037540699e-07,6.180447060461823e-07,8.398201461215334e-07,1.3702201392131558e-05
3.0843582672944627e-07,6.08982618335705e-07,8.438551159063384e-07,1.3486939600500062e-05
3.078954000110208e-07,6.002409189765547e-07,8.481420167768494e-07,1.3295367334902107e-05
3.0732629482803505e-07,5.91850276619514e-07,8.52730711597689e-07,1.3129101512144376e-05
3.067223126219405e-07,5.838344760462746e-07,8.576882383734464e-07,1.2989698888859192e-05
3.060769347513132e-07,5.76211545399977e-07,8.631052810523917e-07,1.2878451991877206e-05
3.0538439281963783e-07,5.689952750464772e-07,8.690915347469547e-07,1.2796267247891725e-05
3.046395426671737e-07,5.621966362238934e-07,8.75761850007835e-07,1.2743773585658127e-05
3.038371268515264e-07,5.558241632454664e-07,8.83218674025956e-07,1.2721617972772705e-05
3.029715890520009e-07,5.498835611138036e-07,8.915387417149496e-07,1.2730614663221564e-05
3.020370258513558e-07,5.443773147277871e-07,9.007700117454498e-07,1.277162564250599e-05
3.010271516205149e-07,5.393054128939072e-07,9.109385057444441e-07,1.2845378808504187e-05
2.999364693615056e-07,5.346681288490014e-07,9.220570774497108e-07,1.2952361710063025e-05
2.987622616119196e-07,5.304700330300312e-07,9.341309593464165e-07,1.3092775165906129e-05
2.9750475968323214e-07,5.267232328185255e-07,9.471669495484841e-07,1.3266505884656028e-05
2.961651255512787e-07,5.234476423526711e-07,9.611882233569182e-07,1.3473095481264896e-05
2.947439910937223e-07,5.206675101250922e-07,9.762383574956398e-07,1.3711717627070005e-05
2.9324137316244784e-07,5.184064481622816e-07,9.923654071869306e-07,1.3981181531862634e-05
2.9165720911103484e-07,5.166833250285861e-07,1.0096067979238735e-06,1.4279947265060801e-05
2.899930702002585e-07,5.155095925566244e-07,1.0279983487922889e-06,1.4606123496597589e-05
2.882540230560856e-07,5.148882451493176e-07,1.0476009894674851e-06,1.4957455227016904e-05
2.8644870623185356e-07,5.148149658862668e-07,1.068522605949137e-06,1.5331336683602923e-05
2.8458795184150205e-07,5.152809840526304e-07,1.0909217705323564e-06,1.5724859625205495e-05
2.82682710155988e-07,5.162746413338466e-07,1.114992593374754e-06,1.613488207409276e-05
2.8074257429082186e-07,5.17779824623587e-07,1.1409371393332786e-06,1.655810120296505e-05
2.7877638169851124e-07,5.197744384370565e-07,1.1689355279381298e-06,1.6991123055767403e-05
2.7679397843699235e-07,5.222330716293617e-07,1.199121930053181e-06,1.7430529424411528e-05
2.7480758484295304e-07,5.251333010951425e-07,1.2315694457220717e-06,1.7872932334165405e-05
2.728324061241821e-07,5.28461279509104e-07,1.266284912241173e-06,1.831500885112173e-05
2.7088621755729977e-07,5.322129550330461e-07,1.3032130065004466e-06,1.8753538477589583e-05
2.689876758147261e-07,5.36390776270718e-07,1.3422465737404606e-06,1.9185454924245515e-05
2.671540945883709e-07,5.409982441091863e-07,1.3832409612765296e-06,1.960788495661166e-05
2.653999176763987e-07,5.460345034217764e-07,1.4260287928135388e-06,2.001815042701049e-05
2.637364832316796e-07,5.514920459760044e-07,1.470431145879827e-06,2.041373610642616e-05
2.6217246205955977e-07,5.573598871696206e-07,1.516267576005101e-06,2.079225074848168e-05
2.6071384116143825e-07,5.636286469424484e-07,1.5633680731229983e-06,2.115140860520683e-05
2.593640427071309e-07,5.702918844047531e-07,1.6115824642401197e-06,2.148902985936446e-05
2.5812596305326875e-07,5.773432295153218e-07,1.6607819718895315e-06,2.180304983836257e-05
2.570047190537996e-07,5.847737398397986e-07,1.7108526868879174e-06,2.2091534348021484e-05
2.5600761518386285e-07,5.925729341438371e-07,1.7616840108639099e-06,2.235270485184291e-05
2.5514126968157966e-07,6.007314070094732e-07,1.8131582908661758e-06,2.258497208100461e-05
2.5440912610346716e-07,6.092410907856762e-07,1.8651464796556682e-06,2.27869539023002e-05
2.538116529110566e-07,6.180923815371224e-07,1.9175062775228388e-06,2.295746622384845e-05
2.533492353343872e-07,6.272696559601421e-07,1.970077935552464e-06,2.309551471639637e-05
2.530248318529639e-07,6.36747655608894e-07,2.022682610096379e-06,2.320029823689179e-05
2.528433553079153e-07,6.464906630833804e-07,2.075129180299895e-06,2.3271218754493467e-05
2.528097112432447e-07,6.564540349171301e-07,2.1272251307288613e-06,2.3307943685264805e-05
2.529285206287292e-07,6.665863957582821e-07,2.1787872890837776e-06,2.331054036516383e-05
2.532038746597699e-07,6.768320789646001e-07,2.22965539554392e-06,2.3279573423162884e-05
2.536375799598956e-07,6.871342621843743e-07,2.2797048004367992e-06,2.3216057742087075e-05
2.5422810713316044e-07,6.974378005337006e-07,2.3288467311334927e-06,2.3121302645643482e-05
2.549717122503845e-07,7.076904026153756e-07,2.377013953370135e-06,2.299674631236561e-05
2.558649728387876e-07,7.178417126448374e-07,2.42414025447073e-06,2.284383974699162e-05
2.5690733788423534e-07,7.27840475880317e-07,2.470143925501296e-06,2.2663991072535667e-05
2.581021533796835e-07,7.376321687502259e-07,2.5149256276916483e-06,2.245855503112651e-05
2.5945564566400893e-07,7.471595870031056e-07,2.5583818668905412e-06,2.222887102861954e-05
2.6097419695928373e-07,7.563647034342374e-07,2.60041943854442e-06,2.197640520550891e-05
2.626618305063389e-07,7.65189627007082e-07,2.6409567082317684e-06,2.1703005766894746e-05
2.645206826907864e-07,7.735786538111641e-07,2.6799136076807226e-06,2.141107717981339e-05
2.6655328183403354e-07,7.814839439089444e-07,2.7172014916073828e-06,2.1103465282987297e-05
2.687629521752315e-07,7.888736052140948e-07,2.752719260162185e-06,2.0783155363861232e-05
2.7115169033387665e-07,7.957381495495274e-07,2.78635494168769e-06,2.0453023760409424e-05
2.737181591043357e-07,8.020913820142066e-07,2.817989469339048e-06,2.011576583370624e-05
2.7645862729292323e-07,8.079648282485915e-07,2.847499235639331e-06,1.977406038146112e-05
2.793697564140142e-07,8.133988824936968e-07,2.8747585347568414e-06,1.9430880336244398e-05
2.8244884409313776e-07,8.18435137573003e-07,2.8996452957964543e-06,1.908966692031433e-05
2.856911817015294e-07,8.231141482215855e-07,2.9220457882409125e-06,1.8754237187957328e-05
2.8908854770256944e-07,8.27479561648586e-07,2.941853756247577e-06,1.8428573306561093e-05
2.926295334926686e-07,8.315824845034052e-07,2.95896912000688e-06,1.8116634379834342e-05
2.962995141174606e-07,8.354811201909715e-07,2.973299337892388e-06,1.7822202223841252e-05
3.000803714189753e-07,8.392379036062943e-07,2.9847592903112597e-06,1.7548739961515193e-05
3.0395118128945505e-07,8.429160112391742e-07,2.993270719147903e-06,1.7299263005700092e-05
3.078894466598897e-07,8.465741326809758e-07,2.998765821308892e-06,1.7076249800354166e-05
3.118716484465001e-07,8.502611518754428e-07,3e-07,1.6881612597211212e-05
3.1587313894729664e-07,8.540140339621865e-07,3e-07,1.6716700019383026e-05
3.198683876924964e-07,8.578575715525622e-07,2.996679050765637e-06,1.6582292060823647e-05
3.238317747655845e-07,8.618030655744005e-07,2.9896802289885012e-06,1.6478599782950672e-05
3.277384874694173e-07,8.658479450938324e-07,2.9794879465337537e-06,1.6405311372622892e-05
3.315652473017075e-07,8.699797528995424e-07,2.966087994734048e-06,1.6361684666446406e-05
3.352904630931319e-07,8.741830980160239e-07,2.9494762081502043e-06,1.634665339078589e-05
3.388937595218964e-07,8.784453653019457e-07,2.929658844236215e-06,1.6358936254941388e-05
3.423554298684303e-07,8.827582296327542e-07,2.90665227915107e-06,1.6397136382775982e-05
3.456558990196619e-07,8.871147889580216e-07,2.8804845084317013e-06,1.6459792626214137e-05
3.487751789287472e-07,8.915076702155527e-07,2.8511973908009526e-06,1.6545390426682888e-05
3.516929702713924e-07,8.959323932218382e-07,2.818847497160905e-06,1.6652386890938885e-05
3.5438948252893117e-07,9.003913254301563e-07,2.78350679029084e-06,1.677924731991366e-05
3.5684620593410007e-07,9.048943327583132e-07,2.74526353484928e-06,1.6924449493634414e-05
3.5904617301971656e-07,9.09458138925522e-07,2.7042218210600345e-06,1.7086455312989262e-05
3.609736016643627e-07,9.141044973648664e-07,2.660500175266324e-06,1.7263671887162396e-05
3.626134225764092e-07,9.188551980902573e-07,2.6142308116202305e-06,1.7454415253711753e-05
3.639516881533223e-07,9.237253755722855e-07,2.5655590672154203e-06,1.7656901943587805e-05
3.6497709726527747e-07,9.287188574094163e-07,2.5146417744995285e-06,1.7869284318942767e-05
3.6568261756575654e-07,9.338270380339664e-07,2.461644704119273e-06,1.8089687817115078e-05
3.6606576650594796e-07,9.390311671404864e-07,2.406739350614504e-06,1.8316199257486388e-05
3.661273725065161e-07,9.443065168310189e-07,2.3500992584534453e-06,1.8546824079376066e-05
3.658699518034946e-07,9.496251231666069e-07,2.2918973408082013e-06,1.8779464255277248e-05
3.652968881731667e-07,9.54956208214558e-07,2.23230510428652e-06,1.9011935808256788e-05
3.6441283030632313e-07,9.60265512740143e-07,2.171493658289104e-06,1.9242013940826104e-05
3.632241386497268e-07,9.655140052799994e-07,2.109636864418153e-06,1.946749395231491e-05
3.6173858377658993e-07,9.706567636394032e-07,2.046914822548364e-06,1.9686255795435364e-05
3.5996501992197e-07,9.75643255114107e-07,1.98351391973729e-06,1.989631552532823e-05
3.5791347401209606e-07,9.804189667729186e-07,1.9196242411267656e-06,2.009585700376432e-05
3.555962033383353e-07,9.849272394539306e-07,1.8554368944115456e-06,2.0283265303932362e-05
3.530292830721499e-07,9.891104937251725e-07,1.7911408317985993e-06,2.0457199426565445e-05
3.5023291689437973e-07,9.929107910107176e-07,1.726923248129755e-06,2.0616664908693148e-05
3.472303817336602e-07,9.96270460284696e-07,1.662977573633982e-06,2.076097858412665e-05
3.440461489258261e-07,9.991330332288543e-07,1.5995113772232599e-06,2.088963309933159e-05
3.4070347281794967e-07,1.0014436641061955e-06,1.536745580111571e-06,2.1002203213817752e-05
3.372233793019634e-07,1.0031493802516232e-06,1.4749056985399661e-06,2.1098363148511188e-05
3.336264451516405e-07,1.0042009477890815e-06,1.4142090479903059e-06,2.117794071259895e-05
3.299353318233096e-07,1.0045573330919007e-06,1.3548536569425215e-06,2.1240933313641324e-05
3.2617495243233534e-07,1.0041900497162122e-06,1.2970155393244568e-06,2.128747389278817e-05
3.2237021972187445e-07,1.003082319840139e-06,1.2408535099975192e-06,2.1317798105157466e-05
3.185437574835853e-07,1.0012238837154082e-06,1.1865161719495046e-06,2.133232523502085e-05
3.147149769565942e-07,9.98608116079965e-07,1.1341505885832063e-06,2.1331808895858955e-05
3.1090021919187696e-07,9.952334236398347e-07,1.0839106257845192e-06,2.131734720861351e-05
3.0711352907959144e-07,9.911049072664391e-07,1.0359569533052778e-06,2.1290236343959758e-05
3.033686848661848e-07,9.862334721409554e-07,9.90446127210026e-07,2.1251805576043047e-05
2.9968259912040573e-07,9.806330225757166e-07,9.47515584888216e-07,2.120329522650837e-05
2.9607800151505426e-07,9.743177536571998e-07,9.0727251705361e-07,2.1145870196389324e-05
2.925825145897899e-07,9.673011958870085e-07,8.697903253177833e-07,2.108083412382045e-05
2.892239194419787e-07,9.595968628177285e-07,8.351124750238139e-07,2.1009856762555183e-05
2.8602543627754675e-07,9.512195224504715e-07,8.03261971335039e-07,2.0934983667155928e-05
2.830042302300881e-07,9.421876142440762e-07,7.742544011765314e-07,2.08584648522054e-05
2.8017293825185325e-07,9.325260728250091e-07,7.481088431987747e-07,2.078255576563325e-05
2.7754247042039907e-07,9.222666350325634e-07,7.248475493530406e-07,2.0709345198376653e-05
2.7512332787861625e-07,9.114467555050684e-07,7.04484593878964e-07,2.0640616918232447e-05
2.729242842143541e-07,9.001107353218964e-07,6.87017435662592e-07,2.0577762299037414e-05
2.709509870462461e-07,8.883112727527854e-07,6.724312850363926e-07,2.0521763019584987e-05
2.6920623400650946e-07,8.761073781726385e-07,6.607094060697844e-07,2.0473244637949264e-05
2.676904732296192e-07,8.63559097178862e-07,6.518389619668887e-07,2.0432551777196213e-05
2.664020546382257e-07,8.507227971721299e-07,6.458129298780663e-07,2.0399775390686424e-05
2.653382793930034e-07,8.376498845840175e-07,6.426301922889853e-07,2.037473062206495e-05
2.644966158859512e-07,8.243885410992604e-07,6.422880706508051e-07,2.035694618979837e-05
2.638755688706863e-07,8.109861988241103e-07,6.447666091792586e-07,2.0345697444362133e-05
2.634759732911499e-07,7.974913704134751e-07,6.500156911049324e-07,2.034007417618621e-05
2.633016508768903e-07,7.839546609446394e-07,6.579532597051856e-07,2.0339073727890874e-05
2.633577522350804e-07,7.704288364954613e-07,6.684730031794932e-07,2.0341701455310626e-05
2.636480681668547e-07,7.569669620455504e-07,6.814566045780813e-07,2.034703963848027e-05
2.641735918138751e-07,7.436193380215494e-07,6.967867526646862e-07,2.0354271638701667e-05
2.649322834054389e-07,7.30433413842208e-07,7.143568875640953e-07,2.0362690708577623e-05
2.659189863738786e-07,7.174576481957088e-07,7.340718361854223e-07,2.0371702428944368e-05
2.671255165771162e-07,7.047434283583323e-07,7.558380443454824e-07,2.0380800841006023e-05
2.685408638476636e-07,6.923413408480939e-07,7.795502687444464e-07,2.038951914861612e-05
2.7015100775802225e-07,6.802961666885432e-07,8.050829030072584e-07,2.039737680169949e-05
2.719389023132037e-07,6.686454423439576e-07,8.322911924046064e-07,2.040384504281513e-05
2.738852290270002e-07,6.574202224700705e-07,8.610211456264887e-07,2.04083554011767e-05
2.759691983442584e-07,6.466450109119679e-07,8.911190222412279e-07,2.041035544902809e-05
2.781689869559296e-07,6.363374453932943e-07,9.22433031297496e-07,2.0409358786049858e-05
2.804621785113524e-07,6.265086332229761e-07,9.548094655944944e-07,2.0404939022018728e-05
2.8282609010362787e-07,6.171631458526916e-07,9.880897252177466e-07,2.0396692398199854e-05
2.8523868453356646e-07,6.082995322911068e-07,1.0221107444255294e-06,2.038421449524429e-05
2.8768072470258585e-07,5.999124596042081e-07,1.0567084592923344e-06,2.036709292033309e-05
2.901366828510276e-07,5.919947128127482e-07,1.0917239240576885e-06,2.0344909015762453e-05
2.925933452903472e-07,5.845376864908793e-07,1.1270098473942358e-06,2.0317293715099133e-05
2.95039602264646e-07,5.775311793047378e-07,1.162435116917586e-06,2.028404903243425e-05
2.9746860252411925e-07,5.7096410741534e-07,1.197885411012155e-06,2.024523980291152e-05
2.998796985422821e-07,5.648276177117408e-07,1.2332573572180923e-06,2.0201197054376392e-05
3.0227846686012074e-07,5.591203762502103e-07,1.2684478555105926e-06,2.0152459900034935e-05
3.046743373189278e-07,5.538522348463947e-07,1.3033447816921288e-06,2.009967736067165e-05
3.070768373180125e-07,5.490416709686892e-07,1.3378231937987306e-06,2.0043487174697293e-05
3.0949256823893926e-07,5.447079943265181e-07,1.3717481306118064e-06,1.998440404417743e-05
3.119242833122724e-07,5.408641931430342e-07,1.404983647866812e-06,1.992276294847743e-05
3.143720063992232e-07,5.375153364905639e-07,1.43740400683911e-06,1.985875476165792e-05
3.1683412810173306e-07,5.346634851132546e-07,1.4689000423345075e-06,1.979251616458513e-05
3.193069214442803e-07,5.323146182036278e-07,1.4993769708716542e-06,1.972419177228605e-05
3.217840961385021e-07,5.304811212286372e-07,1.5287475271260898e-06,1.9653954167555632e-05
3.2425817322193535e-07,5.291782015228795e-07,1.5569266139657429e-06,1.9581993363789677e-05
3.267225323157998e-07,5.284174260373438e-07,1.5838280791420187e-06,1.950848767997565e-05
3.2917204581078505e-07,5.282011330500986e-07,1.6093634699310884e-06,1.943363602214307e-05
3.3160201906029164e-07,5.285207392050786e-07,1.6334455319842809e-06,1.9357753742700407e-05
3.3400676930241786e-07,5.293604207786922e-07,1.6559942330602391e-06,1.92813117278422e-05
3.363795775659237e-07,5.307024067346721e-07,1.6769394229518548e-06,1.9204890224023585e-05
3.387146620726213e-07,5.325278630495594e-07,1.6962197944733031e-06,1.912910581003207e-05
3.410091860977409e-07,5.348160133407475e-07,1.713782745174772e-06,1.905453518308648e-05
3.432624280632272e-07,5.375483664267936e-07,1.7295879062276906e-06,1.898164360553401e-05
3.454727369026612e-07,5.407149342935458e-07,1.7436111304536256e-06,1.891073510076798e-05
3.476355374168355e-07,5.443159621565257e-07,1.7558447675037812e-06,1.8841931386425963e-05
3.497434296007071e-07,5.483599066702932e-07,1.766296580320359e-06,1.8775173096985973e-05
3.5178704830764013e-07,5.528590828439411e-07,1.7749906715872258e-06,1.871023519979293e-05
3.5375573066952203e-07,5.578251988101989e-07,1.7819676188154652e-06,1.8646749439805757e-05
3.556383285403849e-07,5.632709153144328e-07,1.7872796813311885e-06,1.8584226664123746e-05
3.5742479583229813e-07,5.69214950611681e-07,1.7909831526835174e-06,1.852207065248411e-05
3.5910757177746096e-07,5.756807487826151e-07,1.7931376219555442e-06,1.8459590213598278e-05
3.6068078324654006e-07,5.826887408576168e-07,1.793818091202089e-06,1.8396023172381892e-05
3.621381498879885e-07,5.902502706901614e-07,1.7931303555356678e-06,1.8330566971838133e-05
3.6347268581903905e-07,5.98367650934339e-07,1.7912160829934364e-06,1.8262408673415806e-05
3.646784134411061e-07,6.070398974824062e-07,1.7882449215090557e-06,1.8190755180041795e-05
3.657515436619296e-07,6.162688380396616e-07,1.7843996250414288e-06,1.811485901573488e-05
3.666900439700178e-07,6.260580003254766e-07,1.7798622842551861e-06,1.8034020356698942e-05
3.674929870083096e-07,6.364053232864064e-07,1.774806122046233e-06,1.7947561138055648e-05
3.681602344288091e-07,6.473007040887759e-07,1.7693926883547695e-06,1.785480649167959e-05
3.686915013918769e-07,6.587321828977214e-07,1.7637728664621789e-06,1.7755090914501667e-05
3.6908543380136134e-07,6.70691827743394e-07,1.7580878999225326e-06,1.7647767469100745e-05
3.693399362187011e-07,6.831749674607138e-07,1.7524660386900195e-06,1.7532217637461893e-05
3.694532731178912e-07,6.961747713339775e-07,1.7470148913305458e-06,1.7407886848036537e-05
3.694249406637383e-07,7.096755598209034e-07,1.7418147368040264e-06,1.7274349504697794e-05
3.692556872806113e-07,7.236476690320425e-07,1.7369189296080036e-06,1.7131362916448293e-05
3.689464248068623e-07,7.380463017364896e-07,1.7323618009754608e-06,1.6978861922764992e-05
3.684968398723488e-07,7.528134990542239e-07,1.7281685086084353e-06,1.6816899977714914e-05
3.6790488178381594e-07,7.678800791138488e-07,1.724362004820487e-06,1.6645587233655214e-05
3.67167132700386e-07,7.831670765141048e-07,1.7209655135710324e-06,1.646506453705585e-05
3.6627955165224966e-07,7.985881770535267e-07,1.7180016804416562e-06,1.627553769911504e-05
3.6523821362087153e-07,8.140529169973139e-07,1.7154905472440484e-06,1.6077347398326613e-05
3.6403994085044704e-07,8.294694728544896e-07,1.7134458786827062e-06,1.5870974683586214e-05
3.626833476326622e-07,8.44745975473506e-07,1.7118701279056631e-06,1.565695678505045e-05
3.611697464419387e-07,8.59790167957525e-07,1.710752046006429e-06,1.54358143355924e-05
3.595028230154657e-07,8.745090075462176e-07,1.7100672023743026e-06,1.5208053725778977e-05
3.5768832801458563e-07,8.888101174691238e-07,1.7097770589956492e-06,1.4974237843924564e-05
3.5573483111575904e-07,9.026065727271477e-07,1.7098272578548818e-06,1.4735086407951205e-05
3.536533073611856e-07,9.15823538222807e-07,1.710149895072991e-06,1.449151939510896e-05
3.514545128915489e-07,9.284007535638328e-07,1.7106688387275204e-06,1.4244600177795083e-05
3.4914705849526005e-07,9.402887882381357e-07,1.711303895306703e-06,1.3995432318056564e-05
3.4673798320668603e-07,9.514444421217531e-07,1.7119736289229529e-06,1.3745069568376868e-05
3.442344645017357e-07,9.618287129272e-07,1.7125965674135548e-06,1.3494488359333345e-05
3.4164478289283336e-07,9.71405907401198e-07,1.713091477358664e-06,1.3244673187420917e-05
3.389779389918772e-07,9.801428845817423e-07,1.713383299012544e-06,1.2996757831995705e-05
3.362438126267621e-07,9.88009760375768e-07,1.713415707635669e-06,1.2752071357996485e-05
3.334553244142067e-07,9.9498240122259e-07,1.713158174115615e-06,1.2512037739795035e-05
3.3063032698652054e-07,1.0010435788801578e-06,1.7125980178360158e-06,1.2278012658546684e-05
3.2779100219739577e-07,1.0061811390787064e-06,1.7117243702751474e-06,1.2051155335332264e-05
3.249626413971377e-07,1.0103851824296083e-06,1.7105181667880786e-06,1.183238764723121e-05
3.221742566566441e-07,1.0136457047502106e-06,1.7089524355122152e-06,1.1622421897298682e-05
3.194589392879245e-07,1.0159512092945752e-06,1.706995513825322e-06,1.1421809654945759e-05
3.168512305622692e-07,1.017289180527845e-06,1.704612033013757e-06,1.1231025007867379e-05
3.143836104484228e-07,1.017648261516525e-06,1.7017666423686887e-06,1.105063326829823e-05
3.120850127644321e-07,1.0170216099957727e-06,1.698433183781085e-06,1.0881490130938651e-05
3.099806511889144e-07,1.015412506473877e-06,1.6946005723478737e-06,1.072479168798978e-05
3.080911991019977e-07,1.0128398922742078e-06,1.6902690477245043e-06,1.0581914747943424e-05
3.0643147926712215e-07,1.0093367514490988e-06,1.6854441879131569e-06,1.0454184841533549e-05
3.050101603871487e-07,1.0049417779078274e-06,1.680140401628983e-06,1.0342709147424333e-05
3.0383064086348056e-07,9.996944320169157e-07,1.674395236833801e-06,1.0248377794347556e-05
3.0289266429073274e-07,9.93638176474625e-07,1.6682830151627863e-06,1.0172085724230142e-05
3.021943907280608e-07,9.868275381514569e-07,1.6619165520458612e-06,1.0115005695618346e-05
3.0173345443087933e-07,9.793337302877835e-07,1.6554363332128596e-06,1.0078660848651452e-05
3.01505962803185e-07,9.712435054616345e-07,1.6489925364695388e-06,1.0064789183345888e-05
3.015050304240338e-07,9.626489704532792e-07,1.642726029239069e-06,1.0075161627933777e-05
3.01720684680014e-07,9.536364321701021e-07,1.6367548590391075e-06,1.0111440335249902e-05
3.021411036059297e-07,9.442824009758192e-07,1.6311692102585397e-06,1.0175074283559293e-05
3.0275452782779105e-07,9.346537807601862e-07,1.6260311785181084e-06,1.026721002550927e-05
3.035506164284529e-07,9.248084870644787e-07,1.6213748285063258e-06,1.0388605620876332e-05
3.0451984070683717e-07,9.147982253841948e-07,1.617206809879967e-06,1.053956285400955e-05
3.056518905352484e-07,9.046723159767594e-07,1.613509291907899e-06,1.0719910057596119e-05
3.0693518222479303e-07,8.944783932269272e-07,1.610244309267983e-06,1.0929027743166364e-05
3.083572875026097e-07,8.842603032080195e-07,1.6073585971059553e-06,1.1165874604874776e-05
3.099050330367409e-07,8.740561607054667e-07,1.6047918157830616e-06,1.1429026971944525e-05
3.1156429716932447e-07,8.638967056286293e-07,1.6024890112308982e-06,1.1716768035576546e-05
3.133202048500673e-07,8.538042036506095e-07,1.6004097124951543e-06,1.2027200660890465e-05
3.151582756407832e-07,8.437949753325129e-07,1.5985273862209666e-06,1.2358351452347415e-05
3.1706581573669354e-07,8.338867534361817e-07,1.596822801621639e-06,1.2708262515454832e-05
3.190318555196088e-07,8.241071700656091e-07,1.595277795110721e-06,1.3075048857343085e-05
3.2104594797538226e-07,8.144992433170255e-07,1.5938722712602674e-06,1.345690867242617e-05
3.230970486243309e-07,8.051223307511569e-07,1.5925840452745986e-06,1.3852118450154006e-05
3.2517240795617647e-07,7.96047429747855e-07,1.5913904489786684e-06,1.4259033928639539e-05
3.272571295614058e-07,7.873471812328594e-07,1.5902720111958891e-06,1.4676063227113227e-05
3.293352920584281e-07,7.790852339778026e-07,1.5892182800661044e-06,1.510159214195074e-05
3.313914918283983e-07,7.713106122134919e-07,1.58823273131323e-06,1.553390904693119e-05
3.334121746641353e-07,7.640577732056504e-07,1.5873324076364656e-06,1.5971164155136533e-05
3.353880574061186e-07,7.573482516112988e-07,1.5865406301845494e-06,1.6411362591357522e-05
3.373163324354581e-07,7.511908869738181e-07,1.5858777685338277e-06,1.685241201353211e-05
3.3919955973595237e-07,7.455815760049337e-07,1.5853605617104064e-06,1.7292206348681658e-05
3.4104265041293806e-07,7.405044776435833e-07,1.5850122499548373e-06,1.772867238990811e-05
3.428514625235307e-07,7.359342537267467e-07,1.5848699041478216e-06,1.8159765777068052e-05
3.446323586315591e-07,7.318379735033614e-07,1.5849762776393215e-06,1.85834671606046e-05
3.463906084878081e-07,7.281774989603597e-07,1.5853624919211925e-06,1.899781119419732e-05
3.481287213008373e-07,7.249136066031598e-07,1.5860370184414538e-06,1.940092343795857e-05
3.498463724057418e-07,7.22010716686032e-07,1.5869859635665297e-06,1.9791005951470373e-05
3.515417882901383e-07,7.194398320934455e-07,1.5881807311523397e-06,2.016627595241696e-05
3.532136199792028e-07,7.171792801389098e-07,1.5895870665678503e-06,2.052493609509135e-05
3.5486180741263864e-07,7.152155578018955e-07,1.5911687600066004e-06,2.0865206653518727e-05
3.5648689505185964e-07,7.135439859071011e-07,1.5928856642143734e-06,2.1185378075667146e-05
