3.0264241108540985e-07,5.89148124891444e-07,7.169146795971834e-07,2.21174379695156e-05
3.01794703004584e-07,5.827527164229306e-07,7.178803094484751e-07,2.1975598070648173e-05
3.011544044771139e-07,5.778274172913061e-07,7.195272428654921e-07,2.183036421674308e-05
3.007064465822414e-07,5.744272532731597e-07,7.218961945056543e-07,2.168278554152722e-05
3.0043571773013227e-07,5.725845798857115e-07,7.250245480235447e-07,2.1533716832072283e-05
3.0032762971122304e-07,5.723071590016293e-07,7.289371632194194e-07,2.1383814597848433e-05
3.003685542478933e-07,5.735815684100834e-07,7.336436443937186e-07,2.123357663098272e-05
3.0054616828775557e-07,5.763795227953603e-07,7.391397253073655e-07,2.108339382035021e-05
3.008498844166923e-07,5.806647846176039e-07,7.454085879223002e-07,2.0933556714681368e-05
3.012706536901013e-07,5.863984014189546e-07,7.524211843296765e-07,2.078423322412935e-05
3.0179937875701265e-07,5.935409337558925e-07,7.601384588506268e-07,2.0635463523929927e-05
3.024252308145935e-07,6.0205267203799e-07,7.685150352340118e-07,2.048717617773852e-05
3.031353815298658e-07,6.118944160256747e-07,7.7750013569114e-07,2.0339222151400485e-05
3.039163997239464e-07,6.230305010485716e-07,7.870352677193565e-07,2.0191426134328908e-05
3.047565427810908e-07,6.354326081279974e-07,7.970521207244344e-07,2.0043609245534306e-05
3.05646974433041e-07,6.490813901811075e-07,8.074728079297359e-07,1.9895546721382777e-05
3.065811761013472e-07,6.639631869631869e-07,8.182120440757763e-07,1.974691687657187e-05
3.07553601765589e-07,6.800614978884432e-07,8.29179393448597e-07,1.959731256065516e-05
3.085587323563806e-07,6.9734744422634e-07,8.402806558400197e-07,1.944632319657139e-05
3.095917979291833e-07,7.157737232564759e-07,8.514189621838796e-07,1.929367939221672e-05
3.106497786896494e-07,7.352726757999186e-07,8.624960737467328e-07,1.913941707728517e-05
3.117310041506996e-07,7.557571217910653e-07,8.734152238082287e-07,1.898394822078232e-05
3.128354537942143e-07,7.771228742102994e-07,8.840873819977055e-07,1.8827987561099027e-05
3.139656888766549e-07,7.992522674927568e-07,8.944392291147802e-07,1.867241427381857e-05
3.151259610692264e-07,8.220180991093348e-07,9.044174515179295e-07,1.851816358815453e-05
3.163203460729261e-07,8.452871108045847e-07,9.139867491816158e-07,1.836617922667468e-05
3.175518016806893e-07,8.689232851905035e-07,9.231240056288281e-07,1.8217393904973792e-05
3.188226505191946e-07,8.927918717270607e-07,9.318115707989405e-07,1.807270552015077e-05
3.2013627650762525e-07,9.167625079096292e-07,9.400314511833252e-07,1.793299190329589e-05
3.2149805476818217e-07,9.40709138484766e-07,9.47762972124303e-07,1.7799230943140154e-05
3.2291356911097397e-07,9.645072338910525e-07,9.54985478413757e-07,1.76726567980903e-05
3.2438651068973517e-07,9.880309981530905e-07,9.616834832808585e-07,1.755477087664398e-05
3.259198747738131e-07,1.0111528805388634e-06,9.67850929752246e-07,1.7447174536115213e-05
3.275187052591501e-07,1.0337447959759735e-06,9.734936184454256e-07,1.7351366058463496e-05
3.2918999032859194e-07,1.05567989938242e-06,9.78627749857845e-07,1.7268593060102138e-05
3.3094039258625365e-07,1.0768359036549944e-06,9.832741099548335e-07,1.7199798570705066e-05
3.3277523337676895e-07,1.0970987288522482e-06,9.87453750058365e-07,1.7145753603214828e-05
3.3469817743044076e-07,1.1163632573424976e-06,9.911879244760289e-07,1.7107326358852138e-05
3.367105716859808e-07,1.1345320287972857e-06,9.944974786898644e-07,1.708562162298133e-05
3.38811580184379e-07,1.151515654913763e-06,9.974010754869994e-07,1.7081892295250608e-05
3.4099866549663963e-07,1.1672369117708034e-06,9.999163930163755e-07,1.7097380160616554e-05
3.432682179631073e-07,1.1816356908926115e-06,1.00206282513024e-06,1.7133191748234522e-05
3.456170838249001e-07,1.194669872744906e-06,1.003861072300157e-06,1.7190216515771898e-05
3.4804312009785234e-07,1.2063122432203123e-06,1.0053295593281477e-06,1.7269086316309023e-05
3.5054442586593944e-07,1.216547460146167e-06,1.0064809170767369e-06,1.7370162055511457e-05
3.531196269311231e-07,1.22537041975903e-06,1.0073211843506092e-06,1.7493529009824705e-05
3.557684039411489e-07,1.2327838122982858e-06,1.0078535497443769e-06,1.7638992255357276e-05
3.5849059085810314e-07,1.2387937019971772e-06,1.00808519687876e-06,1.780606652376548e-05
3.6128438900154134e-07,1.2434059575381799e-06,1.0080307268074329e-06,1.7993955866109526e-05
3.641447829500203e-07,1.2466258212628824e-06,1.0077080663229901e-06,1.8201528858303075e-05
3.670633148728025e-07,1.248458814488272e-06,1.0071312746827615e-06,1.8427316335456112e-05
3.700284180406344e-07,1.248911477498886e-06,1.0063079466032628e-06,1.866956158509936e-05
3.730248583706717e-07,1.2479928630861835e-06,1.0052432225734265e-06,1.8926319430379362e-05
3.7603327646530314e-07,1.2457166861931726e-06,1.003944557123735e-06,1.919557061483071e-05
3.790307823852216e-07,1.242103039601095e-06,1.002421386199976e-06,1.947530698509335e-05
3.819923294282107e-07,1.2371794395920672e-06,1.0006816239784213e-06,1.9763559139160526e-05
3.8489253829131257e-07,1.2309813186492623e-06,9.98731631654872e-07,2.0058386499858567e-05
3.877068121917953e-07,1.2235512391595794e-06,9.965794358258965e-07,2.0357849128115804e-05
3.904113102215113e-07,1.2149354634207194e-06,9.942347036279872e-07,2.065995207283056e-05
3.929835962650391e-07,1.2051793841039418e-06,9.91707800439027e-07,2.0962588550729857e-05
3.954038453209708e-07,1.1943253504966129e-06,9.890139384891231e-07,2.126352450019783e-05
3.976541294271396e-07,1.182412998305209e-06,9.861769744786864e-07,2.1560427158801488e-05
3.997166237717565e-07,1.1694798822860162e-06,9.832268165390124e-07,2.1850934040181333e-05
4.0157354762242397e-07,1.1555617841680349e-06,9.801949768704205e-07,2.2132750274925257e-05
4.032084073280277e-07,1.1406936698010638e-06,9.771123760501335e-07,2.24037156688469e-05
4.0460640232819784e-07,1.1249117900066558e-06,9.7400725278104e-07,2.266181038800165e-05
4.057537898272971e-07,1.108255257352535e-06,9.709040873908212e-07,2.290515293656061e-05
4.066375334909951e-07,1.0907657667831577e-06,9.678272300054307e-07,2.3132037153798567e-05
4.072457918884813e-07,1.0724867560556464e-06,9.648060367117814e-07,2.3340985112632683e-05
4.0756866503229204e-07,1.053463307512372e-06,9.6187443005367e-07,2.3530753846932292e-05
4.075985614148754e-07,1.03374234962704e-06,9.590639174728014e-07,2.370026359011445e-05
4.073300780046285e-07,1.0133725601872706e-06,9.563965257162911e-07,2.3848510331317315e-05
4.067605002402881e-07,9.924039944886416e-07,9.538827594561498e-07,2.397454967294465e-05
4.0589162509920355e-07,9.708871726000247e-07,9.515223474478643e-07,2.4077546149294016e-05
4.047311685335793e-07,9.488721562910681e-07,9.493045620230491e-07,2.41568327104522e-05
4.0329269302788314e-07,9.264090715066508e-07,9.472100629596209e-07,2.4211989875918225e-05
4.0159473726971606e-07,9.035498261421283e-07,9.452185842545161e-07,2.424297338661255e-05
3.9965886344997675e-07,8.80349260482373e-07,9.433218363991152e-07,2.425020172824119e-05
3.975069276594742e-07,8.568642847757541e-07,9.415322499989395e-07,2.423448772735092e-05
3.9515908865270143e-07,8.331517157614371e-07,9.398797046983929e-07,2.419684510265344e-05
3.92633268177932e-07,8.092673266582024e-07,9.384007762813751e-07,2.413828768271836e-05
3.899462160873977e-07,7.852663006333957e-07,9.371295551746802e-07,2.4059708294736293e-05
3.871151269835267e-07,7.612036506972145e-07,9.360949623617277e-07,2.3961853918664125e-05
3.8415812892266797e-07,7.371348435811805e-07,9.353265453348663e-07,2.3845346334986595e-05
3.8109383867854383e-07,7.131176169347563e-07,9.348665833813923e-07,2.3710730887868187e-05
3.7794114742567576e-07,6.89216100806314e-07,9.347821073784071e-07,2.3558628861061065e-05
3.747189116310822e-07,6.655051581551775e-07,9.351685352991439e-07,2.3389989542253384e-05
3.714447926096368e-07,6.420684558119127e-07,9.36139110342726e-07,2.320623552742713e-05
3.6813447746844505e-07,6.189897555046589e-07,9.378046451167048e-07,2.3009153128109062e-05
3.6480218996553676e-07,5.963453462386732e-07,9.402567414623899e-07,2.280064931541043e-05
3.614613505223618e-07,5.742021156856148e-07,9.435644347055364e-07,2.258255381573611e-05
3.581248768351854e-07,5.526199088458863e-07,9.477831373546051e-07,2.235656177896918e-05
3.54805259602763e-07,5.316564820133714e-07,9.529668792865689e-07,2.2124399468433287e-05
3.5151383679940386e-07,5.113716266961532e-07,9.59175164859381e-07,2.188813539884101e-05
3.4825962048942016e-07,4.918264660282691e-07,9.664698436830471e-07,2.165034957026684e-05
3.450493677097225e-07,4.73079824669053e-07,9.749030530573263e-07,2.141402971289089e-05
3.418888204657453e-07,4.5518643915777634e-07,9.84503971877237e-07,2.1182347098214955e-05
3.387831786989483e-07,4.38197901912278e-07,9.952731217130485e-07,2.0958461174363602e-05
3.357365194973149e-07,4.2216459145776603e-07,1.0071847377661448e-06,2.074537516802611e-05
3.327510851376959e-07,4.0713753719950865e-07,1.0201909571558252e-06,2.0545825592610102e-05
3.2982660602225537e-07,3.931696067550625e-07,1.0342249235814372e-06,2.0362206876276363e-05
3.2696018831688085e-07,3.8031415415747706e-07,1.0492065656479237e-06,2.0196543674538248e-05
3.241474651111191e-07,3.6862170906313273e-07,1.0650562864199579e-06,2.0050502143379848e-05
3.2138426805249625e-07,3.581377710376579e-07,1.081711452513688e-06,1.9925407814185612e-05
3.18668042168788e-07,3.4890033533623836e-07,1.0991296744281564e-06,1.982223233952933e-05
3.159995370339936e-07,3.409361202940331e-07,1.117278210295637e-06,1.9741537062613897e-05
3.133843121991375e-07,3.3425923871837104e-07,1.136131951909157e-06,1.9683417989008373e-05
3.108318257534699e-07,3.288722487284327e-07,1.1556893023056827e-06,1.9647519726018773e-05
3.083523350049977e-07,3.2476605275808537e-07,1.1759874282165319e-06,1.963314127699428e-05
3.059551065283966e-07,3.219195019767353e-07,1.1971033674324757e-06,1.9639394248108185e-05
3.036495446220689e-07,3.203011365046495e-07,1.219146357270205e-06,1.9665348838181427e-05
3.01447833435788e-07,3.198723336702725e-07,1.2422447576935298e-06,1.9710121902884054e-05
2.9936627786614197e-07,3.205905348329947e-07,1.2665238319057101e-06,1.977290587162602e-05
2.9742289294537054e-07,3.22411425917318e-07,1.2920814217389343e-06,1.9852976729883343e-05
2.9563363449134513e-07,3.252886031162091e-07,1.318979296548114e-06,1.9949707789911602e-05
2.940123288406377e-07,3.291715093079723e-07,1.347253662332178e-06,2.0062571957968785e-05
2.925743852576245e-07,3.3400360129146963e-07,1.376929474072756e-06,2.0191111653975528e-05
2.9134026640247477e-07,3.397212158572659e-07,1.4080257736879126e-06,2.033487685640281e-05
2.9033687069856593e-07,3.4625341498162015e-07,1.4405505589511346e-06,2.049332503512428e-05
2.8959726573726614e-07,3.535231192096057e-07,1.4744904406253656e-06,2.0665692932577758e-05
2.89157828477741e-07,3.6144875903708024e-07,1.5098012056814718e-06,2.0850900945767726e-05
2.8905282048837836e-07,3.6994629748278217e-07,1.546401805909468e-06,2.1047531006228185e-05
2.89310385351094e-07,3.78933314971012e-07,1.5841739666825387e-06,2.1253853507465467e-05
2.8995245416530037e-07,3.883346809360065e-07,1.6229692051521309e-06,2.1467876966859523e-05
2.909963365553677e-07,3.9808478649439897e-07,1.6626195224814788e-06,2.168742331764372e-05
2.9245513958899734e-07,4.0812461025505843e-07,1.702945661815569e-06,2.191021422686417e-05
2.943361011667224e-07,4.1839841852225253e-07,1.7437610925217437e-06,2.213392472574145e-05
2.9663840907794205e-07,4.288523400528421e-07,1.784874355263158e-06,2.235621967622409e-05
2.9935286486586773e-07,4.394334096894689e-07,1.8260909007364198e-06,2.257485256302706e-05
3.024634704105397e-07,4.500885758524833e-07,1.867212317371953e-06,2.2787814391028712e-05
3.0594902558802856e-07,4.607640673805622e-07,1.908035505265012e-06,2.299340551586339e-05
3.097840095010395e-07,4.7140662396295225e-07,1.9483588138091043e-06,2.319017126480077e-05
3.139407036371666e-07,4.819655131563881e-07,1.987992689658281e-06,2.3376778745311466e-05
3.1839324014033857e-07,4.923921276126424e-07,2.026762820170185e-06,2.3551917228085363e-05
3.231209869083842e-07,5.026381186940391e-07,2.06450249353565e-06,2.37142541842714e-05
3.28109744375286e-07,5.126551023218788e-07,2.101044922616082e-06,2.386247931446748e-05
3.333512863240872e-07,5.223968070902227e-07,2.136223974766981e-06,2.3995425282096885e-05
3.388408941479799e-07,5.318227904639172e-07,2.169878286132198e-06,2.411217255136701e-05
3.445726613367885e-07,5.409017289718855e-07,2.2018521436635412e-06,2.421207916309659e-05
3.505351198256636e-07,5.496122960861794e-07,2.2319962247133566e-06,2.429476803332444e-05
3.5671019376224445e-07,5.579416758989197e-07,2.26017155486915e-06,2.436008531147366e-05
3.6307561305055046e-07,5.658832898409498e-07,2.2862538821778183e-06,2.440804329189054e-05
3.696084167932394e-07,5.73434685750542e-07,2.310135819511636e-06,2.44388541936519e-05
3.7628712086174567e-07,5.805958066996571e-07,2.331726456627168e-06,2.445302224147728e-05
3.830922909062654e-07,5.873675514238106e-07,2.3509486337300208e-06,2.445129639458292e-05
3.900060191207124e-07,5.93750516715442e-07,2.3677345000288347e-06,2.443455554669415e-05
3.970100149840725e-07,5.997446746942182e-07,2.382021364894093e-06,2.440382331843433e-05
4.040834241774075e-07,6.05350065281079e-07,2.393751283703193e-06,2.436030968935697e-05
4.112027369731024e-07,6.10567293108477e-07,2.40287607132556e-06,2.4305348347783726e-05
4.183429979630206e-07,6.153981442450289e-07,2.4093630668112537e-06,2.424029866010539e-05
4.2547768836586826e-07,6.198465706943685e-07,2.4131945024979544e-06,2.4166471562719515e-05
4.3257857830341673e-07,6.239183911696024e-07,2.41436365570011e-06,2.408506829924412e-05
4.396171125899044e-07,6.276210164268853e-07,2.412879268756849e-06,2.399712700097617e-05
4.4656486139172706e-07,6.30966334781737e-07,2.4087803245216807e-06,2.390349100397076e-05
4.5339201842926166e-07,6.339736621221121e-07,2.4021504484391945e-06,2.380480125676593e-05
4.6006621654443646e-07,6.366668973458345e-07,2.3931198146498857e-06,2.370148938637411e-05
4.66552806547451e-07,6.39067876754368e-07,2.3818498750129045e-06,2.3593764471995485e-05
4.728157912166174e-07,6.411925674419764e-07,2.368508747269003e-06,2.3481617380608385e-05
4.788191697818935e-07,6.430510852142073e-07,2.3532532650311117e-06,2.33648579474026e-05
4.845294230348179e-07,6.44648401346942e-07,2.3362247938737448e-06,2.3243165847075806e-05
4.899182721620679e-07,6.459849069564183e-07,2.3175516058906934e-06,2.311612573822991e-05
4.949631445011196e-07,6.470580953639695e-07,2.297350273124519e-06,2.298325972220797e-05
4.996448762643158e-07,6.478655752583083e-07,2.2757252859189475e-06,2.2844084201554614e-05
5.039452852994086e-07,6.484078891366383e-07,2.252769016691321e-06,2.269816488908098e-05
5.07847082257305e-07,6.486903074427071e-07,2.2285637733944043e-06,2.254513823503384e-05
5.11335681205275e-07,6.487235884695383e-07,2.2031846744741263e-06,2.2384713281079e-05
5.144004039065986e-07,6.48522292033685e-07,2.17670104161177e-06,2.2216672786933138e-05
5.170353497188285e-07,6.481001945564986e-07,2.1491773666719254e-06,2.204087922180108e-05
5.192424045032657e-07,6.474666120599092e-07,2.120675145757333e-06,2.1857290924089223e-05
5.210336162224317e-07,6.466273379963377e-07,2.091256018881244e-06,2.1665985367797472e-05
5.224281472834782e-07,6.455871907150725e-07,2.0609899768799413e-06,2.146716586068548e-05
5.234459512432951e-07,6.443493393277239e-07,2.02996817330202e-06,2.1261131230973488e-05
5.241037779367714e-07,6.429130799110044e-07,1.998311600542961e-06,2.104822818878449e-05
5.244148673133276e-07,6.412735444775291e-07,1.9661697423088338e-06,2.0828809617212452e-05
5.24390100018157e-07,6.394229653934672e-07,1.9337086088513872e-06,2.06032042840398e-05
5.240391451213303e-07,6.373530244435178e-07,1.9010919559440936e-06,2.037174436101761e-05
5.233711149062559e-07,6.350584298866994e-07,1.8684678178916405e-06,2.013486814292848e-05
5.223945207103451e-07,6.325389777169068e-07,1.8359707338837051e-06,1.989317564710221e-05
5.211174011641818e-07,6.297979262042577e-07,1.8037346252717984e-06,1.9647343443082543e-05
5.195477495619686e-07,6.268394451019293e-07,1.7719020937812716e-06,1.9397998143889465e-05
5.176934294997156e-07,6.236676031378097e-07,1.740622601927869e-06,1.914567437892923e-05
5.155619584529704e-07,6.202856824375495e-07,1.710043792047433e-06,1.8890873610737164e-05
5.131608466925743e-07,6.166956412565661e-07,1.6803031196166995e-06,1.863416679214331e-05
5.104984413794127e-07,6.128993040382093e-07,1.6515215394831883e-06,1.8376239745752688e-05
5.07584910019156e-07,6.089010680061183e-07,1.62380104739903e-06,1.811783399746923e-05
5.044329677292536e-07,6.047101372353387e-07,1.5972294580079859e-06,1.7859637529904542e-05
5.010577000262042e-07,6.003407964144728e-07,1.571888415312567e-06,1.7602204041230792e-05
4.974748009154317e-07,5.958104807885265e-07,1.547857711605274e-06,1.734596830947626e-05
4.936983376984406e-07,5.911369388961722e-07,1.5252136593775771e-06,1.709137667889178e-05
4.897400762566346e-07,5.863366557147102e-07,1.5040215363159531e-06,1.6839038825993563e-05
4.856099982117426e-07,5.814245391701074e-07,1.4843265994912397e-06,1.6589756692702593e-05
4.813168228752189e-07,5.764132856973146e-07,1.4661509923094725e-06,1.6344409766693838e-05
4.768691479349388e-07,5.713132033776372e-07,1.4494970202248763e-06,1.610382275666035e-05
4.722766884974179e-07,5.661340724102241e-07,1.4343506321229676e-06,1.5868707156349497e-05
4.675501423494256e-07,5.608875091805274e-07,1.4206813828473803e-06,1.5639641560713047e-05
4.627009696800659e-07,5.555872020003676e-07,1.4084423838434515e-06,1.5417050564027593e-05
4.5774210712942064e-07,5.502475959433506e-07,1.397574232031416e-06,1.5201228489783701e-05
4.526880012791627e-07,5.448843298226717e-07,1.388010557259774e-06,1.4992478789731593e-05
4.4755351464204885e-07,5.395163567933219e-07,1.3796811101629662e-06,1.4791353752080447e-05
4.423527398959825e-07,5.341658257998447e-07,1.3725105389460194e-06,1.4598823464761114e-05
4.370979105036145e-07,5.288554591720372e-07,1.3664150541417649e-06,1.441621397585871e-05
4.317986638754313e-07,5.236057448922783e-07,1.3613037948041466e-06,1.4244988594023319e-05
4.2646254429207076e-07,5.1843243037039e-07,1.3570864079941382e-06,1.4086542228183706e-05
4.210966616488635e-07,5.133453321815086e-07,1.3536798587025565e-06,1.3942088422152871e-05
4.157087833810519e-07,5.083493273727309e-07,1.3510110518690846e-06,1.381269221394586e-05
4.103069998538562e-07,5.034462131958729e-07,1.349017553786408e-06,1.3699468228957989e-05
4.0489969146824386e-07,4.986361309136725e-07,1.3476476523061364e-06,1.360379223055984e-05
3.9949686282617174e-07,4.939182217129386e-07,1.346859747702669e-06,1.3527322049986645e-05
3.9411091640447296e-07,4.892902781970399e-07,1.3466187757753365e-06,1.3471839378874976e-05
3.887551249445421e-07,4.847485703455271e-07,1.3468890867153015e-06,1.3439055673103653e-05
3.8344129110903894e-07,4.802898347052411e-07,1.3476333407191043e-06,1.343045560160734e-05
3.7817860346513436e-07,4.7591396085148347e-07,1.3488243218642194e-06,1.3447195759116413e-05
3.729733519598541e-07,4.71624416009367e-07,1.3504590705734743e-06,1.3490051785376635e-05
3.678287934248446e-07,4.6742749109500645e-07,1.3525618487293206e-06,1.3559394481307427e-05
3.6274593379035697e-07,4.633318220963882e-07,1.3551739063418174e-06,1.3655193622499833e-05
3.5772630285501337e-07,4.5934655804512796e-07,1.3583368432611543e-06,1.377704481444444e-05
3.5277515021951594e-07,4.5547850075647534e-07,1.3620831127522093e-06,1.3924189423920847e-05
3.479015714136527e-07,4.517313949442e-07,1.366441208709812e-06,1.4095514663269128e-05
3.4311596059470345e-07,4.481088953260079e-07,1.3714454142665578e-06,1.428956075433591e-05
3.384291199011027e-07,4.446183160310624e-07,1.377139358776972e-06,1.4504556111287046e-05
3.338539212952169e-07,4.412708829213192e-07,1.3835739934161259e-06,1.4738482983320112e-05
3.2940544440544987e-07,4.3807903183141487e-07,1.3908007717619655e-06,1.4989179232161608e-05
3.250981379055553e-07,4.3505378954660217e-07,1.3988600380924515e-06,1.5254458663371179e-05
3.209441282937594e-07,4.3220279760391093e-07,1.4077725890291016e-06,1.553220691441179e-05
3.16954565927318e-07,4.2952894895121774e-07,1.4175424716065846e-06,1.5820442763006178e-05
3.131402216609263e-07,4.2703018740802596e-07,1.42816615676636e-06,1.6117355774993865e-05
3.0950959970468016e-07,4.2470051502936346e-07,1.4396368130483514e-06,1.642130166004701e-05
3.060672209751621e-07,4.225318108810988e-07,1.4519394619754318e-06,1.6730738139145002e-05
3.028132174086893e-07,4.2051506321254846e-07,1.4650422484871158e-06,1.7044121291060096e-05
2.997437198723194e-07,4.1863963889587065e-07,1.4788921955544291e-06,1.735981030634949e-05
2.968521641612982e-07,4.1689207169885614e-07,1.4934187290119754e-06,1.767604857402202e-05
2.941310573563152e-07,4.1525681844721076e-07,1.5085408164032456e-06,1.7991056090199083e-05
2.915738115436451e-07,4.137184550444698e-07,1.5241710038867178e-06,1.830315631650792e-05
2.8917632515680984e-07,4.1226282962467844e-07,1.5402166625895182e-06,1.8610813208135426e-05
2.8693656024890044e-07,4.108760650334993e-07,1.5565881035949197e-06,1.891256945110564e-05
2.848520523706228e-07,4.095433682676469e-07,1.57321816241618e-06,1.920698437364188e-05
2.82918410157994e-07,4.082510540091055e-07,1.590082362860294e-06,1.9492626926526903e-05
2.811305955998108e-07,4.069909454205801e-07,1.6072030982046856e-06,1.9768091471316288e-05
2.7948497479105805e-07,4.057616683698936e-07,1.6246312685166903e-06,2.003199500062777e-05
2.779790578319976e-07,4.045664198214365e-07,1.6424172125820481e-06,2.0282978745573425e-05
2.766095299316657e-07,4.034122439813748e-07,1.6605954542757025e-06,2.051978040805842e-05
2.753715514895498e-07,4.0231095064422114e-07,1.679194164645871e-06,2.074138933548414e-05
2.7425945700211966e-07,4.012780960478657e-07,1.6982532644045203e-06,2.0947190531724032e-05
2.732669143359554e-07,4.003293777170345e-07,1.717832081577839e-06,2.1136981817574787e-05
2.723863417940182e-07,3.994764924232797e-07,1.7380027454096974e-06,2.131085771528592e-05
2.716095094853693e-07,3.9872488012999884e-07,1.7588357932876877e-06,2.146903761715583e-05
2.70930079457834e-07,3.980739899549799e-07,1.780385917874691e-06,2.161170733807484e-05
2.703453728370096e-07,3.9751880317815387e-07,1.8026813214861904e-06,2.173893412452177e-05
2.698547023868567e-07,3.970514276442464e-07,1.8257204821192283e-06,2.1850683446092915e-05
2.6945586981776836e-07,3.966626472279093e-07,1.8494785615625862e-06,2.1946889683056464e-05
2.691432819839385e-07,3.9634410748942547e-07,1.8739131666665024e-06,2.2027512969807003e-05
2.689089282871159e-07,3.9609069137759883e-07,1.8989610934972e-06,2.2092559033275673e-05
2.68745405606774e-07,3.959010254334329e-07,1.924535626348604e-06,2.214205902148995e-05
2.6864829143224865e-07,3.957766158846508e-07,1.950532805130299e-06,2.217605836122801e-05
2.686151501401477e-07,3.957232460489781e-07,1.976838886866575e-06,2.2194741164333592e-05
2.686427326579938e-07,3.95755523111899e-07,2.003330678200917e-06,2.2198656813319533e-05
2.687257010579168e-07,3.9590093448740117e-07,2.029871315563714e-06,2.218877356588569e-05
2.6885755451237066e-07,3.9619937067095524e-07,2.056308627586913e-06,2.216629402654122e-05
2.690325925436117e-07,3.966972216669998e-07,2.0824807775026315e-06,2.213252468159089e-05
2.692468151318797e-07,3.9743877492432274e-07,2.108226485940477e-06,2.2088909764289357e-05
2.694966749357369e-07,3.984593787557058e-07,2.1333908142943e-06,2.2037034489071395e-05
2.697773720306016e-07,3.997833437161546e-07,2.1578223661463816e-06,2.1978537700356044e-05
2.700823830117698e-07,4.0142573508140225e-07,2.181368046411477e-06,2.191502467315597e-05
2.704036848288197e-07,4.0339546704020865e-07,2.203872833116335e-06,2.184799305072689e-05
2.707317431277104e-07,4.0569856534693826e-07,2.225184942345088e-06,2.177875524552925e-05
2.710558036632959e-07,4.0834018538706843e-07,2.2451615329093186e-06,2.1708378517006878e-05
2.713649329070516e-07,4.113237622857061e-07,2.263670507652622e-06,2.163766162832997e-05
2.716494189704824e-07,4.1465012532641394e-07,2.280588387534105e-06,2.156713981330122e-05
2.7190284673499425e-07,4.183188211192353e-07,2.2957975824252512e-06,2.1497099388162188e-05
2.7212450856205604e-07,4.2232767661092647e-07,2.309185350385089e-06,2.1427599922274845e-05
2.723195981677444e-07,4.266699147182338e-07,2.3206442503745275e-06,2.135851824315109e-05
2.724958969773889e-07,4.313338120535512e-07,2.330072742690814e-06,2.1289608064673214e-05
2.7265986646321357e-07,4.3630587801117326e-07,2.3373767459991318e-06,2.1220534508169557e-05
2.7281528163118736e-07,4.4157473660478706e-07,2.3424752713323937e-06,2.1150862833582386e-05
2.7296359684079804e-07,4.4713376323295386e-07,2.3453081802015738e-06,2.108004681575293e-05
2.731043170924384e-07,4.5298059480450354e-07,2.3458386273591183e-06,2.100747456884456e-05
2.732358602057452e-07,4.59113324393929e-07,2.344048110092821e-06,2.093255349466756e-05
2.733570311504985e-07,4.6552651313872824e-07,2.3399292916295694e-06,2.0854771051917e-05
2.73467723850991e-07,4.722097428623093e-07,2.333482047215395e-06,2.0773718878924053e-05
2.7356901019872827e-07,4.791487549706155e-07,2.324715310848209e-06,2.0689108194882308e-05
2.736639526859533e-07,4.863266314471034e-07,2.313653812662189e-06,2.0600787390602263e-05
2.737579165360389e-07,4.937222937458982e-07,2.3003475694567044e-06,2.050875717394487e-05
2.7385686782143684e-07,5.013079257651757e-07,2.2848800312095217e-06,2.041316835226057e-05
2.739653919541215e-07,5.090491125441823e-07,2.26736793130166e-06,2.031428044791777e-05
2.740863872922288e-07,5.169078878250236e-07,2.2479521498199434e-06,2.021238635530748e-05
2.7422228935787875e-07,5.248459461008538e-07,2.22678598564716e-06,2.010773187506189e-05
2.743756418671848e-07,5.328269528663704e-07,2.2040244412920502e-06,2.0000470830944845e-05
2.745477110892731e-07,5.408180687482826e-07,2.179815643651701e-06,1.989071920026852e-05
2.7473812538294467e-07,5.487892964918976e-07,2.154297188781269e-06,1.977870038389693e-05
2.749475527935284e-07,5.56711934357989e-07,2.12759873378673e-06,1.9664837694211747e-05
2.751803140388246e-07,5.645603789814984e-07,2.0998475704928205e-06,1.954968563950267e-05
2.754439552240847e-07,5.723166709245296e-07,2.071172109930428e-06,1.943376787869356e-05
2.757472021224231e-07,5.799729153347265e-07,2.041700678078564e-06,1.931746407422831e-05
2.760996012558511e-07,5.875296854168476e-07,2.0115572371722113e-06,1.9201020138785504e-05
2.7651302162473156e-07,5.949918608699005e-07,1.9808584680426118e-06,1.9084634524925392e-05
2.770018062532058e-07,6.023630404238099e-07,1.9497142994154074e-06,1.896850496196904e-05
2.775802395854836e-07,6.096401600172333e-07,1.9182285849807223e-06,1.885279853154613e-05
2.782596333888865e-07,6.168117192448919e-07,1.886497033977768e-06,1.8737604519334568e-05
2.790467706509202e-07,6.238612833874692e-07,1.8546066096340801e-06,1.8622900169308318e-05
2.7994387453382576e-07,6.307723783055431e-07,1.8226415348681347e-06,1.8508545389212605e-05
2.80950376234552e-07,6.375292816989415e-07,1.7906917641904014e-06,1.839436767348325e-05
2.820649454709836e-07,6.441149541475952e-07,1.7588550600201874e-06,1.828030972931188e-05
2.8328560176704193e-07,6.505106994020676e-07,1.7272330415878257e-06,1.8166493080160888e-05
2.846087116794693e-07,6.566972215745387e-07,1.6959335539328376e-06,1.8053142604442145e-05
2.860289127284355e-07,6.626550323805675e-07,1.6650834820326084e-06,1.7940463430373413e-05
2.875412810905164e-07,6.683644610596204e-07,1.6348357628474422e-06,1.782857416589497e-05
2.891445467358375e-07,6.73805506946212e-07,1.605358385468589e-06,1.771751608900264e-05
2.908414422238435e-07,6.78957569853496e-07,1.576814169820664e-06,1.7607266196985966e-05
2.9263582894772967e-07,6.838003097054214e-07,1.5493461375827698e-06,1.7497715360083445e-05
2.945305889192923e-07,6.883155630072147e-07,1.523075135401218e-06,1.738869393369382e-05
2.96527915389247e-07,6.924876457853748e-07,1.4981055997712597e-06,1.728012997243876e-05
2.986295360741861e-07,6.963020321863091e-07,1.4745302639795974e-06,1.7172245653506113e-05
3.008353741206262e-07,6.997454570056264e-07,1.452429561261267e-06,1.7065589788249712e-05
3.03143563396564e-07,7.028068129016046e-07,1.431866967816619e-06,1.69608894881056e-05
3.0555326916030366e-07,7.054766805615463e-07,1.41288368504263e-06,1.685887795864504e-05
3.0806626520444695e-07,7.077463898689851e-07,1.3954996932417289e-06,1.6760185386501007e-05
3.106848027863869e-07,7.096072308949116e-07,1.3797225275002265e-06,1.666533767892335e-05
3.1340828183950876e-07,7.110496544613712e-07,1.3655528486940304e-06,1.6574926215101432e-05
3.1623149991849e-07,7.120627386168676e-07,1.3529846908923843e-06,1.648983238172795e-05
3.1914531210149343e-07,7.126343439957035e-07,1.342014574795294e-06,1.641126215654689e-05
3.221389777351169e-07,7.127532193508062e-07,1.3326607706167649e-06,1.6340578532010786e-05
3.2520280122601764e-07,7.124121955695368e-07,1.3249713204089648e-06,1.6279116825092553e-05
3.2832956920997005e-07,7.116096742505862e-07,1.3190074474117088e-06,1.6228069906816885e-05
3.315131602942736e-07,7.103497055061573e-07,1.3148185285839928e-06,1.6188416985058206e-05
3.3474536677236384e-07,7.086411178018254e-07,1.3124341448360286e-06,1.6160869344417798e-05
3.3801429785775513e-07,7.06494190265494e-07,1.3118756621312451e-06,1.6145836460284286e-05
3.4130527465796586e-07,7.039167124931315e-07,1.3131692098650949e-06,1.614342071876004e-05
3.446033017475409e-07,7.009126718423821e-07,1.3163481342889258e-06,1.615343412373639e-05
3.478963507848993e-07,6.974834350010931e-07,1.3214461448931605e-06,1.617541944675636e-05
3.511776152031979e-07,6.936297541629735e-07,1.3284858729716648e-06,1.620867272049928e-05
3.544453485803642e-07,6.893533652158165e-07,1.3374677148726672e-06,1.6252289899920434e-05
3.5770054576835656e-07,6.846585038980711e-07,1.3483632825519469e-06,1.6305238909040785e-05
3.609432225533661e-07,6.795539784858792e-07,1.36111429255577e-06,1.6366433000721848e-05
3.641695353476826e-07,6.740544124141465e-07,1.3756339458603936e-06,1.6434811714406772e-05
3.673724038173675e-07,6.681797258363179e-07,1.391809410018358e-06,1.650943431422459e-05
3.7054479590954706e-07,6.619534912271496e-07,1.4095064219222591e-06,1.6589539855603424e-05
3.736821148398493e-07,6.554009000385412e-07,1.4285752682065825e-06,1.667454674185754e-05
3.767816438089704e-07,6.485477877350341e-07,1.4488584902306231e-06,1.6764026655292347e-05
3.798399255276836e-07,6.414220782607457e-07,1.470199997989808e-06,1.6857683660562906e-05
3.828505704132192e-07,6.340562287476115e-07,1.4924489476287927e-06,1.6955325762691585e-05
3.858041747369647e-07,6.264877837178419e-07,1.5154546126656182e-06,1.7056793912397226e-05
3.886898865999322e-07,6.18757431037231e-07,1.5390598237765802e-06,1.7161846654783097e-05
3.914982647939019e-07,6.109055036351543e-07,1.5631013281412619e-06,1.7270079810867044e-05
3.942251238609508e-07,6.029684431006769e-07,1.587414651024276e-06,1.738096898576426e-05
3.968735829973416e-07,5.949773465395176e-07,1.6118375424031294e-06,1.749399987054569e-05
3.994522687414961e-07,5.869589517978018e-07,1.6362125794101087e-06,1.7608759731833527e-05
4.01971779274484e-07,5.789370027831622e-07,1.6603893178224511e-06,1.77249330319781e-05
4.044431251267729e-07,5.709328108750775e-07,1.6842235013526902e-06,1.7842250599533623e-05
4.068791229554857e-07,5.629670282630267e-07,1.7075779657245968e-06,1.796045168798944e-05
4.09295499553551e-07,5.55062307288652e-07,1.7303310269837776e-06,1.807927576237811e-05
4.11708565404365e-07,5.472424099900409e-07,1.7523850856586155e-06,1.8198456405762807e-05
4.141309124629688e-07,5.395283175140381e-07,1.7736644021520794e-06,1.831769261696413e-05
4.165687450302618e-07,5.319364536368594e-07,1.7941034565655998e-06,1.8436636795001872e-05
4.190217085771829e-07,5.244796920317067e-07,1.8136357226331574e-06,1.855492545620661e-05
4.214836661856015e-07,5.171688834141258e-07,1.832188399016724e-06,1.8672210741357525e-05
4.2394362238007325e-07,5.100147932695902e-07,1.8496824299592582e-06,1.8788165024760608e-05
4.263873949835778e-07,5.030300086294136e-07,1.866035748929906e-06,1.8902456449381865e-05
4.2880054124380396e-07,4.962288245960024e-07,1.8811665587856816e-06,1.901469120116934e-05
4.311709213407165e-07,4.896252812216724e-07,1.8949935029074914e-06,1.9124342422059364e-05
4.334892155756609e-07,4.832316090923632e-07,1.907434869370813e-06,1.9230716688070964e-05
4.357483890515383e-07,4.770577779437568e-07,1.9184132560622717e-06,1.9332995067625e-05
4.3794264475996847e-07,4.711112281893881e-07,1.9278698546663442e-06,1.9430316802830434e-05
4.400656406119768e-07,4.6539676655218003e-07,1.935783163154292e-06,1.9521841888939345e-05
4.4210969930932293e-07,4.599170656746057e-07,1.942174785418351e-06,1.9606773900225823e-05
4.440669547223739e-07,4.546731152292574e-07,1.9470935616546156e-06,1.96843535251918e-05
4.459309182247411e-07,4.49663979107967e-07,1.9505998279450604e-06,1.975385103558417e-05
4.476975149447895e-07,4.4488680914191944e-07,1.952771778691286e-06,1.9814628968793068e-05
4.49365296246533e-07,4.403375314717288e-07,1.953721328475896e-06,1.9866265507591115e-05
4.5093413665196856e-07,4.360107033378294e-07,1.953598972336678e-06,1.990859285858079e-05
4.5240334494112434e-07,4.318986865128421e-07,1.952587633018002e-06,1.9941615668291675e-05
4.537713049453717e-07,4.279915362494607e-07,1.9508921393315268e-06,1.996542091518996e-05
4.5503701721739186e-07,4.2427776012016757e-07,1.948723383171846e-06,1.9980109318774832e-05
4.562013286639232e-07,4.20747172996515e-07,1.946277540100047e-06,1.9985726876890803e-05
4.572655867602986e-07,4.173965400491063e-07,1.943724133324099e-06,1.9982221423976288e-05
4.5822879183495437e-07,4.1423390711528246e-07,1.9412141370347454e-06,1.9969435544777952e-05
4.590859987411126e-07,4.112771716548553e-07,1.93889509932658e-06,1.9947114763596992e-05
4.598287146601389e-07,4.0854809368528645e-07,1.936912594246304e-06,1.991491795882727e-05
4.6044649058528976e-07,4.060659652741282e-07,1.93539671610695e-06,1.987243053011378e-05
4.60928617218884e-07,4.038438770733752e-07,1.934449610412908e-06,1.9819181810297572e-05
4.612650480025661e-07,4.0188923885279457e-07,1.9341437815021166e-06,1.9754668446316464e-05
4.6144712008921737e-07,4.0020944854296603e-07,1.934523805643724e-06,1.9678381887220692e-05
4.614686118145571e-07,3.9881870988436105e-07,1.9356051452511555e-06,1.958983739311446e-05
4.6132559902492525e-07,3.9773797082350323e-07,1.937374553501412e-06,1.948860873969953e-05
4.610145562432875e-07,3.96988339311545e-07,1.9397935684651714e-06,1.9374367510608552e-05
4.605309687903329e-07,3.965860639430385e-07,1.942803247600754e-06,1.924690072038397e-05
4.598697824799568e-07,3.9654125395048634e-07,1.946333750310633e-06,1.910608427630047e-05
4.590270510186061e-07,3.968578399319956e-07,1.9503175421081632e-06,1.895184393543909e-05
4.580017391220169e-07,3.9753465349400616e-07,1.954694202987983e-06,1.878414592780882e-05
4.567960284657561e-07,3.985674547792444e-07,1.9594021859254157e-06,1.860300664197157e-05
4.554139548771026e-07,3.9994987295180985e-07,1.964368091967506e-06,1.8408494499100807e-05
4.538599773777489e-07,4.0167247872255824e-07,1.969503111981303e-06,1.8200722587085072e-05
4.521379800980521e-07,4.037215127242285e-07,1.974707004859291e-06,1.7979848291352095e-05
4.502505967626397e-07,4.0607843675742256e-07,1.979876880128163e-06,1.774609936807981e-05
4.481990479088932e-07,4.087199880440939e-07,1.9849169438168625e-06,1.749982839767941e-05
4.45983847694224e-07,4.1161857732326023e-07,1.989742522217768e-06,1.7241567224274373e-05
4.436062392513156e-07,4.1474285357445716e-07,1.994274884561433e-06,1.6972044235065853e-05
4.4106892507901106e-07,4.180577557503085e-07,1.9984334096489087e-06,1.6692160452196182e-05
4.383753232296109e-07,4.215246408621409e-07,2.002133797020984e-06,1.6402952270224958e-05
4.35528331526324e-07,4.251024337675143e-07,2.0052948066939653e-06,1.6105550622406972e-05
4.3252963961760103e-07,4.2874928025444103e-07,2.007852487774368e-06,1.5801132583169053e-05
4.293799016341026e-07,4.3242420643767777e-07,2.0097729422538533e-06,1.5490882761133396e-05
4.260798888272313e-07,4.360886733818288e-07,2.0110496668114638e-06,1.5175972042723403e-05
4.226321465073066e-07,4.3970770012175377e-07,2.0116908226977604e-06,1.4857548857009965e-05
4.190420231877948e-07,4.4325026030300247e-07,2.0117181650988884e-06,1.4536737593209268e-05
4.153183798177152e-07,4.4668880301798403e-07,2.011180383248286e-06,1.4214620040737134e-05
4.114753440447147e-07,4.499990347384093e-07,2.01016169944786e-06,1.3892227573380965e-05
4.075336786331926e-07,4.531609415204004e-07,2.008774358406129e-06,1.3570610715646527e-05
4.0351875035092344e-07,4.561597015268855e-07,2.00714253763096e-06,1.3250932664977284e-05
3.99456197390455e-07,4.5898499180297214e-07,2.005389837889487e-06,1.2934463074714227e-05
3.9536933944561383e-07,4.616287817848947e-07,2.003631235498063e-06,1.262247616543593e-05
3.912795516872596e-07,4.640828804851445e-07,2.0019632861843682e-06,1.231614735995569e-05
3.872073785099942e-07,4.6633771326434204e-07,2.0004541052663927e-06,1.2016506487381591e-05
3.8317235606539796e-07,4.6838318570383777e-07,1.9991392267105868e-06,1.1724486388180656e-05
3.791923733968286e-07,4.702120532123785e-07,1.998023345277757e-06,1.1441052060521316e-05
3.7528409587382157e-07,4.7182379264788e-07,1.997083906982016e-06,1.1167285831447915e-05
3.714634038880399e-07,4.732245549230111e-07,1.9962744538647256e-06,1.0904329466528474e-05
3.67744554404718e-07,4.744230077280257e-07,1.995528385438847e-06,1.0653241930577696e-05
3.641395882614768e-07,4.754265948271778e-07,1.994764832227943e-06,1.0414892425005338e-05
3.60660222709691e-07,4.762403341066604e-07,1.9938985808042167e-06,1.0189922567605569e-05
3.5732090648530713e-07,4.768669680799978e-07,1.992854286750556e-06,9.978747606098844e-06
3.5413844633721525e-07,4.773071071922547e-07,1.991582214486231e-06,9.781578111397341e-06
3.5112798890766897e-07,4.775592509730933e-07,1.990070789073933e-06,9.598460085457286e-06
3.483005933741149e-07,4.776202036982911e-07,1.9883492952364347e-06,9.42938227719089e-06
3.456637892645163e-07,4.774854620871013e-07,1.9864758029261654e-06,9.274484006300689e-06
3.432221035698994e-07,4.77149836968131e-07,1.9845147778289987e-06,9.13420934919583e-06
3.4097683267239923e-07,4.766097676820197e-07,1.9825202500026542e-06,9.009241469090767e-06
3.389268114258433e-07,4.758660328635466e-07,1.98053784386196e-06,8.900304798227821e-06
3.370701352954066e-07,4.749234942192511e-07,1.978618877336964e-06,8.807997948190028e-06
3.354049050833618e-07,4.737879344754596e-07,1.9768299867086714e-06,8.732742792920817e-06
3.3392920474783676e-07,4.7246314298533347e-07,1.975253156277736e-06,8.674940393486023e-06
3.326410979828464e-07,4.709502712326753e-07,1.973978679681738e-06,8.635271249008648e-06
3.315379380387558e-07,4.69249383037549e-07,1.9730926096118513e-06,8.614855587921957e-06
3.306162279902003e-07,4.673621920114895e-07,1.9726638682356962e-06,8.615140885046045e-06
3.298735323162853e-07,4.6529543078604357e-07,1.972736530540788e-06,8.637675117625731e-06
3.293101003359072e-07,4.6306385955205567e-07,1.9733262849314324e-06,8.683928831426692e-06
3.2892768419405105e-07,4.6069113537538226e-07,1.9744200595550405e-06,8.755187932810432e-06
3.2872726127395674e-07,4.582088469053912e-07,1.9759813009003267e-06,8.852471193183734e-06
3.2870767555034147e-07,4.556537713589098e-07,1.9779597926856827e-06,8.976444211830334e-06
3.28864581425006e-07,4.530621436257087e-07,1.9802989452602227e-06,9.127349085764445e-06
3.291899937789524e-07,4.504639634886975e-07,1.982934945888671e-06,9.304968505975557e-06
3.2967301301789043e-07,4.4788156513817434e-07,1.9857907895090613e-06,9.50862451455863e-06
3.303003455871273e-07,4.453315393984641e-07,1.9887727241237067e-06,9.73722131096082e-06
3.310559611247981e-07,4.4282640481628076e-07,1.9917725432123158e-06,9.989322034569567e-06
3.319209659788674e-07,4.403751800058521e-07,1.994674211673388e-06,1.026322373471666e-05
3.328743065368941e-07,4.379858260144597e-07,1.997361682197231e-06,1.0557025800263683e-05
3.338936237375215e-07,4.35670031269453e-07,1.9997260120392867e-06,1.0868719893274766e-05
3.349556322392155e-07,4.334456657115799e-07,2.0016716294525017e-06,1.119631049276316e-05
3.360366544802161e-07,4.313344286107835e-07,2.003119687124894e-06,1.1537922098669904e-05
3.3711510838622604e-07,4.293572109907007e-07,2.004005111922895e-06,1.1891832313115413e-05
3.381755312770265e-07,4.275303602070451e-07,2.0042692929985612e-06,1.2256444906873247e-05
3.3920963467373363e-07,4.258643321788239e-07,2.003855365991516e-06,1.2630267671561302e-05
3.4021300593272663e-07,4.2436414162431385e-07,2.0027079986782607e-06,1.3011891604006994e-05
3.411819984185325e-07,4.2303057755322816e-07,2.000772733462219e-06,1.3399933797737014e-05
3.421134395918679e-07,4.218620949000974e-07,1.997993680813288e-06,1.379297279542616e-05
3.4300550843940693e-07,4.2085594328389243e-07,1.9943135054622376e-06,1.4189509184734106e-05
3.438576269669053e-07,4.200069433044518e-07,1.9896765522581704e-06,1.4587944154009845e-05
3.4466931508155236e-07,4.193063208743192e-07,1.9840324923170157e-06,1.4986607502251997e-05
3.4543974708616626e-07,4.187439493370218e-07,1.9773381062089017e-06,1.5383847609132026e-05
3.461679692655305e-07,4.18313202687134e-07,1.9695557870834543e-06,1.5778093932427595e-05
3.468522077036785e-07,4.180146368315621e-07,1.960650400366125e-06,1.616783914618051e-05
3.4748880887411043e-07,4.178560453491249e-07,1.950587430435989e-06,1.6551602800240385e-05
3.480727028057397e-07,4.1784964931758563e-07,1.9393324880693507e-06,1.692793647252572e-05
3.485991741598617e-07,4.180083233325307e-07,1.9268519069173303e-06,1.7295458388186847e-05
3.4906426298000805e-07,4.1834283597142173e-07,1.9131145797906968e-06,1.7652857748498036e-05
3.4946333804559106e-07,4.188613929535922e-07,1.898094446099963e-06,1.799883627083772e-05
3.4979072944145267e-07,4.1957104192272546e-07,1.8817735690224151e-06,1.833204334590217e-05
3.500409887785775e-07,4.2048054447524745e-07,1.8641455527564118e-06,1.8651075582697448e-05
3.5021058233486066e-07,4.2160252618978426e-07,1.8452189562595585e-06,1.8954531435730758e-05
3.503000627064509e-07,4.2295132272331006e-07,1.8250193757050708e-06,1.924109741644978e-05
3.503158045082665e-07,4.2453873708791047e-07,1.8035874400239083e-06,1.9509676935345888e-05
3.50270317976614e-07,4.26372222518546e-07,1.7809729650736362e-06,1.9759500204621625e-05
3.501812470802184e-07,4.2845475866085527e-07,1.757229163800243e-06,1.9990098477230443e-05
3.500687079040964e-07,4.307847298945e-07,1.7324096347716908e-06,2.0201156985072743e-05
3.499516338800489e-07,4.333559571285718e-07,1.7065684927939654e-06,2.0392390551400408e-05
3.4984548821295707e-07,4.3615785455124254e-07,1.679764812242003e-06,2.0563523092114057e-05
3.4976236233032985e-07,4.391762799378712e-07,1.6520711656229416e-06,2.071432700445803e-05
3.4971208713738326e-07,4.4239541323811e-07,1.6235794829552743e-06,2.0844651277608628e-05
3.497026606606174e-07,4.457996481080391e-07,1.5943974622988716e-06,2.0954413031020335e-05
3.497395205739152e-07,4.4937541812466193e-07,1.564640379407232e-06,2.1043615293542565e-05
3.498249285846734e-07,4.531149683400028e-07,1.5344292580410954e-06,2.111248661049823e-05
3.49959045861692e-07,4.57021261584082e-07,1.503894263563604e-06,2.116165970014705e-05
3.501416634595066e-07,4.6110815558346e-07,1.473172322209913e-06,2.1192189043855497e-05
3.5037231719101056e-07,4.6539421533549673e-07,1.4424001904529644e-06,2.120540569921208e-05
3.506490393451984e-07,4.698955270746585e-07,1.4117155142018343e-06,2.1202752013493565e-05
3.509677152396369e-07,4.746211557381477e-07,1.3812670650246663e-06,2.1185669999616613e-05
3.5132319902522613e-07,4.795716687181337e-07,1.3512221456131594e-06,2.115560793723627e-05
3.517115911274972e-07,4.847401133540537e-07,1.3217635725007868e-06,2.1114181783357862e-05
3.521317908248143e-07,4.901136712571145e-07,1.2930787836428728e-06,2.1063336420609054e-05
3.525857284665968e-07,4.956750990483917e-07,1.26534670944894e-06,2.100531605084789e-05
3.5307830409477136e-07,5.014042795882188e-07,1.2387276268014272e-06,2.094248600879421e-05
3.5361670313535927e-07,5.072790199645686e-07,1.2133630867782994e-06,2.087715301296856e-05
3.5420822329302523e-07,5.132743796360684e-07,1.1893902494761343e-06,2.081142798889141e-05
3.548575587319085e-07,5.193618950940796e-07,1.166961455730499e-06,2.074712874165458e-05
3.555650292851768e-07,5.255092513162088e-07,1.1462515095585692e-06,2.0685735554884595e-05
3.563268154297782e-07,5.316801795892895e-07,1.1274439341826651e-06,2.0628393321881595e-05
3.571373965769659e-07,5.378358602328953e-07,1.110705208929524e-06,2.0575934783471304e-05
3.5799222444226964e-07,5.439397364624915e-07,1.0961672108770258e-06,2.052891006420787e-05
3.5888843991708544e-07,5.499644977037243e-07,1.0839258880675922e-06,2.048761553679205e-05
3.598245055132049e-07,5.558943251054854e-07,1.0740438305265415e-06,2.04521126444411e-05
3.608000688248464e-07,5.617189744812772e-07,1.0665476571879471e-06,2.04222337428963e-05
3.6181516441954063e-07,5.674261632699397e-07,1.0614257906796968e-06,2.0397581779978435e-05
3.628691788102213e-07,5.729983173644719e-07,1.0586333850555135e-06,2.037753963251648e-05
3.639607443239113e-07,5.784131004058887e-07,1.0581033242174938e-06,2.036131257511979e-05
3.650870115654987e-07,5.836449287028647e-07,1.0597577950525206e-06,2.0348000170423448e-05
3.6624214046873687e-07,5.886663879395869e-07,1.0635160673024685e-06,2.0336657843069226e-05
3.6741845535543006e-07,5.934511483696635e-07,1.069296628360252e-06,2.0326336599888307e-05
3.686105628363019e-07,5.979777588114311e-07,1.0770140577813884e-06,2.0316126742423905e-05
3.69817452926382e-07,6.022297978326931e-07,1.0865727113820194e-06,2.0305200873432155e-05
3.7104053659043713e-07,6.061923241984784e-07,1.097861508504232e-06,2.0292822898213602e-05
3.722816595035981e-07,6.098496140994852e-07,1.1107549330669077e-06,2.027832521576252e-05
3.7354384215224216e-07,6.131852274594442e-07,1.1251209132506843e-06,2.0261081721271912e-05
3.748326639193915e-07,6.161823302889068e-07,1.1408306574903163e-06,2.0240482041878615e-05
3.7615554703923223e-07,6.188251199873019e-07,1.1577631872975368e-06,2.021591696402341e-05
3.7751874959085214e-07,6.211022859392001e-07,1.175800962338308e-06,2.018679303124274e-05
3.789243806249248e-07,6.230095990358997e-07,1.19482227310272e-06,2.01525412336618e-05
3.8036995245290634e-07,6.245487767302313e-07,1.2146996728277558e-06,2.0112583398630505e-05
3.8185003942121183e-07,6.257248395154721e-07,1.2353060724514142e-06,2.0066299604106333e-05
3.8335811833836157e-07,6.26545368144511e-07,1.2565231295308634e-06,2.001304199669033e-05
3.848878060470458e-07,6.270201490551045e-07,1.2782484758559144e-06,1.9952171878251552e-05
3.864325512449297e-07,6.27159496440658e-07,1.3003999696632559e-06,1.988308195675807e-05
3.8798427145499115e-07,6.269742020848745e-07,1.32291328393817e-06,1.9805213014094666e-05
3.8953326708161296e-07,6.264778958225405e-07,1.3457339555403843e-06,1.9718099281564926e-05
3.9106885967086064e-07,6.256871030837949e-07,1.368809388494985e-06,1.9621442829346093e-05
3.925788547545893e-07,6.246180559570968e-07,1.3920836065876986e-06,1.9515201949788054e-05
3.940487534824413e-07,6.232854991265847e-07,1.4155015530350319e-06,1.9399697160022188e-05
3.9546209633338656e-07,6.217046183688384e-07,1.4390278016633512e-06,1.9275701978778038e-05
3.968013672991058e-07,6.198925618104989e-07,1.4626670638548469e-06,1.9144429484515587e-05
3.9804851851583107e-07,6.178698064757392e-07,1.4864714697621615e-06,1.900738189978033e-05
3.99185158335338e-07,6.156625734783629e-07,1.5105332734459009e-06,1.8866133064155152e-05
4.001927291920912e-07,6.133030954454841e-07,1.5349663615517272e-06,1.8722144792159146e-05
4.0105260240544134e-07,6.108255572902668e-07,1.5598797970375316e-06,1.8576698046436104e-05
4.017461404575129e-07,6.082610740465175e-07,1.5853531666220888e-06,1.8430935084455425e-05
4.022556056164055e-07,6.056360301111609e-07,1.6114263618828692e-06,1.828592574130665e-05
4.025659072666924e-07,6.02972832990588e-07,1.6381036886513104e-06,1.814268612841732e-05
4.0266561919613607e-07,6.002893358735035e-07,1.6653610594852854e-06,1.8002160545040063e-05
4.0254727071606155e-07,5.975972200679081e-07,1.6931504720860461e-06,1.7865275377608116e-05
4.022073921300914e-07,5.949016564945643e-07,1.7214032168909687e-06,1.773308303866272e-05
4.0164569806986647e-07,5.92202224211949e-07,1.7500325090512508e-06,1.7606801341757606e-05
4.0086458960072474e-07,5.894944180634637e-07,1.7789341744910012e-06,1.7487658031285996e-05
3.9987035938247844e-07,5.867719468633163e-07,1.8079871814685203e-06,1.7376704488091193e-05
3.986741285389942e-07,5.840298862419279e-07,1.8370576338839501e-06,1.727479299751701e-05
3.972898142591164e-07,5.812668332325325e-07,1.8660028952204965e-06,1.718279705991238e-05
3.9573075917125885e-07,5.784838121021059e-07,1.8946714582957558e-06,1.7101912484189727e-05
3.9400975471558474e-07,5.756812418401494e-07,1.9229026634509924e-06,1.7033744187785283e-05
3.921438108646225e-07,5.728567002355525e-07,1.950529511176455e-06,1.6980142569416152e-05
3.9015873946187677e-07,5.700040461992003e-07,1.977381411048412e-06,1.6942981030254524e-05
3.8808797571807424e-07,5.671136568359529e-07,2.0032870836488584e-06,1.6923975130970485e-05
3.8596676743871175e-07,5.641734424910544e-07,2.0280807882979594e-06,1.692454196876464e-05
3.8382711185045953e-07,5.611700659902492e-07,2.0516090589098997e-06,1.6945703691526542e-05
3.816966175907813e-07,5.580901589790189e-07,2.073732187317781e-06,1.6988032400631607e-05
3.796007031427465e-07,5.549210545792346e-07,2.0943196419170944e-06,1.7051618978826158e-05
3.775652607128265e-07,5.516517619316646e-07,2.113244943543257e-06,1.7136075868942927e-05
3.75617526508752e-07,5.482759573187134e-07,2.1303852321297644e-06,1.7240591624861607e-05
3.737855874561743e-07,5.447944659711945e-07,2.1456244832934688e-06,1.7364001378937107e-05
3.720985869051216e-07,5.412133896944157e-07,2.158857004795004e-06,1.7504830518276822e-05
3.705874975250636e-07,5.375404629092926e-07,2.169988809757509e-06,1.7661326453945506e-05
3.69283758463451e-07,5.337835467650592e-07,2.1789362786383207e-06,1.783150777109307e-05
3.682156470406529e-07,5.299502305601795e-07,2.1856255219740367e-06,1.8013240584132974e-05
3.6740550761022396e-07,5.260472431150853e-07,2.1899950986877467e-06,1.820434099841036e-05
3.6686932607804005e-07,5.220799287491329e-07,2.1920001733619846e-06,1.8402669913133106e-05
3.66617284940676e-07,5.180516448005993e-07,2.1916160636243355e-06,1.860617352945864e-05
3.6665466901280525e-07,5.139638691079569e-07,2.18884149526963e-06,1.881288128488032e-05
3.66984297143926e-07,5.09817032825601e-07,2.183700922023692e-06,1.902091007975897e-05
3.676092746224384e-07,5.056108840616585e-07,2.176241893714366e-06,1.9228480457476504e-05
3.6853272329789255e-07,5.013446951508204e-07,2.166527497604505e-06,1.943391387064305e-05
3.6975481252167576e-07,4.970173655088897e-07,2.154631923797377e-06,1.963560505152761e-05
3.7127038590907275e-07,4.926276468449126e-07,2.140642206301313e-06,1.9831991226225266e-05
3.730683945864275e-07,4.881768926899265e-07,2.1246595467814914e-06,2.0021531384403283e-05
3.751321507593453e-07,4.836741253320025e-07,2.1067959437647497e-06,2.0202717070829168e-05
3.774397613177026e-07,4.791395524657164e-07,2.0871679810616503e-06,2.037413268955267e-05
3.799649703289509e-07,4.7460480047429363e-07,2.0658905865214952e-06,2.05345098396605e-05
3.826788851861886e-07,4.701100566249235e-07,2.0430727644520897e-06,2.068271049040571e-05
3.8555238342067597e-07,4.6569791350065396e-07,2.0188162085864072e-06,2.081766615128035e-05
3.8855789844930575e-07,4.6140683819635067e-07,1.993215874453076e-06,2.093833220375324e-05
3.916695994407825e-07,4.572697901371096e-07,1.966361690874791e-06,2.104367826037577e-05
3.9486233711348207e-07,4.53318821245401e-07,1.9383412306947047e-06,2.1132701393795004e-05
3.981108395195123e-07,4.49591374259519e-07,1.909240864777291e-06,2.120444657226147e-05
4.013904904443018e-07,4.461352786030965e-07,1.8791436782597126e-06,2.125804790876812e-05
4.0467894143050494e-07,4.430102082201541e-07,1.8481282987923664e-06,2.129279862406505e-05
4.079567936476301e-07,4.4028282961468113e-07,1.816275289306202e-06,2.1308227113596718e-05
4.112074878139283e-07,4.380185787202136e-07,1.7836833172027247e-06,2.130416981688029e-05
4.1441695143464975e-07,4.3627569848960934e-07,1.7504859064779652e-06,2.1280860168164692e-05
4.17572139066633e-07,4.351014976175742e-07,1.7168517562738815e-06,2.1239003823387032e-05
4.206595070938014e-07,4.345300422692857e-07,1.6829666578062344e-06,2.1179738874399027e-05
4.2366573706566684e-07,4.3458299214490644e-07,1.6490197399128808e-06,2.110445633072728e-05
4.265795870156417e-07,4.352726662023902e-07,1.615210802203539e-06,2.101458904263728e-05
4.293922064397639e-07,4.366046313492203e-07,1.5817656464293732e-06,2.09114876049883e-05
4.320957571416526e-07,4.385787387108181e-07,1.5489391893353864e-06,2.0796408812838283e-05
4.3468186876720726e-07,4.4118872684642476e-07,1.517002400691956e-06,2.067054515889144e-05
4.3714063986650173e-07,4.444209685427494e-07,1.4862204462403063e-06,2.0535022608607026e-05
4.394602437677086e-07,4.4825340956419926e-07,1.4568314624627404e-06,2.039089560033822e-05
4.4162740674495677e-07,4.5265537071742745e-07,1.4290331199814587e-06,2.0239251490440608e-05
4.436279335881696e-07,4.5758811405366536e-07,1.4029800509103355e-06,2.008139643410572e-05
4.4544650513029726e-07,4.63006043110865e-07,1.3787885104760406e-06,1.991889410785553e-05
4.4706666630519097e-07,4.688582351754685e-07,1.3565402327824421e-06,1.975338789182032e-05
4.484716066477837e-07,4.7508973407022326e-07,1.3362834088930908e-06,1.9586384696336857e-05
4.4964515925801097e-07,4.816421616665288e-07,1.318034006551309e-06,1.9419138112887946e-05
4.505723873174701e-07,4.884537197950837e-07,1.3017778358719886e-06,1.9252711944232786e-05
4.51240045208085e-07,4.954598352762557e-07,1.2874728949087186e-06,1.9088261708604692e-05
4.516371770699337e-07,5.025953480801734e-07,1.2750535468951043e-06,1.8927338517426442e-05
4.5175534179149046e-07,5.09796892283964e-07,1.2644384466988069e-06,1.877195131582453e-05
4.5158881036078347e-07,5.170038557120478e-07,1.2555412887232507e-06,1.8624411044684174e-05
4.5113461549796374e-07,5.241585899103357e-07,1.248278550075199e-06,1.8487141105284227e-05
4.5039161518650997e-07,5.312074197906348e-07,1.2425699938636872e-06,1.8362524010132972e-05
4.4936034918698654e-07,5.381018332796163e-07,1.2383342154197906e-06,1.82527736037828e-05
4.4804481195263e-07,5.447981126391236e-07,1.235483004629783e-06,1.8159833652017013e-05
4.464529405655412e-07,5.512563123011361e-07,1.2339171765326192e-06,1.8085311206403807e-05
4.4459446047252047e-07,5.574406017941123e-07,1.2335262062002529e-06,1.8030444437385486e-05
4.4247887434188004e-07,5.6332034313873e-07,1.2341910164312069e-06,1.799609641232538e-05
4.4011471742096214e-07,5.688710757945931e-07,1.235786429909727e-06,1.7982746069213392e-05
4.3750987813655975e-07,5.740766259956246e-07,1.238182885311386e-06,1.7990449651785026e-05
4.346736427097705e-07,5.789313212489382e-07,1.241249760079741e-06,1.801880910897196e-05
4.3161897145631674e-07,5.834387325918476e-07,1.2448590684346726e-06,1.80670008146345e-05
4.283623826571422e-07,5.876080759040367e-07,1.2488874078190573e-06,1.813385297074892e-05
4.249221678777094e-07,5.91452387949801e-07,1.2532184588991214e-06,1.821794341677228e-05
4.2131728077901345e-07,5.94987363933719e-07,1.2577462395279505e-06,1.8317718989632565e-05
4.1756728623265e-07,5.982292424588266e-07,1.262375086458336e-06,1.8431612251436097e-05
4.136924750674971e-07,6.01195336323377e-07,1.26701988885667e-06,1.855811543865808e-05
4.0971281337682423e-07,6.0390840028481e-07,1.2716140160901595e-06,1.8695818430377397e-05
4.056458723102017e-07,6.064005557670801e-07,1.276121051376713e-06,1.884342886716409e-05
4.015061227965553e-07,6.087142942837735e-07,1.2805397801867874e-06,1.899976839323278e-05
3.9730586420590453e-07,6.10900270688335e-07,1.2848973567421022e-06,1.9163751671717904e-05
3.9305565107941066e-07,6.130111249512145e-07,1.2892333220504095e-06,1.933436491998711e-05
3.887641638647795e-07,6.150937532904831e-07,1.29358276435672e-06,1.9510623646573505e-05
3.8443889741938077e-07,6.171844703347347e-07,1.2979678156747042e-06,1.969149109339219e-05
3.800873272253888e-07,6.193078994619109e-07,1.3024011494307195e-06,1.9875817284377865e-05
3.757175294781413e-07,6.214773807109353e-07,1.306896216913005e-06,2.006233589322192e-05
3.7133869097061844e-07,6.236954399757846e-07,1.3114757879346316e-06,2.0249659698027395e-05
3.6696202735934964e-07,6.259544677906053e-07,1.3161781493338623e-06,2.0436260216626786e-05
3.626010601822092e-07,6.28237911858498e-07,1.3210658046903515e-06,2.0620480058130704e-05
3.582712205781628e-07,6.305221607075608e-07,1.3262345199649635e-06,2.0800580945492888e-05
3.5398970510630586e-07,6.327790923637619e-07,1.331815316074673e-06,2.0974794755305454e-05
3.497742912295197e-07,6.349783855671974e-07,1.3379672052450435e-06,2.1141366017546847e-05
3.456408368060557e-07,6.37089296103712e-07,1.3448640735982291e-06,2.1298606992688363e-05
3.4160164162313235e-07,6.390827373024266e-07,1.3526777422876455e-06,2.1445008453082136e-05
3.376653562252207e-07,6.409339625680593e-07,1.361559152761218e-06,2.1579421419226942e-05
3.338382651543434e-07,6.426255210387125e-07,1.3716293740705627e-06,2.1701202489767346e-05
3.301266396003757e-07,6.441493038607368e-07,1.3829901271080338e-06,2.18101773918622e-05
3.265384529426478e-07,6.455051992727607e-07,1.3957419684551542e-06,2.1906450648737728e-05
3.23083363397428e-07,6.466960095952693e-07,1.409991329159886e-06,2.1990201089488697e-05
3.197718417875629e-07,6.477228673791791e-07,1.4258431730017563e-06,2.20615483059201e-05
3.1661429149053677e-07,6.485843667637522e-07,1.4433885601826519e-06,2.212053689252095e-05
3.1362011495304326e-07,6.492776499148264e-07,1.4626941202245864e-06,2.2167227234318093e-05
3.107968311990795e-07,6.497987742451831e-07,1.4837937499054036e-06,2.220179663523816e-05
3.081493871604865e-07,6.501420175701507e-07,1.506683294605543e-06,2.2224586674431938e-05
3.0567971798559266e-07,6.503005865172651e-07,1.5313204124565175e-06,2.2236093442175694e-05
3.033867148450281e-07,6.502712394500853e-07,1.5576295396543385e-06,2.2236907255513035e-05
3.0126670733107793e-07,6.500606455610749e-07,1.5855130737425158e-06,2.222767279008708e-05
2.993143037471693e-07,6.496888933228464e-07,1.614870515545549e-06,2.220915264842799e-05
2.975226128713732e-07,6.491884342241937e-07,1.6456178942508512e-06,2.218229803777808e-05
2.9588302227269567e-07,6.485989431110527e-07,1.677691087270641e-06,2.214817758037953e-05
2.943868218417527e-07,6.479605004986945e-07,1.7110291071173266e-06,2.210787458347133e-05
2.9302822521371514e-07,6.47309257569999e-07,1.745559925949676e-06,2.206254153723752e-05
2.9180515307369235e-07,6.466760096143183e-07,1.7812115311787915e-06,2.2013516745469132e-05
2.9071698541107533e-07,6.460851979800854e-07,1.8179381520919536e-06,2.1962311576404526e-05
2.897618275054364e-07,6.455549805227635e-07,1.8557349882736286e-06,2.1910487947717288e-05
2.889353853403475e-07,6.450990821383172e-07,1.894631068306603e-06,2.185953152697124e-05
2.88231283495555e-07,6.447274762861419e-07,1.934667972607461e-06,2.1810756822096e-05
2.876412381820614e-07,6.444446829987178e-07,1.9758755135468487e-06,2.176525363018444e-05
2.87155083090702e-07,6.44248717319241e-07,2.0182502218634573e-06,2.1723869132992327e-05
2.867622822048984e-07,6.441321226258439e-07,2.0617397278384757e-06,2.1687199782135582e-05
2.864547424236312e-07,6.440838600936515e-07,2.1062374688059644e-06,2.1655578606228307e-05
2.862282090518983e-07,6.44091974247746e-07,2.1515894465063918e-06,2.1629059180061146e-05
2.860815885288137e-07,6.441468834286719e-07,2.1976085773933863e-06,2.160740385307476e-05
2.860170827122644e-07,6.442434631195244e-07,2.244088191456585e-06,2.159009242359796e-05
2.860409476518513e-07,6.443800559666396e-07,2.290807260142494e-06,2.1576358937831448e-05
2.861620315829793e-07,6.445558982614333e-07,2.3375294119783456e-06,2.1565247518009853e-05
2.8638985165563807e-07,6.447715202969144e-07,2.3840062693232296e-06,2.1555689762390586e-05
2.8673440219855565e-07,6.4503139898979e-07,2.42998733990322e-06,2.154660984022581e-05
2.872056401741745e-07,6.453432897822771e-07,2.475226123590872e-06,2.1537031876824247e-05
2.8781244858472407e-07,6.45714222272429e-07,2.5194775522619603e-06,2.1526148997789303e-05
2.885625719000897e-07,6.461476718758734e-07,2.5624957646286208e-06,2.1513333662201888e-05
2.894619291344584e-07,6.466445154014772e-07,2.604042647939579e-06,2.149809914630644e-05
2.9051248785708463e-07,6.472073278419729e-07,2.643905717655504e-06,2.148004628056806e-05
2.917109472221677e-07,6.478445335589605e-07,2.68191364681578e-06,2.1458831296080983e-05
2.93049253625144e-07,6.485721502957238e-07,2.7179401957148616e-06,2.143415896601883e-05
2.945157089184748e-07,6.494146904379812e-07,2.7518962366890962e-06,2.140577233965376e-05
2.9609628947143106e-07,6.504048532394992e-07,2.783715766953507e-06,2.137342062786064e-05
2.977767168788456e-07,6.515791313050403e-07,2.813342946848987e-06,2.13368122415231e-05
2.9954401536371224e-07,6.52970375489736e-07,2.840723118131389e-06,2.1295577683118367e-05
3.01386809933142e-07,6.546029258405549e-07,2.865797246133957e-06,2.1249303037109376e-05
3.032970653919738e-07,6.564941421928723e-07,2.888500032759272e-06,2.1197665957160467e-05
3.052742540024972e-07,6.586585448001957e-07,2.908761708836142e-06,2.1140574412929125e-05
3.0732823188038093e-07,6.611074501746952e-07,2.9265137457049928e-06,2.1078175631897613e-05
3.094783176017839e-07,6.638440976763773e-07,2.941700924009518e-06,2.10107326320844e-05
3.1174962409981466e-07,6.668601878549735e-07,2.954294166079851e-06,2.093846560374151e-05
3.141677730347653e-07,6.701363123437389e-07,2.9642899899683875e-06,2.0861466663007945e-05
3.167536618886742e-07,6.736443903809965e-07,2.9716971686065537e-06,2.0779741428146145e-05
3.1952122412633146e-07,6.773503803067078e-07,2.9765302942671777e-06,2.0693293663746688e-05
3.22478575364842e-07,6.812164382666016e-07,2.9788228359483835e-06,2.060212386863353e-05
3.2563038930517937e-07,6.852015244400182e-07,2.9786498961682206e-06,2.0506165339462133e-05
3.289804286560489e-07,6.892605833995928e-07,2.976142070251773e-06,2.0405282836967763e-05
3.325331400765595e-07,6.933443319288e-07,2.971481373285778e-06,2.0299372272580885e-05
3.362926644659021e-07,6.974006043289617e-07,2.9648819835730146e-06,2.0188514603377984e-05
3.402602956242883e-07,7.013759523271657e-07,2.956565626247991e-06,2.0073119623555703e-05
3.444326517392828e-07,7.052167471716053e-07,2.9467418356250717e-06,1.9953968102415172e-05
3.488007238626736e-07,7.088702795601312e-07,2.9355952954192964e-06,1.9832100345874065e-05
3.533498588350714e-07,7.122859453660455e-07,2.9232783072551486e-06,1.9708611911051155e-05
3.5806228164408775e-07,7.154159243035623e-07,2.9099091064823523e-06,1.95844694592548e-05
3.629221323652639e-07,7.182153826146269e-07,2.8955750121715096e-06,1.9460430012942504e-05
3.679193558391767e-07,7.206430496112556e-07,2.880336354013829e-06,1.9337057101041995e-05
3.7304964741282756e-07,7.226620009456874e-07,2.864230538804066e-06,1.921474668963473e-05
3.783120030027735e-07,7.242393105391159e-07,2.8472803885263245e-06,1.909373533124244e-05
3.837055900144332e-07,7.253447103153116e-07,2.8295080570238906e-06,1.897418812031872e-05
3.892262859817183e-07,7.259503458489451e-07,2.810950005421126e-06,1.885640328864157e-05
3.9486475359686157e-07,7.260319430074351e-07,2.791669612867117e-06,1.874095601651105e-05
4.006074378600496e-07,7.255693991621605e-07,2.7717650883840353e-06,1.8628616430050737e-05
4.064392283125558e-07,7.2454599349217e-07,2.7513656296117502e-06,1.852013948903415e-05
4.1234625881434863e-07,7.229471397076591e-07,2.7306119993877134e-06,1.841611325034196e-05
4.1831751361969045e-07,7.207596417607911e-07,2.709634508199459e-06,1.831695396858551e-05
4.2434340813333545e-07,7.179718055198434e-07,2.6885468416945994e-06,1.822309352372452e-05
4.3041216041115313e-07,7.145747314282242e-07,2.667451383205111e-06,1.813527070898769e-05
4.3650784589213285e-07,7.10564216906659e-07,2.646437090950642e-06,1.805467475790594e-05
4.426117695398e-07,7.059416235879799e-07,2.625570058025365e-06,1.7982842890227028e-05
4.487045879176862e-07,7.00713195085606e-07,2.6048896327802693e-06,1.792146156233807e-05
4.547663619467495e-07,6.948883589021523e-07,2.584411641173277e-06,1.7872199745705742e-05
4.607748428944647e-07,6.88478185762416e-07,2.5641352571776644e-06,1.7836577756993187e-05
4.667043183766578e-07,6.814955155244775e-07,2.544054063207671e-06,1.781585952372337e-05
4.7252598363254297e-07,6.739562895107609e-07,2.524168001826672e-06,1.7810992093217173e-05
4.78209135689454e-07,6.658804861983221e-07,2.504487503956613e-06,1.782261053977536e-05
4.837227709199771e-07,6.572926188423651e-07,2.485026424784192e-06,1.7851086135496538e-05
4.890367314197764e-07,6.48222274942198e-07,2.465790959671205e-06,1.789656361395924e-05
4.941215327858098e-07,6.387039305488347e-07,2.4467727892994675e-06,1.795893911021742e-05
4.989483068929211e-07,6.287757566992114e-07,2.4279476456838025e-06,1.8037794037801965e-05
5.034897368496881e-07,6.184792704141839e-07,2.4092800957122e-06,1.8132361683116808e-05
5.077203613375538e-07,6.078607877882109e-07,2.3907372506187115e-06,1.8241576755000198e-05
5.116164912747483e-07,5.969726715756092e-07,2.3723073103264827e-06,1.836418481404865e-05
5.151572049705428e-07,5.85872717262049e-07,2.354014556393395e-06,1.8498864083165217e-05
5.183246675504321e-07,5.746234468631894e-07,2.3359244284645887e-06,1.8644328050743938e-05
5.211030453338193e-07,5.632937194448355e-07,2.318132747146983e-06,1.879938701061045e-05
5.23479091644479e-07,5.519612459655972e-07,2.3007403320495807e-06,1.896297239289587e-05
5.254441621997565e-07,5.407138638694123e-07,2.283827995686696e-06,1.913415293092868e-05
5.269941973779212e-07,5.296487534736365e-07,2.2674472626918042e-06,1.9312141483495395e-05
5.281280409108282e-07,5.188667828515255e-07,2.2516279994277493e-06,1.9496263798912576e-05
5.288464957554883e-07,5.084622135023797e-07,2.2363931526621363e-06,1.9685889011338143e-05
5.291522539623393e-07,4.985145693029235e-07,2.2217702120810314e-06,1.988034368170792e-05
5.290498045742697e-07,4.890866167569736e-07,2.2077947849796944e-06,2.0078830715708146e-05
5.28545202442644e-07,4.802255611697966e-07,2.1945066398275605e-06,2.0280392120994246e-05
5.276460753969461e-07,4.7196499115072136e-07,2.1819402325885258e-06,2.0483941088646576e-05
5.263615431078789e-07,4.643279190061056e-07,2.170114043936413e-06,2.068831941474249e-05
5.247015533476455e-07,4.5732978324592494e-07,2.1590238373758344e-06,2.0892326121713628e-05
5.226762509058317e-07,4.5097914244015807e-07,2.148640972873593e-06,2.109473203584446e-05
5.202964770682419e-07,4.4527679754567864e-07,2.1389141150628075e-06,2.129431528784765e-05
5.175759455693565e-07,4.402164134549197e-07,2.129772873604487e-06,2.148990368972922e-05
5.145332367264795e-07,4.3578813237344503e-07,2.121131741484843e-06,2.168040365061593e-05
5.111906100621394e-07,4.319833749824089e-07,2.1128933288357056e-06,2.186482999468625e-05
5.075709241650853e-07,4.2879808878651035e-07,2.1049517312369012e-06,2.2042326134551612e-05
5.036968391209906e-07,4.2623418046337704e-07,2.097197552580331e-06,2.221215726055801e-05
4.995926584913641e-07,4.2429912894955175e-07,2.089523727596237e-06,2.2373695062339973e-05
4.952854200106305e-07,4.230027227056042e-07,2.08182972186964e-06,2.2526383643085945e-05
4.908038941648091e-07,4.223535158766335e-07,2.0740234020870398e-06,2.2669668536611466e-05
4.86177380109756e-07,4.223585658568472e-07,2.0660205326585475e-06,2.280292378566106e-05
4.814353623879663e-07,4.230237820300396e-07,2.057743650468075e-06,2.2925427074264315e-05
4.766072348494729e-07,4.2435096011193704e-07,2.0491231952920874e-06,2.303640243440559e-05
4.7172113535123776e-07,4.263335951123163e-07,2.040099547332647e-06,2.3135107551294105e-05
4.668021974862914e-07,4.2895523596583035e-07,2.0306227716007613e-06,2.3220914274436884e-05
4.6187195520168245e-07,4.3219064584270203e-07,2.0206494887388716e-06,2.3293336203368004e-05
4.569490521240876e-07,4.360085673461808e-07,2.0101393257803052e-06,2.3351997255736626e-05
4.520500713953793e-07,4.4037516373804967e-07,1.9990540829294917e-06,2.339658216508817e-05
4.4719072251395825e-07,4.4525674319753724e-07,1.987360267476785e-06,2.3426830406237875e-05
4.423865254468572e-07,4.5062077054599006e-07,1.975037458027247e-06,2.344259283765437e-05
4.3765165919687003e-07,4.564349577154979e-07,1.9620946043220247e-06,2.344389331122756e-05
4.329978642967053e-07,4.626651524558896e-07,1.948585414942912e-06,2.3430938912276616e-05
4.2843495726131227e-07,4.692742580983997e-07,1.9346096163061323e-06,2.3404079444336565e-05
4.239715921866968e-07,4.762226845492676e-07,1.920296800708281e-06,2.3363736732703628e-05
4.1961508525145455e-07,4.834681130561428e-07,1.9057815364694862e-06,2.3310315166949327e-05
4.153710584503434e-07,4.90964209572265e-07,1.8911845891110908e-06,2.324411677005935e-05
4.1124421993129576e-07,4.986601210771146e-07,1.876610439475304e-06,2.3165307995194283e-05
4.072393724452588e-07,5.065014719093997e-07,1.8621555987207588e-06,2.307394011669257e-05
4.033609928842071e-07,5.144318175776769e-07,1.8479124613832292e-06,2.296997780827473e-05
3.9961234399437946e-07,5.223933678775821e-07,1.8339634384727688e-06,2.2853326567135e-05
3.959952773711815e-07,5.303272267547329e-07,1.820374544015744e-06,2.2723875439121398e-05
3.9251080713190243e-07,5.38174235851199e-07,1.8071960549264176e-06,2.258155043035595e-05
3.891607612335662e-07,5.458766325321982e-07,1.7944656926928986e-06,2.2426348120420042e-05
3.8594911628379607e-07,5.533793717149013e-07,1.7822076667069309e-06,2.2258322733295904e-05
3.828815614194164e-07,5.606310515356029e-07,1.7704314995150738e-06,2.2077545411121474e-05
3.799642350413917e-07,5.675865691317855e-07,1.7591366989186538e-06,2.18840793485432e-05
3.7720210933961356e-07,5.742102520046338e-07,1.7483194829976399e-06,2.1677993565192853e-05
3.7459734771388153e-07,5.804750528476968e-07,1.7379758406303741e-06,2.1459408540494128e-05
3.721486447264577e-07,5.86359091778271e-07,1.7281010828260449e-06,2.1228537221494355e-05
3.698517489444033e-07,5.918437616452049e-07,1.718687056379455e-06,2.0985684689707908e-05
3.6770159977227675e-07,5.969130549260947e-07,1.7097187455750774e-06,2.0731211213398607e-05
3.6569533942573843e-07,6.015529659252531e-07,1.7011733644535212e-06,2.0465493732907282e-05
3.6383391600630067e-07,6.057510975070796e-07,1.6930220373314378e-06,2.0188911654819026e-05
3.6212139579389327e-07,6.094963208913204e-07,1.6852314149409928e-06,1.990184640112595e-05
3.6056230451393755e-07,6.127791349103618e-07,1.6777627939875126e-06,1.96046739884824e-05
3.5915870676935384e-07,6.155923089668482e-07,1.670570167002164e-06,1.9297763718344328e-05
3.579096862056337e-07,6.179302241820949e-07,1.6636027519044408e-06,1.8981497170099242e-05
3.568134640877279e-07,6.197876642650508e-07,1.6568118575542809e-06,1.865628622351579e-05
3.558692291995029e-07,6.211597960730496e-07,1.6501555936818427e-06,1.8322572217359008e-05
3.550761196659005e-07,6.220439755422621e-07,1.6436019879262586e-06,1.7980823979773315e-05
3.544306673545321e-07,6.224443684086278e-07,1.6371358725199792e-06,1.7631558378930578e-05
3.5392549421392787e-07,6.22379286394342e-07,1.630763538859071e-06,1.727538798829576e-05
3.535499947042674e-07,6.218869930386907e-07,1.6245067234844402e-06,1.6913083311885235e-05
3.532922513479558e-07,6.21023949435123e-07,1.618397087383336e-06,1.6545595821324758e-05
3.5314015323495775e-07,6.198549308831456e-07,1.6124842508046443e-06,1.617399388113001e-05
3.5308046352509226e-07,6.184423773349435e-07,1.606846220882182e-06,1.5799362906314628e-05
3.530980796888257e-07,6.168426415475567e-07,1.6015846622978158e-06,1.542274433360822e-05
3.5317727443650546e-07,6.151087607577478e-07,1.596804243174792e-06,1.5045119196946475e-05
3.533028557106597e-07,6.132934454856638e-07,1.592589333445185e-06,1.4667418621260673e-05
3.5345949540907976e-07,6.114498935700432e-07,1.5889919107945913e-06,1.4290536077840302e-05
3.5363060184239616e-07,6.096327980090422e-07,1.5860340644689378e-06,1.3915318975689447e-05
3.537984746174632e-07,6.078992000487093e-07,1.58371857943048e-06,1.3542559550684426e-05
3.5394601486221036e-07,6.06307352272983e-07,1.5820399289453034e-06,1.3173019062375875e-05
3.540589485381514e-07,6.049138027315917e-07,1.5809931479739138e-06,1.280747517129234e-05
3.5412698543223173e-07,6.037693348693364e-07,1.5805789951772532e-06,1.244674824281397e-05
3.541435243933366e-07,6.029155790983371e-07,1.5808000945127074e-06,1.2091698203865302e-05
3.541048175213746e-07,6.023842715207264e-07,1.5816493253131175e-06,1.1743219253855507e-05
3.540089874289421e-07,6.021978615583707e-07,1.583103976308887e-06,1.1402233326451786e-05
3.5385481724512674e-07,6.023695377302021e-07,1.5851376474721429e-06,1.1069654330911875e-05
3.5364140273904756e-07,6.029028907069865e-07,1.587748318877665e-06,1.074632107423586e-05
3.5336893859498856e-07,6.037917151215362e-07,1.5909883518303854e-06,1.0432943424261757e-05
3.5303870614036544e-07,6.050203512118116e-07,1.5949792080185982e-06,1.0130092490855216e-05
3.5265194817434283e-07,6.065657565980506e-07,1.5999027355751157e-06,9.83821910558022e-06
3.52208915119882e-07,6.084010830327071e-07,1.6059726571175101e-06,9.55767259441594e-06
3.517081292197218e-07,6.104974012928673e-07,1.6133990809355796e-06,9.288718696008293e-06
3.511464547471881e-07,6.128225320372962e-07,1.6223628320313713e-06,9.031591424773137e-06
3.505207167340251e-07,6.153409126809576e-07,1.6330062618884688e-06,8.78656321770149e-06
3.498290648467761e-07,6.180166398732897e-07,1.6454323179478925e-06,8.553953548437871e-06
3.490702364113264e-07,6.208176712425504e-07,1.6597024731767797e-06,8.334071485996596e-06
3.4824222476466124e-07,6.237188735549064e-07,1.6758339107993074e-06,8.127161877432991e-06
3.473428629410088e-07,6.267027174355885e-07,1.693802886979407e-06,7.933378174767514e-06
3.4637145525171234e-07,6.297570516923605e-07,1.7135571384389324e-06,7.752761411513847e-06
3.453285512582568e-07,6.328715812314373e-07,1.7350335037477897e-06,7.585226261454306e-06
3.4421409703390003e-07,6.360364972657787e-07,1.7581758051636696e-06,7.430581845812814e-06
3.430270944611139e-07,6.392432065313136e-07,1.782946195437141e-06,7.288613814580867e-06
3.417672292712513e-07,6.42483958555131e-07,1.8093232279449903e-06,7.1592111265191345e-06
3.404353021139839e-07,6.457498618186473e-07,1.8372906633820094e-06,7.042453389062718e-06
3.3903132470732267e-07,6.490297589366841e-07,1.8668283170202701e-06,6.938586880498445e-06
3.375533500517714e-07,6.523109019680058e-07,1.8979079789242713e-06,6.847914572424468e-06
3.35998994228254e-07,6.555794257699822e-07,1.9304885332416333e-06,6.770669353840498e-06
3.3436783483937865e-07,6.588210954394352e-07,1.964508145504088e-06,6.706935799329954e-06
3.326636344300941e-07,6.62024992720213e-07,1.9998804860732097e-06,6.656679567259158e-06
3.3089626367821587e-07,6.651883293653118e-07,2.036499115343634e-06,6.619853629372597e-06
3.290807756329542e-07,6.683179826953568e-07,2.0742407675355643e-06,6.5964721556890445e-06
3.2723372801437057e-07,6.71426333535808e-07,2.112960216854974e-06,6.586606775472336e-06
3.253707845102609e-07,6.745236930130743e-07,2.1524862071071003e-06,6.590335395826415e-06
3.2350639607231265e-07,6.776141724828192e-07,2.192630095373466e-06,6.607676164475572e-06
3.216536621186882e-07,6.806976566303343e-07,2.23320462882331e-06,6.638524107026807e-06
3.1982358115684825e-07,6.837724828229965e-07,2.274040871143989e-06,6.682603875824916e-06
3.1802399089152013e-07,6.868347538494378e-07,2.314994390322239e-06,6.7394650374516334e-06
3.162598529361005e-07,6.898767210483248e-07,2.355940862449269e-06,6.808570041972615e-06
3.145359487037024e-07,6.928875560133447e-07,2.396765129537294e-06,6.889512987601844e-06
3.128592021432859e-07,6.95857136775519e-07,2.437346712943081e-06,6.982268155437578e-06
3.112372825456697e-07,6.987801929975718e-07,2.4775489551259583e-06,7.087244639446765e-06
3.09675657557463e-07,7.016556752683244e-07,2.517218680808164e-06,7.205100904263361e-06
3.081772691296205e-07,7.044815986289199e-07,2.5561915013106847e-06,7.336507766574671e-06
3.067441538799315e-07,7.072523903251133e-07,2.59429466640886e-06,7.481993423683597e-06
3.053785206869206e-07,7.099603145552896e-07,2.6313471001561644e-06,7.641933483874789e-06
3.0408359457153984e-07,7.125962711444676e-07,2.6671593487919893e-06,7.816752472423676e-06
3.0286431834098285e-07,7.151497102011423e-07,2.701535226722408e-06,8.007169893992154e-06
3.0172661053223254e-07,7.176090659400156e-07,2.73427475785031e-06,8.214204013114983e-06
3.00676157976709e-07,7.199611136180744e-07,2.7651762220862247e-06,8.438976206993601e-06
2.997183011620341e-07,7.221902348320258e-07,2.794037642572118e-06,8.682545459035803e-06
2.9885850431404407e-07,7.242800251849088e-07,2.820659497892017e-06,8.945825137084097e-06
2.981031217724183e-07,7.262160015460805e-07,2.844848668571265e-06,9.229522552561676e-06
2.974599952781353e-07,7.279866724650569e-07,2.8664222510962366e-06,9.534071701396413e-06
2.969388242825231e-07,7.295822060500003e-07,2.8852097161532257e-06,9.85957537901748e-06
2.965529981065289e-07,7.309927499560894e-07,2.901054199264635e-06,1.0205786941462868e-05
2.963217332604249e-07,7.322092131937948e-07,2.9138156827710413e-06,1.0572127188446564e-05
2.9626839528110164e-07,7.332260025424284e-07,2.923378056473365e-06,1.0957694726973978e-05
2.964150596477445e-07,7.340419071760156e-07,2.9296578038111086e-06,1.1361249395607954e-05
2.967780951405229e-07,7.346577398912736e-07,2.932607987013613e-06,1.1781201601622113e-05
2.97366914774548e-07,7.350732512953928e-07,2.9322151184454826e-06,1.2215639003800515e-05
2.981844183551145e-07,7.352848478070809e-07,2.928491196862555e-06,1.266239633156739e-05
2.992285371862759e-07,7.352841582054981e-07,2.9214644185945805e-06,1.311916111247695e-05
3.0049449946475854e-07,7.350580784528962e-07,2.911174677586578e-06,1.35835881210733e-05
3.019769360995769e-07,7.345902679602732e-07,2.897675935670888e-06,1.4053395176049511e-05
3.036711463574779e-07,7.338629342964749e-07,2.8810404652767623e-06,1.4526407739031018e-05
3.05572148451389e-07,7.32857833566921e-07,2.8613617689955543e-06,1.500053183855789e-05
3.0767194055072425e-07,7.315563027019255e-07,2.838755692444909e-06,1.547371109435896e-05
3.099577550325011e-07,7.299388221453539e-07,2.8133582065283332e-06,1.594393167068875e-05
3.1241272233068447e-07,7.279847772126555e-07,2.785318911715008e-06,1.6409250411317185e-05
3.1501898873755453e-07,7.256729092192026e-07,2.7547917853120927e-06,1.6867795453648574e-05
3.1776165719708507e-07,7.229821558408945e-07,2.72192698834366e-06,1.731773275615168e-05
3.20630162601642e-07,7.19892639307797e-07,2.686866501402121e-06,1.7757222536971987e-05
3.2361674531127284e-07,7.163870988508308e-07,2.6497434134882857e-06,1.818439966495777e-05
3.2671479508888194e-07,7.124519828032378e-07,2.6106844954162714e-06,1.8597385811677634e-05
3.299181324031234e-07,7.080773186252602e-07,2.56981670464196e-06,1.8994312866911965e-05
3.332208391547192e-07,7.032562953292983e-07,2.5272772875105832e-06,1.9373361873161386e-05
3.3661726047521896e-07,6.979855522368383e-07,2.4832232742434484e-06,1.973282745103661e-05
3.401009395342053e-07,6.922656162600622e-07,2.437832541008234e-06,2.007118013095069e-05
3.436628683740226e-07,6.861013119265191e-07,2.3912932452750145e-06,2.038708321227816e-05
3.472919970794027e-07,6.795030371472279e-07,2.3437902085099168e-06,2.067934809625702e-05
3.509782770344907e-07,6.724877538323932e-07,2.295500824674108e-06,2.094686729499572e-05
3.547149431559193e-07,6.650777782136317e-07,2.2466024356998227e-06,2.118858831487476e-05
3.584988427251689e-07,6.572983489941393e-07,2.197282307042771e-06,2.1403549331773752e-05
3.6233023780326453e-07,6.491755185978925e-07,2.1477433494810828e-06,2.1590951174292306e-05
3.662115823393186e-07,6.40734976024208e-07,2.0982051900059793e-06,2.175025424551035e-05
3.701445165188672e-07,6.320020200509022e-07,2.0489013277869853e-06,2.1881285780223158e-05
3.741270535383654e-07,6.230024967305317e-07,2.00007220350572e-06,2.198427664473575e-05
3.7815235755804437e-07,6.137654239640289e-07,1.9519543281582127e-06,2.205976181047079e-05
3.822085726244619e-07,6.043263008131393e-07,1.9047676614835748e-06,2.2108402444924495e-05
3.8627938900232394e-07,5.947274655789236e-07,1.858706702254715e-06,2.2130861058824987e-05
3.9034508523928523e-07,5.850150146730321e-07,1.8139384416317183e-06,2.2127787216498805e-05
3.9438339044407394e-07,5.752347127608621e-07,1.7706060911057915e-06,2.2099847115203755e-05
3.9837002802019727e-07,5.654282972364549e-07,1.7288394917242012e-06,2.204772324232281e-05
4.0227929294970996e-07,5.556318195169571e-07,1.6887665801919471e-06,2.1972115902834038e-05
4.0608522034178074e-07,5.458773344421432e-07,1.6505122530102855e-06,2.187386031047747e-05
4.0976338891085846e-07,5.361959187776188e-07,1.6141885932143626e-06,2.175415261510806e-05
4.1329209786520657e-07,5.266187564793438e-07,1.579895426312214e-06,2.161465713704649e-05
4.1665175168939965e-07,5.171773543943723e-07,1.547732837997595e-06,2.145736353229404e-05
4.19823406546105e-07,5.079064159211721e-07,1.5178107084039722e-06,2.1284342309871636e-05
4.227890440372737e-07,4.988464649761318e-07,1.4902467570318497e-06,2.1097566540114733e-05
4.2553399604504253e-07,4.900406863032403e-07,1.4651555266563891e-06,2.089890064284392e-05
4.2804875439624064e-07,4.815293146301269e-07,1.4426354145669546e-06,2.0690320651951748e-05
4.303286799763522e-07,4.733476487784979e-07,1.4227597423291168e-06,2.0474204683344995e-05
4.3237288182981967e-07,4.655272905119497e-07,1.4055712859458712e-06,2.0253408507733585e-05
4.341834765421813e-07,4.5809874744918826e-07,1.3910773700458609e-06,2.003109136074456e-05
4.357661759006851e-07,4.5109372947349176e-07,1.3792477868786376e-06,1.981047000380286e-05
4.3713169026601794e-07,4.445441544149577e-07,1.3700189702392665e-06,1.9594616229756048e-05
4.3829458095285757e-07,4.384784929789752e-07,1.3633037343020049e-06,1.9386306824287145e-05
4.392691280882456e-07,4.3291968622709246e-07,1.3590008644708535e-06,1.9187910077332943e-05
4.40066094053146e-07,4.278868274239477e-07,1.3569980244001398e-06,1.9001307381046333e-05
4.406920335546475e-07,4.2339935454909465e-07,1.3571730458139985e-06,1.8827862897679808e-05
4.411500566788888e-07,4.194809310533928e-07,1.3594049717270173e-06,1.8668452981422386e-05
4.41440924842342e-07,4.161605543510287e-07,1.3635908254475674e-06,1.8523545739797664e-05
4.415641970554558e-07,4.1346971913409045e-07,1.3696528404829183e-06,1.8393288827312868e-05
4.4152068226467973e-07,4.114360126881327e-07,1.3775312348220107e-06,1.8277564505989498e-05
4.4131601827567184e-07,4.100763339881904e-07,1.3871689237514248e-06,1.8176021167088512e-05
4.4096197892050075e-07,4.093940137321329e-07,1.3984965621182878e-06,1.808812236188906e-05
4.404739965703327e-07,4.0938078079336706e-07,1.4114274630898771e-06,1.8013222672150187e-05
4.3986796536389754e-07,4.100208548943188e-07,1.4258648117533788e-06,1.795064072877542e-05
4.39158771519614e-07,4.112936970201726e-07,1.4417099186320169e-06,1.7899704275688796e-05
4.3835953488976657e-07,4.1317498222269354e-07,1.4588618827392462e-06,1.7859764860893618e-05
4.374814083620236e-07,4.156381856923309e-07,1.477211333553566e-06,1.7830195489403257e-05
4.3653460224231137e-07,4.186565519701644e-07,1.496636890717705e-06,1.7810385049706228e-05
4.355285485039471e-07,4.2220364235340156e-07,1.5170096859142358e-06,1.7799723289146444e-05
4.3447057078408644e-07,4.262529630160272e-07,1.5382000819988282e-06,1.7797569261799546e-05
4.333653905091197e-07,4.3077677837427883e-07,1.5600792891034871e-06,1.7803215412553547e-05
4.322153524723872e-07,4.3574392160336464e-07,1.582521134497234e-06,1.7815862102715687e-05
4.3101998767210467e-07,4.41118384202709e-07,1.6054064100970885e-06,1.7834642890169854e-05
4.2977605873579843e-07,4.4685984020619833e-07,1.628620284400424e-06,1.7858740016790353e-05
4.2847970914637607e-07,4.5292537128749067e-07,1.6520426796550497e-06,1.788751940734364e-05
4.2712967086571543e-07,4.592713858952021e-07,1.675544716293879e-06,1.792056232732958e-05
4.2572878636208036e-07,4.6585459141197913e-07,1.6989960926935914e-06,1.7957587154164255e-05
4.242830825892293e-07,4.7263139906857384e-07,1.7222755111720788e-06,1.7998361521572186e-05
4.228002769105312e-07,4.795580107853323e-07,1.7452783745307044e-06,1.804267127278731e-05
4.212889860138316e-07,4.865932196209038e-07,1.767922300706306e-06,1.8090300871408318e-05
4.197577880343132e-07,4.937008428970253e-07,1.7901488467751575e-06,1.814095587095809e-05
4.1821359800025047e-07,5.008495228326315e-07,1.8119173426027084e-06,1.819416935969012e-05
4.1666022129174036e-07,5.080133144270905e-07,1.8331930652956776e-06,1.824928179528093e-05
4.15098096617742e-07,5.151733294830009e-07,1.8539395426511731e-06,1.8305496065046867e-05
4.135255772510862e-07,5.223153822121835e-07,1.8741212337239722e-06,1.8361961280241645e-05
4.1194067041033814e-07,5.294243103967304e-07,1.8937117432652747e-06,1.841788373901308e-05
4.103421013741563e-07,5.364814050173195e-07,1.912698727642504e-06,1.8472662957494188e-05
4.087296352455509e-07,5.434672250651039e-07,1.9310823184861957e-06,1.852596221273795e-05
4.071035613451647e-07,5.503659498049223e-07,1.9488704690021896e-06,1.8577630511248018e-05
4.0546406544513133e-07,5.571654731467681e-07,1.966076318728511e-06,1.8627542087595505e-05
4.038120115079017e-07,5.638525502305783e-07,1.982717617602855e-06,1.8675488989401525e-05
4.0215047145505045e-07,5.704095439235122e-07,1.998813087560591e-06,1.872116102040593e-05
4.0048431421839704e-07,5.768175237790391e-07,2.014374763682928e-06,1.8764146492945513e-05
3.9881772947334106e-07,5.830616607337973e-07,2.0294019087939965e-06,1.8803920875138587e-05
3.971524948613556e-07,5.891315950251437e-07,2.04388298805938e-06,1.8839880108764388e-05
3.954876586731506e-07,5.950176978038407e-07,2.0578078975700106e-06,1.8871508956240243e-05
3.9381947177597975e-07,6.007093160601155e-07,2.071182104085614e-06,1.8898650505890986e-05
3.9214226262930976e-07,6.061945393271134e-07,2.084030197603909e-06,1.892164723374192e-05
3.904504160209761e-07,6.114594994582258e-07,2.096386781883356e-06,1.894121685924016e-05
3.887398149056304e-07,6.164898145746612e-07,2.108281901242329e-06,1.8958206101721217e-05
3.8700830460684316e-07,6.212735437794653e-07,2.119728875298519e-06,1.8973381952088284e-05
3.8525567436878097e-07,6.258007743974229e-07,2.130719595160121e-06,1.8987328966256992e-05
3.8348417878974986e-07,6.300602258995497e-07,2.1412272831183702e-06,1.9000561135628974e-05
3.8169991714429974e-07,6.340380581988293e-07,2.151211886205299e-06,1.9013814963281896e-05
3.79912680082176e-07,6.377196837731944e-07,2.160623270056723e-06,1.9028235348060445e-05
3.781335574399692e-07,6.410910497914039e-07,2.1694016823361136e-06,1.904529741426769e-05
3.7637269785082407e-07,6.441381635148886e-07,2.1774775709732553e-06,1.906661109890985e-05
3.7463838640199643e-07,6.468463825575562e-07,2.184771798784686e-06,1.9093765727120107e-05
3.729377765192155e-07,6.492002267479263e-07,2.191196910143408e-06,1.912823916032582e-05
3.712784638940141e-07,6.51183670857793e-07,2.1966599326471857e-06,1.917133354200812e-05
3.6966805843363227e-07,6.52780875977091e-07,2.201066624367816e-06,1.9224098334862e-05
3.681119790980725e-07,6.539771786149005e-07,2.204329798268851e-06,1.928726045689445e-05
3.6661275271891816e-07,6.547611249874294e-07,2.20638288893236e-06,1.9361213065188715e-05
3.651716345734184e-07,6.551287922529186e-07,2.20719080511286e-06,1.9446044279581727e-05
3.637913211691503e-07,6.550887585201015e-07,2.2067489461903527e-06,1.954154002469749e-05
3.6247791816247703e-07,6.546624313791399e-07,2.2050716616443785e-06,1.964716418465205e-05
3.612402471971631e-07,6.538778219753525e-07,2.202180636112881e-06,1.9762085275513808e-05
3.600874627854628e-07,6.527637678641021e-07,2.1981032334626303e-06,1.988526471292881e-05
3.590273995496255e-07,6.513524139669506e-07,2.19288049135054e-06,2.0015546115367345e-05
3.5806627289176773e-07,6.496874984469326e-07,2.1865760933473703e-06,2.0151718029877882e-05
3.5720946564544114e-07,6.478287866074304e-07,2.1792790963739075e-06,2.029257376950956e-05
3.5646221275537724e-07,6.458481738162821e-07,2.171097256727711e-06,2.0436974153833533e-05
3.5582923877581994e-07,6.438213601016481e-07,2.162141931688448e-06,2.0583900539524122e-05
3.553144895700468e-07,6.418206872938113e-07,2.152511843189918e-06,2.073248794633141e-05
3.5492139728139503e-07,6.399113863443703e-07,2.142285567783411e-06,2.088202813860828e-05
3.546534445230649e-07,6.381496787990482e-07,2.131525297430059e-06,2.1031938435007365e-05
3.545149297208279e-07,6.365815991402334e-07,2.1202839846425657e-06,2.1181697972850892e-05
3.5451019084491205e-07,6.352428358139754e-07,2.1086080461388433e-06,2.1330760941234822e-05
3.546411987729696e-07,6.34158687789233e-07,2.096536343153409e-06,2.1478483710314052e-05
3.549058199518535e-07,6.333444219939783e-07,2.0840991806079758e-06,2.1624121585518104e-05
3.552978685013405e-07,6.328069780557787e-07,2.07131836738354e-06,2.176688949265665e-05
3.5580901813753326e-07,6.32546654105542e-07,2.0582085029072567e-06,2.19060031390648e-05
3.5643112208251765e-07,6.32557295433196e-07,2.044778475342733e-06,2.204067174313767e-05
3.5715726636262543e-07,6.328257674800089e-07,2.031030751416335e-06,2.2170099083013363e-05
3.579824456954033e-07,6.333338636320613e-07,2.016960060981221e-06,2.229351425622289e-05
3.5890376785543226e-07,6.340641106273397e-07,2.0025566849824825e-06,2.241018764443179e-05
3.599184343688116e-07,6.350047963749407e-07,1.987814725853138e-06,2.251939226483598e-05
3.6102116863952866e-07,6.361492337948522e-07,1.9727393512607416e-06,2.262033249481853e-05
3.622036160320691e-07,6.374914017251945e-07,1.9573483489564966e-06,2.271210337815936e-05
3.634545593730881e-07,6.390223585525175e-07,1.941669518593031e-06,2.279371367027769e-05
3.6475981173818047e-07,6.407282554209447e-07,1.925735833099993e-06,2.286416534590016e-05
3.66102548644111e-07,6.425895536380532e-07,1.9095770191124297e-06,2.292258090394749e-05
3.674643757127276e-07,6.445809559098335e-07,1.893211179959756e-06,2.296834925641611e-05
