5.908334610985705e-07,5.877336288012829e-07,2.9800439531236696e-07,2.7376025388548645e-05
6.015735807731507e-07,5.851731437598158e-07,3.002422627674849e-07,2.7575268772729803e-05
6.124520863780989e-07,5.829069561516536e-07,3.0263053092851674e-07,2.7758410675792107e-05
6.234230716849195e-07,5.809751510210177e-07,3.051553100376417e-07,2.7924130611297967e-05
6.344453788348298e-07,5.794209166129232e-07,3.077992232164856e-07,2.8071268862974293e-05
6.454826585424144e-07,5.782855630800921e-07,3.105424407704992e-07,2.8198896749597932e-05
6.565013177884185e-07,5.776027535931799e-07,3.1336393695455587e-07,2.83063323435161e-05
6.674672520904684e-07,5.773943920841007e-07,3.162421650685327e-07,2.839310127997492e-05
6.783433571567286e-07,5.776697551841862e-07,3.1915504907847627e-07,2.845886488840736e-05
6.890906131346747e-07,5.784268987171916e-07,3.220800520509412e-07,2.8503392519710035e-05
6.99672575848459e-07,5.796538278339409e-07,3.249943579515606e-07,2.8526683450096983e-05
7.100605761473897e-07,5.813287864461288e-07,3.2787509303531586e-07,2.852912462517804e-05
7.202368618670144e-07,5.834217114140455e-07,3.3069995114778443e-07,2.851143961004011e-05
7.3019321077624e-07,5.858987108108661e-07,3.334479114059762e-07,2.847448317323825e-05
7.39925611302425e-07,5.887283963790926e-07,3.360991395422241e-07,2.8419089460581328e-05
7.494296170635516e-07,5.918862358370888e-07,3.386345176401544e-07,2.8345986464719898e-05
7.586994896531803e-07,5.95354501630996e-07,3.410360223576809e-07,2.825573162720721e-05
7.677294813731981e-07,5.991188661739711e-07,3.432876017666146e-07,2.8148699669845118e-05
7.765138109084577e-07,6.031639176190804e-07,3.4537560956067127e-07,2.802512911029019e-05
7.850447258274993e-07,6.074695959551779e-07,3.472885450648515e-07,2.78851776512925e-05
7.933112851807595e-07,6.120102532555441e-07,3.490167995826083e-07,2.772895013315179e-05
8.012997281465421e-07,6.167566472266301e-07,3.505537945807024e-07,2.7556511570271918e-05
8.089935892349666e-07,6.216783652156804e-07,3.518971850136085e-07,2.7367908259138808e-05
8.163727059918088e-07,6.267445492243861e-07,3.530476517293157e-07,2.716319005271081e-05
8.234119747435813e-07,6.319239749749122e-07,3.5400681196282664e-07,2.6942416989818523e-05
8.300809060673181e-07,6.371856205245038e-07,3.547761204747653e-07,2.670566057540537e-05
8.363444058391518e-07,6.424995320301548e-07,3.5535592118603453e-07,2.645303000660198e-05
8.421644412608909e-07,6.478366927634533e-07,3.5574475736293867e-07,2.618471188682832e-05
8.475017881846396e-07,6.531671227863356e-07,3.559399018773853e-07,2.590097197905828e-05
8.523179737407765e-07,6.584592897324007e-07,3.5593871626433256e-07,2.560213841711305e-05
8.565774741722986e-07,6.636843715705506e-07,3.5573972031888665e-07,2.528862941401069e-05
8.602486885341238e-07,6.688221041266397e-07,3.553425228560278e-07,2.4960997810415783e-05
8.63303551727243e-07,6.738611992741329e-07,3.5474691500711174e-07,2.461992926451161e-05
8.65717018896467e-07,6.787939498117508e-07,3.5395213394696396e-07,2.4266207400214e-05
8.67466649730144e-07,6.836105747691052e-07,3.529567213341796e-07,2.3900694177134196e-05
8.685322970585346e-07,6.882975121269979e-07,3.517590450366673e-07,2.352433208063312e-05
8.688966685092712e-07,6.928410346955625e-07,3.503580145445105e-07,2.313814547695376e-05
8.685485130776389e-07,6.972337834516561e-07,3.4875393882577537e-07,2.2743242618365826e-05
8.674867269093335e-07,7.014788413341806e-07,3.469500774624186e-07,2.2340833661845465e-05
8.657193117700724e-07,7.055897422152956e-07,3.449533366593577e-07,2.1932245393073143e-05
8.63258065685594e-07,7.095891744588122e-07,3.4277303841370804e-07,2.1518895297343314e-05
8.601173866910392e-07,7.135064463637864e-07,3.404195234376811e-07,2.1102222650075808e-05
8.563174815591747e-07,7.173723703624782e-07,3.3790333964624137e-07,2.0683616734319198e-05
8.51884211962908e-07,7.212134737070561e-07,3.352345588886345e-07,2.026439643928512e-05
8.468451033114306e-07,7.250477177653984e-07,3.3242245685935513e-07,1.984584776415145e-05
8.412279987428731e-07,7.288821719152521e-07,3.294757119607325e-07,1.942923704928648e-05
8.350639722140562e-07,7.327128479445267e-07,3.2640264298093537e-07,1.901575147453157e-05
8.283893247076069e-07,7.365264898412885e-07,3.232109277415732e-07,1.86064439921546e-05
8.212424400360494e-07,7.403030514092536e-07,3.1990722776265037e-07,1.820225543087014e-05
8.136596974879559e-07,7.440175715741542e-07,3.1649751341914344e-07,1.7804120415297275e-05
8.056782141234562e-07,7.476420052517375e-07,3.129878688627764e-07,1.7413123375906382e-05
7.973433536211044e-07,7.511477620356522e-07,3.0938482767748487e-07,1.7030599176540633e-05
7.887107076614123e-07,7.545074228160524e-07,3.05694866605591e-07,1.6658091757092137e-05
7.798416752433021e-07,7.576946032925931e-07,3.0192424744382594e-07,1.629719925108387e-05
7.708021217550138e-07,7.606833852961951e-07,2.980809238778861e-07,1.5949384577178618e-05
7.616651248423544e-07,7.634498788843211e-07,2.9417723573434356e-07,1.5615855793262866e-05
7.525108062052546e-07,7.659769843902285e-07,2.902295211965005e-07,1.529762146732822e-05
7.434224043449838e-07,7.682582147501324e-07,2.862549848487461e-07,1.49956706037507e-05
7.344806226078316e-07,7.702953338588031e-07,2.822698488919887e-07,1.4711070155778797e-05
7.257570030148638e-07,7.720913684881405e-07,2.782890285381268e-07,1.4444876449093862e-05
7.173093601197306e-07,7.736452590825896e-07,2.743253922341577e-07,1.4197960317370913e-05
7.09180968455867e-07,7.749515276507438e-07,2.7038929047246407e-07,1.397089089866528e-05
7.014020718961858e-07,7.760033903403129e-07,2.664894628681117e-07,1.3763937954047849e-05
6.939933827008789e-07,7.767965118994344e-07,2.626340756087344e-07,1.357712720499998e-05
6.869705724135786e-07,7.773315881194534e-07,2.588305892925348e-07,1.341025620944874e-05
6.80345890455007e-07,7.776140906504788e-07,2.55085536134652e-07,1.3262928047803847e-05
6.741261510197089e-07,7.776507059776181e-07,2.5140515841428425e-07,1.3134742210179167e-05
6.683108791070413e-07,7.774455990754379e-07,2.4779653021732806e-07,1.3025591778262225e-05
6.628924612974022e-07,7.769999239725647e-07,2.442689467189168e-07,1.2935828496165806e-05
6.578575355924228e-07,7.763126820898186e-07,2.408348190744111e-07,1.2866186409947127e-05
6.531885732954671e-07,7.753797792440209e-07,2.3750968472003942e-07,1.2817567875792633e-05
6.488642652100389e-07,7.741927858567495e-07,2.3431275095659317e-07,1.2790811960153958e-05
6.448595346222738e-07,7.727398751030163e-07,2.3126784175408702e-07,1.2786548630604233e-05
6.41147282292755e-07,7.710090263889132e-07,2.284022942189933e-07,1.280527941302796e-05
6.377001827792815e-07,7.689919960260744e-07,2.2574376519906416e-07,1.2847647802167395e-05
6.344902066551704e-07,7.666854037985156e-07,2.2331760107765235e-07,1.2914619145929484e-05
6.31487695520486e-07,7.640881620111875e-07,2.2114678964609565e-07,1.3007441355267696e-05
6.286623823522278e-07,7.612006089672517e-07,2.19253697745499e-07,1.312751741552811e-05
6.259861533254658e-07,7.580268939792469e-07,2.176606904985311e-07,1.327628727492429e-05
6.234366436100657e-07,7.545767039509479e-07,2.1639029339032144e-07,1.3455102920625294e-05
6.210003822549982e-07,7.508648248822973e-07,2.1546747727557049e-07,1.3665075502097904e-05
6.186722822208649e-07,7.469090419238898e-07,2.1492073226596986e-07,1.3906928248895294e-05
6.164505824609564e-07,7.427274661640615e-07,2.1477799064174423e-07,1.4180903331274176e-05
6.143317057465846e-07,7.383362324106125e-07,2.1506133164833626e-07,1.448672275031044e-05
6.123089948693823e-07,7.337475590027016e-07,2.1578557287802877e-07,1.4823570613276404e-05
6.103747083337732e-07,7.289696634821965e-07,2.1695944026165556e-07,1.5190085608326931e-05
6.085221811344166e-07,7.240110063235163e-07,2.1858611730639572e-07,1.5584390347928167e-05
6.067459476356078e-07,7.188865466661637e-07,2.2066272709400497e-07,1.6004176738609046e-05
6.050398996978187e-07,7.136186827768956e-07,2.2318040044115682e-07,1.6446830032755068e-05
6.033957161573071e-07,7.082321125514861e-07,2.2612639170128225e-07,1.6909566557698593e-05
6.018035579795358e-07,7.027506139590083e-07,2.2948722904776197e-07,1.7389564495586328e-05
6.002529415597253e-07,6.971978284398744e-07,2.332510161260609e-07,1.7884071076438765e-05
5.987314375653289e-07,6.915972785085386e-07,2.374076836752965e-07,1.8390491120061843e-05
5.972231548334528e-07,6.859733199232994e-07,2.4194689652345385e-07,1.8906465107271248e-05
5.957088910396826e-07,6.803565291127656e-07,2.468563021034536e-07,1.9429898940989687e-05
5.941674364760716e-07,6.747881015849446e-07,2.521233098817452e-07,1.9958884009333974e-05
5.925768766753804e-07,6.693174696265986e-07,2.5773985237766014e-07,2.0491523952049764e-05
5.909149971636532e-07,6.639945425336185e-07,2.637059796521112e-07,2.1025770148186106e-05
5.891593818668494e-07,6.588613783842044e-07,2.7002746762286744e-07,2.1559353334683138e-05
5.872883787545818e-07,6.539480960762568e-07,2.7670814002493344e-07,2.208984723990183e-05
5.852837384785093e-07,6.492744283338904e-07,2.837435077056714e-07,2.261483358324456e-05
5.831339563714408e-07,6.44853675329296e-07,2.9111933200131924e-07,2.313205685290243e-05
5.808345748707692e-07,6.406943191689296e-07,2.9881289563327305e-07,2.363948437925239e-05
5.783857081511334e-07,6.367985360920915e-07,3.067944521913438e-07,2.4135291964021155e-05
5.757919319022479e-07,6.33161137502683e-07,3.150286430984417e-07,2.4617833203382325e-05
5.7306391818411e-07,6.297710940588051e-07,3.2347714425854733e-07,2.5085628393147533e-05
5.702170241989282e-07,6.266151921451322e-07,3.3210266542315394e-07,2.5537345541485998e-05
5.672678913390379e-07,6.23680958900344e-07,3.408710907008052e-07,2.597171333300229e-05
5.642324014056273e-07,6.209561860145233e-07,3.497500862646693e-07,2.638740934621976e-05
5.611244373256647e-07,6.184272297528716e-07,3.587075072311018e-07,2.6783043615785426e-05
5.579548079054085e-07,6.160789635694273e-07,3.677116904326351e-07,2.715725634057057e-05
5.547316826168231e-07,6.138970035635827e-07,3.767312250256831e-07,2.7508845889621425e-05
5.514619887048035e-07,6.118708875599261e-07,3.857330192271519e-07,2.7836892715114467e-05
5.481521293331056e-07,6.099939858581899e-07,3.9468108593998253e-07,2.8140896478018127e-05
5.448094773152971e-07,6.082606086370651e-07,4.035369424627719e-07,2.8420863565635364e-05
5.414460490747987e-07,6.066651418584996e-07,4.122608667736739e-07,2.867725032601144e-05
5.380813132501289e-07,6.05201564094924e-07,4.2081548363363025e-07,2.891078006785052e-05
5.347404539602844e-07,6.038608361200987e-07,4.291707509305433e-07,2.9122232589668896e-05
5.314487525164642e-07,6.026299989405937e-07,4.3730490893387965e-07,2.9312289676273243e-05
5.282264907845876e-07,6.014953151253096e-07,4.4520031467185575e-07,2.9481454951176647e-05
5.250879889591639e-07,6.004469324032423e-07,4.5283918415267496e-07,2.963001690866613e-05
5.220438660662367e-07,5.994812034222297e-07,4.602022017237702e-07,2.9758067092370348e-05
5.191027951947154e-07,5.985983525157779e-07,4.6726860893167246e-07,2.986564386780612e-05
5.162717833071139e-07,5.977977668026763e-07,4.7401611104326155e-07,2.9952991690300483e-05
5.135569728986608e-07,5.970749067339942e-07,4.804210269809453e-07,3.0020745313457202e-05
5.10964426389509e-07,5.964205889258865e-07,4.864597914553207e-07,3.0069873900648216e-05
5.084995491124985e-07,5.958212298363589e-07,4.921110578496785e-07,3.010147416194585e-05
5.061675831627959e-07,5.952597726784822e-07,4.973567727436652e-07,3.011658386777436e-05
5.039760150865859e-07,5.947180521966602e-07,5.021826537887254e-07,3.011612213745383e-05
5.019347508770972e-07,5.941792262789391e-07,5.065789836846503e-07,3.010106763001029e-05
5.000526388324389e-07,5.93629052560409e-07,5.10540621767462e-07,3.0072807917355358e-05
4.983340824405263e-07,5.930568381091475e-07,5.140657880223038e-07,3.003334719450064e-05
4.967778553776697e-07,5.924549160943081e-07,5.171552997432351e-07,2.998523128328761e-05
4.953772537615507e-07,5.918168404186922e-07,5.198129629883195e-07,2.993134817925448e-05
4.941207927461856e-07,5.911368279157355e-07,5.220455306652724e-07,2.9874739359560662e-05
4.929935716759681e-07,5.90409466474429e-07,5.238609879514819e-07,2.981843488457105e-05
4.919792647449539e-07,5.896292971568125e-07,5.252661830493695e-07,2.976530007683459e-05
4.910612587477843e-07,5.887918150058589e-07,5.262654958256147e-07,2.971788980720599e-05
4.902222706313829e-07,5.878936189456933e-07,5.268615553314208e-07,2.9678336520725734e-05
4.894436055790406e-07,5.869301436327616e-07,5.270578863649759e-07,2.964831209885352e-05
4.887047162692535e-07,5.858936035911007e-07,5.268609777236931e-07,2.9629057101778442e-05
4.879834618629534e-07,5.847734887179259e-07,5.262793097814647e-07,2.9621425049461854e-05
4.87257623051854e-07,5.835612300517986e-07,5.253212470645946e-07,2.9625907673459833e-05
4.86507503770915e-07,5.82258030408471e-07,5.239953148252802e-07,2.9642632934875428e-05
4.857189413849407e-07,5.80879045470551e-07,5.223121609909793e-07,2.9671336330272356e-05
4.848848862125943e-07,5.794490367237013e-07,5.202848701514793e-07,2.971137085501878e-05
4.840034673897632e-07,5.779955900513804e-07,5.179272538810005e-07,2.9761837744184948e-05
4.830743019719675e-07,5.765498600372379e-07,5.152527804451756e-07,2.982178071259151e-05
4.820975031574831e-07,5.75152297917861e-07,5.12275269875852e-07,2.989031421002849e-05
4.810768200685752e-07,5.738518946058508e-07,5.090090828782728e-07,2.9966668041401417e-05
4.800240150136031e-07,5.7269941071778e-07,5.054672949137215e-07,3.005019996833745e-05
4.789598500892471e-07,5.717440347202512e-07,5.016600439200229e-07,3.0140381608897832e-05
4.779095148589311e-07,5.710343144388966e-07,4.975950216121023e-07,3.0236751168894488e-05
4.768959771759962e-07,5.706186754105002e-07,4.932795154018936e-07,3.0338857528664715e-05
4.759365571926285e-07,5.70543292278715e-07,4.887223430635483e-07,3.044620371794895e-05
4.7504331627323473e-07,5.708477389641866e-07,4.839342436747116e-07,3.055816951855489e-05
4.742247037504792e-07,5.715630357171011e-07,4.789271048668197e-07,3.067393348144781e-05
4.7348766675976536e-07,5.727150515645322e-07,4.737135257392045e-07,3.0792438890081185e-05
4.728403195554136e-07,5.743272147189827e-07,4.6830737403040895e-07,3.091238433890788e-05
4.722938092302804e-07,5.764174596868528e-07,4.6272442910344155e-07,3.103221000109942e-05
4.7186175725650843e-07,5.789940743997214e-07,4.569816500687066e-07,3.115011467518624e-05
4.7155801069516476e-07,5.820555093841761e-07,4.5109578178470927e-07,3.126413342206096e-05
4.7139443906559036e-07,5.855929346746418e-07,4.450832121979804e-07,3.1372238026581075e-05
4.713796743265645e-07,5.895937449955265e-07,4.3896132158775207e-07,3.1472395982788205e-05
4.715199120850647e-07,5.940454171358141e-07,4.327501298422973e-07,3.1562578120362265e-05
4.7182027173238537e-07,5.989364605640713e-07,4.264721742633743e-07,3.1640755122034965e-05
4.722834029167872e-07,6.042535716968881e-07,4.201502615432157e-07,3.170491509187792e-05
4.7290675587676285e-07,6.09980300541345e-07,4.1380667324784705e-07,3.175312435043054e-05
4.7368228353071444e-07,6.160988884587345e-07,4.0746603383759133e-07,3.1783651579780484e-05
4.7459944146320067e-07,6.225902969314194e-07,4.011585829417917e-07,3.179514892756599e-05
4.7565020018861225e-07,6.294304043714241e-07,3.949199495402223e-07,3.178679766846743e-05
4.768327236334378e-07,6.365860538754878e-07,3.8878764304634986e-07,3.1758283420865434e-05
4.781497621163227e-07,6.440149779984317e-07,3.827970253971917e-07,3.1709600970452565e-05
4.796038453890395e-07,6.516699856537735e-07,3.7697912293624026e-07,3.164084278630064e-05
4.81197404799638e-07,6.595037657563685e-07,3.7136070322825777e-07,3.1552107462516274e-05
4.829397422951338e-07,6.674705333234454e-07,3.659648030476257e-07,3.144352832611147e-05
4.848510810808024e-07,6.755254239789253e-07,3.608105524447369e-07,3.1315337296651114e-05
4.86957376351848e-07,6.836242341242803e-07,3.559129530486244e-07,3.1167892019543396e-05
4.892839237411626e-07,6.917226027466681e-07,3.5128250589369005e-07,3.100166806367568e-05
4.918546805611309e-07,6.997744807938983e-07,3.4692472269379957e-07,3.081731106756597e-05
4.94692764106038e-07,7.077319128343999e-07,3.428408888053893e-07,3.061572805664091e-05
4.978184619631046e-07,7.155458155128133e-07,3.390300182274636e-07,3.0398047686973408e-05
5.012460700687377e-07,7.231678219582634e-07,3.3549048673118246e-07,3.016547657633603e-05
5.04980858287366e-07,7.305535719383177e-07,3.322208026335175e-07,2.991919551509735e-05
5.090180787814659e-07,7.376642359220419e-07,3.292199796227691e-07,2.9660320265581813e-05
5.133445234060444e-07,7.444649928809423e-07,3.2648835357176144e-07,2.9390018211715178e-05
5.179410360826588e-07,7.509251844782438e-07,3.240291437259716e-07,2.9109829077616217e-05
5.227856788025969e-07,7.570229303495433e-07,3.218488177254332e-07,2.8821914968689722e-05
5.278565969500281e-07,7.627489557663981e-07,3.199542152677184e-07,2.852898575603567e-05
5.331321072486583e-07,7.68103713988527e-07,3.183487739574821e-07,2.823401669418737e-05
5.385883941629222e-07,7.73090044504535e-07,3.1703245817667397e-07,2.7939980769601924e-05
5.441975474509159e-07,7.777082699320038e-07,3.160059472029735e-07,2.764966690340645e-05
5.499266726341846e-07,7.819572101996045e-07,3.1527425804095714e-07,2.7365573933009706e-05
5.557373893399182e-07,7.858399757171363e-07,3.148454485816455e-07,2.708985676815189e-05
5.615860646855406e-07,7.893701315306048e-07,3.147267789751474e-07,2.682429799794181e-05
5.674251860794205e-07,7.925722157884564e-07,3.1492324826395685e-07,2.657029597540816e-05
5.732051332993725e-07,7.954753321460379e-07,3.154377509510572e-07,2.63288635428302e-05
5.788754873862287e-07,7.981065875912722e-07,3.162694497412108e-07,2.6100621361224552e-05
5.843858996073853e-07,8.004916026444198e-07,3.174114121215913e-07,2.588579302849257e-05
5.89686521229492e-07,8.026604599100594e-07,3.188502956161426e-07,2.568423305580415e-05
5.947278128356314e-07,8.046503974190121e-07,3.205679668244041e-07,2.549549781833702e-05
5.9946096508984e-07,8.065006982131601e-07,3.225438307934401e-07,2.531895794531347e-05
6.038398496628761e-07,8.082451112605144e-07,3.24756576054669e-07,2.5153948493561427e-05
6.078223955501538e-07,8.099097343005267e-07,3.2718444516564425e-07,2.499990413437948e-05
6.11369895512298e-07,8.115178304274455e-07,3.2980488330444104e-07,2.485641400192404e-05
6.144468071731215e-07,8.130961510646172e-07,3.325947467221024e-07,2.4723217075453e-05
6.170225128171624e-07,8.146764419009685e-07,3.3553227908747764e-07,2.460019870043521e-05
6.190720556063483e-07,8.162918573431703e-07,3.3860008342455537e-07,2.4487381278369846e-05
6.205743999702249e-07,8.179727424154896e-07,3.4178493419196465e-07,2.4384879040142504e-05
6.215107776099458e-07,8.19743419803332e-07,3.4507373265478303e-07,2.429283629981689e-05
6.21865011007368e-07,8.216200668987165e-07,3.484502067646384e-07,2.4211369212094745e-05
6.216254387760586e-07,8.236104867700366e-07,3.5189558116042034e-07,2.414049704348443e-05
6.20786708755782e-07,8.257140311171437e-07,3.5539169241880216e-07,2.408008163331685e-05
6.193498690040528e-07,8.279208901395719e-07,3.589220450995925e-07,2.4029824456022312e-05
6.173215622529502e-07,8.302127839206738e-07,3.624695980104999e-07,2.3989299602642043e-05
6.147133152320685e-07,8.325644541134651e-07,3.6601554400196673e-07,2.395796750034606e-05
6.115400244384469e-07,8.34944222843353e-07,3.6954159521474977e-07,2.393518241005728e-05
6.078178268945834e-07,8.373154427449118e-07,3.7303318241398894e-07,2.3920230372675324e-05
6.035634567258325e-07,8.396398396611186e-07,3.764804852169409e-07,2.3912391358686005e-05
5.987957492007085e-07,8.418800633991862e-07,3.7987657862894135e-07,2.391097377377987e-05
5.935370401397191e-07,8.440000071292776e-07,3.8321415494620116e-07,2.391528688761583e-05
5.878124610891288e-07,8.459634272403033e-07,3.8648329452982243e-07,2.392458876418589e-05
5.816488950839869e-07,8.477319935570474e-07,3.896717910034947e-07,2.393804113960405e-05
5.750765500772355e-07,8.49264912077964e-07,3.927673684169425e-07,2.3954674612165146e-05
5.681328014319649e-07,8.505204030270199e-07,3.9575876970709307e-07,2.397342662597824e-05
5.608654681665402e-07,8.514570274645966e-07,3.986343400503685e-07,2.3993301230895488e-05
5.533329965649131e-07,8.520341072606602e-07,4.013810337726888e-07,2.401355077596157e-05
5.456006238335759e-07,8.522119747981281e-07,4.0398514878611797e-07,2.403372873316329e-05
5.377346505966907e-07,8.519528429311465e-07,4.064324987068386e-07,2.4053579615043453e-05
5.297990172645881e-07,8.512229334320454e-07,4.087080518626063e-07,2.4072842988524945e-05
5.218548905733685e-07,8.499951065902594e-07,4.107971975559957e-07,2.4091100174503838e-05
5.139597116107907e-07,8.482505951997064e-07,4.126874585821943e-07,2.41077511050643e-05
5.061646571432863e-07,8.45979980956493e-07,4.1436818504780935e-07,2.412206815247997e-05
4.985132431842973e-07,8.431831757032655e-07,4.1582935486294353e-07,2.4133239295815423e-05
4.910417622595187e-07,8.398675950231132e-07,4.170618812216933e-07,2.4140460261033427e-05
4.837796444814214e-07,8.360449826121295e-07,4.180593995334032e-07,2.4143191561394245e-05
4.7674951457092113e-07,8.317278778981626e-07,4.18819667735444e-07,2.414146164181161e-05
4.6996762826987745e-07,8.269276921110184e-07,4.193441253210902e-07,2.4135944344944445e-05
4.63444732015384e-07,8.216559882087997e-07,4.1963556291791257e-07,2.412777256071347e-05
4.571878839503784e-07,8.15927706762836e-07,4.1969556130784314e-07,2.4118255451721688e-05
4.5120253917715166e-07,8.097636178302199e-07,4.1952372347924313e-07,2.410864185089129e-05
4.454934495208682e-07,8.03190439009526e-07,4.191184866441854e-07,2.4100071839718727e-05
4.400646820495041e-07,7.96240817664637e-07,4.184781092270074e-07,2.4093785339800408e-05
4.349190838626557e-07,7.889551014179688e-07,4.176014436359904e-07,2.4091391087103518e-05
4.300568510278189e-07,7.813812685772338e-07,4.1648846683433316e-07,2.409493063868244e-05
4.2547417913204844e-07,7.735709132529948e-07,4.1514029765904496e-07,2.410673695369883e-05
4.2116371454114883e-07,7.655744950312619e-07,4.135589014276046e-07,2.4129234348118438e-05
4.171161142932895e-07,7.574383651543848e-07,4.117470024272771e-07,2.4164750374776293e-05
4.133202737286796e-07,7.492042735256721e-07,4.0970824907036317e-07,2.421537699024488e-05
4.097628449166914e-07,7.409119329538745e-07,4.074477738877761e-07,2.428291062110079e-05
4.064294196399786e-07,7.326027506000989e-07,4.0497303166457897e-07,2.4368841355761365e-05
4.033060162495438e-07,7.243204837745359e-07,4.022936088990018e-07,2.447435260190627e-05
4.003786605386885e-07,7.161087466025844e-07,3.994198213453414e-07,2.4600328348899853e-05
3.9763263569295773e-07,7.080087614506493e-07,3.9636170705067394e-07,2.4747344272986945e-05
3.950528402829978e-07,7.000586201394032e-07,3.9312869381537255e-07,2.491561283815988e-05
3.9262404048121707e-07,6.922944847450145e-07,3.8972909351164456e-07,2.5104911705150464e-05
3.903303595001378e-07,6.847513920444304e-07,3.861699564370957e-07,2.531453805402329e-05
3.88154673044263e-07,6.774600407721827e-07,3.8245815003240813e-07,2.5543310303008965e-05
3.8607851520781523e-07,6.704432554872919e-07,3.786016165172621e-07,2.5789653229351964e-05
3.840830177548768e-07,6.637180967346318e-07,3.746093551784682e-07,2.6051763031259133e-05
3.821507316383844e-07,6.573021414635536e-07,3.704909017131324e-07,2.6327766213842967e-05
3.8026631824497007e-07,6.512184285710074e-07,3.6625646202359974e-07,2.6615816009109115e-05
3.7841523435650356e-07,6.454963481317128e-07,3.619173199804118e-07,2.691415004685988e-05
3.7658307630954924e-07,6.401687128852808e-07,3.574867234608404e-07,2.722112404470016e-05
3.747572583649984e-07,6.352659170332318e-07,3.529811291995804e-07,2.753521351203907e-05
3.7292914695785616e-07,6.308095845896801e-07,3.4841944368603426e-07,2.7855001892290168e-05
3.710941649641834e-07,6.268089677215543e-07,3.438210599927057e-07,2.817916404267083e-05
3.692498204645821e-07,6.232612921518272e-07,3.392076713708535e-07,2.8506400857549145e-05
3.673941291241128e-07,6.201549214878393e-07,3.346078963987423e-07,2.883530693292631e-05
3.655257372188642e-07,6.174722538118833e-07,3.300575973382834e-07,2.9164259813379053e-05
3.6364432339594407e-07,6.151902117801011e-07,3.25594815572478e-07,2.9491409925632954e-05
3.617509613173806e-07,6.13280120250762e-07,3.212549605323999e-07,2.9814723906003246e-05
3.5985058715526473e-07,6.117089764562567e-07,3.170689944185976e-07,3.0132010434540106e-05
3.5795539151169866e-07,6.104413182846172e-07,3.1306296763169805e-07,3.044093933559271e-05
3.560843437241976e-07,6.094404352744381e-07,3.092582046801799e-07,3.0739096894383764e-05
3.5425851655168464e-07,6.08669279999381e-07,3.056728855302925e-07,3.1024061658201975e-05
3.5249645481396887e-07,6.080920575592287e-07,3.0232359526307344e-07,3.129346138216222e-05
3.508128748639946e-07,6.076763630863283e-07,2.9922462015229714e-07,3.1545026563108196e-05
3.4922117159453524e-07,6.073937881695823e-07,2.963858843459097e-07,3.177666419515983e-05
3.477366083962437e-07,6.072175340411209e-07,2.9381229654537145e-07,3.1986539321734016e-05
3.463767898343718e-07,6.071205853655016e-07,2.9150503406010237e-07,3.217314978859162e-05
3.4516083816939677e-07,6.070782507020819e-07,2.894626285656693e-07,3.233540361236221e-05
3.441104852105407e-07,6.070723504071986e-07,2.876812471101233e-07,3.2472676621211984e-05
3.432518862563134e-07,6.070930416170696e-07,2.861565157111935e-07,3.25847678539422e-05
3.426146365831869e-07,6.071385886731431e-07,2.848872828301275e-07,3.267173084494697e-05
3.422285138389603e-07,6.07213854475224e-07,2.8387737427317445e-07,3.2733672722914565e-05
3.421207529029601e-07,6.07326445298308e-07,2.831329091417059e-07,3.277063253365921e-05
3.4231385553801734e-07,6.074815882453983e-07,2.826581597198305e-07,3.27825745238053e-05
3.428233994241887e-07,6.076790359883683e-07,2.8245328057267885e-07,3.276944028010314e-05
3.436567054571019e-07,6.079130966936881e-07,2.8251419323272105e-07,3.273119416456185e-05
3.4481259599697463e-07,6.081744588282997e-07,2.828342303426839e-07,3.266786957418283e-05
3.462821983212564e-07,6.084524706894416e-07,2.8340597592517944e-07,3.257969676499967e-05
3.480509023984394e-07,6.087366372348243e-07,2.842207430048547e-07,3.246728882851025e-05
3.5010070962902125e-07,6.090165317931053e-07,2.8526658860185277e-07,3.2331674355366564e-05
3.5241186076925477e-07,6.092809311444615e-07,2.865277551285748e-07,3.217410074238398e-05
3.5496387338523674e-07,6.095171924253213e-07,2.879859482352597e-07,3.199579640185825e-05
3.5773681893039324e-07,6.097110817611212e-07,2.896224804602946e-07,3.1797859333996764e-05
3.6071210879663896e-07,6.09846949940176e-07,2.914196307698042e-07,3.158134034692244e-05
3.6387171946898407e-07,6.099085266292728e-07,2.933597789074668e-07,3.134752177271178e-05
3.671974847108807e-07,6.098813237987614e-07,2.9542384816835163e-07,3.1098196644672726e-05
3.7067190573219524e-07,6.097550231980423e-07,2.975910731251612e-07,3.0835713517801645e-05
3.742789776548997e-07,6.095220805287966e-07,2.9983934183297073e-07,3.0562833722310465e-05
3.78003999725904e-07,6.091738444823574e-07,3.021452822799761e-07,3.0282583879355373e-05
3.818327537618622e-07,6.086993276834465e-07,3.0448492410248565e-07,2.999814899534885e-05
3.8575055571012577e-07,6.080881756798986e-07,3.0683488386331486e-07,2.971276933123806e-05
3.8974182371800213e-07,6.073359592898953e-07,3.0917310631284087e-07,2.942962055910501e-05
3.937904266255944e-07,6.064473342477204e-07,3.11479306900038e-07,2.9151679972185694e-05
3.9788020934128385e-07,6.054329530494828e-07,3.137354577056046e-07,2.8881616006558886e-05
4.019944888291538e-07,6.04303746690706e-07,3.1592556738326484e-07,2.862173479088799e-05
4.0611490266184e-07,6.030684260744293e-07,3.180345405085485e-07,2.837394749590059e-05
4.102211826058975e-07,6.017348118805773e-07,3.200476955519332e-07,2.813970840168448e-05
4.1429189093009036e-07,6.003137096465748e-07,3.2195138938546236e-07,2.7919957141621648e-05
4.1830535033035726e-07,5.988217792024595e-07,3.237329974841548e-07,2.771513516924953e-05
4.222399878028822e-07,5.972792989663142e-07,3.253800148650047e-07,2.7525286784873523e-05
4.260741694746347e-07,5.957049637493943e-07,3.268800490669182e-07,2.735020458395485e-05
4.2978748458100845e-07,5.941133823614445e-07,3.282227042745291e-07,2.718958364301131e-05
4.333636751860816e-07,5.925184985203374e-07,3.2940235277059625e-07,2.7043145810600368e-05
4.367929547218029e-07,5.909399487679136e-07,3.304190371624375e-07,2.691070494038449e-05
4.400729281254357e-07,5.894037168136929e-07,3.312761071962843e-07,2.679220400968592e-05
4.432076635498304e-07,5.879349861494553e-07,3.319772010416209e-07,2.6687750447519143e-05
4.462042020523856e-07,5.86551338507324e-07,3.325254074327645e-07,2.659760914795743e-05
4.490685013051033e-07,5.85261576671783e-07,3.3292382631864024e-07,2.652213363238469e-05
4.518040041411366e-07,5.840678944742759e-07,3.3317559792396174e-07,2.646167091056087e-05
4.54413351765903e-07,5.829682549094305e-07,3.332832381207577e-07,2.641644716644617e-05
4.5690119421547185e-07,5.819578361233125e-07,3.332483520589066e-07,2.6386439296808475e-05
4.592757794794096e-07,5.810288892769187e-07,3.330722519236145e-07,2.6371320814496312e-05
4.6154814809588975e-07,5.801693459932829e-07,3.3275659548781496e-07,2.6370522127206884e-05
4.637296910435644e-07,5.793619705972547e-07,3.323034868297998e-07,2.638330042372068e-05
4.658296382842447e-07,5.785848975320809e-07,3.317156295546468e-07,2.640876633761869e-05
4.678533761914916e-07,5.778128246827908e-07,3.3099673762061946e-07,2.644594036795924e-05
4.6980196172738044e-07,5.770180959262418e-07,3.301521507828186e-07,2.6493851279107778e-05
4.716726377898964e-07,5.761717112238032e-07,3.291897215765293e-07,2.655155794543715e-05
4.7345950842029237e-07,5.752447286365121e-07,3.281209553737512e-07,2.661803835222775e-05
4.751536472212883e-07,5.742093321736923e-07,3.269615433023251e-07,2.669206535770274e-05
4.767429967395073e-07,5.730386743219315e-07,3.257297945737788e-07,2.677218190046048e-05
4.782130748064548e-07,5.717064143166547e-07,3.244439927992379e-07,2.685675963054778e-05
4.795492635161491e-07,5.701871482818928e-07,3.2312100513493446e-07,2.694408828535441e-05
4.807402822578707e-07,5.684583065429428e-07,3.2177619845681576e-07,2.703246066673032e-05
4.817800677563516e-07,5.66503373993449e-07,3.2042382267679484e-07,2.7120208670696812e-05
4.826658437673028e-07,5.643151922790181e-07,3.1907739383017714e-07,2.7205670165752842e-05
4.833947340682201e-07,5.618983020880937e-07,3.1774967354791515e-07,2.7287145250629238e-05
4.839623658412972e-07,5.592686096391098e-07,3.164522732604375e-07,2.7362927808531585e-05
4.843631830252111e-07,5.564483927862772e-07,3.1519514245421075e-07,2.7431415569796608e-05
4.845908958590119e-07,5.534603845032002e-07,3.139859030145807e-07,2.7491202608719612e-05
4.846388979695689e-07,5.503274506156762e-07,3.128290853452031e-07,2.7541085536881597e-05
4.845006225169706e-07,5.470754576091863e-07,3.1172623698495337e-07,2.7580006646213318e-05
4.84169864203696e-07,5.437318110955183e-07,3.1067749350303416e-07,2.760700706405897e-05
4.836411522231901e-07,5.403202889782872e-07,3.096829190703549e-07,2.762127148094657e-05
4.829097310664214e-07,5.368582337431233e-07,3.087420422202399e-07,2.7622210387055214e-05
4.819711183079649e-07,5.333580587547229e-07,3.078530973964146e-07,2.7609423301114626e-05
4.808211131836337e-07,5.298308220348691e-07,3.070137297410996e-07,2.7582555905808038e-05
4.794568918045775e-07,5.2628820144914e-07,3.062226703743444e-07,2.754119266780171e-05
4.778781484018972e-07,5.227411415221639e-07,3.054815351617207e-07,2.748484406349869e-05
4.760873780464817e-07,5.191977982306804e-07,3.047961380408576e-07,2.7412995040596435e-05
4.740902267050556e-07,5.156637216474698e-07,3.041761585689208e-07,2.7325165941165922e-05
4.718961676203576e-07,5.121445036678169e-07,3.036326308188894e-07,2.722096422187035e-05
4.695186241384604e-07,5.086486562095665e-07,3.031754927328037e-07,2.710011590325776e-05
4.66973771511405e-07,5.051875065856886e-07,3.0281395563898175e-07,2.6962472766184603e-05
4.6427783353290644e-07,5.017727174919752e-07,3.025579520026534e-07,2.6808001388259782e-05
4.614444851286415e-07,4.984145655075244e-07,3.024173511670844e-07,2.6636746937883805e-05
4.5848394263820573e-07,4.951210197565843e-07,3.023996014854559e-07,2.644878154606524e-05
4.5540310555957135e-07,4.918966129986918e-07,3.0250817703590105e-07,2.624418851501e-05
4.5220620480915394e-07,4.887422028146758e-07,3.027435025212316e-07,2.602309865915341e-05
4.4889620670720253e-07,4.856569506762537e-07,3.031059719744733e-07,2.578572232339941e-05
4.4547583908861064e-07,4.826412380711735e-07,3.035977400292137e-07,2.5532336982931633e-05
4.4194714774533223e-07,4.796974317740108e-07,3.042223217810931e-07,2.526325328694483e-05
4.3831094097603033e-07,4.768282855430807e-07,3.0498368220614065e-07,2.4978791627200407e-05
4.3456741975808963e-07,4.7403623020176437e-07,3.058850639005785e-07,2.467926920518396e-05
4.3071743978713523e-07,4.713248335612704e-07,3.0692809551421584e-07,2.436499107075904e-05
4.2676443950407963e-07,4.6869997116284077e-07,3.081121388972389e-07,2.403626466768461e-05
4.227161528217027e-07,4.661694810461483e-07,3.0943313699260967e-07,2.3693448331960896e-05
4.185833767632006e-07,4.6374377677620403e-07,3.108831581453193e-07,2.333701038511561e-05
4.143768657215278e-07,4.614396676381584e-07,3.124511411758065e-07,2.296756850445865e-05
4.1010635458041527e-07,4.5928530302448607e-07,3.1412365790072413e-07,2.258588595243057e-05
4.057819231593754e-07,4.573204156444521e-07,3.158852069030233e-07,2.2192821298677217e-05
4.014146810588887e-07,4.555897440664046e-07,3.177182186436184e-07,2.1789262505493987e-05
3.9701570244229743e-07,4.541361680222722e-07,3.1960298209470966e-07,2.1376093102929666e-05
3.925949257883416e-07,4.529987514941976e-07,3.2151805928707427e-07,2.095421356180832e-05
3.881610024502022e-07,4.5221242648610745e-07,3.2344145978428643e-07,2.052458463997417e-05
3.837215275524786e-07,4.5180686179641046e-07,3.253520156775536e-07,2.008823979238543e-05
3.7928387579580076e-07,4.5180609217873886e-07,3.272303591548309e-07,1.964627902642664e-05
3.7485732664312273e-07,4.522281145451065e-07,3.290588802020384e-07,1.919988055547408e-05
3.704549024790723e-07,4.530832682583194e-07,3.308205343513001e-07,1.8750283631246272e-05
3.660926489845658e-07,4.543738974822673e-07,3.32497737174771e-07,1.829871314560617e-05
3.6178725316571215e-07,4.560962099401078e-07,3.340723809112131e-07,1.7846320432124846e-05
3.575544333880968e-07,4.5824107581106654e-07,3.3552669764680105e-07,1.7394188116055092e-05
3.5340907156260426e-07,4.607929558880866e-07,3.3684467049958823e-07,1.6943398881105436e-05
3.493659127051644e-07,4.6372982857952845e-07,3.380137699770177e-07,1.649516259313186e-05
3.454388127098617e-07,4.670257123787716e-07,3.390252677149733e-07,1.6050910253050398e-05
3.416389921938493e-07,4.706543196330607e-07,3.398725590164116e-07,1.5612248789192612e-05
3.3797445253915575e-07,4.745908867389454e-07,3.405502038500105e-07,1.518081503371787e-05
3.3445126026561005e-07,4.7881194103678e-07,3.410540354755382e-07,1.4758145412712638e-05
3.310762635073752e-07,4.832954195251435e-07,3.413803994451873e-07,1.4345647131458355e-05
3.2785972417698767e-07,4.880214712931003e-07,3.415254452125911e-07,1.394470818522348e-05
3.2481516453260214e-07,4.929725471232405e-07,3.4148555007369015e-07,1.3556872698912195e-05
3.219562105171515e-07,4.981326543913624e-07,3.412583767209041e-07,1.318391832533644e-05
3.192935167938121e-07,5.034872613634988e-07,3.408440352962655e-07,1.2827757232667149e-05
3.168337267355843e-07,5.090238259020554e-07,3.402455350269776e-07,1.2490233102902666e-05
3.145802170595957e-07,5.147300221806739e-07,3.39468414264039e-07,1.2172942128657049e-05
3.1253422056569727e-07,5.205907198123989e-07,3.385197450457091e-07,1.1877161518218574e-05
3.106948751909801e-07,5.265888668567878e-07,3.3740657909302357e-07,1.1603872697703426e-05
3.090589611888299e-07,5.327085988887713e-07,3.3613529540777264e-07,1.1353809614244095e-05
3.0762185986328763e-07,5.38934096924521e-07,3.347127482271997e-07,1.1127521827992303e-05
3.063789491219844e-07,5.452448087888278e-07,3.331473076686172e-07,1.0925536830017273e-05
3.053254139641428e-07,5.516126688093505e-07,3.314488856754579e-07,1.0748619348858632e-05
3.044544196872333e-07,5.580028947312098e-07,3.2962930034786497e-07,1.0597920857585628e-05
3.03755647074597e-07,5.643769939323452e-07,3.277019346364938e-07,1.0474872535471915e-05
3.0321534397622107e-07,5.70696193395227e-07,3.2567997312333106e-07,1.0380936007817138e-05
3.0281753170053293e-07,5.76922611044826e-07,3.23575736975368e-07,1.0317373116109154e-05
3.0254639672156066e-07,5.830186689847382e-07,3.214011232350502e-07,1.028511387397867e-05
3.023889037084432e-07,5.88947142159231e-07,3.191674284339912e-07,1.0284834446110867e-05
3.023346873295821e-07,5.94671083479787e-07,3.168853057413414e-07,1.0317231019845157e-05
3.0237330217774747e-07,6.001541317341701e-07,3.145655259394665e-07,1.0383210260704688e-05
3.024925109281035e-07,6.053636399393128e-07,3.122200420349415e-07,1.048383279932012e-05
3.026790404709395e-07,6.102743755900686e-07,3.098627809243384e-07,1.0620150017044384e-05
3.0292035411416906e-07,6.148686156291709e-07,3.0750932608231447e-07,1.0793084279745432e-05
3.0320615159658197e-07,6.191330990945339e-07,3.0517526122711155e-07,1.1003371066744561e-05
3.0352858630828804e-07,6.230568154129898e-07,3.028742853281864e-07,1.1251526511995469e-05
3.0388068148346076e-07,6.266315535209796e-07,3.0061777474012386e-07,1.1537807905080768e-05
3.042543129623696e-07,6.298523054033236e-07,2.9841607571335664e-07,1.186217206868763e-05
3.0463945330555293e-07,6.327150684224703e-07,2.9627954368213637e-07,1.2224262541485165e-05
3.0502460230909014e-07,6.352147985874946e-07,2.9421817954146185e-07,1.2623415565787171e-05
3.0539747152553525e-07,6.373470262599019e-07,2.922410457982067e-07,1.3058626139830152e-05
3.057452482412407e-07,6.39112902384178e-07,2.903557404991245e-07,1.3528460139464093e-05
3.0605440507941734e-07,6.405232108514988e-07,2.885672011864694e-07,1.4030982474009369e-05
3.063105462954757e-07,6.415958882093024e-07,2.8687657088780444e-07,1.4563764405141531e-05
3.0649859305349175e-07,6.423492883894818e-07,2.85281186094189e-07,1.512394810340391e-05
3.066033735920433e-07,6.427996418478019e-07,2.8377525186354516e-07,1.5708323076612368e-05
3.06610479902545e-07,6.429661297818758e-07,2.8235042588737177e-07,1.6313420054357265e-05
3.0650721880044796e-07,6.428805045565135e-07,2.8099658299792554e-07,1.693563078619262e-05
3.0628360986511305e-07,6.425936145889373e-07,2.797028025600179e-07,1.7571324209474654e-05
3.059329674765093e-07,6.421723060218684e-07,2.784579504020032e-07,1.821692275526461e-05
3.0545176601637894e-07,6.416905798751424e-07,2.772512305166637e-07,1.8868918156618985e-05
3.0483936870098197e-07,6.412215776542061e-07,2.760733180178714e-07,1.952383755442388e-05
3.040978768232078e-07,6.408314562215482e-07,2.749170379775197e-07,2.0178196270075878e-05
3.032315648608267e-07,6.405756106126729e-07,2.737766582011645e-07,2.0828467258680727e-05
3.0224653262409855e-07,6.404968890405381e-07,2.726468497011649e-07,2.147109494770292e-05
3.0115146715235147e-07,6.406246667252097e-07,2.715222649709052e-07,2.2102576433079278e-05
2.9995757115373825e-07,6.409754520072598e-07,2.7039764991521866e-07,2.2719573924534244e-05
2.986767735230151e-07,6.415549126548596e-07,2.692691251568987e-07,2.331897754474141e-05
2.973213206775713e-07,6.423603900098082e-07,2.681363524561101e-07,2.3897897088744572e-05
2.95905072098452e-07,6.433829960223643e-07,2.670028589189403e-07,2.445363223421669e-05
2.9444291180685977e-07,6.446086727365919e-07,2.658740888866801e-07,2.498365278707108e-05
2.9294819555528786e-07,6.460202905984325e-07,2.6475577542474533e-07,2.5485583526760665e-05
2.9143133014186914e-07,6.476030076565476e-07,2.636529081376451e-07,2.595721045366565e-05
2.899003024783373e-07,6.49351226530936e-07,2.62568509464866e-07,2.6396545861942174e-05
2.883621560995244e-07,6.512721418610716e-07,2.6150342171409497e-07,2.6801942746477343e-05
2.868244161659536e-07,6.533814287755289e-07,2.604577032841199e-07,2.717220395582445e-05
2.8529532668542555e-07,6.556936468375232e-07,2.594316436295628e-07,2.750664699083233e-05
2.8378254397473124e-07,6.58215284064066e-07,2.5842497880620534e-07,2.780514380858831e-05
2.8229153108343356e-07,6.609441502743626e-07,2.574358607307321e-07,2.8068179151060783e-05
2.808250936655612e-07,6.638735378031153e-07,2.5646073519942107e-07,2.829687869372456e-05
2.7938372311377173e-07,6.669971957573904e-07,2.554948846788344e-07,2.8492895727802553e-05
2.779659013684112e-07,6.703097056169329e-07,2.5453349508142963e-07,2.865815465512611e-05
2.76568700848571e-07,6.738018367649614e-07,2.5357208190901627e-07,2.8794570592529462e-05
2.7518870278837297e-07,6.774575656687103e-07,2.526060778998075e-07,2.8903851354372583e-05
2.7382286269877037e-07,6.812568335039952e-07,2.5163158612925227e-07,2.8987405694540057e-05
2.724700416396234e-07,6.851797446135673e-07,2.506467583145136e-07,2.9046332720062072e-05
2.7113307914756443e-07,6.892071418409155e-07,2.4965128556605684e-07,2.9081477745496705e-05
2.6981904802608904e-07,6.933186401344547e-07,2.48644831630724e-07,2.9093601168951257e-05
2.68537119873128e-07,6.974909705879939e-07,2.476263359929404e-07,2.9083682767019123e-05
2.672964678097534e-07,7.01697318521266e-07,2.465942235761639e-07,2.9053158550906963e-05
2.661049089589426e-07,7.059075324602935e-07,2.4554781732510574e-07,2.9003847534585607e-05
2.6496796618610447e-07,7.100891839404052e-07,2.444896213896875e-07,2.8937658440329303e-05
2.6389060669450676e-07,7.142102770753623e-07,2.434260971837345e-07,2.8856330134705542e-05
2.628814715209647e-07,7.182429381821287e-07,2.4236615506669606e-07,2.8761353768874934e-05
2.619544946592678e-07,7.221637895991928e-07,2.413200085039413e-07,2.865416140369212e-05
2.611268960628529e-07,7.259501300556405e-07,2.402996695772905e-07,2.85364936733518e-05
2.604175417755348e-07,7.295774724327252e-07,2.39319142350244e-07,2.8410643953038825e-05
2.5984574068120607e-07,7.330203761746615e-07,2.383934397395903e-07,2.8279419504516917e-05
2.594294479804505e-07,7.362539255001413e-07,2.3753698044240089e-07,2.814595325740137e-05
2.591857156664208e-07,7.392558524363868e-07,2.3676182573532194e-07,2.8013524251008843e-05
2.5913323046130927e-07,7.420085882336696e-07,2.3607669444865462e-07,2.7885421760214916e-05
2.592922423845298e-07,7.444990277810856e-07,2.3548734137301922e-07,2.7764836386435645e-05
2.596810560383216e-07,7.467182209460193e-07,2.3499873855210828e-07,2.76547627962578e-05
2.6031333354685014e-07,7.486629565430716e-07,2.346198755485585e-07,2.75579163159372e-05
2.611978830801918e-07,7.503364554773109e-07,2.343689612190596e-07,2.747668119340386e-05
2.623386228127647e-07,7.517463545391282e-07,2.3427361916146435e-07,2.741308168519852e-05
2.6373419295702076e-07,7.52900695020058e-07,2.3436538717271271e-07,2.7368730847759383e-05
2.6537837958156055e-07,7.538044861147981e-07,2.3467412316791173e-07,2.734474756669213e-05
2.672614351001964e-07,7.544598357036386e-07,2.352257770685425e-07,2.7341684539946728e-05
2.6937308425417717e-07,7.548678270957903e-07,2.3604206906020184e-07,2.7359501096092307e-05
2.7170732684381145e-07,7.550294448297337e-07,2.3714050642945447e-07,2.7397606141357205e-05
2.74265676732684e-07,7.549464089018455e-07,2.38535125701476e-07,2.7454988996462008e-05
2.77056424412864e-07,7.546224971223951e-07,2.402379911104805e-07,2.753039372339823e-05
2.8009193730696823e-07,7.540672785701075e-07,2.4226008428972147e-07,2.7622468583342644e-05
2.8338664613547695e-07,7.53302162665052e-07,2.446103588635777e-07,2.7729893448750677e-05
2.869564833063817e-07,7.523624982911133e-07,2.472937201398376e-07,2.785152009909581e-05
2.908196502789457e-07,7.512936888590037e-07,2.503099735159432e-07,2.798650241251766e-05
2.9499738400772554e-07,7.50143901039355e-07,2.536546963339232e-07,2.813435340101394e-05
2.9951216788759586e-07,7.489554151766284e-07,2.573211345985786e-07,2.8294897714482897e-05
3.043833105172946e-07,7.47759041552572e-07,2.613020084508684e-07,2.846814466050421e-05
3.096236971863608e-07,7.465731669933503e-07,2.6559243756955336e-07,2.8654101462019176e-05
3.152391078045919e-07,7.454048034840019e-07,2.7019400205921393e-07,2.8852535909508116e-05
3.212279937108121e-07,7.442521630393263e-07,2.7511538920811737e-07,2.90627821545097e-05
3.27582002726925e-07,7.431084882184221e-07,2.8036702924369666e-07,2.9283686366167583e-05
3.3428821169449855e-07,7.419647326482106e-07,2.8595379911559925e-07,2.95136628840016e-05
3.413314911643508e-07,7.408096681245132e-07,2.918713169631843e-07,2.9750795354291838e-05
3.486963565169315e-07,7.396287663263014e-07,2.9810631134316547e-07,2.999295458542223e-05
3.563695632881929e-07,7.384036280533841e-07,3.046380160682263e-07,3.0237901338026312e-05
3.643425506333119e-07,7.371122820796626e-07,3.114390628048922e-07,3.0483326369491504e-05
3.7261117312686157e-07,7.357311965750673e-07,3.1847603150672325e-07,3.0726823964708106e-05
3.811730061615196e-07,7.342386333347481e-07,3.2571000627336537e-07,3.096586754443875e-05
3.90024281239536e-07,7.32615543798285e-07,3.33098197359146e-07,3.1197836078388115e-05
3.991568831528943e-07,7.308432643717626e-07,3.405976470564001e-07,3.1420063299572744e-05
4.0855526613543647e-07,7.289021859086359e-07,3.481693311220239e-07,3.162988745961084e-05
4.181944635635132e-07,7.26773775886897e-07,3.5577930573752397e-07,3.1824745514521446e-05
4.2804075652534344e-07,7.24445291531788e-07,3.633967700597303e-07,3.2002311912746536e-05
4.380555581760888e-07,7.219144958567122e-07,3.709921196036386e-07,3.216057259816679e-05
4.4820045002464685e-07,7.191897773634819e-07,3.7853694201176796e-07,3.229778690745183e-05
4.5843884494747497e-07,7.162854685782609e-07,3.860050977946725e-07,3.24124499143396e-05
4.6873386035044354e-07,7.132191393869334e-07,3.9337213852521576e-07,3.250334532500797e-05
4.79046715919516e-07,7.100126425659633e-07,4.0061296180290034e-07,3.256962463937014e-05
4.893363108982147e-07,7.066899569440505e-07,4.077019407937693e-07,3.2610818653582676e-05
4.995584826751668e-07,7.032712107985476e-07,4.1461682360711897e-07,3.2626753789792326e-05
5.096662362773728e-07,6.99769394826671e-07,4.2134252925149547e-07,3.2617433235047246e-05
5.19611093986766e-07,6.961908383250581e-07,4.278715495568697e-07,3.258304662527639e-05
5.293439395460315e-07,6.925368937798915e-07,4.342013680621496e-07,3.252411498559135e-05
5.38816001314525e-07,6.888063144391876e-07,4.403317750524225e-07,3.244152393940378e-05
5.479810761477286e-07,6.849991400770145e-07,4.462636549643057e-07,3.233635679433054e-05
5.567976194939939e-07,6.811222195622751e-07,4.519998449450203e-07,3.220969039319588e-05
5.652292119419384e-07,6.771932555356521e-07,4.575484686439357e-07,3.20624977725592e-05
5.73243766778137e-07,6.732392404845113e-07,4.629259877864051e-07,3.1895752982779324e-05
5.808126128815149e-07,6.692899257655734e-07,4.681567702319785e-07,3.171073674936857e-05
5.879097007407602e-07,6.653710196439079e-07,4.7326919444644443e-07,3.1509315639260035e-05
5.945109281518474e-07,6.615003664761674e-07,4.78291169098495e-07,3.1293958777761e-05
6.00594717705907e-07,6.576881865782765e-07,4.832493374813946e-07,3.1067530661083116e-05
6.061430235574036e-07,6.539410267353526e-07,4.881712298225839e-07,3.083303757063014e-05
6.1114051048431e-07,6.502656496924978e-07,4.930848141632103e-07,3.059342361104612e-05
6.155736140411811e-07,6.466702592283675e-07,4.980162358447296e-07,3.035143145478576e-05
6.194319552737883e-07,6.431661649609608e-07,5.029908291889122e-07,3.010950437984388e-05
6.227103304893849e-07,6.397704860236208e-07,5.080365242410688e-07,2.9869703010704302e-05
6.254087321592654e-07,6.365050320605666e-07,5.131855198350886e-07,2.963364896942297e-05
6.275313657810887e-07,6.333906254492765e-07,5.184717775970148e-07,2.940251683644168e-05
6.290865168291937e-07,6.304420003992982e-07,5.239250470933628e-07,2.9177058913963953e-05
6.300857356295926e-07,6.276669839361998e-07,5.295660726014769e-07,2.8957661378581263e-05
6.305410252896482e-07,6.250689534149394e-07,5.354061485636678e-07,2.8744450263861147e-05
6.3046273680903e-07,6.226499964857585e-07,5.414489934360509e-07,2.8537408218354053e-05
6.298601918218907e-07,6.204144599291884e-07,5.476921692230243e-07,2.8336473144674513e-05
6.287432048235659e-07,6.183721654122292e-07,5.54127202993272e-07,2.8141659465005157e-05
6.271227880138311e-07,6.165384151552255e-07,5.607384827682069e-07,2.7953183119602643e-05
6.250110059940942e-07,6.149311687028403e-07,5.675024678102493e-07,2.7771503472443965e-05
6.224203327167751e-07,6.135679908084183e-07,5.7438943928596e-07,2.759728345057465e-05
6.193636110088431e-07,6.124627297989781e-07,5.813680252971626e-07,2.743134604814204e-05
6.158548775981348e-07,6.11622178889163e-07,5.8841053678268e-07,2.72746540212414e-05
6.119105389543406e-07,6.110449292424244e-07,5.954966948551881e-07,2.7128283034295584e-05
6.075499911484636e-07,6.107225885249099e-07,6.026139770146112e-07,2.699336101170311e-05
6.027945026325009e-07,6.106411402691984e-07,6.09754946068768e-07,2.687095471921818e-05
5.976658340980669e-07,6.107812187201757e-07,6.16913445619558e-07,2.676191482456891e-05
5.921858550497675e-07,6.111179685514043e-07,6.240803115589597e-07,2.666677949746395e-05
5.863762542851627e-07,6.116217719218716e-07,6.312398158884638e-07,2.6585828791054666e-05
5.802586439146671e-07,6.122594216206441e-07,6.38369297513176e-07,2.651920955146169e-05
5.738558982052685e-07,6.129945641121419e-07,6.454410312890794e-07,2.6466993796849162e-05
5.67194518572779e-07,6.13788653727102e-07,6.524231387573623e-07,2.642917138644894e-05
5.603061896078981e-07,6.146031091616323e-07,6.592795896363422e-07,2.6405652630240315e-05
5.532268847077225e-07,6.15400792794828e-07,6.659707923914178e-07,2.639628222052053e-05
5.459947026981707e-07,6.161468417600718e-07,6.724541480796282e-07,2.640079464068749e-05
5.386478317335613e-07,6.168100466401684e-07,6.786842457543004e-07,2.641872144055101e-05
5.312227466118504e-07,6.173630553477013e-07,6.846141830416506e-07,2.6449343118604808e-05
5.23753730560018e-07,6.177805387426536e-07,6.901988765690499e-07,2.6491718591215155e-05
5.162748311800811e-07,6.180374366263097e-07,6.953991692294461e-07,2.654476683672053e-05
5.088228025581414e-07,6.181081922684805e-07,7.001843586232068e-07,2.6607336190046025e-05
5.014384548646548e-07,6.179665653574868e-07,7.045314000837511e-07,2.6678203440188918e-05
4.941655408251182e-07,6.175860025920165e-07,7.084214524703479e-07,2.675604235047029e-05
4.870483550025078e-07,6.169405798334745e-07,7.118366623782785e-07,2.6839416192066824e-05
4.801292713423463e-07,6.160064486453866e-07,7.147594043300855e-07,2.6926777309395662e-05
4.7344676566547176e-07,6.147630307229289e-07,7.171731673930744e-07,2.701646299644653e-05
4.670349100205245e-07,6.131937101596548e-07,7.190632999160268e-07,2.7106723274195928e-05
4.6092470675681896e-07,6.112873495483011e-07,7.204194310113576e-07,2.719578331320364e-05
4.551454361797593e-07,6.090395115644394e-07,7.212412508835098e-07,2.728189762570756e-05
4.4972371368567037e-07,6.064510734186771e-07,7.215421872803182e-07,2.736336619275108e-05
4.446811317288369e-07,6.035274010535628e-07,7.213461506914843e-07,2.743853090361369e-05
4.4003289773112594e-07,6.00280382738037e-07,7.206809762688533e-07,2.7505803911276654e-05
4.357876887174675e-07,5.967280389453449e-07,7.195739839385001e-07,2.756370563835781e-05
4.319485558213143e-07,5.928899314496957e-07,7.180524791634853e-07,2.761085762187771e-05
4.285143090767255e-07,5.887843240821756e-07,7.161481282522763e-07,2.764596758903209e-05
4.2548056800873033e-07,5.844289867741269e-07,7.138986565606512e-07,2.766784277695784e-05
4.22841817237541e-07,5.798415812993616e-07,7.113432246568433e-07,2.767540770789496e-05
4.205942144639918e-07,5.750380263405874e-07,7.085162993379816e-07,2.7667709340013964e-05
4.187365672281676e-07,5.700310908418734e-07,7.054448560290532e-07,2.7643913593603803e-05
4.172701702649193e-07,5.64830944113985e-07,7.021486057398699e-07,2.7603304459543043e-05
4.1619897303071046e-07,5.594478637240035e-07,6.98641682772968e-07,2.7545290198366908e-05
4.155282996279074e-07,5.538968208852645e-07,6.949349562471643e-07,2.746940877344353e-05
4.1526164106405697e-07,5.482007426622753e-07,6.910386703786764e-07,2.737532183127441e-05
4.153973775273362e-07,5.423881370337681e-07,6.869667796747927e-07,2.726279937808824e-05
4.159269055872236e-07,5.3648810317999e-07,6.827441702587875e-07,2.7131714827924732e-05
4.168350461730392e-07,5.305302702247132e-07,6.784139791114739e-07,2.698206141854877e-05
4.181026373356925e-07,5.2454824282986e-07,6.740388239112027e-07,2.6813976018966056e-05
4.197111603791877e-07,5.185788057842313e-07,6.696924470180999e-07,2.6627752594321482e-05
4.2164745408988025e-07,5.12658010371201e-07,6.654476158451654e-07,2.642384027162765e-05
4.2390394829333064e-07,5.068202432467653e-07,6.613715650984298e-07,2.620282986611532e-05
4.2647390350606005e-07,5.010989719591382e-07,6.575321566968545e-07,2.596543350320309e-05
4.293463716687588e-07,4.955258518013203e-07,6.54006074055005e-07,2.571246037696188e-05
4.325044632593045e-07,4.901290245110802e-07,6.508801244562714e-07,2.544478826396709e-05
4.3592677776913537e-07,4.849313600275204e-07,6.482449620881977e-07,2.5163322496408223e-05
4.395894774653246e-07,4.799489151875187e-07,6.46186013423259e-07,2.486893593235024e-05
4.434666839712981e-07,4.751907195005842e-07,6.447766098293985e-07,2.4562416707939293e-05
4.47529425895314e-07,4.7066033700187243e-07,6.440743531661161e-07,2.4244479422016453e-05
4.517451357454176e-07,4.663609025119175e-07,6.441195565894124e-07,2.391585866799428e-05
4.5607889023789036e-07,4.6230481863959215e-07,6.449370243351654e-07,2.3577437816044955e-05
4.604972484647891e-07,4.5852164037899724e-07,6.465407694462767e-07,2.323034051650901e-05
4.6497457678584974e-07,4.550566657456891e-07,6.48937186306648e-07,2.28759510054528e-05
4.694973214867821e-07,4.5196318180590847e-07,6.521246577491775e-07,2.2515888951307693e-05
4.740612282279554e-07,4.4929496727055703e-07,6.560919981474779e-07,2.2151964010707207e-05
4.786640403703571e-07,4.471013287454932e-07,6.608178626670582e-07,2.1786093789179146e-05
4.833007194681263e-07,4.454246778371039e-07,6.662717272746316e-07,2.1420174777186445e-05
4.879625991546463e-07,4.442993327177162e-07,6.724165382650592e-07,2.1055978908165124e-05
4.92636722592517e-07,4.4375063540104534e-07,6.792121209244259e-07,2.069517189911253e-05
4.973050925358825e-07,4.437943496389989e-07,6.866174857249881e-07,2.0339405029843784e-05
5.019466646180764e-07,4.444357955665964e-07,6.945902588795996e-07,1.999035108380483e-05
5.065409823617311e-07,4.4566908628033965e-07,7.030844778752561e-07,1.9649651775784407e-05
5.11069784807687e-07,4.474778606325735e-07,7.120501327318859e-07,1.9318819797637266e-05
5.155166611277282e-07,4.4983823942299775e-07,7.214348643515874e-07,1.899916461678865e-05
5.198661966820833e-07,4.527225069076632e-07,7.311862197013198e-07,1.8691786292138856e-05
5.241023835165196e-07,4.5610229616725357e-07,7.412540147514123e-07,1.839759668168183e-05
5.282084593704023e-07,4.599524774777018e-07,7.515925681179643e-07,1.811732565038598e-05
5.321705605652555e-07,4.642554927545333e-07,7.621615317093594e-07,1.785150598850666e-05
5.359825237556384e-07,4.6900445634787166e-07,7.729233472824891e-07,1.760044695680119e-05
5.396484263754237e-07,4.7420386864719066e-07,7.838378234143451e-07,1.7364272374439208e-05
5.431824633109705e-07,4.798665162966709e-07,7.948587422773141e-07,1.7143057751613846e-05
5.466062038592278e-07,4.860067179035296e-07,8.059357587406361e-07,1.6936940375818703e-05
5.499436964094761e-07,4.926326462337706e-07,8.170186510809714e-07,1.674609044215499e-05
5.532163613813915e-07,4.997414762211662e-07,8.280593017322941e-07,1.6570590292267817e-05
5.564400487786032e-07,5.073196983923888e-07,8.390102616162371e-07,1.6410330781740764e-05
5.596253234522998e-07,5.153463813294488e-07,8.498229228511695e-07,1.6264989508683496e-05
5.627784691721686e-07,5.237949687109446e-07,8.604475598233103e-07,1.613408499816015e-05
5.659004081586581e-07,5.326328261469439e-07,8.708335234988583e-07,1.6017052098320733e-05
5.689851391178874e-07,5.418208620909994e-07,8.809284614425181e-07,1.5913302612822318e-05
5.720198867564649e-07,5.513157379842947e-07,8.90678074861022e-07,1.582231408047531e-05
5.74986201369487e-07,5.610743365112613e-07,9.000278976526669e-07,1.5743767037216625e-05
5.778613585148764e-07,5.710563239168495e-07,9.089269918789309e-07,1.5677597821976417e-05
5.806214495921933e-07,5.812238229886975e-07,9.173317942230566e-07,1.5623872808011133e-05
5.832462818322581e-07,5.915403325253955e-07,9.25207984971014e-07,1.5582597836287234e-05
5.857220271485653e-07,6.019686304981687e-07,9.325292698648748e-07,1.5553608878689985e-05
5.880390828824788e-07,6.124687166073582e-07,9.392737803207224e-07,1.5536648581976363e-05
5.90189124635311e-07,6.229981847705353e-07,9.454200795177106e-07,1.5531678880325556e-05
5.921645349789115e-07,6.335145925329881e-07,9.509443721189396e-07,1.5539234459885942e-05
5.939582845074892e-07,6.439783678836462e-07,9.558201396497015e-07,1.556051158315395e-05
5.955632634728762e-07,6.543542188925625e-07,9.600203747587428e-07,1.559717879188158e-05
5.969726324246851e-07,6.646088116874258e-07,9.635200554130232e-07,1.5651128086642424e-05
5.98181469005566e-07,6.747075416229362e-07,9.662970384057728e-07,1.5724288997717254e-05
5.991875050594131e-07,6.846156747826515e-07,9.683318428852983e-07,1.5818494213787465e-05
5.999894641968791e-07,6.943025475776613e-07,9.696070177243658e-07,1.5935362940027962e-05
6.005855756403984e-07,7.037430195831821e-07,9.701074011788005e-07,1.6076201456743187e-05
6.009748475477597e-07,7.129141760183807e-07,9.69821531356696e-07,1.6241958326543412e-05
6.011590662633091e-07,7.217908967857025e-07,9.687419187899592e-07,1.6433241345124648e-05
6.011433721152462e-07,7.303446544546119e-07,9.668633320840091e-07,1.6650334831752858e-05
6.009357976215366e-07,7.385468094987882e-07,9.641809951285491e-07,1.6893168995963795e-05
6.005458291611033e-07,7.463753582143838e-07,9.60690448229796e-07,1.716125902475e-05
5.999823812571971e-07,7.538208114665235e-07,9.563887992127658e-07,1.7453657521777216e-05
5.992525088722553e-07,7.608850963491669e-07,9.512760696149807e-07,1.7768975425565074e-05
5.983613346990565e-07,7.675739237965831e-07,9.453560210131813e-07,1.810549965615332e-05
5.973124805611836e-07,7.738906838084354e-07,9.386358416959265e-07,1.8461351487391576e-05
5.961079633296568e-07,7.798377710718185e-07,9.311247201325588e-07,1.8834603290117982e-05
5.947481553515936e-07,7.854236239962421e-07,9.228327878283249e-07,1.92233272191612e-05
5.932329749123124e-07,7.906687020284169e-07,9.13771332404336e-07,1.9625602362110786e-05
5.91562802664668e-07,7.956040787826961e-07,9.039543210009712e-07,2.003950877886799e-05
5.897378953216604e-07,8.002631698654448e-07,8.934003475981052e-07,2.046312152946872e-05
5.877578962263176e-07,8.046731736486637e-07,8.821337504883688e-07,2.0894526988810168e-05
5.856220667358959e-07,8.088510531855854e-07,8.701849949167602e-07,2.133186400707369e-05
5.833293576691339e-07,8.128039503916713e-07,8.575899354088706e-07,2.177334487887268e-05
5.808783297196528e-07,8.165318304188765e-07,8.443875797010538e-07,2.221721392411964e-05
5.782672657863555e-07,8.20031015475421e-07,8.306178646263623e-07,2.2661659598941254e-05
5.754945500532935e-07,8.232971898222491e-07,8.16320175919418e-07,2.310475979364965e-05
5.725586225517241e-07,8.263252727983825e-07,8.015323886772241e-07,2.354451200768283e-05
5.694576031972194e-07,8.291069128440716e-07,7.862909258286466e-07,2.397888490577641e-05
5.661911133636332e-07,8.316296291337901e-07,7.706315091564891e-07,2.4405812184943046e-05
5.62764457741767e-07,8.338776720468809e-07,7.545897995062516e-07,2.4823151304696585e-05
5.591912761594015e-07,8.358323664442488e-07,7.382023007735225e-07,2.5228673356497794e-05
5.55492420295271e-07,8.374732818945427e-07,7.215072165657312e-07,2.562010322224092e-05
5.516922004861126e-07,8.387814670243468e-07,7.045440416286691e-07,2.599517537597927e-05
5.478142811720204e-07,8.397421407348922e-07,6.873529154476384e-07,2.6351677564976306e-05
5.438797438148993e-07,8.403444819127742e-07,6.699755803432931e-07,2.668749528305325e-05
5.399079215579932e-07,8.405794050558498e-07,6.524571030407686e-07,2.700066356252015e-05
5.359179484734952e-07,8.404381095104881e-07,6.348469456912776e-07,2.728943235026767e-05
5.319296761537926e-07,8.399136848250046e-07,6.171991329228443e-07,2.755235236601411e-05
5.279638025760528e-07,8.390039722015348e-07,5.995712465829151e-07,2.778831673088464e-05
5.24041402915581e-07,8.377107971710191e-07,5.82022596134955e-07,2.7996493328547132e-05
5.201834311557401e-07,8.360364957985024e-07,5.646119807816447e-07,2.8176205088958195e-05
5.164095517998217e-07,8.339847249892361e-07,5.473951263827856e-07,2.832688085685617e-05
5.127361610564766e-07,8.315657815732567e-07,5.304226845565265e-07,2.8448107407723773e-05
5.091752688481369e-07,8.28798834595591e-07,5.137396200474672e-07,2.853968324407993e-05
5.057351117956435e-07,8.257090601614255e-07,4.97385824485209e-07,2.8601592695224767e-05
5.024220556169621e-07,8.223244725695141e-07,4.813971585151162e-07,2.8633954305479906e-05
4.992426673727176e-07,8.186737796806523e-07,4.658067948182748e-07,2.863709913491933e-05
4.962045400526959e-07,8.14783537467713e-07,4.5064662314370317e-07,2.8611815885317024e-05
4.93315327038947e-07,8.106755576767102e-07,4.359471102461606e-07,2.8559530545694348e-05
4.905805902900677e-07,8.063660626884374e-07,4.217354813731751e-07,2.848223217056964e-05
4.880019581875329e-07,8.018665451962913e-07,4.080341697448083e-07,2.8382248888870624e-05
4.855766929929389e-07,7.971863812180799e-07,3.948607967123967e-07,2.826202424545617e-05
4.83297830532256e-07,7.923359505496731e-07,3.822292350691162e-07,2.812395891035016e-05
4.811546917477722e-07,7.87326869366912e-07,3.701504796677604e-07,2.7970418686688613e-05
4.791352226642137e-07,7.821695037434387e-07,3.586332937536194e-07,2.7803911581019038e-05
4.772291377214153e-07,7.7687339595016e-07,3.47685335049124e-07,2.7627203717880687e-05
4.754292867210179e-07,7.714520754929949e-07,3.373136917825202e-07,2.7443223264486896e-05
4.7373082565222466e-07,7.659257716527642e-07,3.275239038476518e-07,2.725486977613447e-05
4.7212903807262724e-07,7.603183760857885e-07,3.1831940988909076e-07,2.706486047961446e-05
4.706174486129656e-07,7.546530575914988e-07,3.0970294846706845e-07,2.687564239519437e-05
4.69187492800258e-07,7.489516281335343e-07,3.01677750540933e-07,2.668938015367544e-05
4.678291100180356e-07,7.432369332664958e-07,2.942463778791247e-07,2.6508003033587803e-05
4.665316726809214e-07,7.375328154570342e-07,2.874088458525054e-07,2.633326678536031e-05
4.652846477496731e-07,7.31860181792899e-07,2.81161863495387e-07,2.6166791468792835e-05
4.6407691898939256e-07,7.262343980724345e-07,2.7549855193806965e-07,2.601004223363145e-05
4.628958575666405e-07,7.206659391451353e-07,2.704089963155671e-07,2.586425631954744e-05
4.617284808212179e-07,7.151621195612765e-07,2.658829988155694e-07,2.5730365686919066e-05
4.605636808631608e-07,7.097303178784324e-07,2.619136675487461e-07,2.5608940531383525e-05
4.593920651400757e-07,7.043810213541407e-07,2.584986909454152e-07,2.5500154240580865e-05
4.5820332624829e-07,6.991270596233336e-07,2.556383447405373e-07,2.540380873074224e-05
4.569845091733946e-07,6.939809735958385e-07,2.5333267002511337e-07,2.531944466685369e-05
4.557210064741721e-07,6.889546486406467e-07,2.515810424107053e-07,2.524646251913437e-05
4.543988137125762e-07,6.84062125497686e-07,2.503838722399028e-07,2.518415785698756e-05
4.5300573449221507e-07,6.793223271727735e-07,2.497432665986986e-07,2.513168659516871e-05
4.515315733342396e-07,6.747572535495218e-07,2.4966159024353475e-07,2.508805628036817e-05
4.499693981603486e-07,6.703868694699292e-07,2.5013936911616986e-07,2.505217564805061e-05
4.483179052425786e-07,6.662249523973282e-07,2.511738620776764e-07,2.5022923953810504e-05
4.4658147532384433e-07,6.622773433530054e-07,2.5275809943978483e-07,2.4999211270394384e-05
4.44766752206812e-07,6.585431678483549e-07,2.548804556805237e-07,2.497998788401353e-05
4.4287973633388117e-07,6.550181374970286e-07,2.575269822483224e-07,2.496418577545892e-05
4.4092603793297957e-07,6.516965086329684e-07,2.606851018031097e-07,2.495069354249155e-05
4.3891269323853033e-07,6.485703865215232e-07,2.643434361017893e-07,2.493842188393245e-05
4.3684877566317396e-07,6.456287786265817e-07,2.684888915487081e-07,2.492634551430287e-05
4.347433891736251e-07,6.428575988589818e-07,2.731058772564005e-07,2.491345453585641e-05
4.326035263373165e-07,6.402392777064003e-07,2.781767444956436e-07,2.489869848480264e-05
4.3043463758239403e-07,6.377521501773448e-07,2.836807072151479e-07,2.4880995343342912e-05
4.282419269287769e-07,6.353713613161225e-07,2.895919749611508e-07,2.485927552072724e-05
4.260294716187557e-07,6.330714215274096e-07,2.9587908845823175e-07,2.4832488341345442e-05
4.237983471857192e-07,6.308275489142726e-07,3.0250594328899533e-07,2.479957220551151e-05
4.215462655622182e-07,6.286143090233137e-07,3.0943318282922375e-07,2.475945593360026e-05
4.1926839566489526e-07,6.26404694337856e-07,3.166191427736563e-07,2.4711114243764545e-05
4.169582859468309e-07,6.241710696626295e-07,3.240204955332783e-07,2.465364889970657e-05
4.1460973403531023e-07,6.21886491133087e-07,3.31592638345136e-07,2.458638098213377e-05
4.1221937597150595e-07,6.195272936896186e-07,3.392899391505632e-07,2.450895255496843e-05
4.097874905393934e-07,6.170767903467663e-07,3.470657229041091e-07,2.4421390307978502e-05
4.07316636862873e-07,6.145253918894934e-07,3.5487214331189436e-07,2.432405941551533e-05
4.0481071010774997e-07,6.118661414259901e-07,3.626607777408484e-07,2.4217510565476973e-05
4.0227581160423887e-07,6.090915420221561e-07,3.703846521301419e-07,2.4102322788778478e-05
3.9972110985156863e-07,6.061941440077237e-07,3.7800079711952355e-07,2.3979046635307282e-05
3.9715697289673993e-07,6.03168076428699e-07,3.8547135532155225e-07,2.384824415066915e-05
3.9459137745555344e-07,6.000111501403785e-07,3.9276456504330797e-07,2.371054024703608e-05
3.920285013569433e-07,5.967276837476804e-07,3.998582555014472e-07,2.3566613586913765e-05
3.8947009595119e-07,5.933284528845297e-07,4.067425894754106e-07,2.341715878196409e-05
3.86916555853884e-07,5.898276744107264e-07,4.134173470625536e-07,2.3262950741374688e-05
3.843668162323915e-07,5.862419400728246e-07,4.19886968432449e-07,2.3104989513427726e-05
3.8181958995201453e-07,5.825906645599421e-07,4.2615921711521466e-07,2.2944533300444186e-05
3.792762463792496e-07,5.788942517239157e-07,4.3224662836889954e-07,2.2782996656141737e-05
3.7674246247084646e-07,5.751707196934162e-07,4.381669033569436e-07,2.262181881802053e-05
3.7422750534745777e-07,5.714331929975021e-07,4.439408690412728e-07,2.24623552166084e-05
3.7174253064216526e-07,5.676890104410716e-07,4.495889866426014e-07,2.230591196374863e-05
3.692995713577847e-07,5.639410826402278e-07,4.5512843639334295e-07,2.2153972521918122e-05
3.6691223711988275e-07,5.601932430998265e-07,4.605714252953067e-07,2.2008380307838915e-05
3.6459708162311896e-07,5.564583618241778e-07,4.6592450185220774e-07,2.187127551250781e-05
3.623733435327786e-07,5.527619960628485e-07,4.7118910975516865e-07,2.174489354593037e-05
3.602606732603813e-07,5.491372323139607e-07,4.763634523888889e-07,2.1631392440851253e-05
3.5827611596538785e-07,5.456169542342294e-07,4.814457139314888e-07,2.1532732974802374e-05
3.5643176317383473e-07,5.422308806345263e-07,4.864375631218146e-07,2.145058635686442e-05
3.5473400437028884e-07,5.390055105340503e-07,4.91345887692794e-07,2.138627491552508e-05
3.531840140940821e-07,5.359634776493349e-07,4.961813087414108e-07,2.134075131620917e-05
3.517787674476721e-07,5.331234522840641e-07,5.009536389078829e-07,2.131460208641552e-05
3.505121118411046e-07,5.305002223607976e-07,5.056672929745966e-07,2.1308053450663346e-05
3.4937523433740805e-07,5.281042563510993e-07,5.103197105715171e-07,2.132095082583257e-05
3.4835646990409415e-07,5.259431439827395e-07,5.149030300972357e-07,2.1352719006904496e-05
3.4744108285139077e-07,5.240255381315649e-07,5.194071832217968e-07,2.1402362344264825e-05
3.466115845283769e-07,5.223639204381937e-07,5.238212273585181e-07,2.1468536894924984e-05
3.458489973624885e-07,5.209724491304046e-07,5.281322964045604e-07,2.1549688785268066e-05
3.451350299888563e-07,5.198623389403984e-07,5.32325420799763e-07,2.1644245803884084e-05
3.4445392329021713e-07,5.190416598937253e-07,5.363848991926047e-07,2.1750794925103214e-05
3.4379289509466737e-07,5.185215123666186e-07,5.402947987011728e-07,2.186817007296216e-05
3.431419610020988e-07,5.18322727702884e-07,5.440387757967507e-07,2.1995472462147776e-05
3.4249359839320267e-07,5.184769027966899e-07,5.476006127992732e-07,2.213207712365289e-05
3.418417495406515e-07,5.190224415672398e-07,5.509647840896195e-07,2.227761610548113e-05
3.4118143852566056e-07,5.199999656207218e-07,5.541166656997729e-07,2.2431917025571905e-05
3.405103568401668e-07,5.21448317702712e-07,5.570425661315611e-07,2.2594907939430146e-05
3.398304587278347e-07,5.234009482748053e-07,5.597292656137124e-07,2.276650102962563e-05
3.39147117627976e-07,5.258832431149542e-07,5.621642460641049e-07,2.2946470674981243e-05
3.384664540251809e-07,5.289104079338613e-07,5.643369004212729e-07,2.3134383403600744e-05
3.3779326632065586e-07,5.324865398216903e-07,5.662381502884343e-07,2.3329642688014074e-05
3.3713109594384733e-07,5.366051914951112e-07,5.678587581077585e-07,2.3531621917514506e-05
3.3648359360423515e-07,5.412494199275443e-07,5.691899744107608e-07,2.373978802152561e-05
3.358557258332527e-07,5.463915062208848e-07,5.702273110215597e-07,2.3953756053007505e-05
3.3525503187568513e-07,5.519944282942169e-07,5.709737790317088e-07,2.4173289395677466e-05
3.3469295538691466e-07,5.580152551044031e-07,5.714383704359203e-07,2.4398278490317066e-05
3.3418490860761825e-07,5.644087089440201e-07,5.716310998323275e-07,2.4628685630410088e-05
3.337487988218192e-07,5.711289034544197e-07,5.715600287660885e-07,2.486443767213161e-05
3.334034329440296e-07,5.781299703660868e-07,5.712314605820997e-07,2.5105297535140325e-05
3.331676068732539e-07,5.85367688427796e-07,5.706503244575163e-07,2.5350777957965405e-05
3.330593885979472e-07,5.928008586256607e-07,5.698197549227474e-07,2.560018580177003e-05
3.3309580659905893e-07,6.00390177223802e-07,5.687411552486482e-07,2.5852786347362407e-05
3.332937115798471e-07,6.080957938614891e-07,5.674146962627584e-07,2.610791731656969e-05
3.3367136276987255e-07,6.158757145131051e-07,5.658393039295125e-07,2.636497412221336e-05
3.3424888838642914e-07,6.236853166763663e-07,5.640126122668065e-07,2.662335025072657e-05
3.350458659593913e-07,6.314772662046802e-07,5.619316747907159e-07,2.688237000712308e-05
3.3607716980185213e-07,6.392017560476979e-07,5.595940654967685e-07,2.714119614653881e-05
3.3735024538245933e-07,6.468073039273946e-07,5.569986295562126e-07,2.739876099084561e-05
3.38865374259235e-07,6.542414648768924e-07,5.541465317183063e-07,2.7653794104217077e-05
3.406177091432126e-07,6.614516808962574e-07,5.510439380951389e-07,2.790492909544624e-05
3.425983847672884e-07,6.683875698010173e-07,5.477043538332733e-07,2.8150826273602385e-05
3.447941716522852e-07,6.750037576268353e-07,5.441469736973139e-07,2.8390335679929478e-05
3.471883488914973e-07,6.812607920585555e-07,5.403929424899022e-07,2.8622748226903407e-05
3.4976430725848733e-07,6.871237437670015e-07,5.364642377555096e-07,2.884800187024228e-05
3.525090876655147e-07,6.92560740393195e-07,5.323841646054988e-07,2.9066623831796637e-05
3.554132619271506e-07,6.975425867436596e-07,5.281758743856396e-07,2.9279419896614165e-05
3.5846772713762906e-07,7.020418505653932e-07,5.238608123236951e-07,2.9487165487747065e-05
3.6166043418818797e-07,7.060314232310007e-07,5.194607800511487e-07,2.9690555361242286e-05
3.6497462496976745e-07,7.094854431596829e-07,5.150005978386693e-07,2.9890397467938594e-05
3.683885689150378e-07,7.123833122136202e-07,5.105071038083393e-07,3.0087768201371813e-05
3.7187613183375577e-07,7.147133423570055e-07,5.060071428630404e-07,3.0283984650181182e-05
3.7540766990199973e-07,7.164735048957785e-07,5.015271157304826e-07,3.0480496764778363e-05
3.78951202930304e-07,7.176702088164307e-07,4.970920327292421e-07,3.0678789565775554e-05
3.8247409524391043e-07,7.183150602315092e-07,4.927238716417664e-07,3.0880309847484525e-05
3.85945355199424e-07,7.18420686289308e-07,4.884415887278664e-07,3.108641213564544e-05
3.893373851826603e-07,7.180003283701375e-07,4.84263073191006e-07,3.129830442848693e-05
3.9262604089460504e-07,7.170709874237644e-07,4.802069975357393e-07,3.1516982153816034e-05
3.957900055487586e-07,7.15654480711026e-07,4.7629227903373096e-07,3.1743171979476325e-05
3.98810652385814e-07,7.137752784280141e-07,4.725348776802209e-07,3.197731414670994e-05
4.016723571209262e-07,7.114582437081023e-07,4.6894480150058346e-07,3.221957346524697e-05
4.0436275543118656e-07,7.087276412625359e-07,4.655258983550083e-07,3.2469835622464395e-05
4.0687199130276797e-07,7.056082771293187e-07,4.622773656882307e-07,3.2727675096469734e-05
4.0919109428364203e-07,7.021292416041807e-07,4.5919554213597744e-07,3.299231660621715e-05
4.113107592797567e-07,6.983267735387706e-07,4.562774325247142e-07,3.326260194612711e-05
4.1322088718428137e-07,6.942428735171542e-07,4.5352513470034816e-07,3.3537008565285214e-05
4.149107898538344e-07,6.899210858389443e-07,4.509460394841686e-07,3.3813763905316997e-05
4.1636997740890175e-07,6.854026746161872e-07,4.4854842600324544e-07,3.409099268795277e-05
4.1758887783086634e-07,6.807262816052041e-07,4.463378062944394e-07,3.4366824328302804e-05
4.185587054550828e-07,6.759317206667123e-07,4.4431608385401867e-07,3.463946796441513e-05
4.1927078920874743e-07,6.710634161444568e-07,4.4248155691048954e-07,3.4907275598483464e-05
4.1971651967118285e-07,6.661695257776419e-07,4.4082845820588123e-07,3.5168781244550205e-05
4.1988764155273257e-07,6.612984337034756e-07,4.39346717218851e-07,3.5422690502468484e-05
4.1977646172815753e-07,6.564964479186297e-07,4.3802310849468386e-07,3.5667812659382885e-05
4.193781787087416e-07,6.51807038531294e-07,4.368431666218192e-07,3.5902953933183675e-05
4.1869550706507687e-07,6.472685038586673e-07,4.3579173385314683e-07,3.6126818438245296e-05
4.1773995779026436e-07,6.429102194649728e-07,4.348519673257165e-07,3.633798738156043e-05
4.165271078198782e-07,6.387510647102503e-07,4.3400509682279796e-07,3.653499768593385e-05
4.150713006038306e-07,6.348009651019647e-07,4.332311335754353e-07,3.6716428862323975e-05
4.1338398737743023e-07,6.310641452642565e-07,4.3250913883707e-07,3.688091221732484e-05
4.114743524552733e-07,6.275419034021457e-07,4.318183887572936e-07,3.702709068499203e-05
4.093508466192615e-07,6.242325075850194e-07,4.3114152709454e-07,3.7153582888629556e-05
4.0702412188993725e-07,6.211291659377993e-07,4.30467218320993e-07,3.725899414437974e-05
4.0450994559991095e-07,6.182193422836125e-07,4.297906100215085e-07,3.7342001013411024e-05
4.018283922883848e-07,6.154862554106893e-07,4.2911296260183184e-07,3.7401430733843094e-05
3.989997901395082e-07,6.129113047315614e-07,4.2844042826586385e-07,3.743624644719233e-05
3.960425161419926e-07,6.104763531419535e-07,4.2778078481883477e-07,3.7445482867359214e-05
3.929749355207986e-07,6.081656944766025e-07,4.271400239813095e-07,3.742822749359432e-05
3.8981845085993206e-07,6.059679707607881e-07,4.2652080765180885e-07,3.738369394631735e-05
3.865979528885549e-07,6.038772168029684e-07,4.2592179777631385e-07,3.731137984280584e-05
3.833401688323704e-07,6.018914807812524e-07,4.2533717630032776e-07,3.7211225865256816e-05
3.8007194549095004e-07,6.000089080223189e-07,4.2475720289331495e-07,3.708364963249381e-05
3.768183669227813e-07,5.9822377407462e-07,4.241702727359115e-07,3.692941719175018e-05
3.736009831393054e-07,5.965253636961215e-07,4.2356541603288523e-07,3.67494354184856e-05
3.704374762306183e-07,5.948997691437309e-07,4.229334384744479e-07,3.654457562063143e-05
3.6734248554339924e-07,5.933328830745016e-07,4.2226641875461547e-07,3.631560146382952e-05
3.6432772589712683e-07,5.918126889871945e-07,4.215571673103424e-07,3.606320257304232e-05
3.6140108976982116e-07,5.903291297075479e-07,4.208001716254631e-07,3.578809291497225e-05
3.585668821546685e-07,5.888728503386733e-07,4.199933497715449e-07,3.549118440544521e-05
3.5582796649474544e-07,5.874359758392496e-07,4.191379026888333e-07,3.517386440298693e-05
3.5318765939174547e-07,5.860138480457951e-07,4.18235689111224e-07,3.483823406685769e-05
3.506500890524947e-07,5.846038247711567e-07,4.172877298667604e-07,3.4487065903392305e-05
3.4821957145214487e-07,5.832026927659867e-07,4.162960247559869e-07,3.412349351591704e-05
3.458999049504621e-07,5.818075412504282e-07,4.1526580153710476e-07,3.37506594142659e-05
3.436950051026527e-07,5.804174154091235e-07,4.1420556272984636e-07,3.337146563128076e-05
3.4161058553883297e-07,5.790310731640389e-07,4.1312611968152726e-07,3.298853373563385e-05
3.396551306901969e-07,5.776458429717587e-07,4.12039733744694e-07,3.260444349806249e-05
3.378394704596282e-07,5.762628511846243e-07,4.1095898974751855e-07,3.2222045393055326e-05
3.3617487489828037e-07,5.748936044334457e-07,4.098961373344487e-07,3.184453769999852e-05
3.346714678348145e-07,5.735616469466224e-07,4.088629054739937e-07,3.147530936152545e-05
3.333390504258357e-07,5.723001407466072e-07,4.0786912546862655e-07,3.1117754079579e-05
3.321882262201549e-07,5.711471795126275e-07,4.069211679367404e-07,3.077515408451333e-05
3.312289224903428e-07,5.701389188838213e-07,4.0602269510606643e-07,3.045061392253357e-05
3.3046807866877e-07,5.693046091380461e-07,4.051763358140004e-07,3.014699231478199e-05
3.299100923413321e-07,5.686670026357479e-07,4.04383448549679e-07,2.986681463313656e-05
3.295595203271348e-07,5.682439797107429e-07,4.036429974426042e-07,2.9612208330773924e-05
3.294221194557516e-07,5.680474488856189e-07,4.029519288524868e-07,2.9384895228511854e-05
3.2950258929650325e-07,5.680819280239754e-07,4.023061595751708e-07,2.9186205177505074e-05
3.2980165493153546e-07,5.68346826466157e-07,4.0170020962716434e-07,2.901705308579029e-05
3.3031523785380465e-07,5.688452091741047e-07,4.0112623887016023e-07,2.887787628144034e-05
3.310348692166981e-07,5.695939542206354e-07,4.005744824587865e-07,2.876857171953512e-05
3.319477161657609e-07,5.706225016876221e-07,4.000356557504906e-07,2.868848869821776e-05
3.3303680203087696e-07,5.719603033307172e-07,3.9950399892443365e-07,2.863653085803331e-05
3.3428178999339127e-07,5.736276157104286e-07,3.989792315947496e-07,2.8611345845641026e-05
3.356603728845703e-07,5.756367648777687e-07,3.984667950227512e-07,2.8611503016221752e-05
3.37151932691927e-07,5.779988059074861e-07,3.979762018997769e-07,2.863559735390473e-05
3.3874280278264153e-07,5.807279094426258e-07,3.975185273780808e-07,2.8682299364160327e-05
3.404280587820836e-07,5.838410190736935e-07,3.9710466465329037e-07,2.8750365941135264e-05
3.422075352133072e-07,5.87355795382975e-07,3.967438345486407e-07,2.8838595211487208e-05
3.4408077508050296e-07,5.912886171776246e-07,3.9644212388022313e-07,2.8945744015080968e-05
3.460452501730656e-07,5.956531093668336e-07,3.962021019295543e-07,2.9070440198907183e-05
3.480964322771284e-07,6.004600171628996e-07,3.960230883732592e-07,2.921109562231341e-05
3.502276299609668e-07,6.057166790758735e-07,3.959015283154608e-07,2.93658661864448e-05
3.524301810707287e-07,6.114237075711922e-07,3.9583218958822e-07,2.953270013884589e-05
3.546952556755651e-07,6.175708243517467e-07,3.9581083061066977e-07,2.970939776270376e-05
3.5701623688347507e-07,6.24136448473811e-07,3.9583809946555436e-07,2.98936007212544e-05
3.5938863136847813e-07,6.310908903518361e-07,3.95922406526135e-07,3.0082757388206054e-05
3.618077943394843e-07,6.383986717985747e-07,3.9607841264720823e-07,3.0274148861831843e-05
3.6426717652694385e-07,6.460185689439858e-07,3.9632187482113106e-07,3.0464982478905342e-05
3.667574137048953e-07,6.53902932801231e-07,3.966666779772104e-07,3.0652480640340615e-05
3.692657277289464e-07,6.619979786078349e-07,3.9712704554089437e-07,3.083390499362623e-05
3.717758587571232e-07,6.702462116900664e-07,3.9772078701744977e-07,3.1006542208326144e-05
3.742690222918687e-07,6.785886408176427e-07,3.984695785182482e-07,3.1167702295168467e-05
3.7672618341895116e-07,6.869646828622473e-07,3.993976144606273e-07,3.13147389371026e-05
3.791299908609158e-07,6.953127168584414e-07,4.005294137579725e-07,3.1445110121689756e-05
3.8146422464068106e-07,7.035730916582435e-07,4.0188584531993453e-07,3.1556522853590604e-05
3.837122776277026e-07,7.11692050938898e-07,4.034816155548425e-07,3.164711321173417e-05
3.8585821138244476e-07,7.196251643979583e-07,4.0532694267164616e-07,3.1715497523312245e-05
3.878901267373479e-07,7.273386101089369e-07,4.074297996895109e-07,3.1760640815803335e-05
3.8980139543282133e-07,7.348073335057382e-07,4.0979536350657477e-07,3.1781706333081745e-05
3.915879691279753e-07,7.420108148336146e-07,4.124254724566745e-07,3.177802141911908e-05
3.9324546921348135e-07,7.489290535443961e-07,4.1532330874664273e-07,3.174910587712488e-05
3.94768509426813e-07,7.555425560818716e-07,4.185030843245456e-07,3.1694681485355606e-05
3.961505688506219e-07,7.618362987402684e-07,4.21997018368757e-07,3.161464835063677e-05
3.9738390159264295e-07,7.678024611523874e-07,4.258517837148064e-07,3.1509055911905544e-05
3.984612273703003e-07,7.734381298967071e-07,4.3011625092046927e-07,3.1378177801191105e-05
3.9937861617638156e-07,7.78739926052016e-07,4.34831621779799e-07,3.1222711292984995e-05
4.0013697205619223e-07,7.83700016620562e-07,4.400301371038417e-07,3.1043885545403934e-05
4.007421006432989e-07,7.883055861256549e-07,4.4573883832205774e-07,3.0843350003259424e-05
4.012043598989961e-07,7.925406814773388e-07,4.519842142880845e-07,3.0622978888107534e-05
4.0153658562300743e-07,7.963886291896851e-07,4.5879470821994113e-07,3.038471505192221e-05
4.017505341517572e-07,7.998342561260634e-07,4.66199082891834e-07,3.013047649791325e-05
4.018547966899322e-07,8.028655515900923e-07,4.7422174783842704e-07,2.986219252297669e-05
4.018548365041768e-07,8.054745304728288e-07,4.828774885358395e-07,2.9581970776361248e-05
4.0175387889775047e-07,8.076584770952728e-07,4.921676180653312e-07,2.929220549637743e-05
4.0155421239411244e-07,8.094212891677367e-07,5.020785115654572e-07,2.8995503743975206e-05
4.012587043470272e-07,8.107715112793554e-07,5.125821878259911e-07,2.8694529387096412e-05
4.008720200324194e-07,8.117172965805145e-07,5.236381726341572e-07,2.839187938167041e-05
4.004006236995804e-07,8.12262622476577e-07,5.351965792487482e-07,2.8090000111498085e-05
3.998517955329493e-07,8.124064116549388e-07,5.47201159200613e-07,2.779111336063027e-05
3.9923255988986113e-07,8.121438804716744e-07,5.595897961902423e-07,2.749714672259316e-05
3.985486003954469e-07,8.114690565409831e-07,5.722937194287997e-07,2.7209690897233413e-05
3.9780427589823797e-07,8.103767560615815e-07,5.852388803106178e-07,2.6930005481120144e-05
3.970038919705817e-07,8.088634346950677e-07,5.983481765604418e-07,2.665906031564509e-05
3.961525253817128e-07,8.06928203630329e-07,6.11542025746784e-07,2.639757222410326e-05
3.952559608803853e-07,8.045763013386011e-07,6.24739198908685e-07,2.6146024370845152e-05
3.9432003627031095e-07,8.018239732560581e-07,6.378584889933773e-07,2.5904676913952742e-05
3.933499139705925e-07,7.986978749167837e-07,6.508186990161288e-07,2.5673558128780625e-05
3.923493772922621e-07,7.952269801701187e-07,6.635375479098986e-07,2.54524374741198e-05
3.9131980337915065e-07,7.914351849765104e-07,6.75932107936228e-07,2.524082029286265e-05
3.9026005481252433e-07,7.873414169735589e-07,6.879217212925404e-07,2.5037997818976605e-05
3.8916820646920907e-07,7.829664647004554e-07,6.99432569192143e-07,2.484315322815624e-05
3.880438456967018e-07,7.783411148299089e-07,7.104005668028344e-07,2.465549696028301e-05
3.868889520261136e-07,7.735099467635683e-07,7.207701747225565e-07,2.447437037500863e-05
3.857062077163933e-07,7.685294514061898e-07,7.304922055759533e-07,2.429925651150183e-05
3.8449670327450145e-07,7.634626032733144e-07,7.395238607560533e-07,2.412970268576116e-05
3.832600952595625e-07,7.583726062583285e-07,7.478291788356555e-07,2.396521312670973e-05
3.8199618241531786e-07,7.533174024841168e-07,7.553779106792841e-07,2.3805182012244892e-05
3.807053760612183e-07,7.483455911950049e-07,7.621442645482958e-07,2.364894590658395e-05
3.793884072357893e-07,7.434953359941054e-07,7.68107651963959e-07,2.349595288982459e-05
3.7804613683634295e-07,7.387956126622401e-07,7.732544933263484e-07,2.334589617444046e-05
3.7667896428278344e-07,7.342677548439231e-07,7.775781434665377e-07,2.319868484193173e-05
3.7528565239132353e-07,7.299283526348359e-07,7.810773561326092e-07,2.3054296802295326e-05
3.7386257796520364e-07,7.257920952450892e-07,7.837556625905171e-07,2.291263562251712e-05
3.7240405533638613e-07,7.218705115647106e-07,7.856215104128187e-07,2.2773465721182143e-05
3.7090327527976756e-07,7.18168781376153e-07,7.866877918152639e-07,2.263642713217825e-05
3.693531507913671e-07,7.146854789432723e-07,7.869705360983759e-07,2.250111379745813e-05
3.6774653001413773e-07,7.114153878554404e-07,7.864884027249861e-07,2.2367195195852152e-05
3.660757638281707e-07,7.083533650057827e-07,7.85263327080396e-07,2.223451226469012e-05
3.643325204288804e-07,7.05497288907021e-07,7.833197114378437e-07,2.210311468435195e-05
3.625089102052446e-07,7.0284889654999e-07,7.80682717302264e-07,2.197329625684668e-05
3.605995118500585e-07,7.004137554255761e-07,7.773795234930145e-07,2.1845672973033967e-05
3.5860321996872847e-07,6.982011057991989e-07,7.734433367277121e-07,2.172127571378705e-05
3.5652423800692353e-07,6.962221769811443e-07,7.689165640704885e-07,2.1601564269781123e-05
3.543712233720246e-07,6.94486942949461e-07,7.63850699303e-07,2.1488286850137984e-05
3.5215485836483724e-07,6.930021254201215e-07,7.583024309880566e-07,2.1383225476762693e-05
3.498855092483785e-07,6.917725581596198e-07,7.523284020871534e-07,2.128793969010204e-05
3.4757192308090093e-07,6.908027922160786e-07,7.459817766098824e-07,2.1203600669843522e-05
3.452223549551726e-07,6.900953593815772e-07,7.393106257661094e-07,2.113093808396029e-05
3.428496526221189e-07,6.896481529336285e-07,7.323575661083586e-07,2.1070247661114107e-05
3.404769399160839e-07,6.894533540626182e-07,7.251613269930001e-07,2.1021439072634178e-05
3.38137302361087e-07,6.894973952390981e-07,7.177589713996523e-07,2.098420902170915e-05
3.358673311193978e-07,6.897623357064201e-07,7.101870514964319e-07,2.095834173674831e-05
3.3370099829387284e-07,6.90228195573704e-07,7.024825999630756e-07,2.0943896918411262e-05
3.316676721247025e-07,6.908748944001624e-07,6.946840404819439e-07,2.094110358709221e-05
3.297922230803321e-07,6.916828645971224e-07,6.868297769287942e-07,2.0950109357686244e-05
3.2809434857238544e-07,6.926320577658195e-07,6.789547347651732e-07,2.0970809717187645e-05
3.2658779948482236e-07,6.937017039214176e-07,6.710881801774008e-07,2.100286252701201e-05
3.2528199872206113e-07,6.948724053191548e-07,6.632543385312533e-07,2.104595417179243e-05
3.241861877838883e-07,6.961273792826819e-07,6.554742862739131e-07,2.110021197485301e-05
3.233122495941769e-07,6.974499281468479e-07,6.477672457886849e-07,2.116645302366561e-05
3.226735360086257e-07,6.988193837248409e-07,6.40150908865554e-07,2.1246139371843374e-05
3.2228243937545747e-07,7.002101950654281e-07,6.326407102619735e-07,2.134120239085676e-05
3.221487779151742e-07,7.015954442316729e-07,6.252482662382633e-07,2.145387075991818e-05
3.2227834543512906e-07,7.029509412078254e-07,6.179809157174627e-07,2.1586504020657763e-05
3.226731042255401e-07,7.04257042222867e-07,6.108436759812822e-07,2.174143378242342e-05
3.233343857863538e-07,7.054995147449326e-07,6.038417238055826e-07,2.192083256583464e-05
3.2426645731229484e-07,7.066700429174094e-07,5.969803454772446e-07,2.212661711004104e-05
3.254769419905305e-07,7.077656386283081e-07,5.902632004188202e-07,2.2360384101740986e-05
3.269738984662037e-07,7.087866969458732e-07,5.836921311939118e-07,2.262334430202069e-05
3.287625091737211e-07,7.097347741948601e-07,5.772678123066811e-07,2.29162083101713e-05
3.308439721090972e-07,7.106133656791489e-07,5.709897460320185e-07,2.323904178623845e-05
3.3321554410463054e-07,7.114311214076834e-07,5.648577669444428e-07,2.359117653698561e-05
3.358699999943696e-07,7.12202516055789e-07,5.588768547130835e-07,2.397124993471709e-05
3.3879623951193317e-07,7.129468048516448e-07,5.530631339273681e-07,2.4377378754336692e-05
3.419824449056332e-07,7.136887308051682e-07,5.474464661710553e-07,2.4807415953681602e-05
3.454194101804669e-07,7.144567625428984e-07,5.420665031757942e-07,2.5259192291214845e-05
3.4910199581676397e-07,7.15275807904098e-07,5.369645186116317e-07,2.5730660096680013e-05
3.5303008136456796e-07,7.16160763501411e-07,5.321784063046712e-07,2.621996538488739e-05
3.5720872198903646e-07,7.171156371093994e-07,5.2774428990009e-07,2.672551805410477e-05
3.6164478104505244e-07,7.181350240493465e-07,5.236987386360025e-07,2.724604230692081e-05
3.6634264031806265e-07,7.192048854019505e-07,5.200758992583767e-07,2.778054476790373e-05
3.7130312807079116e-07,7.203038979150583e-07,5.169024388353973e-07,2.8328198235262587e-05
3.7652318573321813e-07,7.214067548110985e-07,5.141957132343112e-07,2.8888182736693092e-05
3.819937045292101e-07,7.224884468026003e-07,5.119651731363554e-07,2.945950197497113e-05
3.876982485698715e-07,7.235265502161119e-07,5.102132443004221e-07,3.004080595528763e-05
3.936148444260888e-07,7.245004267432069e-07,5.089346688411746e-07,3.0630314801537766e-05
3.9971856179275926e-07,7.253906441095653e-07,5.081162240004788e-07,3.1225880916280846e-05
