3.264000551761272e-07,6.037896367464132e-07,3.519949052384199e-07,1.983646118115812e-05
3.260362625757752e-07,6.039967871541136e-07,3.5509774237028645e-07,1.9430338408822532e-05
3.2601255989876904e-07,6.039027354208943e-07,3.582667753263281e-07,1.9022607797617352e-05
3.263352267132402e-07,6.035327241070389e-07,3.6149427921433634e-07,1.861457107836599e-05
3.270064043709161e-07,6.029137274918562e-07,3.6477266657656287e-07,1.820747083631011e-05
3.280246011428484e-07,6.020783150840857e-07,3.680932244874692e-07,1.7802434798156528e-05
3.2938553648248216e-07,6.010709027033649e-07,3.7144467860509564e-07,1.7400515158249287e-05
3.310855096759018e-07,5.999475637159509e-07,3.748133256893325e-07,1.700283005265411e-05
3.331292512946332e-07,5.987710226503939e-07,3.781850494417179e-07,1.661070555053534e-05
3.355364269860609e-07,5.976086815997414e-07,3.8154749489883006e-07,1.6225701630320715e-05
3.3833881865861057e-07,5.965297268293791e-07,3.848913041599842e-07,1.5849515709019793e-05
3.415701288458765e-07,5.955973706154255e-07,3.882101143016839e-07,1.5483830849855106e-05
3.45259202465492e-07,5.948630769415971e-07,3.914991072544993e-07,1.5130194858603229e-05
3.494305634488757e-07,5.943666803903324e-07,3.947529169999056e-07,1.4790003008644309e-05
3.5410392702664827e-07,5.941376351023943e-07,3.979649989418147e-07,1.446456612480307e-05
3.5928942690592537e-07,5.941939870738805e-07,4.011289072184546e-07,1.4155200741444876e-05
3.649850308130045e-07,5.945418887608114e-07,4.042387255027885e-07,1.3863348719140133e-05
3.711777140631415e-07,5.951781867688464e-07,4.0728806546578867e-07,1.3590744903121645e-05
3.778453961235076e-07,5.960936395278282e-07,4.102707305221681e-07,1.3339516973001128e-05
3.849598251393178e-07,5.972735297052882e-07,4.131821676650599e-07,1.3112076850892995e-05
3.9248983041825683e-07,5.986968533441139e-07,4.160183197151393e-07,1.2910868965036432e-05
4.004026866665963e-07,6.003369042705724e-07,4.187741420977279e-07,1.2738124788178384e-05
4.0866377252360017e-07,6.021625082694725e-07,4.214449382299053e-07,1.2595692119298933e-05
4.172356167436991e-07,6.04138495932494e-07,4.2402857808520643e-07,1.2485051619119515e-05
4.2607811415175903e-07,6.062273376888324e-07,4.26525591445359e-07,1.240757352149332e-05
4.351522626770095e-07,6.083937558155275e-07,4.289366580226579e-07,1.236477834815018e-05
4.444253597790497e-07,6.106093996809672e-07,4.312599242545922e-07,1.2358366015060895e-05
4.5387267293577186e-07,6.128532505882444e-07,4.3349126213041975e-07,1.2390091529388945e-05
4.634743113616397e-07,6.15108457755199e-07,4.356272144045697e-07,1.2461641768498238e-05
4.732103354777995e-07,6.173590889428641e-07,4.3766694280220643e-07,1.257453231254724e-05
4.830574541978021e-07,6.195879914472572e-07,4.3961078872587135e-07,1.2730019483847334e-05
4.929875344788132e-07,6.217754534749903e-07,4.414578149694462e-07,1.2929054052809425e-05
5.029669989461944e-07,6.238987375982665e-07,4.432055966560249e-07,1.3172269813759429e-05
5.129584837201213e-07,6.259335533415316e-07,4.4485078999635545e-07,1.3459958786984911e-05
5.229252206562155e-07,6.278577255536069e-07,4.4638859947337057e-07,1.3792006365110275e-05
5.328348167397622e-07,6.296536656383065e-07,4.4781302244247904e-07,1.4167806388902552e-05
5.426590363148553e-07,6.313066816622379e-07,4.491180691280082e-07,1.4586191742352634e-05
5.523702003156753e-07,6.328026818526836e-07,4.5029807867061003e-07,1.5045407069062009e-05
5.619377041187493e-07,6.341304411558346e-07,4.5134746527094344e-07,1.5543121617086292e-05
5.713267612841264e-07,6.352867032207438e-07,4.5226101650435956e-07,1.6076473576810013e-05
5.804988243854227e-07,6.362777383559436e-07,4.5303441172143145e-07,1.6642173091657724e-05
5.894126633500495e-07,6.37114781795964e-07,4.536639440485072e-07,1.723667189517106e-05
5.980259332633162e-07,6.378078933915968e-07,4.5414564604422466e-07,1.785632601877217e-05
6.062970348127546e-07,6.38363377500251e-07,4.544750581113756e-07,1.8497478725824586e-05
6.141868535135007e-07,6.38783975882438e-07,4.546475591426962e-07,1.9156476992590087e-05
6.216619045599062e-07,6.390693410001103e-07,4.5465846298968103e-07,1.9829652739034586e-05
6.286997192719276e-07,6.392167549645543e-07,4.545037321672738e-07,2.0513268453342507e-05
6.352919290663996e-07,6.392229528491617e-07,4.5418181318548573e-07,2.1203466386718725e-05
6.414411516657377e-07,6.390870912562724e-07,4.536946181515385e-07,2.1896275923445908e-05
6.471549374520095e-07,6.388139265187532e-07,4.5304674947121714e-07,2.2587663088766786e-05
6.52441751277056e-07,6.384158313152278e-07,4.5224466704329526e-07,2.3273595620683826e-05
6.573099313645796e-07,6.379111897777296e-07,4.512960734945208e-07,2.395012551512524e-05
6.617671056240645e-07,6.373197030887989e-07,4.502081246583747e-07,2.4613454379366834e-05
6.658181091624057e-07,6.366592287518701e-07,4.489852915066539e-07,2.525994700333209e-05
6.694634553746722e-07,6.359447634318136e-07,4.4762916324158113e-07,2.5886119160556784e-05
6.727003833641396e-07,6.351878043652929e-07,4.461402461515229e-07,2.6488638284458092e-05
6.755247539977843e-07,6.343974370247567e-07,4.445196292726554e-07,2.7064342465008263e-05
6.779322572887915e-07,6.335818804548038e-07,4.4276907190091256e-07,2.7610254010227916e-05
6.799199097823421e-07,6.327474011647647e-07,4.408904664738059e-07,2.8123581858983008e-05
6.814878666971043e-07,6.318967489134177e-07,4.3888629473280794e-07,2.860175258778125e-05
6.826393418040835e-07,6.310294853316548e-07,4.3676077201130714e-07,2.9042498088889758e-05
6.833784174120034e-07,6.301439483154804e-07,4.3452041672462475e-07,2.9443975860453137e-05
6.837077576036446e-07,6.292418696621324e-07,4.3217457164033393e-07,2.9804894770802764e-05
6.836270615071572e-07,6.283329339201935e-07,4.297362043710949e-07,3.0124642418413884e-05
6.831324846551577e-07,6.274343526109383e-07,4.2722059312107454e-07,3.040335793163037e-05
6.822179181965273e-07,6.265679111197109e-07,4.246424129289742e-07,3.064186109988762e-05
6.808791184980471e-07,6.257583945860789e-07,4.220153508654382e-07,3.0841441747313186e-05
6.791189289678545e-07,6.250314111162725e-07,4.1935395970992396e-07,3.100359021702649e-05
6.769493654828207e-07,6.244091928498114e-07,4.166739426468225e-07,3.112975380851725e-05
6.743894618760157e-07,6.239078382270027e-07,4.13990066734689e-07,3.122119246510357e-05
6.71461147395551e-07,6.235388613260318e-07,4.113140048137481e-07,3.12789563071579e-05
6.681857521473729e-07,6.233121294804711e-07,4.086540384121643e-07,3.130393586400166e-05
6.645825415774687e-07,6.232360866799351e-07,4.060164475574986e-07,3.129696488994013e-05
6.606681532449856e-07,6.233158518735484e-07,4.034067613390935e-07,3.125904618188155e-05
6.564562673573443e-07,6.235521279683196e-07,4.008295325052869e-07,3.1191629038997845e-05
6.51958782745367e-07,6.239421029727998e-07,3.982878351034862e-07,3.1096672755650235e-05
6.471878700494853e-07,6.244804804336697e-07,3.957844044772947e-07,3.097644097899204e-05
6.421567138008246e-07,6.251588964918918e-07,3.9332335003672206e-07,3.083324467236153e-05
6.368783288139399e-07,6.259650469877266e-07,3.9091013456524786e-07,3.0669294320115555e-05
6.313640322541622e-07,6.268821322112779e-07,3.885508837698431e-07,3.0486736866866694e-05
6.256238328515982e-07,6.278880773606557e-07,3.8625222210053976e-07,3.028790989053515e-05
6.196684517701702e-07,6.289556804627279e-07,3.840199262544616e-07,3.0075626738947523e-05
6.135121268495751e-07,6.300537837970122e-07,3.818569247789854e-07,2.9853228787893128e-05
6.071761708463099e-07,6.311484127371266e-07,3.797629831036506e-07,2.962442624606397e-05
6.006897311042647e-07,6.322047860753317e-07,3.7773545139585096e-07,2.9393101437337677e-05
5.940860218701735e-07,6.331910595092994e-07,3.757699146617075e-07,2.916312421731161e-05
5.873990294694373e-07,6.340817327418027e-07,3.738612560234173e-07,2.8938179974620832e-05
5.806628872020293e-07,6.348574055131147e-07,3.7200427174370936e-07,2.872163813304988e-05
5.739108750049406e-07,6.355012292206439e-07,3.701929085982547e-07,2.8516469806398028e-05
5.671740343413994e-07,6.359968685667807e-07,3.68420186493741e-07,2.832520812206118e-05
5.604813102917436e-07,6.363303511844339e-07,3.666795244583875e-07,2.814994064142672e-05
5.538598253035586e-07,6.364925939398072e-07,3.649650087164362e-07,2.799229786733169e-05
5.47333895059738e-07,6.364789859238328e-07,3.632699205348863e-07,2.78534131989157e-05
5.409244023914267e-07,6.362863993401448e-07,3.6158548276772453e-07,2.773388103114964e-05
5.346497163346682e-07,6.359110798164002e-07,3.5990129759091674e-07,2.763374978055861e-05
5.285266550466633e-07,6.353496660451024e-07,3.5820710858762775e-07,2.755257169295845e-05
5.225701485490618e-07,6.346020850776885e-07,3.56494292983291e-07,2.7489517873440068e-05
5.167926998347367e-07,6.336731782690669e-07,3.547563059013864e-07,2.744352640760152e-05
5.112046986553184e-07,6.325711612401513e-07,3.5298863629520524e-07,2.741341922705578e-05
5.058147737347e-07,6.313040008606742e-07,3.511883886657539e-07,2.7397965797691572e-05
5.006294686042375e-07,6.298765852022169e-07,3.4935366644254014e-07,2.7395932391422186e-05
4.95652465494566e-07,6.282915684836846e-07,3.474837509653851e-07,2.740612828565832e-05
4.908834845801771e-07,6.265531587419747e-07,3.455799513623701e-07,2.742741860508765e-05
4.863178265311086e-07,6.246689230037095e-07,3.4364610497278826e-07,2.745870891085197e-05
4.819484990258007e-07,6.226490609635693e-07,3.4168884785599735e-07,2.7498923269514007e-05
4.777701344548109e-07,6.205068246914454e-07,3.3971801967189077e-07,2.754695781201665e-05
4.737811735159035e-07,6.182583030006736e-07,3.37746265443783e-07,2.7601617207702826e-05
4.699828947158517e-07,6.159190159722318e-07,3.357873834029704e-07,2.7661612692631654e-05
4.6637673383870326e-07,6.13501256459326e-07,3.3385473494852137e-07,2.7725629736721577e-05
4.6296265099026e-07,6.110155068501583e-07,3.3196020816984803e-07,2.7792366139784985e-05
4.5974013122769157e-07,6.084729935845108e-07,3.301130046618912e-07,2.786051577498808e-05
4.5670934598993463e-07,6.05885813111296e-07,3.283186582377477e-07,2.7928757970899266e-05
4.538702806151525e-07,6.032659281054927e-07,3.265789550282265e-07,2.7995771656564807e-05
4.5122101455559476e-07,6.006245395573175e-07,3.2489240981694215e-07,2.80602787314018e-05
4.48756838591134e-07,5.979706124069758e-07,3.2325509601550843e-07,2.8121148059633087e-05
4.4647189051511676e-07,5.953099571372337e-07,3.2166183306860407e-07,2.8177517303813777e-05
4.4436285373766926e-07,5.926469482733264e-07,3.201076244669686e-07,2.8228831130831084e-05
4.424303848750079e-07,5.899871344346498e-07,3.185897109286517e-07,2.82747975375698e-05
4.4067588004539174e-07,5.87339470606559e-07,3.171099721574368e-07,2.831531887258396e-05
4.3909727550412857e-07,5.847174900207859e-07,3.156756529262147e-07,2.8350400714249012e-05
4.376883638400961e-07,5.821372683182537e-07,3.142967037771939e-07,2.8380040257372515e-05
4.364409448367095e-07,5.796138624392672e-07,3.1298167477911443e-07,2.840411882858471e-05
4.353458480299694e-07,5.771600898693171e-07,3.117357866656435e-07,2.8422333969116407e-05
4.343916723244439e-07,5.747878167341684e-07,3.105612940798126e-07,2.8434226400673968e-05
4.335640845740016e-07,5.725113921008365e-07,3.0945863812685536e-07,2.84392995041422e-05
4.3284720942512933e-07,5.703529984915435e-07,3.084278863567625e-07,2.8437128494400025e-05
4.322253156835902e-07,5.683466049231197e-07,3.074689964759828e-07,2.8427396243978168e-05
4.316833977138818e-07,5.665366397058147e-07,3.065807079132122e-07,2.840988365031955e-05
4.3120695591467867e-07,5.649717705865468e-07,3.057604028642885e-07,2.838443359184464e-05
4.307817769289237e-07,5.636989948610712e-07,3.050053700484508e-07,2.83508935558134e-05
4.303944301432881e-07,5.627605645748831e-07,3.043135590333171e-07,2.8309084585922504e-05
4.3003251381657116e-07,5.621906953048627e-07,3.036831574452217e-07,2.8258861126270496e-05
4.2968351697236345e-07,5.620114916845737e-07,3.031119025645512e-07,2.8200216953026e-05
4.293340914899102e-07,5.622311301923268e-07,3.025975311886912e-07,2.8133301916342895e-05
4.28971338606544e-07,5.628448607384284e-07,3.0213982115971126e-07,2.8058322779241908e-05
4.285841550586403e-07,5.638375374214238e-07,3.017421159194568e-07,2.7975414542005092e-05
4.281632329428292e-07,5.651874540395016e-07,3.01410966705376e-07,2.788455399900944e-05
4.2770184604768697e-07,5.668697787020925e-07,3.011553227729173e-07,2.7785543421054326e-05
4.2719699729482345e-07,5.688568883144533e-07,3.009854045034799e-07,2.7678051469420826e-05
4.266479386690632e-07,5.71117138779466e-07,3.0091041401749227e-07,2.756167836299044e-05
4.26053476703796e-07,5.736161773504293e-07,3.0093660619893174e-07,2.743601788040773e-05
4.2541074545412247e-07,5.763218306236032e-07,3.010669093855535e-07,2.7300693426265894e-05
4.2471553534532253e-07,5.792090596457641e-07,3.0130126888509985e-07,2.715536517938492e-05
4.239631478987313e-07,5.822606608418135e-07,3.016379147072809e-07,2.699972653654685e-05
4.231484539781739e-07,5.854646609471309e-07,3.020760416009252e-07,2.683349740654902e-05
4.222655397024666e-07,5.8881340291323e-07,3.026179642343858e-07,2.6656415904933608e-05
4.2130829467816217e-07,5.923058864958655e-07,3.032688363500709e-07,2.6468244164984053e-05
4.202717611448384e-07,5.959492936700045e-07,3.0403472391689986e-07,2.6268803515191625e-05
4.191534662240534e-07,5.997553120447843e-07,3.049206834905627e-07,2.6058030550593465e-05
4.179540734863721e-07,6.037335740293926e-07,3.059294623419899e-07,2.583601830313608e-05
4.1667621557171953e-07,6.078879203141409e-07,3.070609176990723e-07,2.56030011834582e-05
4.15321794537197e-07,6.122153090327796e-07,3.083121775667479e-07,2.535927608713919e-05
4.138902125214495e-07,6.167048331681437e-07,3.096776198597451e-07,2.5105115230899358e-05
4.123789398331232e-07,6.213376233258603e-07,3.111481239453113e-07,2.484074257490292e-05
4.107852170071154e-07,6.26087686787172e-07,3.1271100668672036e-07,2.4566372468720084e-05
4.091064663625169e-07,6.309225257980134e-07,3.1435108009302693e-07,2.4282249274473624e-05
4.0733929804330756e-07,6.358043560307608e-07,3.160514124095061e-07,2.398865176937568e-05
4.054797906795533e-07,6.406927525813915e-07,3.1779361555106865e-07,2.368587800969793e-05
4.0352493810457773e-07,6.455475871191142e-07,3.195588853385001e-07,2.337424185423857e-05
4.0147330219311104e-07,6.503306941369698e-07,3.213300841686025e-07,2.3054078843999905e-05
3.993265021687165e-07,6.550062372552674e-07,3.2309375223379e-07,2.272573785303545e-05
3.970924402615004e-07,6.595409252721008e-07,3.248415114001393e-07,2.238958039200911e-05
3.9478629106840256e-07,6.639036460050721e-07,3.2657091020154054e-07,2.2046034126065315e-05
3.9242697619631573e-07,6.680639265028448e-07,3.282843784865147e-07,2.1695663370314854e-05
3.900323251679741e-07,6.719909246494953e-07,3.299858770004312e-07,2.1339166490595348e-05
3.876168052995516e-07,6.756539848112317e-07,3.316775136810333e-07,2.0977314293102034e-05
3.8519235964768295e-07,6.790242626213153e-07,3.333581078655364e-07,2.0610911879783137e-05
3.827694024287825e-07,6.820775658028346e-07,3.350237423063099e-07,2.0240797717541948e-05
3.803562023922576e-07,6.84797529090413e-07,3.366686585784705e-07,1.986786834642528e-05
3.7795883324237385e-07,6.871758933876544e-07,3.382861215507378e-07,1.9493108655862944e-05
3.755822805630367e-07,6.892100986241379e-07,3.3987102175466505e-07,1.911756784266597e-05
3.7323150505663545e-07,6.909024561884302e-07,3.414224479249402e-07,1.874230038609685e-05
3.709131580034387e-07,6.922601891776124e-07,3.429425928517097e-07,1.8368350109548328e-05
3.6863661745351865e-07,6.93293098822537e-07,3.444334472314255e-07,1.799677803583734e-05
3.6641229195238453e-07,6.940115947233145e-07,3.458944871485793e-07,1.7628703974091136e-05
3.642495528788852e-07,6.944286054646247e-07,3.473219119653413e-07,1.726532958747585e-05
3.62158653890865e-07,6.945631789006673e-07,3.4870921926660317e-07,1.6907893331280293e-05
3.6015838513346045e-07,6.944418140187172e-07,3.5004818708687125e-07,1.6557557276682622e-05
3.5828327239907286e-07,6.940963421381168e-07,3.513292710264095e-07,1.621530748257308e-05
3.5658050869803855e-07,6.935594144585675e-07,3.525421817006742e-07,1.588194560747938e-05
3.55098110343836e-07,6.928609238663811e-07,3.5367740481518274e-07,1.5558159448090415e-05
3.538757714512539e-07,6.920294100434426e-07,3.547278586191535e-07,1.5244650832020166e-05
3.529443441973077e-07,6.91096374196261e-07,3.55689096121472e-07,1.4942282354680718e-05
3.5232968930249597e-07,6.900963224175092e-07,3.5655786502306867e-07,1.4652106029189106e-05
3.5205396138589895e-07,6.890609797111161e-07,3.5733052596386757e-07,1.4375275535735775e-05
3.521337663622949e-07,6.88013429068521e-07,3.580020499106292e-07,1.4113040226797068e-05
3.525797153521745e-07,6.869664173945256e-07,3.5856620492935646e-07,1.3866815900581591e-05
3.5339782118842477e-07,6.859244847452736e-07,3.590175210681385e-07,1.3638130323132947e-05
3.545901005319004e-07,6.848877739154498e-07,3.593527308608983e-07,1.3428464785603294e-05
3.561538243617113e-07,6.838540289737706e-07,3.595698616771225e-07,1.3239159437391713e-05
3.5808020276438607e-07,6.82817278259262e-07,3.596673479447596e-07,1.307139095716659e-05
3.603548134310904e-07,6.817662805206455e-07,3.596451118352876e-07,1.2926162650872905e-05
3.62962144734691e-07,6.806849788079291e-07,3.5950589592118677e-07,1.2804294472290495e-05
3.6589249961433745e-07,6.795537357546063e-07,3.5925443866861726e-07,1.270640521681178e-05
3.6914532932148923e-07,6.783499898610265e-07,3.588953427407044e-07,1.263290847509845e-05
3.727250260505357e-07,6.770486699609157e-07,3.584323986630372e-07,1.2584077649380925e-05
3.766334709363847e-07,6.756238537083485e-07,3.578691028801688e-07,1.256017283065863e-05
3.8086644941059973e-07,6.740513477577918e-07,3.5720828145167886e-07,1.2561618402338428e-05
3.854137932258253e-07,6.723098540912103e-07,3.564509068389907e-07,1.2589283775178944e-05
3.9025955251731147e-07,6.703814595248219e-07,3.555959707080461e-07,1.2644703051748413e-05
3.953821881619832e-07,6.682529486360379e-07,3.546425187745897e-07,1.2729929183017905e-05
4.0075516640503796e-07,6.65915260133783e-07,3.535920396115566e-07,1.2847082086989211e-05
4.063475734412677e-07,6.633607307831286e-07,3.524490511275113e-07,1.299789085059242e-05
4.121268095341557e-07,6.60582531879148e-07,3.5122111306722737e-07,1.3183427985837026e-05
4.180641621603057e-07,6.575769915770346e-07,3.4991959120488784e-07,1.3404129453964347e-05
4.241395003758586e-07,6.543447375683283e-07,3.485603725454518e-07,1.3660006958367238e-05
4.3034108933889635e-07,6.508891704790151e-07,3.471635902808564e-07,1.395085082620188e-05
4.3666088362908403e-07,6.472144447338078e-07,3.4575132562116624e-07,1.4276354755619515e-05
4.430892668804265e-07,6.433243845422046e-07,3.443437757422409e-07,1.4636184296486765e-05
4.49612798713685e-07,6.392225366042541e-07,3.429571304418437e-07,1.5030010958347473e-05
4.5621464949152566e-07,6.34912986478146e-07,3.416046867933393e-07,1.545755826671814e-05
4.6287465949122953e-07,6.304006660447475e-07,3.4029807170830466e-07,1.5918729653295685e-05
4.6956840925686437e-07,6.256903323109637e-07,3.3904649033844645e-07,1.6413807182286435e-05
4.762673113849467e-07,6.207849431982636e-07,3.3785648282930405e-07,1.6943524558900643e-05
4.829411137192746e-07,6.156855052388434e-07,3.367328931652973e-07,1.750887441054823e-05
4.895629707551081e-07,6.103937117040134e-07,3.356788557672816e-07,1.811079993022983e-05
4.961147969679357e-07,6.04915380558981e-07,3.346949020219593e-07,1.8749919641365894e-05
5.025885038823017e-07,5.992607047359728e-07,3.33778478056438e-07,1.942629728009156e-05
5.089815519599214e-07,5.934407254986741e-07,3.329238969359292e-07,2.0139402235928808e-05
5.15291369731138e-07,5.874639444127482e-07,3.321232373638771e-07,2.088836773240239e-05
5.215134590648457e-07,5.813356369040429e-07,3.313692376185241e-07,2.167225999822615e-05
5.276415485779316e-07,5.750591716965621e-07,3.306584703186616e-07,2.2490061473369072e-05
5.336662988486104e-07,5.686382726083343e-07,3.299917806622967e-07,2.3340500203035503e-05
5.39573269103554e-07,5.620798113453677e-07,3.2937234512958765e-07,2.422194893879536e-05
5.453426566385263e-07,5.553967618133914e-07,3.288038973481869e-07,2.5132400647239746e-05
5.50951473043427e-07,5.486095638705171e-07,3.282902093586723e-07,2.6069471296889472e-05
5.563764950850882e-07,5.417442383767814e-07,3.278356108560126e-07,2.7030416912066668e-05
5.615953023999308e-07,5.348293833526348e-07,3.274460111353532e-07,2.8012154144219946e-05
5.665853027265156e-07,5.278950530472794e-07,3.271288464358965e-07,2.901127742057779e-05
5.713236700191999e-07,5.209727979406451e-07,3.268916219102964e-07,3.0024065606411213e-05
5.757889942888847e-07,5.140966306237755e-07,3.267409012799109e-07,3.104647545897347e-05
5.799637921421461e-07,5.073069460307939e-07,3.266815823737952e-07,3.207414744864367e-05
5.838390020763751e-07,5.00654909176779e-07,3.267155080556085e-07,3.310246923899679e-05
5.874187574484468e-07,4.942021720455521e-07,3.268408707825038e-07,3.4126691603733116e-05
5.907193482753651e-07,4.880157780583615e-07,3.2705304310737877e-07,3.5142028697783147e-05
5.937622836130053e-07,4.821612584565085e-07,3.2734517597511174e-07,3.614369870171673e-05
5.965703208978504e-07,4.766984545377703e-07,3.2770778990771215e-07,3.7126936094071456e-05
5.991700015277875e-07,4.71685097376346e-07,3.281286180661751e-07,3.8087044731597166e-05
6.015929095013755e-07,4.6718434742587347e-07,3.28593627481709e-07,3.901948844672074e-05
6.038709436262501e-07,4.632651024476033e-07,3.2908840187524885e-07,3.9919929232694645e-05
6.060301587685446e-07,4.599927349530168e-07,3.295991201887422e-07,4.078417940707226e-05
6.080880906691276e-07,4.5741929551868535e-07,3.3011303433495397e-07,4.160813694084934e-05
6.100558314337969e-07,4.555802141559838e-07,3.3061821099382603e-07,4.238777660603937e-05
6.119422369780229e-07,4.5449674939357615e-07,3.311032432735173e-07,4.3119210065587455e-05
6.137557135729489e-07,4.5418005610544845e-07,3.315580095554845e-07,4.379880025644658e-05
6.15503462786295e-07,4.5463391531607246e-07,3.319743441119799e-07,4.442330930645597e-05
6.171908713456585e-07,4.5585532584104965e-07,3.32344899709519e-07,4.499000934157315e-05
6.188207149018815e-07,4.578332880143693e-07,3.326614596039548e-07,4.549666035462295e-05
6.20392018498734e-07,4.6054745307594614e-07,3.329147313245902e-07,4.594136626106902e-05
6.219001398701589e-07,4.639677292832278e-07,3.330953635169133e-07,4.6322446560615995e-05
6.23337472056682e-07,4.68054500906297e-07,3.331955617316823e-07,4.663842787436093e-05
6.246937046174226e-07,4.727604355058423e-07,3.332102494508214e-07,4.68881187521784e-05
6.259562069544476e-07,4.780346282368487e-07,3.331359245668462e-07,4.7070656211945366e-05
6.271102500079785e-07,4.838273769701958e-07,3.329684276206172e-07,4.7185486685325676e-05
6.281382668500314e-07,4.900927012759308e-07,3.3270240202937694e-07,4.7232346810138676e-05
6.290189281494386e-07,4.967869431601702e-07,3.323320145712224e-07,4.721126819383676e-05
6.297271128000876e-07,5.038650223858634e-07,3.318513660251459e-07,4.712256334257453e-05
6.302349222063874e-07,5.112777881947557e-07,3.31254531210879e-07,4.69668151008317e-05
6.305140249594236e-07,5.189733427849118e-07,3.305356809514532e-07,4.6744941937616195e-05
6.30539452017065e-07,5.269020774042504e-07,3.296896493107883e-07,4.645830307414981e-05
6.302929315445281e-07,5.350211299001631e-07,3.2871284863121254e-07,4.610870166843487e-05
6.297639095945111e-07,5.432952651167e-07,3.2760404317607607e-07,4.569825069852722e-05
6.289495258052948e-07,5.516947346406465e-07,3.26364249031633e-07,4.522922780232624e-05
6.278547175176908e-07,5.601907418652601e-07,3.2499555736855996e-07,4.470400182170847e-05
6.264917031438835e-07,5.687508244515672e-07,3.2350025196920693e-07,4.412499853043585e-05
6.24878628697849e-07,5.77338214651198e-07,3.2188118153045546e-07,4.3494694528124486e-05
6.230368671355886e-07,5.859151057704936e-07,3.2014230166289766e-07,4.28156855191262e-05
6.209871116882518e-07,5.944454794918679e-07,3.182882897660572e-07,4.209088360684035e-05
6.187474885467961e-07,6.028945904571056e-07,3.163241367775241e-07,4.132385043180877e-05
6.163353669942252e-07,6.112267027010115e-07,3.142556499616194e-07,4.0519084895888106e-05
6.137695962156421e-07,6.194045105051312e-07,3.120898000180929e-07,3.9681994299260055e-05
6.110702161010825e-07,6.273909912796271e-07,3.0983403495571605e-07,3.881854201006284e-05
6.082569569727083e-07,6.351505795549173e-07,3.074956426810354e-07,3.793480910987497e-05
6.05348735731662e-07,6.42647616649515e-07,3.050827510732673e-07,3.7036665997015555e-05
6.023641886622267e-07,6.498447860585461e-07,3.026061547550376e-07,3.6129679359977974e-05
5.99322629713285e-07,6.567036647828049e-07,3.00079309363305e-07,3.5219291132684925e-05
5.96244592454796e-07,6.631860802748337e-07,2.975169375645481e-07,3.431106845413193e-05
5.931505404013216e-07,6.692551411420057e-07,2.949344524505396e-07,3.3410754983400816e-05
5.900594873482146e-07,6.748758493920704e-07,2.923472338346521e-07,3.252410683555342e-05
5.869913366806753e-07,6.800153775220677e-07,2.897688098016068e-07,3.1656671046090504e-05
5.839704985884011e-07,6.846433581893846e-07,2.872095972317781e-07,3.0813615435693216e-05
5.810242761949006e-07,6.887323149639607e-07,2.846770072154932e-07,2.9999639959341052e-05
5.78176804746925e-07,6.922574466121014e-07,2.8217592828555286e-07,2.9218943648829762e-05
5.754454660621567e-07,6.951956472438335e-07,2.7970886740972786e-07,2.8475205702738647e-05
5.728416477325583e-07,6.975252992213648e-07,2.7727618875252683e-07,2.777157154196489e-05
5.703720480063954e-07,6.992269155315004e-07,2.748769159725863e-07,2.711063431624828e-05
5.680388747714885e-07,7.002835743875015e-07,2.725099872180793e-07,2.6494390129616398e-05
5.658410054454709e-07,7.006821383990075e-07,2.701757484924927e-07,2.5924191497232345e-05
5.637771565747436e-07,7.0041593768194e-07,2.67876447722643e-07,2.5400737139448762e-05
5.618479757367876e-07,6.994877526034182e-07,2.656148360822356e-07,2.4924088438200672e-05
5.60054451434856e-07,6.979111312241276e-07,2.6339258796571877e-07,2.449370810827786e-05
5.583947998191676e-07,6.957077469279572e-07,2.612100065346954e-07,2.410855072813848e-05
5.568626281885085e-07,6.929027231886481e-07,2.5906665223320647e-07,2.3767209213603555e-05
5.554471997223985e-07,6.895240827118409e-07,2.569626337894842e-07,2.346807418024029e-05
5.541357568667627e-07,6.856076841452652e-07,2.549000724015861e-07,2.3209460716926927e-05
5.529165275248981e-07,6.81201434577637e-07,2.5288325194353855e-07,2.2989679281924986e-05
5.5177993168598e-07,6.763644888426934e-07,2.509173274202233e-07,2.2807040756275755e-05
5.507170057244559e-07,6.711652174235682e-07,2.490078613713903e-07,2.2659803903315845e-05
5.49717370005421e-07,6.65681183589014e-07,2.471621731491692e-07,2.254609212386046e-05
5.487690678175629e-07,6.599973414491873e-07,2.453905659303853e-07,2.2463813571629612e-05
5.478598551194947e-07,6.541992023697804e-07,2.437054750616919e-07,2.241063452336233e-05
5.469784241252163e-07,6.483647512884493e-07,2.421198905728144e-07,2.238405778621546e-05
5.461139324089128e-07,6.42560633962737e-07,2.406478460402892e-07,2.238156806202281e-05
5.452545037189237e-07,6.368428630194531e-07,2.3930554807964877e-07,2.2400715519197368e-05
5.443878127104761e-07,6.312589401401539e-07,2.3811036840690475e-07,2.2439094149417493e-05
5.435038156597232e-07,6.258499537079444e-07,2.3707891615881943e-07,2.2494292907882707e-05
5.425963376543621e-07,6.206528573674029e-07,2.362260749682002e-07,2.2563875232755107e-05
5.416620961975413e-07,6.157033488501327e-07,2.355652827113368e-07,2.264537917445759e-05
5.406987792529368e-07,6.110390109429982e-07,2.3511032830270585e-07,2.2736320454384854e-05
5.397037702654501e-07,6.066988673029736e-07,2.348781318215881e-07,2.2834205633670097e-05
5.386749217867307e-07,6.02717666193295e-07,2.348899428240807e-07,2.293656917063068e-05
5.376140911233271e-07,5.991212763100385e-07,2.351684186827832e-07,2.3041039208575624e-05
5.36528983665441e-07,5.959275463073703e-07,2.357321080487647e-07,2.314544088448685e-05
5.354290875922698e-07,5.931503542635478e-07,2.3659193252563519e-07,2.3247932430308413e-05
5.343199002020424e-07,5.908037543173707e-07,2.3775168221823286e-07,2.3347143396176042e-05
5.332009666900575e-07,5.889027713830813e-07,2.392104592954036e-07,2.344223212239982e-05
5.320680016268022e-07,5.874596992932464e-07,2.409638701915491e-07,2.353277311895407e-05
5.309172790255558e-07,5.864798641500508e-07,2.430034883527389e-07,2.3618524109712945e-05
5.297493758187703e-07,5.859609160788686e-07,2.4531716356207233e-07,2.3699228984782397e-05
5.285692559281331e-07,5.858952166936628e-07,2.4789057354835546e-07,2.377455287351517e-05
5.273831112292524e-07,5.862729279900021e-07,2.507080525603744e-07,2.3844118596186075e-05
5.261948340820729e-07,5.870856070145975e-07,2.537533521162603e-07,2.3907541038282918e-05
5.250042029076489e-07,5.883297109072442e-07,2.57010925414541e-07,2.396440341902568e-05
5.238068550327159e-07,5.900079242120746e-07,2.6046555371372443e-07,2.401425504174699e-05
5.225946546982257e-07,5.921285151372256e-07,2.6410133637210715e-07,2.4056784501929542e-05
5.213560152518297e-07,5.947026349719684e-07,2.679041405604712e-07,2.409211866526493e-05
5.200769820304926e-07,5.97738649126846e-07,2.718659170787569e-07,2.4120960259855043e-05
5.187426017751834e-07,6.01237559615534e-07,2.759846946624048e-07,2.4144455131845668e-05
5.17337765143793e-07,6.051939493433488e-07,2.802595132364927e-07,2.416394113841287e-05
5.158488833198632e-07,6.095988282925334e-07,2.8468549346367695e-07,2.418071383490653e-05
5.142674849710453e-07,6.14439906015066e-07,2.892527690622834e-07,2.4195934784239155e-05
5.125930459498907e-07,6.197025907684763e-07,2.939491241047792e-07,2.421080081794797e-05
5.108321856111193e-07,6.253735243498806e-07,2.9876322159890496e-07,2.4226821061548176e-05
5.089971110755725e-07,6.314412110462789e-07,3.036850338120277e-07,2.424588991844016e-05
5.071066957417524e-07,6.378924057321943e-07,3.087040426717088e-07,2.4270135254120125e-05
5.051872332448476e-07,6.447091895132171e-07,3.1380840749448123e-07,2.430174306269625e-05
5.032703652929064e-07,6.51867835155679e-07,3.189870285022139e-07,2.4342843473744397e-05
5.013902828845905e-07,6.593371323194178e-07,3.2423287175887013e-07,2.4395427124140726e-05
4.995810252370651e-07,6.670767065596515e-07,3.295428327670671e-07,2.446124997102932e-05
4.978733259729999e-07,6.750370463855744e-07,3.349130936503809e-07,2.4541718274410027e-05
4.962925973429472e-07,6.831610207634003e-07,3.403349129452531e-07,2.46378055846978e-05
4.948588421669539e-07,6.913859337267773e-07,3.457945493426277e-07,2.475005358045939e-05
4.935867391427669e-07,6.996462540422667e-07,3.51275630240493e-07,2.487861821270145e-05
4.924853598041792e-07,7.078788717023002e-07,3.5676040237645347e-07,2.502327900945402e-05
4.915581775254121e-07,7.16029727458976e-07,3.622291353900506e-07,2.5183403508541856e-05
4.90803424363269e-07,7.24055238211111e-07,3.676598216086585e-07,2.5357917863818626e-05
4.902147296967103e-07,7.319166859377312e-07,3.730293348122981e-07,2.5545319878961803e-05
4.89781383855716e-07,7.395757900997526e-07,3.783144970170869e-07,2.574375607135917e-05
4.894884697287753e-07,7.46997791924441e-07,3.834919761280697e-07,2.595117428981344e-05
4.893190148253276e-07,7.541568402306288e-07,3.885382527058288e-07,2.6165511281807627e-05
4.892581686485579e-07,7.61036205488424e-07,3.934309469422993e-07,2.638483991365081e-05
4.892953954286954e-07,7.676239609019423e-07,3.9815202088164046e-07,2.6607447979598253e-05
4.894226347159764e-07,7.739090785937976e-07,4.0269099249381387e-07,2.6831858132186262e-05
4.896322424864299e-07,7.798813477422443e-07,4.0704400659186173e-07,2.705680152339751e-05
4.899175115255432e-07,7.855329104383106e-07,4.112097056487968e-07,2.7281176558798576e-05
4.902728846760226e-07,7.90856979799848e-07,4.151875709723901e-07,2.7504001093130604e-05
4.906916741494027e-07,7.958454538035293e-07,4.1897949309238723e-07,2.7724325908243102e-05
4.91163604549049e-07,8.004884672640199e-07,4.225905958856255e-07,2.7941126742143834e-05
4.916749715965911e-07,8.047747083881823e-07,4.2602718267210604e-07,2.8153268059054852e-05
4.922120674456102e-07,8.08691276105492e-07,4.292934966086454e-07,2.8359563971073896e-05
4.927658289944185e-07,8.12224506726762e-07,4.323903019231119e-07,2.8558843969514165e-05
4.933332903376666e-07,8.153625557065669e-07,4.35315231897429e-07,2.874997037590927e-05
4.939143646840325e-07,8.180962742473166e-07,4.3806289172074843e-07,2.893183708717171e-05
4.945086205903663e-07,8.204170413113678e-07,4.406248089674697e-07,2.9103368895671618e-05
4.951158321680996e-07,8.223158139692043e-07,4.429900285349738e-07,2.926349952187483e-05
4.957392045734914e-07,8.237847331617959e-07,4.451458947045842e-07,2.9411117299666332e-05
4.963901465514725e-07,8.248184461430589e-07,4.4707849307323456e-07,2.9545026662881652e-05
4.970917467435617e-07,8.254143406297117e-07,4.4877285341102685e-07,2.9663977695406243e-05
4.97875809032181e-07,8.255720468676827e-07,4.5021325586052153e-07,2.976675330984023e-05
4.987762215301961e-07,8.25291773474206e-07,4.5138425354183224e-07,2.985227908156223e-05
4.998254689012458e-07,8.245725837217663e-07,4.52272462969931e-07,2.991975140998282e-05
5.010533810383035e-07,8.234122332351814e-07,4.5286755224991465e-07,2.996875093892209e-05
5.024860283274225e-07,8.218086451394367e-07,4.5316142058117025e-07,2.999924007907625e-05
5.041454893195474e-07,8.197617913893011e-07,4.5314663675618896e-07,3.0011412458903838e-05
5.060488052274953e-07,8.172739953307455e-07,4.528153370651533e-07,3.0005514174184425e-05
5.082057242234199e-07,8.143485037165585e-07,4.5215970242392207e-07,2.998177267199251e-05
5.106175437244821e-07,8.109884316543252e-07,4.511748503126385e-07,2.994043835096676e-05
5.13277254208204e-07,8.071973778561374e-07,4.498616457927485e-07,2.9881848346691883e-05
5.161702827040335e-07,8.029811828986348e-07,4.4822592088856457e-07,2.9806432084091883e-05
5.192761673252469e-07,7.983492056850352e-07,4.4627537553381673e-07,2.9714663938680822e-05
5.225704471411714e-07,7.933135531994834e-07,4.4401757135593347e-07,2.9607100877248645e-05
5.260253767372157e-07,7.878867141229717e-07,4.4145955656862117e-07,2.9484575535982368e-05
5.296102725108228e-07,7.82079847587899e-07,4.3860855257046787e-07,2.9348347443414308e-05
5.332932496613489e-07,7.759033254270895e-07,4.3547436488141277e-07,2.920003509342948e-05
5.370429981404713e-07,7.693685479340581e-07,4.3207265043039243e-07,2.9041424960687718e-05
5.408287089453248e-07,7.624885597042394e-07,4.284258208226514e-07,2.8874291110989198e-05
5.446205765370942e-07,7.552782789685873e-07,4.2456138133935143e-07,2.8700274561840294e-05
5.483932347915498e-07,7.477573222570687e-07,4.2051006082699025e-07,2.852093929529139e-05
5.521308322478208e-07,7.399542030951322e-07,4.163036760009779e-07,2.833801019910367e-05
5.558305823681716e-07,7.319081458829491e-07,4.119728066924968e-07,2.815352828467127e-05
5.595008930649195e-07,7.236677938082311e-07,4.075460682693153e-07,2.7969771584119336e-05
5.631560004449542e-07,7.152883978669273e-07,4.030505263604557e-07,2.778906603882151e-05
5.668132851672733e-07,7.068278016852841e-07,3.9851107459317476e-07,2.7613613941129436e-05
5.704921832576285e-07,6.98341922381281e-07,3.939488806511121e-07,2.744536749610783e-05
5.742106028500287e-07,6.898818142863485e-07,3.893808935262861e-07,2.728594839694577e-05
5.779800914554878e-07,6.814917943082477e-07,3.848209862265648e-07,2.713663541539121e-05
5.818025728530922e-07,6.732080293966997e-07,3.802811793323504e-07,2.699842681862603e-05
5.856698619790201e-07,6.650601044968549e-07,3.757717358695992e-07,2.687212177410915e-05
5.895660958100325e-07,6.57074742481695e-07,3.713009767906009e-07,2.675835321592593e-05
5.93472009006333e-07,6.492774513750756e-07,3.668763222365137e-07,2.6657563045485936e-05
5.973685337830033e-07,6.416925880203843e-07,3.625071400735497e-07,2.6569967498764974e-05
6.01238026543193e-07,6.343437568051362e-07,3.582072711083761e-07,2.6495546093622172e-05
6.050638378382036e-07,6.272530680473768e-07,3.5399391260860314e-07,2.6434027452631878e-05
6.088294606734239e-07,6.204395954381226e-07,3.4988421749224145e-07,2.638486180123901e-05
6.125196814359153e-07,6.139205369764754e-07,3.458933551806877e-07,2.634723999357368e-05
6.161253260691271e-07,6.07718084538091e-07,3.420344397670784e-07,2.6320183608544088e-05
6.196470102648474e-07,6.018687762126985e-07,3.3831895780279787e-07,2.630265085957917e-05
6.230926229671818e-07,5.964257284896263e-07,3.3475702803999015e-07,2.629362607957315e-05
6.264712393151722e-07,5.914502210418024e-07,3.3135737014266445e-07,2.6292194663286177e-05
6.297901577104025e-07,5.869991117995551e-07,3.281266304091506e-07,2.629758148840126e-05
6.330558944780281e-07,5.831164142899077e-07,3.25068623859188e-07,2.630913468955127e-05
6.362745326737382e-07,5.798331226557945e-07,3.2218466639008157e-07,2.632626538966022e-05
6.394503340145451e-07,5.77170911871269e-07,3.194742364046159e-07,2.6348354618825985e-05
6.425848968512455e-07,5.751427667481191e-07,3.169348826683424e-07,2.637465435258036e-05
6.456770392473941e-07,5.73751842135601e-07,3.145619415868107e-07,2.640425573550796e-05
6.487242380269179e-07,5.729928636499345e-07,3.123488480127454e-07,2.6436154852275048e-05
6.517275897715994e-07,5.728543734098651e-07,3.1028787039876015e-07,2.646933642446389e-05
6.546970837008865e-07,5.733190387577812e-07,3.0837066969709524e-07,2.6502805838133745e-05
6.576508445615163e-07,5.743629224547879e-07,3.0658864884226777e-07,2.653558813186089e-05
6.606090203863042e-07,5.759553667960847e-07,3.0493330624293397e-07,2.656672950771738e-05
6.63590266829013e-07,5.7805957599082e-07,3.033961830265043e-07,2.659529028903331e-05
6.666128832124856e-07,5.80633645554835e-07,3.019679008731277e-07,2.662029541228509e-05
6.69694486029346e-07,5.836335721250311e-07,3.006373775175789e-07,2.664066931285029e-05
6.728492702447473e-07,5.870181116562158e-07,2.993927127571733e-07,2.6655228449212047e-05
6.760869197769848e-07,5.907511150612223e-07,2.982222888220972e-07,2.666274842270841e-05
6.794122675522531e-07,5.947989819224064e-07,2.9711447731441125e-07,2.666207205069994e-05
6.828230158205832e-07,5.991271889311543e-07,2.960576346916713e-07,2.665224952950397e-05
6.863071172798789e-07,6.037011893967321e-07,2.9504145422917965e-07,2.663270195949253e-05
6.898425085989909e-07,6.084898372769072e-07,2.9405826144307517e-07,2.660332956591811e-05
6.93398910837549e-07,6.13464399506808e-07,2.9310294060518664e-07,2.6564476692129385e-05
6.969398015530797e-07,6.185935224038181e-07,2.921719819875141e-07,2.651675081379111e-05
7.004240057837476e-07,6.238409086614621e-07,2.912634636360779e-07,2.646077219220781e-05
7.038073607870409e-07,6.291674492222281e-07,2.903779506814645e-07,2.6396971174757848e-05
7.070440663274145e-07,6.345349480699564e-07,2.8951810331113025e-07,2.632551086005775e-05
7.100875356266927e-07,6.399092626330132e-07,2.886867230833786e-07,2.6246310875977327e-05
7.128912405647089e-07,6.452615887648486e-07,2.878855747269131e-07,2.615913166429947e-05
7.154094350844141e-07,6.505683087764429e-07,2.871156454309743e-07,2.6063764853507627e-05
7.175981149703789e-07,6.558104084356099e-07,2.863772228238401e-07,2.5960320004288352e-05
7.194167869191184e-07,6.609708405087757e-07,2.8566939530384953e-07,2.584939370069401e-05
7.20830146630232e-07,6.660297758254671e-07,2.84990079671158e-07,2.5731970254170174e-05
7.218081072128148e-07,6.709620442962387e-07,2.843372773044129e-07,2.5609191741016664e-05
7.223238452712685e-07,6.757380841412057e-07,2.837106611792124e-07,2.5482165988897917e-05
7.223520198781818e-07,6.803258301730686e-07,2.8311241988579305e-07,2.535187619075321e-05
7.218693668865978e-07,6.846935924432579e-07,2.825481810886537e-07,2.5219308146810752e-05
7.208565959961434e-07,6.888148523597008e-07,2.820275839428609e-07,2.508578040023565e-05
7.192990814540855e-07,6.926724991197361e-07,2.815623640846136e-07,2.4953160024257466e-05
7.17186302289578e-07,6.962589579240235e-07,2.8116321937709657e-07,2.482377071322441e-05
7.145123646223533e-07,6.995718519026565e-07,2.80838171740913e-07,2.470015703439157e-05
7.112775794689056e-07,7.026092742189623e-07,2.8059207062819605e-07,2.458488658068424e-05
7.07487764450434e-07,7.053684361720606e-07,2.8042654051969037e-07,2.4480405566405003e-05
7.031511990375731e-07,7.078458981444612e-07,2.8034079001857966e-07,2.438891906658025e-05
6.982771510342644e-07,7.100366433300208e-07,2.803330255997521e-07,2.4312302020410817e-05
6.928772565958201e-07,7.119335203249195e-07,2.804021776111063e-07,2.4252053052862007e-05
6.86968080742257e-07,7.135281375010522e-07,2.805494982093987e-07,2.420927057555819e-05
6.805729760856584e-07,7.148126196320719e-07,2.8077915864714907e-07,2.418461105254869e-05
6.737217054790691e-07,7.157836704524112e-07,2.8109756012724837e-07,2.4178237836497825e-05
6.664478427433263e-07,7.164480349421091e-07,2.815115195783565e-07,2.418982834960653e-05
6.587853051389015e-07,7.168233207949862e-07,2.8202620993021603e-07,2.421865597863365e-05
6.507659218223414e-07,7.169315352236942e-07,2.8264407066374146e-07,2.426368993126349e-05
6.424201774626921e-07,7.167923748448036e-07,2.833644260736673e-07,2.432370238433616e-05
6.337808664953688e-07,7.164249986438533e-07,2.841833300451423e-07,2.439741245107056e-05
6.248852272210416e-07,7.158566937146237e-07,2.850947165436908e-07,2.44836221356978e-05
6.157728563880031e-07,7.151281975868935e-07,2.860924741821883e-07,2.458126606286927e-05
6.064837346959693e-07,7.142896288524877e-07,2.871708886185741e-07,2.4689390218436936e-05
5.970600727144367e-07,7.133913413000819e-07,2.883240506161428e-07,2.4807130613355318e-05
5.8754813864862e-07,7.124765707847125e-07,2.895472249963825e-07,2.493370575786185e-05
5.77996217385194e-07,7.115778237921496e-07,2.908385553481348e-07,2.5068392190507488e-05
5.684508316485168e-07,7.107163883369895e-07,2.92197378329545e-07,2.5210476744061296e-05
5.589542366808535e-07,7.099036024064086e-07,2.9362080180698565e-07,2.5359203213666244e-05
5.495434050413811e-07,7.091419871229879e-07,2.951030501121881e-07,2.551372615309733e-05
5.402499439829214e-07,7.084259228170203e-07,2.966382450865504e-07,2.5673110444028024e-05
5.311010558731796e-07,7.077427752694079e-07,2.982226581505925e-07,2.583640841223569e-05
5.221211921096493e-07,7.070755520045681e-07,2.998534797885349e-07,2.6002748526363423e-05
5.133338530960031e-07,7.064067551620812e-07,3.0152630026315143e-07,2.617136684626134e-05
5.047630680283591e-07,7.05720325567282e-07,3.0323426805847605e-07,2.634160978346153e-05
4.964335364709074e-07,7.05000377662455e-07,3.049684065264379e-07,2.6512949921021186e-05
4.883708024592105e-07,7.042296569324173e-07,3.0671773202093173e-07,2.668500383597168e-05
4.806030773932003e-07,7.033900874797717e-07,3.084694911817318e-07,2.6857497935805544e-05
4.7316157634714786e-07,7.024657147569076e-07,3.1020963522197925e-07,2.7030159349450502e-05
4.660771756077938e-07,7.014458828272584e-07,3.11922733581903e-07,2.7202591200478768e-05
4.5937619659522275e-07,7.003241120020029e-07,3.135915405417881e-07,2.737419776747916e-05
4.530785709422676e-07,6.990930707689598e-07,3.151973460903777e-07,2.754420497607434e-05
4.471996992032872e-07,6.977411753887533e-07,3.167217491322761e-07,2.7711785960587804e-05
4.417547039030122e-07,6.962522874237298e-07,3.1814924503051906e-07,2.787619127647144e-05
4.3676088394589856e-07,6.946066083868039e-07,3.194685484174633e-07,2.803676966899541e-05
4.3223512108572005e-07,6.927824814492397e-07,3.2067174557805097e-07,2.8192879698184364e-05
4.281887187085353e-07,6.907581494361638e-07,3.217539914711942e-07,2.8343779451196284e-05
4.246250584538606e-07,6.885120982646264e-07,3.2271533753780175e-07,2.8488596980109632e-05
4.2154100212117096e-07,6.860231401840554e-07,3.2356149896414404e-07,2.8626390156006268e-05
4.1892862934534995e-07,6.832711271308469e-07,3.243018390004877e-07,2.875620463960741e-05
4.167754410838538e-07,6.802377569565303e-07,3.249473449897816e-07,2.887707742879239e-05
4.150644188175114e-07,6.769075705829053e-07,3.255098006013684e-07,2.898802287658495e-05
4.137751120848562e-07,6.732683562932544e-07,3.260011359165145e-07,2.9088126172065698e-05
4.128861324953258e-07,6.693105304682486e-07,3.264333604167597e-07,2.917682811020788e-05
4.123785709424665e-07,6.650270820052285e-07,3.268185090308184e-07,2.9254204114515368e-05
4.12236615737654e-07,6.604140465685743e-07,3.271672955552896e-07,2.9320969917922223e-05
4.1244514163813146e-07,6.554701284976789e-07,3.2748814240280235e-07,2.9378245401324694e-05
4.129899282951149e-07,6.501958153336076e-07,3.277879171354878e-07,2.9427267840919048e-05
4.138598731716515e-07,6.445934724311013e-07,3.2807258633144257e-07,2.946922663496736e-05
4.150452891056594e-07,6.386696466341759e-07,3.283473756328224e-07,2.9505308416157972e-05
4.1653345594601957e-07,6.324396792752929e-07,3.286182081711811e-07,2.953681187203427e-05
4.1830651282576754e-07,6.259317364641869e-07,3.288930642491588e-07,2.956514949201568e-05
4.2034209003114633e-07,6.191857440043285e-07,3.291803699356811e-07,2.9591751060290795e-05
4.226149276049451e-07,6.12247511664376e-07,3.2948594176067853e-07,2.9617947528316664e-05
4.2509898628431994e-07,6.051626851829304e-07,3.2981191693739874e-07,2.9644868703572258e-05
4.277687350959801e-07,5.979736398681444e-07,3.3015810288514105e-07,2.967336803182661e-05
4.305987004095504e-07,5.90719366867574e-07,3.3052369538195297e-07,2.970397128446793e-05
4.3356294879543363e-07,5.834355589513382e-07,3.309078302976783e-07,2.973685308402837e-05
4.366350164367114e-07,5.761536838716819e-07,3.313094957040281e-07,2.977185599250929e-05
4.397873358387876e-07,5.689011968702858e-07,3.317274135479772e-07,2.980854719241932e-05
4.4299177801037463e-07,5.617025491436596e-07,3.321593864768197e-07,2.9846279160029774e-05
4.462219135737428e-07,5.545795822290626e-07,3.326012570647353e-07,2.9884213382369842e-05
4.4945338089323777e-07,5.475528953548569e-07,3.330469753137577e-07,2.992131102867999e-05
4.526615697712813e-07,5.406446366161261e-07,3.3349076196003197e-07,2.9956346878112896e-05
4.558208005746044e-07,5.338797694613661e-07,3.339296876860775e-07,2.9987984316411622e-05
4.589058094107632e-07,5.272837632955574e-07,3.34363984814532e-07,3.0014889421414405e-05
4.618920815181369e-07,5.20880643885917e-07,3.347952225949417e-07,3.0035819247049902e-05
4.647548375228021e-07,5.146975517225219e-07,3.352243967104139e-07,3.0049636009661664e-05
4.674700394378839e-07,5.087717664394517e-07,3.356505074781573e-07,3.005528079802151e-05
4.7001770454693357e-07,5.031500228634969e-07,3.3606930462615326e-07,3.0051778069970782e-05
4.7238337775219476e-07,4.978814188021099e-07,3.36473079092737e-07,3.003828162264676e-05
4.745561780801506e-07,4.930125827989796e-07,3.3685209216948147e-07,3.001410814855353e-05
4.7652654156639674e-07,4.885867484701134e-07,3.371959366571025e-07,2.997871906316161e-05
4.782852937708348e-07,4.846428872898189e-07,3.3749356511994765e-07,2.9931674062601958e-05
4.798235260740901e-07,4.812125914227593e-07,3.377331777952252e-07,2.987258534071792e-05
4.811333516363471e-07,4.783169049252878e-07,3.379028125012085e-07,2.9801076608539728e-05
4.82208943157418e-07,4.759660781332948e-07,3.379917220954125e-07,2.9716790596763316e-05
4.830471198808469e-07,4.7416092969019727e-07,3.3799308077937066e-07,2.9619470571030383e-05
4.836480819475747e-07,4.7289416712790136e-07,3.3790668163942265e-07,2.9509032833877515e-05
4.840158690077216e-07,4.721521364187865e-07,3.3773901707850554e-07,2.9385566583089057e-05
4.841572483328135e-07,4.719160420670427e-07,3.375009137435806e-07,2.9249283063229906e-05
4.84080598229733e-07,4.721617174657305e-07,3.3720438516926265e-07,2.910042601947304e-05
4.837972078958412e-07,4.728595065152532e-07,3.368597223709773e-07,2.8939191689920476e-05
4.833235701039643e-07,4.7397623723477505e-07,3.364742550500135e-07,2.876573107566513e-05
4.826816515517605e-07,4.754785891830367e-07,3.360527537476501e-07,2.8580179301386358e-05
4.818968250770171e-07,4.773342662551431e-07,3.355977153178077e-07,2.838263394636433e-05
4.809948198688422e-07,4.79510034014246e-07,3.351093172136389e-07,2.8173147080634204e-05
4.799988830953079e-07,4.8197077174778e-07,3.3458596381965944e-07,2.795181543476109e-05
4.789284296534303e-07,4.846829426943315e-07,3.3402513137677423e-07,2.7718941702529088e-05
4.77799235237146e-07,4.87620403802278e-07,3.334237021987162e-07,2.7475183984985118e-05
4.766241550524806e-07,4.907664840840502e-07,3.327785124337057e-07,2.722162031079993e-05
4.7541508687173594e-07,4.941096265887235e-07,3.320877081600667e-07,2.695967997261574e-05
4.7418603663217325e-07,4.976377076928447e-07,3.313517219998208e-07,2.669095114389905e-05
4.7295355562779095e-07,5.013362338707154e-07,3.3057323378612964e-07,2.6416951671321465e-05
4.7173315623201065e-07,5.051893362475477e-07,3.297559822098264e-07,2.6138975693652702e-05
4.705353945241332e-07,5.091810026860547e-07,3.28902818718206e-07,2.5858053897964896e-05
4.693646921513074e-07,5.132956017826232e-07,3.280154733683953e-07,2.557497028798001e-05
4.6822051175370066e-07,5.175175123978522e-07,3.27096230355934e-07,2.5290301605864568e-05
4.670997084758954e-07,5.218299959339467e-07,3.261484435573649e-07,2.5004554997266917e-05
4.6599962367354257e-07,5.262131704601914e-07,3.251755940726766e-07,2.471845469098065e-05
4.6492041857374173e-07,5.306424993593643e-07,3.241804234849578e-07,2.443320133254054e-05
4.6386452241542293e-07,5.35089513983427e-07,3.23164277205308e-07,2.415047268294017e-05
4.628337427757682e-07,5.395237475206828e-07,3.221269292242797e-07,2.3872208614560706e-05
4.618266707039769e-07,5.439147491164887e-07,3.2106714122942354e-07,2.360036114186785e-05
4.608381569452422e-07,5.482339525385502e-07,3.199837009453622e-07,2.333670400749142e-05
4.598610972543458e-07,5.524554959839754e-07,3.188758796511059e-07,2.308282269210913e-05
4.588890758785671e-07,5.565560164877505e-07,3.1774284379829867e-07,2.2840345076639465e-05
4.579191636167196e-07,5.605142010947538e-07,3.1658427639018826e-07,2.2611191384883772e-05
4.5695795645852824e-07,5.643101833876628e-07,3.1540239961195325e-07,2.2397612897906962e-05
4.5602995410652216e-07,5.679248357629306e-07,3.1420215887510557e-07,2.220208288738465e-05
4.551785511793165e-07,5.713387006127054e-07,3.1298932960222184e-07,2.202719424725103e-05
4.5445663419927596e-07,5.745306754675686e-07,3.1176929736752647e-07,2.187559546992097e-05
4.5391698590646364e-07,5.774773443382861e-07,3.1054693041046657e-07,2.1749928250745933e-05
4.5360853290027714e-07,5.801532713084136e-07,3.093262389206275e-07,2.165273884988587e-05
4.53574056201221e-07,5.825323290656636e-07,3.081103076995116e-07,2.1586368460282128e-05
4.5384707121812895e-07,5.845895430463861e-07,3.069025105842045e-07,2.155284808940058e-05
4.54451488630056e-07,5.86301842187511e-07,3.057081774312229e-07,2.155380385448349e-05
4.5540438050401994e-07,5.876487693279865e-07,3.045346180252348e-07,2.1590352056646688e-05
4.567174188526886e-07,5.886170623251678e-07,3.033890977367022e-07,2.1662982778864986e-05
4.583965544225878e-07,5.892062005522026e-07,3.0227701865945354e-07,2.1771476103388903e-05
4.604419314570377e-07,5.894264520592711e-07,3.012017426164938e-07,2.191490354400064e-05
4.6284720134042747e-07,5.892917120930239e-07,3.0016585392395356e-07,2.2091735237254403e-05
4.6559911220709135e-07,5.888177622992953e-07,2.9917307030407055e-07,2.2300024046323174e-05
4.6867902920825603e-07,5.880278268533757e-07,2.982288571523723e-07,2.2537599183132565e-05
4.720658725694919e-07,5.86957928283462e-07,2.9733911719675105e-07,2.2802215504253863e-05
4.7574149251359817e-07,5.856558066997578e-07,2.965089668688152e-07,2.3091662316391706e-05
4.796973681801746e-07,5.841754568602387e-07,2.957423616331524e-07,2.340386243991617e-05
4.839367307534939e-07,5.825734990224464e-07,2.9504141577804013e-07,2.373694590368103e-05
4.884698386506039e-07,5.809073227116164e-07,2.9440573989730737e-07,2.4089251872372245e-05
4.933060751728475e-07,5.792312793208252e-07,2.9383281625367157e-07,2.4459258839342386e-05
4.984474879976734e-07,5.7759207736914e-07,2.933189828927063e-07,2.4845473166123748e-05
5.038861927760075e-07,5.760264813970527e-07,2.92860372217454e-07,2.524629247498103e-05
5.096047413463414e-07,5.74561300530118e-07,2.924531304396037e-07,2.5659889740443952e-05
5.155779837850755e-07,5.732144021835102e-07,2.9209324204084877e-07,2.6084191583961826e-05
5.217755378660378e-07,5.719961386852563e-07,2.917783024792912e-07,2.651694586869675e-05
5.281633085774403e-07,5.709104169162923e-07,2.915103112586165e-07,2.695580039311585e-05
5.347037452123163e-07,5.69955775507149e-07,2.9129487213894485e-07,2.7398356222151112e-05
5.413556083890814e-07,5.691286753778019e-07,2.9113731870638965e-07,2.7842208447994568e-05
5.48073680957931e-07,5.684285640142307e-07,2.9104088198962217e-07,2.828497874120844e-05
5.548098816696399e-07,5.678602085638341e-07,2.910073390795484e-07,2.8724313425168873e-05
5.615174607094236e-07,5.674312233309948e-07,2.91037418813902e-07,2.9157835380335865e-05
5.681563571754453e-07,5.671480505607252e-07,2.911309032616795e-07,2.9583099382997652e-05
5.746946590020067e-07,5.670148032996598e-07,2.9128649238098694e-07,2.9997597264669672e-05
5.811056120501907e-07,5.670359033041661e-07,2.9150106121309826e-07,3.0398826259629878e-05
5.873656314792636e-07,5.672185076581624e-07,2.9176973386808855e-07,3.0784435527056e-05
5.934558565179955e-07,5.67571468222201e-07,2.920876975911705e-07,3.115242967462099e-05
5.993629301411935e-07,5.681029465078058e-07,2.9245225852974106e-07,3.1501331740830656e-05
6.05075476370276e-07,5.688193798606482e-07,2.92862689193364e-07,3.1830179451164125e-05
6.1058003933522e-07,5.697257374183922e-07,2.9331811701918533e-07,3.2138324771320944e-05
6.158602944595046e-07,5.708266624521828e-07,2.938166905386424e-07,3.2425163762009875e-05
6.208974697435006e-07,5.721278287733135e-07,2.9435657909849127e-07,3.2689966811437113e-05
6.256710328766046e-07,5.736366436778557e-07,2.949362416777535e-07,3.2931869992343846e-05
6.301614821808016e-07,5.753624013496657e-07,2.955534982419251e-07,3.3149965396469184e-05
6.343529191271862e-07,5.773147255456197e-07,2.962046978993814e-07,3.3343393875292607e-05
6.38231835266159e-07,5.794994535193958e-07,2.9688438053153875e-07,3.351139889377942e-05
6.417845077672202e-07,5.819152466341213e-07,2.975854520911937e-07,3.3653403404766675e-05
6.449963746293408e-07,5.845538085046432e-07,2.9830036053332805e-07,3.376912626421883e-05
6.478533872392965e-07,5.874011806302803e-07,2.99023361648875e-07,3.385860162758759e-05
6.503446306907896e-07,5.904376921918137e-07,2.997518608158942e-07,3.392204672363594e-05
6.524635470000397e-07,5.936388093585614e-07,3.004850130674786e-07,3.3959691687672583e-05
6.54205847395239e-07,5.969776234884332e-07,3.0122129371616146e-07,3.3971687498268435e-05
6.555674838441373e-07,6.004270690627947e-07,3.0195763095256644e-07,3.395820045405773e-05
6.565453073419771e-07,6.039613599814182e-07,3.0269038642927904e-07,3.3919717078032287e-05
6.571384963005132e-07,6.07555593582234e-07,3.034163330613317e-07,3.385733631720014e-05
6.573488952805257e-07,6.111838152430794e-07,3.0413221881278355e-07,3.3772800300969566e-05
6.571804332365575e-07,6.148183897229604e-07,3.0483383213104446e-07,3.3668306345615864e-05
6.566384808653089e-07,6.184306129411584e-07,3.055158852120604e-07,3.354628460962758e-05
6.557293987932564e-07,6.219904362413493e-07,3.061734383166352e-07,3.3409210952327036e-05
6.544603091711573e-07,6.254658753725746e-07,3.068043286145145e-07,3.3259448204296866e-05
6.528396233958193e-07,6.28824431265628e-07,3.0740999450711926e-07,3.309911441392054e-05
6.508774465744497e-07,6.32036169441599e-07,3.079933551645852e-07,3.2929977112641296e-05
6.485846003358521e-07,6.350754597646268e-07,3.0855615096871576e-07,3.2753386060273515e-05
6.459719812272131e-07,6.379209495507889e-07,3.090983053507517e-07,3.257026609454586e-05
6.430518728967244e-07,6.405574466214279e-07,3.0961879092206603e-07,3.238116725744032e-05
6.398389504015916e-07,6.429811236907065e-07,3.101167441328014e-07,3.2186345844971774e-05
6.363503281296283e-07,6.452019509933856e-07,3.105919360060033e-07,3.198584482527978e-05
6.326074492565114e-07,6.472387232492841e-07,3.11043638507584e-07,3.177955903616824e-05
6.286377091987943e-07,6.491120798629047e-07,3.114690167249012e-07,3.1567296890483394e-05
6.244715793416049e-07,6.508415848483613e-07,3.118631393773035e-07,3.134885505224339e-05
6.201380079133011e-07,6.524470893758554e-07,3.122202164107297e-07,3.112410163194308e-05
6.156630607061631e-07,6.539525135488496e-07,3.12534645840998e-07,3.089303525646524e-05
6.110719230426324e-07,6.553876516966428e-07,3.128019308250676e-07,3.0655807416163656e-05
6.063910407019024e-07,6.567856017967879e-07,3.1301928340702747e-07,3.04127425282221e-05
6.016474277379671e-07,6.581800331355246e-07,3.131854349009673e-07,3.016435933716736e-05
5.968659373425136e-07,6.59603343130878e-07,3.133003275865846e-07,2.991134884183141e-05
5.920686065042065e-07,6.610830477535339e-07,3.133647794267928e-07,2.965450902921396e-05
5.872765838245689e-07,6.626391788846963e-07,3.13379881913299e-07,2.9394670964348223e-05
5.825108846828226e-07,6.642841447509346e-07,3.133465655499018e-07,2.913261723271642e-05
5.777915469826368e-07,6.660216744247289e-07,3.1326523858880355e-07,2.8869022152922008e-05
5.73138350097106e-07,6.678454040542982e-07,3.131353399038479e-07,2.8604468504966185e-05
5.685732105861397e-07,6.69739585431564e-07,3.129551417307714e-07,2.833948500617465e-05
5.641209545824437e-07,6.716811671878147e-07,3.1272192569310107e-07,2.807451380090744e-05
5.598077975782034e-07,6.736427231556554e-07,3.124325322746265e-07,2.7809856844303413e-05
5.556593338624396e-07,6.755965316806827e-07,3.120843499788025e-07,2.7545695082936505e-05
5.516977546917916e-07,6.775172545760097e-07,3.116765376947136e-07,2.7282163299356626e-05
5.479389735143592e-07,6.793808362391643e-07,3.1121072455035444e-07,2.7019384680103242e-05
5.443922059281364e-07,6.8116372675166e-07,3.1069074261494897e-07,2.6757417947641795e-05
5.410609189815614e-07,6.828467265677724e-07,3.1012163069226066e-07,2.649617812103353e-05
5.379430386884166e-07,6.844182880608932e-07,3.0950803815894986e-07,2.623541638609433e-05
5.350317980998232e-07,6.858714259203986e-07,3.088533439000216e-07,2.5974798520024245e-05
5.323175701002617e-07,6.871978072052973e-07,3.081612745984381e-07,2.571408168892153e-05
5.297885793859913e-07,6.883842471396177e-07,3.074384489710868e-07,2.545330389281915e-05
5.274306431113971e-07,6.89412023124723e-07,3.0669439401463573e-07,2.5192845189100492e-05
5.252269547321048e-07,6.902577852953848e-07,3.059391227726408e-07,2.4933326434827435e-05
5.231578866588028e-07,6.908951342486308e-07,3.0518127524954e-07,2.467543257139726e-05
5.212030147628218e-07,6.91296675927014e-07,3.0442839869446245e-07,2.4419771522547985e-05
5.193462871959881e-07,6.914371625238523e-07,3.036890701457882e-07,2.4166848803973646e-05
5.175787481109558e-07,6.912975687580597e-07,3.0297461343685134e-07,2.391713695866988e-05
5.158953223936631e-07,6.908683189620622e-07,3.022979585732562e-07,2.367114301460937e-05
5.142910098484963e-07,6.901493250251153e-07,3.016713185213958e-07,2.3429411394381586e-05
5.12760363333845e-07,6.891467611577382e-07,3.0110626926337557e-07,2.319248193308508e-05
5.112975212654474e-07,6.878692664874754e-07,3.006155678336716e-07,2.2960912761660722e-05
5.098955822980184e-07,6.863252709962599e-07,3.002131236852169e-07,2.2735419595148708e-05
5.085465886993098e-07,6.845214821137441e-07,2.9991189676402704e-07,2.2516962752174e-05
5.072418858237539e-07,6.824627107576557e-07,2.997217759258603e-07,2.2306633077812588e-05
5.059729904929853e-07,6.80153053481038e-07,2.996487593427383e-07,2.2105453740611913e-05
5.047323829900753e-07,6.775987957687394e-07,2.9969678532151216e-07,2.191431806601874e-05
5.035123862782175e-07,6.748124997219864e-07,2.998703396474212e-07,2.1734167379976604e-05
5.023037486820057e-07,6.718153989207775e-07,3.0017399286465827e-07,2.1566250300942905e-05
5.010957988884089e-07,6.686356235798559e-07,3.006098046936884e-07,2.141217355782396e-05
4.998767426533189e-07,6.653025054563083e-07,3.0117626412369963e-07,2.127371212245393e-05
4.986338263419122e-07,6.618406717467483e-07,3.0186987582758736e-07,2.115255976375188e-05
4.973547899747398e-07,6.58268405046349e-07,3.026878482562458e-07,2.10501211410666e-05
4.960304783591086e-07,6.54599894824962e-07,3.0363004187717426e-07,2.096736768179901e-05
4.946562471860808e-07,6.508467697790551e-07,3.04699561008403e-07,2.090476757420874e-05
4.932305654497649e-07,6.47016900645511e-07,3.059024247319304e-07,2.0862285264230302e-05
4.917530600376096e-07,6.431131449301796e-07,3.0724692192818194e-07,2.083943828872084e-05
4.90224290436891e-07,6.391339388584058e-07,3.0874212623571946e-07,2.0835376987478306e-05
4.886456103759731e-07,6.350748401659561e-07,3.1039508019600016e-07,2.0848945432780296e-05
4.87018575851607e-07,6.309319954474054e-07,3.122082286513179e-07,2.087874009342689e-05
4.853464426669196e-07,6.267092834437582e-07,3.141792133369284e-07,2.092321291096332e-05
4.836363354644646e-07,6.224238469555622e-07,3.163030869252281e-07,2.0980797275842e-05
4.818980560883796e-07,6.181023540165354e-07,3.1857431211323126e-07,2.105000625443394e-05
4.801412698641056e-07,6.137718423785663e-07,3.209867052928977e-07,2.1129516324495624e-05
4.78374740507053e-07,6.094557618659337e-07,3.235327004649337e-07,2.1218246992148667e-05
4.7660717460967896e-07,6.05177334024534e-07,3.262033254973057e-07,2.1315370220587326e-05
4.748492315685499e-07,6.009639124436766e-07,3.2898908544316817e-07,2.142021281159303e-05
4.731163463111711e-07,5.968467936218104e-07,3.318809406995373e-07,2.153212675838637e-05
4.714291807574622e-07,5.928573040856345e-07,3.348695211306259e-07,2.1650410754032324e-05
4.6981037538577203e-07,5.890242337616222e-07,3.3794299225083607e-07,2.1774269578772267e-05
4.68281105354597e-07,5.853743269161573e-07,3.410868693175601e-07,2.190276156435188e-05
4.6686019639242704e-07,5.819328888150536e-07,3.4428757513627374e-07,2.2034760418345505e-05
4.6556369314948427e-07,5.787223634033811e-07,3.475363751393927e-07,2.216899767131615e-05
4.6440287761801425e-07,5.757596947606675e-07,3.5082889520611365e-07,2.2304181756625885e-05
4.633827728438963e-07,5.730547410508726e-07,3.5416139162286775e-07,2.243916200583221e-05
4.625032291977867e-07,5.706109285831428e-07,3.5752781881301094e-07,2.2573127619105468e-05
4.617619203283945e-07,5.684268646663175e-07,3.60918531452946e-07,2.2705762023760943e-05
4.6115716600679905e-07,5.664975630732507e-07,3.643207148821976e-07,2.2837240857065038e-05
4.6068864083371533e-07,5.648151246403653e-07,3.6772030238754653e-07,2.296808396538922e-05
4.6035554005526895e-07,5.633688723043693e-07,3.711027584736005e-07,2.3098965961440198e-05
4.601539326833498e-07,5.621450535445044e-07,3.7445177946901995e-07,2.323057211296073e-05
4.6007576149374324e-07,5.611265315039333e-07,3.7774866221265495e-07,2.3363539323797352e-05
4.6011045980190476e-07,5.602930639146801e-07,3.809740297143632e-07,2.3498448502893727e-05
4.6024755185337994e-07,5.596221411751035e-07,3.8411012475437653e-07,2.3635781505925945e-05
4.604774039207111e-07,5.590899372614213e-07,3.8714162889978276e-07,2.3775818626544917e-05
4.607903828393661e-07,5.586716703448967e-07,3.9005565456023437e-07,2.391853513178198e-05
4.611771528571572e-07,5.583412129335568e-07,3.928419102115201e-07,2.406356742417735e-05
4.6162927927923745e-07,5.580718629670661e-07,3.954924849914387e-07,2.4210323220889225e-05
4.6213833283009776e-07,5.578388015800811e-07,3.9800119644217247e-07,2.4358224424945912e-05
4.6269609998090276e-07,5.576203656746262e-07,4.00362547768774e-07,2.450690002600981e-05
4.632974056466775e-07,5.573964894223779e-07,4.025702414264472e-07,2.4656176874138785e-05
4.6394306654910813e-07,5.571468285911329e-07,4.046162707100442e-07,2.480591547389647e-05
4.6464135200371847e-07,5.568520336397579e-07,4.0649128372016047e-07,2.49558221066495e-05
4.6540666239642343e-07,5.564974993579538e-07,4.081856709656813e-07,2.5105338660844394e-05
4.662548671593045e-07,5.560755721817094e-07,4.096904856709037e-07,2.525363237657328e-05
4.6719820275939033e-07,5.55584001667654e-07,4.1099842230171426e-07,2.539964265402031e-05
4.6824256730540145e-07,5.550216263519539e-07,4.1210489184698895e-07,2.554220746648269e-05
4.693877582317934e-07,5.543842881930325e-07,4.1300798313173777e-07,2.568034863183556e-05
4.7062921028884095e-07,5.536636210703844e-07,4.13708067474303e-07,2.581362458084544e-05
4.719598558413805e-07,5.528480862987184e-07,4.1420819484911063e-07,2.594228391234511e-05
4.7337237717339575e-07,5.519242877019662e-07,4.1451399856973116e-07,2.606712594047198e-05
4.7485962022438687e-07,5.508794312382543e-07,4.146332377718132e-07,2.618924995485415e-05
4.764118238400818e-07,5.497073029274357e-07,4.145762994749037e-07,2.63098540321348e-05
4.780151024822511e-07,5.484147123632555e-07,4.1435634707160456e-07,2.643008576680807e-05
4.796535859440685e-07,5.470210816304561e-07,4.139879515856722e-07,2.655094920109519e-05
4.813131311282643e-07,5.455511553377817e-07,4.134857966492311e-07,2.6673320428783012e-05
4.829847193518766e-07,5.440284648822248e-07,4.128638177659817e-07,2.6798012825247988e-05
4.84664965067399e-07,5.424737419427897e-07,4.1213357015028615e-07,2.6925777780363986e-05
4.863526545994371e-07,5.409059610284597e-07,4.113031100906982e-07,2.70572587288112e-05
4.880448031959155e-07,5.393430639506712e-07,4.1037765007332833e-07,2.719296742589319e-05
4.897349596601161e-07,5.37802183956335e-07,4.093606992134968e-07,2.733328256257023e-05
4.914127411159697e-07,5.363005579613872e-07,4.082558074191593e-07,2.747843922148265e-05
4.930634169802521e-07,5.348575039663785e-07,4.0707003170388005e-07,2.762850003300088e-05
4.946683119720182e-07,5.334953538389505e-07,4.058167104432461e-07,2.7783330870838545e-05
4.962072144691046e-07,5.322372781042547e-07,4.0451507605976157e-07,2.7942606030743605e-05
4.976620405893538e-07,5.311049576238017e-07,4.0318794855064523e-07,2.8105829543001422e-05
4.990211411441094e-07,5.301214141426197e-07,4.0185842793346793e-07,2.8272332053622357e-05
5.002835596094015e-07,5.293163609352287e-07,4.005461824148953e-07,2.844123802864889e-05
5.014588092523392e-07,5.287251694430618e-07,3.992652809074114e-07,2.8611431036857216e-05
5.025613333381162e-07,5.283826672425178e-07,3.980239961777039e-07,2.87815317325952e-05
5.036064373351072e-07,5.283199362098408e-07,3.968257286072562e-07,2.8949903908653026e-05
5.046107838980337e-07,5.285630638774106e-07,3.956707204937786e-07,2.9114714677049395e-05
5.055940805155129e-07,5.291301355497155e-07,3.9455789698331494e-07,2.927404331777268e-05
5.065797452297269e-07,5.300293334688628e-07,3.9348571917169045e-07,2.9425989711129864e-05
5.075945886331199e-07,5.312608729963408e-07,3.924521634835835e-07,2.9568754133107922e-05
5.086675837576404e-07,5.328209973120997e-07,3.914549448820462e-07,2.9700705507100708e-05
5.098269598411953e-07,5.347055588295825e-07,3.9049158227676957e-07,2.9820433616294176e-05
5.110957062511104e-07,5.369116300587332e-07,3.89558269790613e-07,2.9926750285045268e-05
5.124886440888056e-07,5.394355217012416e-07,3.8864865308008206e-07,3.0018631060858422e-05
5.140134586174071e-07,5.422690794543182e-07,3.87754249260354e-07,3.0095136409105e-05
5.156736803065479e-07,5.453978062637e-07,3.8686686677500453e-07,3.015539813999985e-05
5.174697471372121e-07,5.488000885968647e-07,3.859813604067824e-07,3.0198721090236097e-05
5.193969590116468e-07,5.524464891092968e-07,3.850958768030545e-07,3.022470704121708e-05
5.21443138079942e-07,5.563002086369103e-07,3.8421029613532684e-07,3.0233278481170226e-05
5.235890285992908e-07,5.60318726569171e-07,3.8332564070448714e-07,3.0224615579057428e-05
5.25811641010946e-07,5.644562429604221e-07,3.8244347453048094e-07,3.0199089295877106e-05
5.280881953610186e-07,5.686661112294596e-07,3.815641162192458e-07,3.0157226161351988e-05
5.303977091094435e-07,5.729015365678797e-07,3.80685680763532e-07,3.0099664698226488e-05
5.327204004879461e-07,5.771152379189139e-07,3.7980478845452424e-07,3.002705666677364e-05
5.350386309679889e-07,5.812606572543651e-07,3.789170889412043e-07,2.993998416793551e-05
5.373398488213826e-07,5.852940245506346e-07,3.7801732946941993e-07,2.9838984174485863e-05
5.396168232164237e-07,5.891741411311387e-07,3.77100832734521e-07,2.972463487741347e-05
5.418641514246669e-07,5.928602148411096e-07,3.76166028260684e-07,2.9597617617215693e-05
5.440758159555014e-07,5.963107906839393e-07,3.7521556486103747e-07,2.9458716396853913e-05
5.462472130455551e-07,5.994848599456286e-07,3.742551861348556e-07,2.930875011154977e-05
5.483796806508336e-07,6.023450138467604e-07,3.7329159293499396e-07,2.9148473106196105e-05
5.504817787919932e-07,6.04860917819346e-07,3.7233100187178884e-07,2.897849183201296e-05
5.525648335049882e-07,6.070091154401432e-07,3.713790431154855e-07,2.8799213943862328e-05
5.546365859404641e-07,6.087696997876231e-07,3.704406673730602e-07,2.861083059975485e-05
5.566976851192043e-07,6.10125773562871e-07,3.695192505717914e-07,2.8413340169190996e-05
5.587429444320391e-07,6.11066770038129e-07,3.6861562660152287e-07,2.820660066690548e-05
5.607665433418362e-07,6.115900680186564e-07,3.677276444382043e-07,2.7990379773369966e-05
5.6276824314523e-07,6.116989567221847e-07,3.6685076122914993e-07,2.776442448565213e-05
5.647562105195091e-07,6.114005375508488e-07,3.6597915428756816e-07,2.7528634337696148e-05
5.667442901603096e-07,6.107044267270604e-07,3.6510619242057597e-07,2.7283287901012383e-05
5.687488876141512e-07,6.096208380980747e-07,3.642248093348653e-07,2.7029075289051708e-05
5.707903052459241e-07,6.081588562411027e-07,3.63328313864915e-07,2.676688351275192e-05
5.728929819163489e-07,6.063259908785171e-07,3.624106187523988e-07,2.649757248399349e-05
5.750794328419704e-07,6.041298401924082e-07,3.614657882788973e-07,2.6221866235859727e-05
5.773638854236065e-07,6.015819979249552e-07,3.6048818109825004e-07,2.5940311221443428e-05
5.79753207288994e-07,5.987024714374682e-07,3.59473965988352e-07,2.56532712925478e-05
5.822543502878555e-07,5.955231021385392e-07,3.584230940590824e-07,2.536095236070888e-05
5.848808386185152e-07,5.920890529849318e-07,3.5733961222286185e-07,2.506344317448823e-05
5.876521503899334e-07,5.884576286703932e-07,3.5622998999847563e-07,2.4760772585791268e-05
5.905874596583336e-07,5.846938371144829e-07,3.551010941966067e-07,2.4452982890017225e-05
5.937000270385126e-07,5.808629722808192e-07,3.539590576226028e-07,2.4140181766427938e-05
5.969960473988175e-07,5.770243227605529e-07,3.528094271176741e-07,2.3822543614829668e-05
6.004761145552818e-07,5.732297613020018e-07,3.516580176273119e-07,2.350028496415292e-05
6.041370107865667e-07,5.695245274944239e-07,3.505113389101156e-07,2.317365443912012e-05
6.079740459441253e-07,5.659464293270172e-07,3.493761277337151e-07,2.284294940911267e-05
6.11981840706178e-07,5.62524378765289e-07,3.482580395310332e-07,2.2508530949907997e-05
6.161517734583692e-07,5.592782137990314e-07,3.471598562744668e-07,2.2170802743742307e-05
6.20469650022879e-07,5.562196954344028e-07,3.460808481291689e-07,2.183016465772588e-05
6.249165187031365e-07,5.533543797815446e-07,3.450183524404975e-07,2.148697999243469e-05
6.294699706940124e-07,5.506834148240239e-07,3.439699126403501e-07,2.114156267568532e-05
6.34103768001376e-07,5.482034376397707e-07,3.4293370402470864e-07,2.079416348654663e-05
6.387883364547038e-07,5.459055584548657e-07,3.41907308061886e-07,2.0444958302564943e-05
6.434924742420589e-07,5.437756821638047e-07,3.40886763680244e-07,2.0094053423663054e-05
6.481830033800294e-07,5.417961643942819e-07,3.398668234169396e-07,1.9741509812007266e-05
6.528230601900662e-07,5.3995019435209e-07,3.388417797305437e-07,1.9387393074168896e-05
6.573724343093253e-07,5.38230766859276e-07,3.378056899386598e-07,1.9031849889103048e-05
6.617897592644951e-07,5.366485035150922e-07,3.367519673816622e-07,1.867517551353144e-05
6.660338486694212e-07,5.352305435327013e-07,3.356738521417314e-07,1.8317823674160068e-05
6.70064182403017e-07,5.340127303594946e-07,3.345656181852229e-07,1.7960348760481467e-05
6.73843098068774e-07,5.330322803242935e-07,3.3342317319768293e-07,1.7603318182911226e-05
6.773387182474553e-07,5.323242895700761e-07,3.322440261923128e-07,1.724725361831174e-05
6.80525194790731e-07,5.319211431874659e-07,3.310265618073944e-07,1.689267386426185e-05
6.833812411287928e-07,5.318510410974739e-07,3.297687374939288e-07,1.6540261857531468e-05
6.858904861778025e-07,5.32134936063292e-07,3.2846729202775505e-07,1.619101453396089e-05
6.880429894578536e-07,5.327859324554296e-07,3.271179731670221e-07,1.584620850058809e-05
6.898337592685519e-07,5.338117925245328e-07,3.257160747024325e-07,1.5507242120878603e-05
6.912583876435949e-07,5.352163575510065e-07,3.2425628712086747e-07,1.5175524108660114e-05
6.923109804459196e-07,5.369980520377171e-07,3.227321936459383e-07,1.4852472682922301e-05
6.929855367583175e-07,5.391482417917828e-07,3.211366557144964e-07,1.4539612763796771e-05
6.932767644226479e-07,5.416523132057596e-07,3.194627851590077e-07,1.4238677433745459e-05
6.931792090546823e-07,5.444927993669357e-07,3.1770419578964664e-07,1.395157239521604e-05
6.926870773227538e-07,5.476527178164258e-07,3.158548968417697e-07,1.3680203278806219e-05
6.917962115891215e-07,5.511187785301801e-07,3.139101468712882e-07,1.3426281318722252e-05
6.905075243293233e-07,5.548834832339729e-07,3.118684641030281e-07,1.3191195619048605e-05
6.888295891434991e-07,5.589442429791438e-07,3.097335331915206e-07,1.2976038563401754e-05
6.867783314036053e-07,5.632990880519468e-07,3.0751368171789324e-07,1.2781787428884712e-05
6.84373527455185e-07,5.679417581382243e-07,3.0521861460556914e-07,1.2609461278915285e-05
6.816345203739669e-07,5.728600906911999e-07,3.0285671401668405e-07,1.2460121746028195e-05
6.785778574812093e-07,5.78036920251363e-07,3.004353360922128e-07,1.2334774300432429e-05
6.752163532064653e-07,5.834503963920938e-07,2.979630074788834e-07,1.2234253574005506e-05
6.715591353463211e-07,5.890749442165215e-07,2.954513721627638e-07,1.2159156348532015e-05
6.676132835304801e-07,5.948860207619686e-07,2.929163733277523e-07,1.2109856983963311e-05
6.633849907195508e-07,6.00866690575539e-07,2.903794362510099e-07,1.208655988576176e-05
6.588788132758812e-07,6.070084729961168e-07,2.878677471699348e-07,1.2089360332403473e-05
6.540971452696923e-07,6.133040588307438e-07,2.854123497270997e-07,1.211838424292874e-05
6.490411869737254e-07,6.197405346756388e-07,2.830455717575668e-07,1.2174047735551484e-05
6.437123682032028e-07,6.263005874779643e-07,2.807991007121385e-07,1.2257266131732774e-05
6.381130713664034e-07,6.329672882590981e-07,2.7870208594434774e-07,1.2369396658931564e-05
6.322473058051875e-07,6.397246536276374e-07,2.767793628394368e-07,1.2511971793761806e-05
6.261226384411196e-07,6.465545934292991e-07,2.7505083585810184e-07,1.2686403479900525e-05
6.197512608911321e-07,6.534358613776292e-07,2.735322442141409e-07,1.2893757699891155e-05
6.131488613156739e-07,6.60346273406371e-07,2.722360528115772e-07,1.3134734669197365e-05
6.06335026847194e-07,6.67265712822621e-07,2.711710048665196e-07,1.3409851891878164e-05
5.993354902418183e-07,6.741791449821242e-07,2.703408796673459e-07,1.3719554146386573e-05
5.92181334860624e-07,6.810793772231556e-07,2.6974462294270613e-07,1.4064125671700358e-05
5.849054461576282e-07,6.879670946339453e-07,2.6937812329570906e-07,1.4443554005580732e-05
5.775402919331136e-07,6.948462679087222e-07,2.692358647085136e-07,1.4857439759032014e-05
5.701166617031347e-07,7.017171642368482e-07,2.693116012340391e-07,1.5304945243302353e-05
5.626623570531764e-07,7.085719236306034e-07,2.6959782622312736e-07,1.5784788944690664e-05
5.552027497587163e-07,7.153944145364194e-07,2.7008464422624213e-07,1.6295289518735906e-05
5.47763458668267e-07,7.221616236912775e-07,2.707602231214044e-07,1.6834434948052992e-05
5.403728685912317e-07,7.28844773493751e-07,2.7161320708800113e-07,1.739995513192504e-05
5.330626230071803e-07,7.354100747961447e-07,2.72634532624376e-07,1.798939038038707e-05
5.258664174556021e-07,7.418195055632627e-07,2.7381716536228964e-07,1.8600129474667483e-05
5.188196434701098e-07,7.48033196599802e-07,2.751551563621761e-07,1.9229390029202567e-05
5.119599205057076e-07,7.540125923013998e-07,2.766434659862229e-07,1.9874175929797453e-05
5.053251542462483e-07,7.59720919154339e-07,2.782786304436748e-07,2.053126380380355e-05
4.989501778495857e-07,7.651211928393511e-07,2.800595193707093e-07,2.119721096896779e-05
4.928667746859611e-07,7.701754011764483e-07,2.8198653156981787e-07,2.186836835727525e-05
4.871070784203507e-07,7.748477021441181e-07,2.840594152543457e-07,2.254091781959596e-05
4.817058334815549e-07,7.791124598834753e-07,2.8627635340647745e-07,2.3210941860467168e-05
4.766982652485589e-07,7.829619732263454e-07,2.8863440280551816e-07,2.3874494404045897e-05
4.721146988107279e-07,7.864060823445109e-07,2.9112910845076603e-07,2.4527641343760103e-05
4.6797612893719216e-07,7.89465140457289e-07,2.93753480978413e-07,2.5166494864677467e-05
4.6429316890705597e-07,7.921636602545167e-07,2.964979150159264e-07,2.5787282970205843e-05
4.6106801118029136e-07,7.945263908924322e-07,2.9935191749614373e-07,2.638643213432965e-05
4.5829955590740156e-07,7.965755134703652e-07,3.023076650258422e-07,2.69606229591321e-05
4.559917580922179e-07,7.983292103048786e-07,3.0536239181760757e-07,2.750684057889704e-05
4.5416086768672466e-07,7.998014451410269e-07,3.085161967367656e-07,2.8022462094096007e-05
4.5283573932612105e-07,8.01002115828276e-07,3.117674245662922e-07,2.850535530758501e-05
4.520536857535036e-07,8.019375493233048e-07,3.151098229978354e-07,2.895390879219021e-05
4.5185788479928493e-07,8.026114178247951e-07,3.185319535374149e-07,2.936696065319796e-05
4.522931752654082e-07,8.030256202771573e-07,3.220178535548377e-07,2.9743653718167248e-05
4.5339694398373395e-07,8.031807355054171e-07,3.255488171022904e-07,3.0083273710815602e-05
4.551913952684864e-07,8.030767231087573e-07,3.2910513515880454e-07,3.0385162977546668e-05
4.5768175301941575e-07,8.027153528158784e-07,3.326661643547769e-07,3.064875461271036e-05
4.6085790681403523e-07,8.021028692767364e-07,3.3620974726692015e-07,3.0873672394928026e-05
4.646969396762455e-07,8.012491816564127e-07,3.3971291233823036e-07,3.1059862705466494e-05
4.69165504964519e-07,8.001637648150652e-07,3.4315318334507943e-07,3.120777424044403e-05
4.742211780810334e-07,7.988521852486549e-07,3.465091052665888e-07,3.1318510768805405e-05
4.798129837376484e-07,7.973167653641491e-07,3.4975995454358156e-07,3.139382213698173e-05
4.85882376195459e-07,7.955611193374319e-07,3.5288517412607577e-07,3.1435943478007376e-05
4.92365907168916e-07,7.935932824069496e-07,3.558647113030801e-07,3.144740991123731e-05
4.991997357356141e-07,7.914245640976299e-07,3.5868081226349825e-07,3.143089681596443e-05
5.063241625213053e-07,7.890674668696512e-07,3.6131946187781064e-07,3.1389052936124573e-05
5.136852368876358e-07,7.865343579258414e-07,3.6376958593337547e-07,3.132432003260716e-05
5.21233251350369e-07,7.838372166430449e-07,3.660210909260133e-07,3.123879382132312e-05
5.289207747282856e-07,7.809899395814076e-07,3.680641255629517e-07,3.1134187538039254e-05
5.367007331652605e-07,7.780103080834298e-07,3.6988974419108064e-07,3.1011890976285363e-05
5.445244742933185e-07,7.749185615352734e-07,3.714903636580424e-07,3.087304792280662e-05
5.523418043587378e-07,7.717354424204949e-07,3.728595445660244e-07,3.0718629697513594e-05
5.601025805037007e-07,7.684829926265045e-07,3.73992171426086e-07,3.054961378823532e-05
5.677574485591025e-07,7.651863032811697e-07,3.74885034418334e-07,3.036725054821894e-05
5.752582168484315e-07,7.618717051510356e-07,3.755370837522179e-07,3.0173136774395928e-05
5.82558939434555e-07,7.585617197145753e-07,3.7594938491627605e-07,2.996901075017721e-05
5.896158794886808e-07,7.552718199510705e-07,3.7612413902207817e-07,2.975658431902996e-05
5.963860203281954e-07,7.520103040012266e-07,3.7606299350545526e-07,2.953758167335232e-05
6.028278217571825e-07,7.48778941840497e-07,3.7576647054947534e-07,2.931379863481272e-05
6.089050622366557e-07,7.455753228743307e-07,3.7523462747966645e-07,2.908706105752187e-05
6.145887849329363e-07,7.423990466485584e-07,3.744679416336278e-07,2.8859132226213488e-05
6.198548378725814e-07,7.392575831629641e-07,3.734686129047446e-07,2.863161474618457e-05
6.246814275372228e-07,7.361663616193707e-07,3.722420885589283e-07,2.840587385413292e-05
6.290498907279801e-07,7.331445654254729e-07,3.707971782442394e-07,2.818299984424063e-05
6.329453450911225e-07,7.302097119552771e-07,3.691442559181953e-07,2.796380489668953e-05
6.363551061526717e-07,7.273730385849984e-07,3.6729314858348716e-07,2.7748836371721167e-05
6.392676854481244e-07,7.246386059204427e-07,3.652518781767904e-07,2.753839080558313e-05
6.416731455915286e-07,7.220048188283793e-07,3.6302635695331394e-07,2.733253720210257e-05
6.435633440825556e-07,7.194649393763479e-07,3.606217764685183e-07,2.7131181970920308e-05
6.449320854876154e-07,7.170080192076248e-07,3.580459180449717e-07,2.693417480613797e-05
6.457749649985481e-07,7.146210921207323e-07,3.553115226337818e-07,2.6741392843134813e-05
6.460890644248187e-07,7.122908620645562e-07,3.524352010352897e-07,2.6552747605232182e-05
6.458741681252639e-07,7.1000623112632e-07,3.4943555797445287e-07,2.636812061790547e-05
6.4513457839619e-07,7.077609172460581e-07,3.4633416912200005e-07,2.618728049066836e-05
6.438781413444906e-07,7.05552438737764e-07,3.431577563387944e-07,2.600984248298728e-05
6.421132779797815e-07,7.033794128694996e-07,3.399369796081676e-07,2.5835285207713226e-05
6.398476769608176e-07,7.012429224406394e-07,3.367020508667943e-07,2.5662989693560906e-05
6.370891762234879e-07,6.991544913452689e-07,3.334800809882339e-07,2.549226881897296e-05
6.338477414818229e-07,6.971442326300535e-07,3.30295038032356e-07,2.5322372516293107e-05
6.301370393662194e-07,6.952592314530631e-07,3.2716738968631505e-07,2.5152474994073207e-05
6.259741159451879e-07,6.935537380520181e-07,3.241133140709274e-07,2.4981677731361724e-05
6.213786152313962e-07,6.920790110647064e-07,3.211446146719473e-07,2.4809052959632725e-05
6.163731066715414e-07,6.908759580626928e-07,3.1826911942873895e-07,2.4633704889096937e-05
6.10982981678309e-07,6.899728547729314e-07,3.154919579669359e-07,2.4454798075066282e-05
6.052357794042993e-07,6.893878502286457e-07,3.128177783753426e-07,2.427154252921665e-05
5.991631199783148e-07,6.891311617374073e-07,3.102525776405091e-07,2.4083187332683525e-05
5.928045919122178e-07,6.892051491914465e-07,3.078050150803772e-07,2.3889057210765843e-05
5.862075271470556e-07,6.896049573527207e-07,3.054869711681114e-07,2.368858265745789e-05
5.794212131650772e-07,6.903201044115337e-07,3.033123821829156e-07,2.348128731892285e-05
5.724914979419336e-07,6.913344129412379e-07,3.0129543603878934e-07,2.326680571278333e-05
5.654589227615099e-07,6.926241254716496e-07,2.9944952567867215e-07,2.304494547209668e-05
5.583582251509522e-07,6.941575254986776e-07,2.9778711548865e-07,2.2815675592608167e-05
5.512185743643675e-07,6.958973917986281e-07,2.96319659487624e-07,2.257902696498312e-05
5.440644354839628e-07,6.978050252398287e-07,2.9505645169626107e-07,2.2335018439334822e-05
5.369160371743389e-07,6.998444961538928e-07,2.9400307778878324e-07,2.2083676588718264e-05
5.297907020610927e-07,7.019842382926982e-07,2.931605475908028e-07,2.182518029804512e-05
5.227055769256586e-07,7.041958921117398e-07,2.925251543632164e-07,2.1560088706531866e-05
5.156788359457665e-07,7.064552410548756e-07,2.92089202292012e-07,2.128947712930192e-05
5.087286570413339e-07,7.087452210416198e-07,2.9184277468319767e-07,2.1014870933487532e-05
5.018743714780639e-07,7.110555886116986e-07,2.9177539612169583e-07,2.0738061065723167e-05
4.951411142200345e-07,7.133788364396457e-07,2.918759792440206e-07,2.0460911567951735e-05
4.885632398164712e-07,7.157062391809958e-07,2.9213167351294716e-07,2.0185206856174605e-05
4.821845930912387e-07,7.180252455213713e-07,2.9252737567796373e-07,1.991258324317075e-05
4.760563679258876e-07,7.203182140856707e-07,2.930461597987396e-07,1.964455145910172e-05
4.7023221441239703e-07,7.225637398044787e-07,2.9367056409866673e-07,1.9382523878475744e-05
4.647641260645686e-07,7.247397642499327e-07,2.943851871856906e-07,1.9127765397216745e-05
4.597012455518632e-07,7.268248018674829e-07,2.951793090419406e-07,1.8881313729556945e-05
4.550878536878184e-07,7.287956924318964e-07,2.9604728852460225e-07,1.864401000423134e-05
4.509610524955987e-07,7.306255152351521e-07,2.9698672893297937e-07,1.8416719253444395e-05
4.4735072113236887e-07,7.322851100872791e-07,2.979959457983838e-07,1.820059966666263e-05
4.44278846104817e-07,7.337456284625081e-07,2.990718698796472e-07,1.7997148304573565e-05
4.41757919969534e-07,7.349788543820716e-07,3.002087174362551e-07,1.7807990567110888e-05
4.397928624771026e-07,7.359563378641029e-07,3.0139760289780804e-07,1.7634709349986533e-05
4.3838498626192855e-07,7.36649045068087e-07,3.0262781214363827e-07,1.7478881802491067e-05
4.3753184448501244e-07,7.370282849861354e-07,3.038892988465584e-07,1.7342148224354205e-05
4.372250477279109e-07,7.370677517349308e-07,3.051747169145571e-07,1.7226169500052548e-05
4.374540114771159e-07,7.367461162652113e-07,3.0648046137591725e-07,1.7132520638036082e-05
4.382128311339676e-07,7.360497677069187e-07,3.0780639932510407e-07,1.7062574711761847e-05
4.394995542820176e-07,7.349727940122031e-07,3.0915375350680485e-07,1.7017406769340484e-05
4.413087317381483e-07,7.335136800309037e-07,3.105230160340525e-07,1.6997751016982036e-05
4.436263081956581e-07,7.316744662373745e-07,3.1191365109506865e-07,1.7004018449269105e-05
4.464286794003501e-07,7.294633725365731e-07,3.133241209395226e-07,1.7036354905682185e-05
4.4968388860730315e-07,7.268943559295045e-07,3.1475160763705765e-07,1.7094710915306847e-05
4.533541670808812e-07,7.239818971047597e-07,3.1619262739627645e-07,1.7178897805471688e-05
4.573981242048754e-07,7.207362738384457e-07,3.176438937776869e-07,1.728861502752457e-05
4.6177202799332637e-07,7.171629536486996e-07,3.191017976130585e-07,1.7423451246377554e-05
4.664310122410634e-07,7.132665561753047e-07,3.2056102880144556e-07,1.7582862259597164e-05
4.713299636759514e-07,7.090590130524358e-07,3.2201437678140076e-07,1.7766114068706546e-05
4.764234414069876e-07,7.045675322898673e-07,3.234538597540694e-07,1.7972195648667694e-05
4.816649538067265e-07,6.998342278254035e-07,3.2487138895363244e-07,1.819974862841992e-05
4.870077914357874e-07,6.94906463783559e-07,3.2625828678382056e-07,1.844706789755536e-05
4.92408134409232e-07,6.898277012697268e-07,3.27604690410253e-07,1.8712172173747007e-05
4.978264265716871e-07,6.846373506687873e-07,3.288994278691497e-07,1.899288846456268e-05
5.032256469024335e-07,6.793780438044764e-07,3.3013002070715565e-07,1.928690660637301e-05
5.08570806185666e-07,6.741008702409397e-07,3.3128348090131586e-07,1.9591818609796803e-05
5.138303562413897e-07,6.688614809797701e-07,3.323484408038002e-07,1.9905196239465257e-05
5.18976211106703e-07,6.63711761232822e-07,3.333167854232645e-07,2.0224723836005828e-05
5.239837835344968e-07,6.586958741027691e-07,3.341832050260423e-07,2.054831850823357e-05
5.288347890701122e-07,6.538507127434759e-07,3.349436568936941e-07,2.087414966827384e-05
5.335193256746106e-07,6.492061914735415e-07,3.355944816906899e-07,2.1200545867636764e-05
5.380337298363901e-07,6.447855565548452e-07,3.361324128440731e-07,2.1525857180343952e-05
5.423766545633446e-07,6.406073884749495e-07,3.365545783318963e-07,2.1848355071004667e-05
5.465464348371603e-07,6.366865862952379e-07,3.3685844242094877e-07,2.216620984691301e-05
5.505410506352364e-07,6.330331158975204e-07,3.3704245867273504e-07,2.247752031216388e-05
5.543615391272235e-07,6.296522291279778e-07,3.3710752626274237e-07,2.2780369210235988e-05
5.580162321017701e-07,6.265465595676801e-07,3.3705825724695977e-07,2.307293690935636e-05
5.615216808490877e-07,6.23716646214796e-07,3.369031157314716e-07,2.3353632274286968e-05
5.649013411665156e-07,6.211598563310096e-07,3.366532415162802e-07,2.3621100509900346e-05
5.681841522491061e-07,6.188697616585664e-07,3.3632054382225215e-07,2.387410174196387e-05
5.714023796426218e-07,6.168364890527233e-07,3.3591658710947373e-07,2.4111402781358288e-05
5.745906377333464e-07,6.150481781214529e-07,3.3545289020905573e-07,2.433174631580437e-05
5.777860461949931e-07,6.134922864620082e-07,3.349413982339919e-07,2.453385821579693e-05
5.810251873999743e-07,6.121544082067855e-07,3.3439419872786325e-07,2.471646591420925e-05
5.84339188002361e-07,6.11015583855868e-07,3.3382280273236947e-07,2.487833959675921e-05
5.877511743978346e-07,6.100512410910381e-07,3.332384889290248e-07,2.501839268769852e-05
5.912763442640445e-07,6.092320856725396e-07,3.32655616671205e-07,2.513582065390513e-05
5.949252753763091e-07,6.085250360438229e-07,3.3209620387854893e-07,2.523015143391012e-05
5.987113615163374e-07,6.078939713924136e-07,3.315904505209437e-07,2.5301154049097267e-05
6.026565388226315e-07,6.073017794324902e-07,3.311717435731606e-07,2.534872758184827e-05
6.067882906978078e-07,6.067134396362219e-07,3.308712142017869e-07,2.537288513253095e-05
6.111341730347218e-07,6.060983717187768e-07,3.307170366357397e-07,2.537381286572669e-05
6.15723196499499e-07,6.054312103738782e-07,3.307368461120049e-07,2.5351913399523207e-05
6.205887625856421e-07,6.046902465546822e-07,3.309571514401455e-07,2.5307766463196022e-05
6.257656826785755e-07,6.038547150544795e-07,3.3139911339321e-07,2.5242042593383288e-05
6.312849289798261e-07,6.029042676146184e-07,3.320756036449784e-07,2.5155495819454445e-05
6.371715948962655e-07,6.018203805955633e-07,3.329912277820147e-07,2.5049078811415195e-05
6.434443318124585e-07,6.005871443678104e-07,3.3414343353294885e-07,2.492404323787268e-05
6.501123246169277e-07,5.991908989900683e-07,3.3552405635571146e-07,2.478189960333106e-05
