3.663983840361955e-07,2.730397949912339e-07,2.890842893814407e-07,2.259519516220536e-05
3.628894665940546e-07,2.7258960404030837e-07,2.888723282779584e-07,2.269184808715561e-05
3.595173203445397e-07,2.7219425471470107e-07,2.886744197655377e-07,2.278802622837807e-05
3.562888245156785e-07,2.7185377393245285e-07,2.884938336495801e-07,2.288225403193962e-05
3.532099999265597e-07,2.7157198338569797e-07,2.8833487317686385e-07,2.2973030634742998e-05
3.502861732961228e-07,2.713560665159639e-07,2.8820165114028693e-07,2.3058955826296897e-05
3.4752058502693055e-07,2.712144947063353e-07,2.880968861099484e-07,2.31388438510316e-05
3.449136854067716e-07,2.711545136479359e-07,2.880226828962164e-07,2.3211713535088808e-05
3.424635850455072e-07,2.7118094626977964e-07,2.879819464376524e-07,2.3276667507592825e-05
3.4016837327719496e-07,2.712968242781164e-07,2.879778513896748e-07,2.33328110954484e-05
3.380295625052882e-07,2.715059076157896e-07,2.880124363880209e-07,2.337927836943332e-05
3.3605303874706305e-07,2.718154384471327e-07,2.880859448904752e-07,2.3415286571640125e-05
3.34247677797663e-07,2.722359224996968e-07,2.881965159963351e-07,2.344015089721025e-05
3.326250447994077e-07,2.727781613386896e-07,2.883404731679837e-07,2.345326107569044e-05
3.3120013635609325e-07,2.734506679411934e-07,2.8851327824433805e-07,2.3454093081308208e-05
3.2999058998280357e-07,2.742585636909796e-07,2.887097747703028e-07,2.344236177634277e-05
3.290138512690433e-07,2.752038198100235e-07,2.88923421462145e-07,2.341822698082077e-05
3.282841434533263e-07,2.762880057676248e-07,2.891458457815137e-07,2.338230788159432e-05
3.278107092011488e-07,2.775173561145887e-07,2.893673632204568e-07,2.3335480804416652e-05
3.2759847835683506e-07,2.7890497059025503e-07,2.8957786257947896e-07,2.3278647869373424e-05
3.2765115166364067e-07,2.8046627092732944e-07,2.89767353001244e-07,2.321260876421341e-05
3.2797314281836317e-07,2.8221254075816605e-07,2.8992645729262565e-07,2.313811264731069e-05
3.2856791664168484e-07,2.84148353088767e-07,2.900477940796791e-07,2.305608509549271e-05
3.2943494422350287e-07,2.8627234165673646e-07,2.901277597500739e-07,2.296782431443209e-05
3.3056864152952754e-07,2.8857904292313645e-07,2.9016737991196425e-07,2.287496609724173e-05
3.3196145658822124e-07,2.910607761298531e-07,2.901714697474052e-07,2.2779283757323214e-05
3.336093371786078e-07,2.937086410575939e-07,2.9014590550936126e-07,2.2682504324550675e-05
3.355140235248146e-07,2.965122151147131e-07,2.900951682976318e-07,2.258620390367964e-05
3.3768110826585086e-07,2.994589576956581e-07,2.9002242929791734e-07,2.2491747665523665e-05
3.401183172986893e-07,3.0253512205758447e-07,2.899302564871659e-07,2.2400240893940445e-05
3.4283476997240054e-07,3.0572783388662173e-07,2.8981993607715995e-07,2.231249512643605e-05
3.458382777079524e-07,3.0902578546617164e-07,2.896908221174108e-07,2.222902794334353e-05
3.491313952566446e-07,3.1241787835468146e-07,2.895407240848847e-07,2.2150091487342766e-05
3.527097758160938e-07,3.158919130686501e-07,2.893669354742165e-07,2.2075698201063606e-05
3.565643801822108e-07,3.194356389893919e-07,2.891672617671534e-07,2.200562447196674e-05
3.606848337506756e-07,3.230390048288634e-07,2.8894023488325064e-07,2.1939416895343413e-05
3.650598735926879e-07,3.266936586503738e-07,2.886848376285308e-07,2.1876434734685268e-05
3.6967614140599606e-07,3.303902164185549e-07,2.884003721273974e-07,2.1815938179553783e-05
3.745185695811106e-07,3.3411673221465676e-07,2.88086493700786e-07,2.175721342478317e-05
3.7957160011005286e-07,3.378581414340118e-07,2.8774311743208785e-07,2.169968841916196e-05
3.8481976354912417e-07,3.415958034607343e-07,2.8736954438336547e-07,2.164298175511588e-05
3.902465748763005e-07,3.45307747713808e-07,2.869635698631889e-07,2.1586889249070155e-05
3.958320047431106e-07,3.489695647637832e-07,2.8652229727061053e-07,2.1531351088654942e-05
4.015514281961508e-07,3.52556315736182e-07,2.860439183898437e-07,2.1476409245723568e-05
4.073768981503417e-07,3.5604612738777385e-07,2.855280556923587e-07,2.1422143159736533e-05
4.1327971082594327e-07,3.5942338837989526e-07,2.8497471356587236e-07,2.1368588614745926e-05
4.192341780529635e-07,3.6267883158264655e-07,2.8438354228874326e-07,2.131565824893829e-05
4.2521990589499975e-07,3.658077373171579e-07,2.837533435751544e-07,2.1263100116726168e-05
4.3121962488849323e-07,3.6880933492717147e-07,2.8308181339516266e-07,2.1210550667103586e-05
4.3721571960883095e-07,3.7168804488982957e-07,2.823668124428605e-07,2.115766939258361e-05
4.431889303938077e-07,3.744538122389449e-07,2.816080339923825e-07,2.1104236437679216e-05
4.4911798664314443e-07,3.7711923834616423e-07,2.8080660328636516e-07,2.1050140852664042e-05
4.5497953689449863e-07,3.796956794050954e-07,2.79963481856707e-07,2.0995315191626794e-05
4.607487356271842e-07,3.8219090821794096e-07,2.7907908936375535e-07,2.093970032566064e-05
4.663997325883008e-07,3.846080789589461e-07,2.781542052737489e-07,2.0883261290383654e-05
4.7190702950517004e-07,3.8694560048550317e-07,2.771906219082933e-07,2.0825989249274874e-05
4.772481895679011e-07,3.8919780569440454e-07,2.761908285514039e-07,2.0767828437611256e-05
4.824046830462417e-07,3.913564362748074e-07,2.751572386312409e-07,2.0708586361625875e-05
4.873593762861084e-07,3.9341398118379346e-07,2.7409200663015107e-07,2.0647929252502082e-05
4.920935535127942e-07,3.9536793586076896e-07,2.729978984343393e-07,2.0585471132082024e-05
4.965867518993885e-07,3.9722213004288713e-07,2.718792970507874e-07,2.0520900043836407e-05
5.008211273765504e-07,3.9898395728823525e-07,2.7074273314424173e-07,2.045410982172148e-05
5.047890866152085e-07,4.0066036016888437e-07,2.6959698468627266e-07,2.0385300157517174e-05
5.084989082674817e-07,4.0225500994431156e-07,2.684518903648477e-07,2.0314969616968688e-05
5.119732648200972e-07,4.0376776632574295e-07,2.6731624712017214e-07,2.024377820713876e-05
5.152422373709181e-07,4.051969689466119e-07,2.6619755676873996e-07,2.0172352393865325e-05
5.183366441832118e-07,4.0654361136895655e-07,2.651039678711374e-07,2.01011490523449e-05
5.212836594827457e-07,4.0781421067208975e-07,2.6404474835884444e-07,2.0030442282814074e-05
5.241043001187296e-07,4.090194005206246e-07,2.630285845920755e-07,1.9960382843122573e-05
5.268137479983631e-07,4.1016986812655246e-07,2.620631405532772e-07,1.989104179398119e-05
5.294243389952288e-07,4.112739094786848e-07,2.6115562428510907e-07,1.9822427119369164e-05
5.319483116631788e-07,4.123371062467243e-07,2.603121752388302e-07,1.9754563278943868e-05
5.343975266714028e-07,4.133622017499264e-07,2.5953753062092575e-07,1.9687638995347795e-05
5.367812712743831e-07,4.1435024238108243e-07,2.588354682337894e-07,1.9622047160208857e-05
5.391050196016625e-07,4.1530534418986797e-07,2.582085346639052e-07,1.9558246193239858e-05
5.413704237991791e-07,4.1624075228321277e-07,2.576575364647581e-07,1.9496584408475606e-05
5.435753178003636e-07,4.1717906782268746e-07,2.5718184638941324e-07,1.943723327047641e-05
5.457138405319414e-07,4.181452406621659e-07,2.567805585519197e-07,1.9380320248739166e-05
5.47777634871912e-07,4.191604944518283e-07,2.564532678542728e-07,1.93262397073732e-05
5.497572956877865e-07,4.2024156425737956e-07,2.5619908651663536e-07,1.9275909257391308e-05
5.516424457929973e-07,4.214011297022848e-07,2.560149517229047e-07,1.9230755988973473e-05
5.534211660983709e-07,4.2264710832088497e-07,2.558953617561656e-07,1.919249336985284e-05
5.550807185688193e-07,4.2398233079013774e-07,2.558338316770453e-07,1.916286260642227e-05
5.56609179664955e-07,4.2540504480720076e-07,2.558244997542777e-07,1.914341243070304e-05
5.579955718726414e-07,4.2690971541753137e-07,2.5586229656185853e-07,1.9135328210808645e-05
5.592288337157565e-07,4.284880006265332e-07,2.5594197614976e-07,1.913932979654109e-05
5.602983617291223e-07,4.301296092967603e-07,2.5605738006644286e-07,1.9155659512105286e-05
5.611954913252148e-07,4.318229180193485e-07,2.5620111192541217e-07,1.918413390305674e-05
5.619134783803453e-07,4.3355546193383294e-07,2.5636454141352377e-07,1.9224203783304604e-05
5.6244674583212e-07,4.353138835658658e-07,2.5653882615269005e-07,1.9275015416892302e-05
5.627909563510931e-07,4.3708402901227456e-07,2.567162017990356e-07,1.933549573225661e-05
5.629429218813819e-07,4.388522965441454e-07,2.56889817249634e-07,1.94044554575978e-05
5.628993972556439e-07,4.4060677507667684e-07,2.570525565680634e-07,1.9480683724416026e-05
5.626565211634419e-07,4.423364261883485e-07,2.571963465234806e-07,1.956301965804152e-05
5.622120006762847e-07,4.4402957497159817e-07,2.5731220961303765e-07,1.96504101122376e-05
5.615685427437532e-07,4.4567446726088493e-07,2.573912582876551e-07,1.9741961862534306e-05
5.607343905658085e-07,4.4726128132038157e-07,2.574267070517711e-07,1.9836965745803133e-05
5.597196544407013e-07,4.4878207004759284e-07,2.5741516585989236e-07,1.9934871839974247e-05
5.585323147541027e-07,4.50229315379068e-07,2.573559926141835e-07,2.0035234100849678e-05
5.571774830649725e-07,4.515960339733545e-07,2.572506321158771e-07,2.0137644760623835e-05
5.556585134370902e-07,4.5287651137975437e-07,2.5710330126826624e-07,2.0241658712273287e-05
5.53978263175119e-07,4.540666763038582e-07,2.569207634536222e-07,2.034671966922389e-05
5.521405591349045e-07,4.551644444827695e-07,2.567101609854825e-07,2.045210750182888e-05
5.501500530766846e-07,4.5616874468936426e-07,2.564776869453593e-07,2.0556933431836085e-05
5.480101496650393e-07,4.5707781660310184e-07,2.562297969559936e-07,2.0660228202861137e-05
5.457216598211709e-07,4.5788917958729603e-07,2.559752656792691e-07,2.076110429945076e-05
5.432828712380086e-07,4.5860021989292725e-07,2.557256623250808e-07,2.085886958293928e-05
5.406900141925699e-07,4.5920787954466455e-07,2.5549377022299014e-07,2.0953013586691848e-05
5.379375793008625e-07,4.5970819482559655e-07,2.552913987674736e-07,2.104312401067915e-05
5.350184358158408e-07,4.6009558681960403e-07,2.551279929224256e-07,2.1128826482473712e-05
5.319242365150911e-07,4.6036210571036565e-07,2.5501024261702516e-07,2.1209766043495445e-05
5.286467681020558e-07,4.6049762257864725e-07,2.549419872654561e-07,2.128557624546013e-05
5.251805389584473e-07,4.604911483149233e-07,2.5492439803967696e-07,2.135581765788233e-05
5.215251886369159e-07,4.603334257607381e-07,2.549576615084523e-07,2.1419940202241165e-05
5.176849873162267e-07,4.600195815041747e-07,2.550436372607128e-07,2.1477306547227687e-05
5.136656409452811e-07,4.595494148147154e-07,2.5518637806977983e-07,2.152726569903254e-05
5.094719105761026e-07,4.589264878204563e-07,2.553902631971808e-07,2.1569251070260254e-05
5.051076384992521e-07,4.5815944338763463e-07,2.556585160971193e-07,2.160289343563348e-05
5.005771274298395e-07,4.572635375906232e-07,2.559922978804037e-07,2.1628127396317762e-05
4.958871174463804e-07,4.5625766918614036e-07,2.563900907478872e-07,2.1645218134033718e-05
4.910490211301317e-07,4.55159391091708e-07,2.568485822178565e-07,2.165466019018624e-05
4.86080292453827e-07,4.5398451487432176e-07,2.57363747569172e-07,2.1656993596252906e-05
4.810030543355903e-07,4.5275070375314854e-07,2.5793080579239264e-07,2.16526460776042e-05
4.7584020374638526e-07,4.5147919807994786e-07,2.585450617572712e-07,2.1641888909731347e-05
4.706126170980362e-07,4.5019382362997677e-07,2.592038064965003e-07,2.1624885180021545e-05
4.653394642452137e-07,4.489186922216322e-07,2.5990701843558265e-07,2.160173362540105e-05
4.6003893502602814e-07,4.4767420150751284e-07,2.606567004066862e-07,2.1572482229285e-05
4.547277630211403e-07,4.464737222727474e-07,2.6145619725010774e-07,2.1537205696524525e-05
4.4942212252745677e-07,4.453231696860158e-07,2.623108552756833e-07,2.1496151212066308e-05
4.441398666718645e-07,4.4422303548435667e-07,2.632291683630405e-07,2.144977749186237e-05
4.3890086383897936e-07,4.4317320146152346e-07,2.642214442247031e-07,2.139862971585726e-05
4.3372600709213715e-07,4.421775618473269e-07,2.652969886296964e-07,2.134318862405649e-05
4.286375065899346e-07,4.412434816021304e-07,2.664631584154977e-07,2.128379150963644e-05
4.2366043797022327e-07,4.403779438014133e-07,2.6772544684727125e-07,2.1220680378269322e-05
4.188232222921664e-07,4.395851698828641e-07,2.6908695216371844e-07,2.1154229889490854e-05
4.141545805467218e-07,4.3886643720584076e-07,2.7054809388996546e-07,2.108522572801693e-05
4.09679477067799e-07,4.3822042789727193e-07,2.721066521671599e-07,2.101494941056625e-05
4.054201142290736e-07,4.3764314303790463e-07,2.737574251056261e-07,2.0945042033562883e-05
4.0140068048653066e-07,4.371289092998373e-07,2.7549202777412584e-07,2.087730339836468e-05
3.9764781439074633e-07,4.366727354116208e-07,2.772995784017574e-07,2.0813509086184187e-05
3.94185600407788e-07,4.3627081552989436e-07,2.791681149028905e-07,2.075525105233028e-05
3.9103204034151417e-07,4.359187631079704e-07,2.810860554788341e-07,2.0703822017492826e-05
3.8819991494003923e-07,4.3561040201195137e-07,2.830434296154912e-07,2.0660164353167264e-05
3.856984761550171e-07,4.353376277879443e-07,2.850326314711093e-07,2.062487153713616e-05
3.835339332798953e-07,4.3509023361740286e-07,2.8704837633611665e-07,2.059821110957169e-05
3.817094529853994e-07,4.3485579444053676e-07,2.8908732863650434e-07,2.058014208951928e-05
3.802248224717355e-07,4.346202163559382e-07,2.911469977039003e-07,2.0570330692403407e-05
3.790759837350755e-07,4.343685179793839e-07,2.932234851715521e-07,2.0568191050110252e-05
3.782552896684907e-07,4.3408513326204845e-07,2.95310233893136e-07,2.0572953275297887e-05
3.7775378363683226e-07,4.337548820969902e-07,2.973994153664282e-07,2.058374657857085e-05
3.7756511191533314e-07,4.333656567643606e-07,2.9948395142930067e-07,2.0599688994011032e-05
3.776870800429609e-07,4.329112064778641e-07,3.015574659395093e-07,2.0619963306051108e-05
3.7811951999183593e-07,4.3239152119354076e-07,3.03613380326452e-07,2.06438536407299e-05
3.788621676302915e-07,4.3180994335997847e-07,3.056454124069041e-07,2.0670741428168132e-05
3.7991338545673146e-07,4.311692575153685e-07,3.0764809405060725e-07,2.070009081140621e-05
3.8126847845135507e-07,4.3046961536205777e-07,3.0961616544478325e-07,2.0731437483699554e-05
3.8291981166375275e-07,4.2970896027913895e-07,3.11543934165228e-07,2.0764360681904655e-05
3.848587225708981e-07,4.288858601918562e-07,3.134251671003106e-07,2.079843113889414e-05
3.87075220229535e-07,4.280025043403385e-07,3.152534102912309e-07,2.0833151868485173e-05
3.895554662076713e-07,4.2706463025138654e-07,3.1702204992996397e-07,2.0867918723302453e-05
3.92280465277677e-07,4.2607919147740137e-07,3.187238572617871e-07,2.0902048497788075e-05
3.952266677027833e-07,4.2505190292287e-07,3.203505949456202e-07,2.0934891853506485e-05
3.983675006475728e-07,4.2398562899304327e-07,3.218926599471562e-07,2.0965943560348442e-05
4.016751936498064e-07,4.2288086787681617e-07,3.233391985795014e-07,2.0994855975262133e-05
4.0512176570940705e-07,4.217372746566693e-07,3.246796927905777e-07,2.1021386774214623e-05
4.086790659550144e-07,4.205539123866861e-07,3.2590580792220174e-07,2.1045365857918755e-05
4.123193215185289e-07,4.1932894347864134e-07,3.270116222891654e-07,2.106669065870737e-05
4.160163055535853e-07,4.1805982256934e-07,3.279930718346307e-07,2.1085298071875768e-05
4.1974569691426633e-07,4.1674335196256453e-07,3.288473340801316e-07,2.110113034243399e-05
4.2348483843926637e-07,4.153756100027625e-07,3.295717644068501e-07,2.1114154818089428e-05
4.2721319045104436e-07,4.1395203020099677e-07,3.301636783019961e-07,2.112440512639379e-05
4.3091231504967453e-07,4.124674898785768e-07,3.306210248530445e-07,2.113199814281136e-05
4.345646801771889e-07,4.109164024660214e-07,3.3094210743988426e-07,2.113714107283813e-05
4.381543347426521e-07,4.0929271911858477e-07,3.311250786319444e-07,2.1140123580864584e-05
4.41669678702213e-07,4.075897854978234e-07,3.31168431285414e-07,2.1141272732868248e-05
4.4510408506949644e-07,4.0580051691750017e-07,3.310714363507688e-07,2.1140879222065007e-05
4.484533941133628e-07,4.0391846073758523e-07,3.308340694796893e-07,2.1139120587433507e-05
4.5171283493699025e-07,4.019384284123243e-07,3.304569829985488e-07,2.1136012348610997e-05
4.54875277760876e-07,3.9985563775352e-07,3.299421773532391e-07,2.113141924491137e-05
4.5793163479174575e-07,3.9766567243554525e-07,3.292948563222269e-07,2.112511106379704e-05
4.608732412461724e-07,3.953660919520693e-07,3.285244902567075e-07,2.1116802591848967e-05
4.636942248178769e-07,3.9295706651751706e-07,3.276429009951929e-07,2.110615325683917e-05
4.6639167715236596e-07,3.90439988215411e-07,3.266612937666659e-07,2.1092759690658905e-05
4.6896428754738453e-07,3.878157145753756e-07,3.255893690155905e-07,2.107618348113316e-05
4.7141059453405284e-07,3.8508428169328754e-07,3.244365682650624e-07,2.1056003294864788e-05
4.7372731561330823e-07,3.822465413530795e-07,3.2321326482227696e-07,2.103184864993637e-05
4.7591002615375995e-07,3.7930686005455757e-07,3.2193101747413157e-07,2.1003412329025285e-05
4.779572103269813e-07,3.7627549866257295e-07,3.206024659670284e-07,2.0970448312161216e-05
4.798738369396542e-07,3.731691173675872e-07,3.192403592590857e-07,2.093274795391757e-05
4.816699370349762e-07,3.700090726466452e-07,3.178559613333105e-07,2.089011851095284e-05
4.833553797133122e-07,3.66819052673441e-07,3.16458410919111e-07,2.084239664844888e-05
4.849356263815884e-07,3.6362307515147856e-07,3.150549865379096e-07,2.0789477462859987e-05
4.864104411997937e-07,3.6044384005027926e-07,3.1365177847048175e-07,2.073131797367308e-05
4.877749415904664e-07,3.5730216320129814e-07,3.122544792218522e-07,2.0667905961258e-05
4.890223428199682e-07,3.542175132933085e-07,3.1086804547007277e-07,2.059920824297935e-05
4.901471806717597e-07,3.512082433640438e-07,3.0949569233333404e-07,2.0525124028547494e-05
4.911473887030751e-07,3.4829163595276045e-07,3.081392406052977e-07,2.0445462358568978e-05
4.920247753376472e-07,3.454845359848083e-07,3.068005814297235e-07,2.0359938003594478e-05
4.927840809086122e-07,3.428031975552245e-07,3.054826817922766e-07,2.0268179106583453e-05
4.934308243164204e-07,3.402613775383696e-07,3.0418955514687107e-07,2.016974765046569e-05
4.93969029855951e-07,3.378683222670632e-07,3.0292525665578045e-07,2.006416665808728e-05
4.944004491035649e-07,3.356287003408337e-07,3.0169251255763716e-07,1.9950949646605565e-05
4.94726301508681e-07,3.335453076264589e-07,3.004921323448341e-07,1.982963823835193e-05
4.949512675643167e-07,3.316233218662933e-07,2.9932365129131265e-07,1.969985330613089e-05
4.950879106088347e-07,3.298727949705236e-07,2.9818634469608694e-07,1.956135298837047e-05
4.951582379094911e-07,3.283071361082938e-07,2.970797889024989e-07,1.941407844384057e-05
4.951908231056696e-07,3.269389979217427e-07,2.9600425066207427e-07,1.9258182529663453e-05
4.952169845133356e-07,3.257777108384429e-07,2.949608878319626e-07,1.909406010903657e-05
4.952691311090233e-07,3.248305494688847e-07,2.939510049342786e-07,1.8922376735069213e-05
4.953791957822091e-07,3.241052304179985e-07,2.9297509292289793e-07,1.874406467184896e-05
4.95576419503294e-07,3.236111400405484e-07,2.9203297532427285e-07,1.8560280035578946e-05
4.958873918372914e-07,3.233592592162807e-07,2.911245568641359e-07,1.8372335546089127e-05
4.963377528741635e-07,3.233600564271122e-07,2.9025048383103514e-07,1.8181605364366532e-05
4.969518299880968e-07,3.2362029337039707e-07,2.894124943198091e-07,1.798940568130239e-05
4.97749629619642e-07,3.2414212444109004e-07,2.886129118129826e-07,1.7796886945872298e-05
4.987442811601047e-07,3.2492476017279216e-07,2.8785391151583107e-07,1.7604983228799827e-05
4.999429363691746e-07,3.259658350737874e-07,2.871376830206618e-07,1.7414459219484812e-05
5.013495099257475e-07,3.272621154935445e-07,2.864668043537121e-07,1.7226029237069455e-05
5.029647072117315e-07,3.288109667590429e-07,2.858438708762237e-07,1.7040431643713573e-05
5.047833581346052e-07,3.306111763672409e-07,2.8527188116283394e-07,1.6858411538858693e-05
5.067932982963045e-07,3.3266118652290677e-07,2.847568204762527e-07,1.6680694776925932e-05
5.08977482882819e-07,3.34955970349264e-07,2.843094362484901e-07,1.6507998087707412e-05
5.113164594795625e-07,3.3748526398602466e-07,2.839432087857651e-07,1.6341030897935498e-05
5.137883354819071e-07,3.4023408520375226e-07,2.8367135493198335e-07,1.6180461863115296e-05
5.163674516961877e-07,3.4318459549502175e-07,2.835052129012536e-07,1.6026869597701192e-05
5.190240992665281e-07,3.46318356051925e-07,2.8345275907359426e-07,1.5880691484655285e-05
5.217253880247081e-07,3.496171247561703e-07,2.835180748302663e-07,1.5742172960414717e-05
5.244364158441246e-07,3.530612126550244e-07,2.837024908138453e-07,1.5611344153865433e-05
5.271214687015973e-07,3.566285577409369e-07,2.8400545884372137e-07,1.5488043586277238e-05
5.297450339260779e-07,3.602964531380732e-07,2.844248906074083e-07,1.5371959361726886e-05
5.322725425846929e-07,3.640431209833042e-07,2.8495857290060613e-07,1.5262657201545772e-05
5.346725067145207e-07,3.6784724421528614e-07,2.856057759799608e-07,1.5159602412328534e-05
5.369211894574011e-07,3.7168677687451574e-07,2.8636658510063947e-07,1.506219401557348e-05
5.39006407314017e-07,3.7553841442538683e-07,2.8723969178696853e-07,1.4969816277662046e-05
5.409263065705764e-07,3.7937819055929797e-07,2.8822122228303427e-07,1.4881884743042431e-05
5.426854367642104e-07,3.8318315560793575e-07,2.893055111834404e-07,1.4797841448410834e-05
5.442930817966414e-07,3.869327321692985e-07,2.9048746372720585e-07,1.4717098169882916e-05
5.457626733777568e-07,3.906084211350739e-07,2.917646666389033e-07,1.4638988743506311e-05
5.471086879745231e-07,3.941935180143622e-07,2.9313693437661804e-07,1.4562769979748181e-05
5.483424291905805e-07,3.976741435156015e-07,2.9460383139306996e-07,1.4487663767732526e-05
5.49470032618441e-07,4.0103892632804656e-07,2.9616291602789e-07,1.441292383230391e-05
5.50492720205678e-07,4.042763514576912e-07,2.978099943379925e-07,1.4337901367443783e-05
5.514075607560092e-07,4.073731908993267e-07,2.9954078144413037e-07,1.4262081759984852e-05
5.522081051963833e-07,4.1031571241197035e-07,3.0135251926860147e-07,1.4185087640723206e-05
5.528850608458136e-07,4.1309175163202406e-07,3.0324351280824735e-07,1.410666695841936e-05
5.534274317702538e-07,4.1569199540470363e-07,3.052107324717801e-07,1.4026695459020553e-05
5.538238865239334e-07,4.181102049864105e-07,3.072481068592462e-07,1.3945182407132709e-05
5.540629650714255e-07,4.2034195203413046e-07,3.093464797126041e-07,1.3862235686199695e-05
5.541323538700582e-07,4.22382776576551e-07,3.114941267052587e-07,1.3778044497057019e-05
5.540193249425734e-07,4.2422832018850213e-07,3.136773081162519e-07,1.3692962672396633e-05
5.537122904726531e-07,4.2587622045843117e-07,3.158817605981557e-07,1.3607613648225438e-05
5.532013588811035e-07,4.273269532051765e-07,3.1809513626048657e-07,1.3522923868783266e-05
5.524777488896439e-07,4.285822658936789e-07,3.203078009042502e-07,1.3440091728673751e-05
5.515339434643138e-07,4.2964250728294174e-07,3.225107369430367e-07,1.3360487185030525e-05
5.503646067614642e-07,4.305053846902282e-07,3.246932158403561e-07,1.3285485845222188e-05
5.489660621392623e-07,4.3116717867549067e-07,3.2684263047410085e-07,1.3216294685235905e-05
5.473342585527124e-07,4.316248719303769e-07,3.2894580316453283e-07,1.3153832277445634e-05
5.454638254120003e-07,4.318768906615289e-07,3.30990212066277e-07,1.309870212180721e-05
5.433493707680256e-07,4.3192224500239065e-07,3.329645229387127e-07,1.3051241244906766e-05
5.409871070736641e-07,4.3175999684983417e-07,3.3485878079025e-07,1.3011591835070234e-05
5.383745828460968e-07,4.313899889022297e-07,3.36664961462222e-07,1.2979756424210914e-05
5.355094526605547e-07,4.3081320469947844e-07,3.383775847675036e-07,1.2955640425354048e-05
5.32389597353672e-07,4.3003054891893823e-07,3.3999292483529025e-07,1.2939161227218163e-05
5.290150940774548e-07,4.290419484705276e-07,3.415068375123785e-07,1.293039836853542e-05
5.253914509700903e-07,4.2784726039835724e-07,3.4291350977186853e-07,1.292960216805042e-05
5.215322661386231e-07,4.264473671658699e-07,3.44206127839084e-07,1.2937091996880462e-05
5.174582159641057e-07,4.2484476528424653e-07,3.453783569501983e-07,1.2953229234344365e-05
5.131923762660194e-07,4.2304494444819176e-07,3.464256641759366e-07,1.2978453364559285e-05
5.087560348551708e-07,4.2105717972302327e-07,3.4734586225206533e-07,1.3013338008377361e-05
5.041671352561808e-07,4.188927487630005e-07,3.481384677386856e-07,1.3058660856742155e-05
4.994400605763015e-07,4.165630463884286e-07,3.488037143762332e-07,1.3115413398333785e-05
4.945862409534432e-07,4.1407962533677953e-07,3.49342690305591e-07,1.31847641837965e-05
4.896156798961778e-07,4.114540019853048e-07,3.4975808482287177e-07,1.3268025115402878e-05
4.845386740662778e-07,4.0869624163058116e-07,3.5005379085148895e-07,1.3366561468240715e-05
4.79366208260606e-07,4.0581447733826043e-07,3.5023339728067143e-07,1.3481628209690841e-05
4.7410864243993494e-07,4.028172465511697e-07,3.5029910184025025e-07,1.3614215982140664e-05
4.687756038497819e-07,3.9971744975396366e-07,3.502518610876409e-07,1.3764947933716364e-05
4.633781974887654e-07,3.9653368559176606e-07,3.500922898141263e-07,1.3934038358923874e-05
4.579302988590625e-07,3.9328700784419347e-07,3.4982120771140924e-07,1.4121362657185663e-05
4.5244808513828876e-07,3.899966535957315e-07,3.494395750102716e-07,1.4326600893543509e-05
4.469494555819955e-07,3.8667842805643726e-07,3.489485699457175e-07,1.4549334899236358e-05
4.414535320848168e-07,3.8334563832409657e-07,3.4835008022974804e-07,1.4789095811653965e-05
4.3598174344034865e-07,3.800107091232122e-07,3.47648084307417e-07,1.5045419207429541e-05
4.3056147300495796e-07,3.7668539115390046e-07,3.4685021004971764e-07,1.5317880883044627e-05
4.252277891232373e-07,3.7337922150832e-07,3.459668961907312e-07,1.560608979519106e-05
4.200196787107772e-07,3.700986518821322e-07,3.4500876871379146e-07,1.5909670662256873e-05
4.149748518544389e-07,3.668482636878338e-07,3.439851748820185e-07,1.6228263917817818e-05
4.101277880674551e-07,3.636327781666472e-07,3.429045297220903e-07,1.6561585253729007e-05
4.055108031557957e-07,3.604586077756564e-07,3.4177551432222696e-07,1.6909583380548527e-05
4.01155749009555e-07,3.5733513582979067e-07,3.406076035124663e-07,1.7272594245622073e-05
3.970926744135517e-07,3.542752399386582e-07,3.394101008787086e-07,1.765131274526788e-05
3.933454845857837e-07,3.51293628038932e-07,3.3819068529489286e-07,1.8046582891136372e-05
3.89929633106502e-07,3.4840394777864e-07,3.369543661460463e-07,1.84591603637156e-05
3.868528875938311e-07,3.456173215477284e-07,3.357029714846932e-07,1.88895218898055e-05
3.8411642164664593e-07,3.429425539804191e-07,3.344357892734976e-07,1.933777181844028e-05
3.817162466538401e-07,3.403865078269588e-07,3.331517400433293e-07,1.9803789392441672e-05
3.7964685761751187e-07,3.379555303932995e-07,3.318515473137573e-07,2.028756127968656e-05
3.779068468646635e-07,3.3565927742033984e-07,3.305378895119433e-07,2.0789350751940564e-05
3.765026945595013e-07,3.3351323096877825e-07,3.292142373680989e-07,2.1309554175420253e-05
3.754470433333713e-07,3.315356001897371e-07,3.278841320723118e-07,2.184844758490583e-05
3.7475271956378217e-07,3.297416558288877e-07,3.2655045331775014e-07,2.240601441879723e-05
3.744273579062033e-07,3.281415597173536e-07,3.2521425143167817e-07,2.29818681216603e-05
3.744713143134352e-07,3.267425317916507e-07,3.2387409733689665e-07,2.3575217023474265e-05
3.74877536330915e-07,3.2555189468745923e-07,3.225262148788219e-07,2.418485851842615e-05
3.756320875049342e-07,3.2457835977790965e-07,3.2116493540540125e-07,2.4809202728509946e-05
3.767159594642297e-07,3.238320560962481e-07,3.197833589203607e-07,2.5446298064865233e-05
3.7810805592040784e-07,3.233244624289512e-07,3.183745920283441e-07,2.6093839990523792e-05
3.797872885108505e-07,3.2306727553437637e-07,3.1693336632326213e-07,2.674916928652076e-05
3.817320543002981e-07,3.230695788392859e-07,3.1545663457484353e-07,2.740927609741745e-05
3.83918307103021e-07,3.233353084128182e-07,3.139427438059904e-07,2.807083100275269e-05
3.86318947869487e-07,3.238631676590769e-07,3.1239066151981964e-07,2.87302526482414e-05
3.8890523389859404e-07,3.246483117094307e-07,3.107998931166933e-07,2.9383793340192195e-05
3.916501311329822e-07,3.2568412243304905e-07,3.0917039707308213e-07,3.0027620600147145e-05
3.9453376821421843e-07,3.269643164697477e-07,3.075024903832316e-07,3.065788608399102e-05
3.9754684036119437e-07,3.284849966520055e-07,3.05797142821459e-07,3.127077279966217e-05
4.00687168646765e-07,3.3024508518007173e-07,3.04056185983106e-07,3.1862526700403195e-05
4.0395291752391546e-07,3.3224538969756787e-07,3.022824217353863e-07,3.24294941163154e-05
4.0733859249686494e-07,3.344875153301036e-07,3.004802618895451e-07,3.2968169815937245e-05
4.1083444295423577e-07,3.3697325675330646e-07,2.986565272672889e-07,3.347525000191197e-05
4.1442741477409047e-07,3.3970342877364066e-07,2.9682090117413173e-07,3.394768186389842e-05
4.181022106956025e-07,3.426750125825883e-07,2.9498514891574923e-07,3.4382688709408395e-05
4.218417711103701e-07,3.458785412330805e-07,2.931607385702463e-07,3.477775920449995e-05
4.25627325941022e-07,3.492977549376398e-07,2.9135712817177965e-07,3.513061991958415e-05
4.2943805191916546e-07,3.529107217020072e-07,2.895816184850345e-07,3.543921448679204e-05
4.3325070050505704e-07,3.5669127395910135e-07,2.8783915686233806e-07,3.57016941927082e-05
4.3703968496452247e-07,3.6061096725556886e-07,2.8613205379218075e-07,3.591641733472766e-05
4.407776177625093e-07,3.6464084168850993e-07,2.844606875289908e-07,3.6081955659987826e-05
4.44436506078706e-07,3.687515437711168e-07,2.828250791013838e-07,3.619710855870711e-05
4.479891987860999e-07,3.729128994788256e-07,2.8122613627294286e-07,3.626092750223347e-05
4.514103147415611e-07,3.7709431169457593e-07,2.796657094489612e-07,3.627275642326328e-05
4.546768502712168e-07,3.812648821263444e-07,2.7814623654670264e-07,3.623227485287778e-05
4.5776855817721455e-07,3.85393368534881e-07,2.766709723773775e-07,3.6139507463127815e-05
4.606691250629162e-07,3.89449810566346e-07,2.752441437408799e-07,3.5994794223357154e-05
4.6337009989486187e-07,3.934073823983518e-07,2.738706808735608e-07,3.579876126508028e-05
4.6587413629295815e-07,3.9724181377903535e-07,2.725562931120697e-07,3.555234708637495e-05
4.6819160548040893e-07,4.009303315813853e-07,2.713081024194144e-07,3.525688226595631e-05
4.7033346329109867e-07,4.044535573058666e-07,2.701353307091059e-07,3.4914121808719725e-05
4.723071641983305e-07,4.0779923579690497e-07,2.6904842312724747e-07,3.4526151267628856e-05
4.741164249835028e-07,4.1096304198929614e-07,2.680568329950547e-07,3.4095220749744606e-05
4.7576264443591346e-07,4.139444113784861e-07,2.671691037194815e-07,3.3623624227335654e-05
4.77245748758874e-07,4.16741443360055e-07,2.66394911825389e-07,3.3113674473213364e-05
4.785639861952339e-07,4.19349501755704e-07,2.657445223785474e-07,3.2567726032396646e-05
4.797149917627712e-07,4.21762899631908e-07,2.652259170791488e-07,3.198818036261541e-05
4.806978032564036e-07,4.23976666144254e-07,2.648433967718804e-07,3.137748578160635e-05
4.815128062328758e-07,4.259870262792367e-07,2.645983355169689e-07,3.073824953396657e-05
4.821596732212628e-07,4.277910987077793e-07,2.6449057169222806e-07,3.00734868667224e-05
4.826357652992025e-07,4.2938662678231063e-07,2.645194304405702e-07,2.938678540750095e-05
4.829363410306743e-07,4.307719404053283e-07,2.6468384817533825e-07,2.868220036032088e-05
4.830562697715093e-07,4.319464507698963e-07,2.6498164379983496e-07,2.7963966128720045e-05
4.829923471939744e-07,4.3291081337253866e-07,2.6540875153185174e-07,2.7236208070787225e-05
4.827451041835474e-07,4.336662495159828e-07,2.659590694061219e-07,2.6502810843692995e-05
4.823189359024379e-07,4.342144811548439e-07,2.6662520321150584e-07,2.5767552469940546e-05
4.817216182625165e-07,4.345578225051981e-07,2.673995600337384e-07,2.5034393100533568e-05
4.809648589268128e-07,4.3469945210528743e-07,2.6827412772652477e-07,2.4307620861381257e-05
4.800645246538731e-07,4.3464601419539386e-07,2.692392662483069e-07,2.359175418784532e-05
4.790403956511533e-07,4.344097865686385e-07,2.702835536447709e-07,2.289136061270791e-05
4.779163838965327e-07,4.3400611932248403e-07,2.7139439581136524e-07,2.2210912246061842e-05
4.767185768765119e-07,4.334490008600524e-07,2.725582346474489e-07,2.1554673088329112e-05
4.7547119015755044e-07,4.3274951576539935e-07,2.7376085181726196e-07,2.0926584417263785e-05
4.741948952147522e-07,4.3191716962355354e-07,2.749880288858109e-07,2.0330140631839226e-05
4.729072928805172e-07,4.3096177213841155e-07,2.762260812370441e-07,1.976829046878748e-05
4.716227160727693e-07,4.2989417257868586e-07,2.774624275741912e-07,1.9243394778411664e-05
4.703517687528754e-07,4.2872530605058266e-07,2.786860070074668e-07,1.875721672865755e-05
4.691013091021896e-07,4.274644181381454e-07,2.7988700455155354e-07,1.831091044902161e-05
4.678755046785921e-07,4.261177864218432e-07,2.810566060240339e-07,1.7905025957558364e-05
4.666779700746993e-07,4.2468829612074506e-07,2.8218695017383087e-07,1.7539562359150077e-05
4.655128889328454e-07,4.2317575565722617e-07,2.832705718203544e-07,1.721406622013312e-05
4.643844923451924e-07,4.215781026820749e-07,2.8430019162002285e-07,1.6927757842493752e-05
4.632962911354629e-07,4.19892760306214e-07,2.8526899238802855e-07,1.6679664172521838e-05
4.6225182877422063e-07,4.1811712453233796e-07,2.8617030475486964e-07,1.6468719970571827e-05
4.6125752259393045e-07,4.1624880989971687e-07,2.869977856284511e-07,1.6293810263105422e-05
4.6032476862615393e-07,4.142866123002629e-07,2.8774737091972845e-07,1.615377194300163e-05
4.594686220183613e-07,4.122314532967052e-07,2.8841968902477325e-07,1.6047391910192613e-05
4.5870430709787704e-07,4.100862374209428e-07,2.8902081097199244e-07,1.597341140128782e-05
4.580446006062603e-07,4.078553583809318e-07,2.895609388802597e-07,1.5930519936563145e-05
4.574993021856944e-07,4.055445485088029e-07,2.900521539114521e-07,1.591733262440958e-05
4.570758116558918e-07,4.0316032951587403e-07,2.905062526601776e-07,1.5932353425080162e-05
4.567796221521616e-07,4.007089503182896e-07,2.909339646090834e-07,1.597393489985671e-05
4.566137334370805e-07,3.9819527997537366e-07,2.9134556572933696e-07,1.604028636868069e-05
4.56577824524911e-07,3.9562211287670973e-07,2.91750978435811e-07,1.6129545361359978e-05
4.5666933509182864e-07,3.92991072833465e-07,2.921599534948082e-07,1.6239826126663533e-05
4.5688493129233616e-07,3.903053923109457e-07,2.9258330805745094e-07,1.636920172459729e-05
4.5721990370989363e-07,3.8757187832716616e-07,2.9303233061812786e-07,1.651567853035163e-05
4.576671472205861e-07,3.847999453340694e-07,2.9351624809448556e-07,1.6677210484678525e-05
4.5821687905927726e-07,3.8199961350815977e-07,2.9404199789344373e-07,1.6851729137241353e-05
4.5885655207605965e-07,3.791802065495869e-07,2.946158151380979e-07,1.7037144757893775e-05
4.595720414377594e-07,3.763492552651968e-07,2.9524344704910695e-07,1.7231361936882535e-05
4.603489684421075e-07,3.735119637579875e-07,2.959297906470592e-07,1.7432384540985133e-05
4.611717256038411e-07,3.70672306655663e-07,2.966787004333721e-07,1.7638446201710355e-05
4.6202243941186285e-07,3.6783514026025076e-07,2.974926541724901e-07,1.7848044686947166e-05
4.6288279841101073e-07,3.650075465525637e-07,2.9837281541622763e-07,1.8059875654594093e-05
4.6373706938900613e-07,3.621994808100181e-07,2.993187032011045e-07,1.827273585894945e-05
4.645727238340064e-07,3.5942476002964073e-07,3.003273492211239e-07,1.8485433938397666e-05
4.653781231880905e-07,3.567013780072761e-07,3.013934119502833e-07,1.869672484976648e-05
4.6614033461414024e-07,3.540497847694868e-07,3.0250967453287193e-07,1.8905305055689723e-05
4.6684530133717404e-07,3.5148985189683125e-07,3.036668901079693e-07,1.9109879526396307e-05
4.67479268374963e-07,3.490386673907493e-07,3.048541218038273e-07,1.930923649863725e-05
4.6802948102160073e-07,3.467100964286424e-07,3.060597324875389e-07,1.9502271342190986e-05
4.684833837786521e-07,3.4451458967663e-07,3.07271559657715e-07,1.9687968931652732e-05
4.6882697218191597e-07,3.4245840600375124e-07,3.084763001889956e-07,1.986538065098884e-05
4.690438849803453e-07,3.405434899881845e-07,3.0965918950193574e-07,2.003366901612602e-05
4.691158891339217e-07,3.387683903354334e-07,3.1080458240441234e-07,2.019227240611541e-05
4.690240385393133e-07,3.371291140931379e-07,3.118973258720815e-07,2.034103334355684e-05
4.6874981701520317e-07,3.3561970093024785e-07,3.129238932029174e-07,2.0480110634296047e-05
4.682756657904544e-07,3.3423282825103567e-07,3.138722329010713e-07,2.060981787396126e-05
4.6758501749179527e-07,3.329598497995389e-07,3.1473061098113854e-07,2.0730565465652448e-05
4.6666281640720126e-07,3.317910196525109e-07,3.154869162636129e-07,2.0842825039390134e-05
4.6549604914897435e-07,3.307176637876224e-07,3.161292408705155e-07,2.094705202880196e-05
4.6407367107340925e-07,3.297352510842396e-07,3.1664655831312307e-07,2.1043625299606305e-05
4.6238727038018025e-07,3.288446966909955e-07,3.1702849307050407e-07,2.1132833816734832e-05
4.604321403878405e-07,3.28051911333672e-07,3.1726481796082137e-07,2.121488844713444e-05
4.5820675523723927e-07,3.273674544668189e-07,3.1734523088469217e-07,2.128992135324871e-05
4.55711540543892e-07,3.268063505917361e-07,3.172598166135782e-07,2.135796145972697e-05
4.52948933609476e-07,3.2638698519814183e-07,3.1700075285171907e-07,2.141890576893856e-05
4.4992401087157534e-07,3.261283030372648e-07,3.165648132703703e-07,2.1472501425250642e-05
4.466442558066616e-07,3.2604572048009057e-07,3.159546085432837e-07,2.15183410625863e-05
4.431188383133993e-07,3.261486200557616e-07,3.151768060908048e-07,2.1555876325728355e-05
4.3935865741948855e-07,3.264410038606173e-07,3.142389995358005e-07,2.1584463257838468e-05
4.3537798294392135e-07,3.26923021903102e-07,3.1314811993594623e-07,2.1603427152670504e-05
4.311959577195838e-07,3.2759158951348427e-07,3.119105540113963e-07,2.1612097105945496e-05
4.268356272998737e-07,3.2844055133818514e-07,3.1053287234963133e-07,2.160980436808209e-05
4.223222310158803e-07,3.2946152704649747e-07,3.090226188943298e-07,2.159589473368658e-05
4.176821195167592e-07,3.3064669690556477e-07,3.073888518920001e-07,2.1569760612357985e-05
4.129409716746082e-07,3.3199227692779753e-07,3.056432001534254e-07,2.153085665939093e-05
4.0812179608338365e-07,3.33498918259346e-07,3.038020472706891e-07,2.1478701378512767e-05
4.032438422538624e-07,3.351683491172292e-07,3.0188763891703786e-07,2.141288785042993e-05
3.983224407027094e-07,3.370003422207771e-07,2.999259503950582e-07,2.1333103690669366e-05
3.933695395566518e-07,3.3899337796854174e-07,2.979428534221065e-07,2.1239156984349654e-05
3.8839446261997273e-07,3.4114742730921715e-07,2.959617116121541e-07,2.1131006944842567e-05
3.834047819455918e-07,3.434648160800478e-07,2.9400319009620245e-07,2.100877357712222e-05
3.784078064513215e-07,3.459479153066498e-07,2.9208525367346944e-07,2.087270166573387e-05
3.7341261559981904e-07,3.485960816851809e-07,2.9022220453558424e-07,2.0723098776232925e-05
3.684312337258818e-07,3.51403927781453e-07,2.8842392585060767e-07,2.0560284001121444e-05
3.634788639685356e-07,3.543608043424199e-07,2.866963519099782e-07,2.03845771472853e-05
3.5857598793666505e-07,3.574512202085528e-07,2.8504288795122727e-07,2.019635941505217e-05
3.537521545297248e-07,3.606564806523833e-07,2.834656538547412e-07,1.9996161712659024e-05
3.490457470627445e-07,3.639567972901393e-07,2.819660464404738e-07,1.978466910847453e-05
3.4449750355603445e-07,3.673327630447258e-07,2.805450251381384e-07,1.956265486524387e-05
3.401437476536818e-07,3.707666224690343e-07,2.7920306020492437e-07,1.9330936884629213e-05
3.360144478175336e-07,3.742426497835689e-07,2.7794013397131684e-07,1.9090349695401134e-05
3.3213449195908565e-07,3.7774535667606114e-07,2.7675712021659716e-07,1.8841740096001182e-05
3.2852577983517505e-07,3.812577472493558e-07,2.7565839202519787e-07,1.8586031222967504e-05
3.252089350791812e-07,3.8476111108048133e-07,2.746531927943663e-07,1.832427242178037e-05
3.2220238110664946e-07,3.882351652410567e-07,2.7375387792409416e-07,1.8057575140083006e-05
3.195192786906425e-07,3.916587916172073e-07,2.729723554661108e-07,1.778698685802937e-05
3.171654677422039e-07,3.950113744105081e-07,2.723174724625299e-07,1.7513414922070504e-05
3.1513993163955997e-07,3.982732653834232e-07,2.7179463596582604e-07,1.7237656305438453e-05
3.1343743722253737e-07,4.014248302923676e-07,2.714075523222858e-07,1.696051908535924e-05
3.120510516480003e-07,4.044458007988185e-07,2.7116016497352876e-07,1.6682934565962122e-05
3.109723550781297e-07,4.073171815659259e-07,2.710560450311583e-07,1.6405938697940755e-05
3.1019043746359484e-07,4.1002352526322157e-07,2.710961360059234e-07,1.6130547381689993e-05
3.096915084199729e-07,4.1255236153834467e-07,2.71277993971331e-07,1.5857675403120104e-05
3.094593095847878e-07,4.14893035920509e-07,2.715964059815053e-07,1.5588146553830958e-05
3.094760067367713e-07,4.170373871372689e-07,2.7204366675824627e-07,1.5322705030570725e-05
3.0972318946467033e-07,4.1898051245621974e-07,2.726099094740959e-07,1.5061983233884473e-05
3.1018273342631804e-07,4.2072028479099737e-07,2.732840109496918e-07,1.4806479923176305e-05
3.108371042124516e-07,4.222567750043102e-07,2.740540768404905e-07,1.4556641619750808e-05
3.116692164271718e-07,4.235918779065817e-07,2.749071376739935e-07,1.4313077957049527e-05
3.12663683741752e-07,4.247280414985629e-07,2.758295451906393e-07,1.4076751369942664e-05
3.138088809643937e-07,4.256667053685196e-07,2.768092468233889e-07,1.3848948133883254e-05
3.150961967149377e-07,4.264086436530626e-07,2.7783766433236604e-07,1.363108006776542e-05
3.165172836439071e-07,4.269566934930168e-07,2.789090390371861e-07,1.3424494557172459e-05
3.180633678315237e-07,4.2731841166162987e-07,2.800191909155754e-07,1.3230379440168097e-05
3.197265324510415e-07,4.275060900641118e-07,2.811646841132552e-07,1.3049811977572768e-05
3.215005883187303e-07,4.275342282062982e-07,2.8234149971078077e-07,1.2883952977153184e-05
3.233806252707182e-07,4.274166198385733e-07,2.835437299516161e-07,1.2734207202309649e-05
3.253616491008012e-07,4.271647321047845e-07,2.847627496090012e-07,1.2602180393816012e-05
3.2743846293226977e-07,4.267871602363667e-07,2.859870196231043e-07,1.2489513562633956e-05
3.296071615247168e-07,4.262896289539989e-07,2.8720301242044577e-07,1.23977436959134e-05
3.318652419826645e-07,4.2567548634328156e-07,2.883974184329425e-07,1.2328208675435275e-05
3.3421031462071326e-07,4.249461743078278e-07,2.8955941750002897e-07,1.2281966097429205e-05
3.3663989701242187e-07,4.241016560362008e-07,2.906810630050507e-07,1.2259731629876289e-05
3.391516302137323e-07,4.2314104422934533e-07,2.917563679195013e-07,1.2261854753544255e-05
3.417420425989147e-07,4.220628384625068e-07,2.927803558934534e-07,1.2288327343905612e-05
3.444050220173761e-07,4.208649009127864e-07,2.937478828440707e-07,1.233879801381915e-05
3.4713228441893856e-07,4.19544641441499e-07,2.946536800654579e-07,1.2412571754251587e-05
3.499146951353233e-07,4.180987163471111e-07,2.954941136959115e-07,1.2508612754632515e-05
3.5274212533362346e-07,4.165228915752658e-07,2.9626750743836544e-07,1.2625581407792274e-05
3.556024649893797e-07,4.1481476750171326e-07,2.96972031560546e-07,1.2761898150358955e-05
3.584810642778636e-07,4.1297897968346844e-07,2.9760381893360273e-07,1.2915822058451488e-05
3.613610779168298e-07,4.110296278330723e-07,2.9815658743190133e-07,1.3085555588753434e-05
3.6422475071490845e-07,4.089865222642061e-07,2.9862199219913266e-07,1.3269351446015694e-05
3.6705424324823363e-07,4.0686904499711095e-07,2.989903295708023e-07,1.3465573726774367e-05
3.69831426076189e-07,4.046933625438599e-07,2.992517284812201e-07,1.3672721843666685e-05
3.725377527376816e-07,4.024730742170797e-07,2.9939714207625123e-07,1.3889453707674871e-05
3.751542614048224e-07,4.0021988913439976e-07,2.9941839308221753e-07,1.411459289252329e-05
3.776612721834005e-07,3.9794381655302045e-07,2.993081578683724e-07,1.4347073110984824e-05
3.800385063399621e-07,3.9565413347713534e-07,2.990605073311775e-07,1.458582131063456e-05
3.822661577253527e-07,3.9336000651083116e-07,2.986713553197351e-07,1.4829646037494495e-05
3.8432615116742635e-07,3.9107005479004135e-07,2.981386424028719e-07,1.5077206127744395e-05
3.8620306577945497e-07,3.887918828810716e-07,2.974619172720052e-07,1.532708302176871e-05
3.8788428030251323e-07,3.8653128764121243e-07,2.9664104073616936e-07,1.55778950840271e-05
3.8935875024889407e-07,3.84291426431764e-07,2.9567517249484355e-07,1.5828355116543703e-05
3.9061549631339066e-07,3.820731444026804e-07,2.945629344189087e-07,1.607724820653735e-05
3.916429712904041e-07,3.798754026757853e-07,2.933034418650321e-07,1.632339014631432e-05
3.9242922574858964e-07,3.776946395834122e-07,2.9189741482792685e-07,1.6565617852012423e-05
3.929625765504978e-07,3.755245734659177e-07,2.9034721459809977e-07,1.6802804465297165e-05
3.932327139742836e-07,3.733576047159565e-07,2.8865597396609586e-07,1.7033867588286773e-05
3.9323203790184367e-07,3.711860269805325e-07,2.8682761793883736e-07,1.7257798131888567e-05
3.929560151754794e-07,3.6900168735164257e-07,2.84867591867779e-07,1.7473750961324995e-05
3.9240237998745756e-07,3.667960030373005e-07,2.827822412753388e-07,1.768113506005685e-05
3.915705618297736e-07,3.645622577483408e-07,2.805772078356662e-07,1.7879618250560938e-05
3.9046148399196367e-07,3.6229831539258424e-07,2.782568618148924e-07,1.8069048047051915e-05
3.8907723306884976e-07,3.6000684621984407e-07,2.758250443880306e-07,1.8249329332531312e-05
3.8742087482986116e-07,3.576942336346797e-07,2.732863395396989e-07,1.842030176263096e-05
3.8549665216920244e-07,3.5537098493636105e-07,2.706469724477328e-07,1.858166673640674e-05
3.8331020894697116e-07,3.530525810083861e-07,2.6791446973168467e-07,1.8732998449388424e-05
3.8086844465977113e-07,3.5075774895803893e-07,2.6509674519517985e-07,1.88738262109932e-05
3.781792457770946e-07,3.485048629320256e-07,2.6220230780989014e-07,1.9003724316220284e-05
3.7525143649114025e-07,3.463097721233878e-07,2.592418305647868e-07,1.912235349145025e-05
3.720947385357911e-07,3.4418588542107137e-07,2.562291116053359e-07,1.922945374210313e-05
3.6871971467273406e-07,3.421447875465819e-07,2.531800196363845e-07,1.932480844535766e-05
3.651386600353789e-07,3.4019578591766236e-07,2.501106300851176e-07,1.940823109209388e-05
3.6136730989631035e-07,3.383453500234233e-07,2.470361222587473e-07,1.947967053500968e-05
3.5742490728025604e-07,3.3659887617518694e-07,2.4397037110355486e-07,1.953937128262869e-05
3.5333218252422364e-07,3.34963471256563e-07,2.409254877400533e-07,1.95878886632018e-05
3.491099960687781e-07,3.334480986959947e-07,2.379116654119429e-07,1.962598426749304e-05
3.4477996000429695e-07,3.32061253640386e-07,2.349382126512867e-07,1.965455067987301e-05
3.403659373270429e-07,3.3080877460385406e-07,2.320150280152316e-07,1.967455023705408e-05
3.3589479558727087e-07,3.2969265135393427e-07,2.2915321333372928e-07,1.968693675504501e-05
3.313954217431029e-07,3.2871098255858694e-07,2.2636519593912228e-07,1.9692607025034578e-05
3.268972411893246e-07,3.278596833691549e-07,2.2366498690296773e-07,1.969241693981266e-05
3.224301221977079e-07,3.2713546805582755e-07,2.2106765428323217e-07,1.9687270131545828e-05
3.180247451659437e-07,3.265382179498511e-07,2.1858747478185058e-07,1.967822483714028e-05
3.137121814755094e-07,3.260708524683418e-07,2.1623631898517719e-07,1.966651674554438e-05
3.095238688507844e-07,3.257365697149496e-07,2.1402337207197423e-07,1.965346703089553e-05
3.054917467484441e-07,3.255355469772695e-07,2.119552844279141e-07,1.9640342747325752e-05
3.016466822420273e-07,3.2546313405772216e-07,2.1003613039725812e-07,1.962823937640578e-05
2.9801619803130866e-07,3.255099896068551e-07,2.082674975561768e-07,1.961801558227107e-05
2.9462327607397626e-07,3.256638919009934e-07,2.0664886769724227e-07,1.9610296168789458e-05
2.91485931886869e-07,3.2591219994052317e-07,2.051780980725612e-07,1.9605517759187232e-05
2.886173437734222e-07,3.262438007250585e-07,2.0385171208452024e-07,1.9603970114387285e-05
2.860263656153767e-07,3.266500784679422e-07,2.026654530307357e-07,1.960583821442976e-05
2.837180796165303e-07,3.2712449315358356e-07,2.0161534308095366e-07,1.9611253655097187e-05
2.816947741784611e-07,3.276612803040608e-07,2.006980860901153e-07,1.9620341109152028e-05
2.7995666262092236e-07,3.2825425492411773e-07,1.9991071810066852e-07,1.9633260979984893e-05
2.785020291447419e-07,3.288960029823459e-07,1.9925088247345678e-07,1.965023604573254e-05
2.77328418020184e-07,3.2957796534127603e-07,1.9871772323289983e-07,1.967156985034689e-05
2.764339285271201e-07,3.3029080659312353e-07,1.983121840549148e-07,1.969774579762138e-05
2.7581594250383027e-07,3.3102406204970286e-07,1.980374184025516e-07,1.9729649256003422e-05
2.754685894711893e-07,3.317661026362214e-07,1.9790088089990584e-07,1.97687567936048e-05
2.7538221184074695e-07,3.325047441228385e-07,1.9791561413789772e-07,1.981709340348889e-05
2.755448920885086e-07,3.332276319788577e-07,1.9809756959406653e-07,1.9876968151088854e-05
2.7594388124063737e-07,3.3392284116647527e-07,1.9846111916313325e-07,1.9950646357387352e-05
2.765661250629013e-07,3.345796702459331e-07,1.9901615100683392e-07,2.0040091914041897e-05
2.7739861890582164e-07,3.351883204906495e-07,1.9976726217839969e-07,2.014691553700491e-05
2.784290206180166e-07,3.357390658253574e-07,2.0071453994535325e-07,2.0272591284594822e-05
2.796458059487009e-07,3.362231524389822e-07,2.018549361791064e-07,2.041871818918019e-05
2.810374749091102e-07,3.366343999161328e-07,2.031831205092805e-07,2.0587016193242003e-05
2.825915554525618e-07,3.369688649095911e-07,2.0469211677169248e-07,2.077907122199253e-05
2.842937466402638e-07,3.372240340419289e-07,2.063744180886589e-07,2.0996100378682966e-05
2.861275092728264e-07,3.373993649433393e-07,2.082237576686018e-07,2.1238884624592816e-05
2.8807548190607786e-07,3.374962796687724e-07,2.1023643863081678e-07,2.1507798069490555e-05
2.901225184853887e-07,3.375166839122348e-07,2.1241050000924284e-07,2.1802824960055613e-05
2.9225734007284746e-07,3.374615641952294e-07,2.1474401198576545e-07,2.2123539491128635e-05
2.944712398439436e-07,3.3733063681748573e-07,2.1723519067305413e-07,2.246908441358621e-05
2.967565478067455e-07,3.371229637127192e-07,2.1988422258594398e-07,2.2838161646020287e-05
2.991067145124324e-07,3.368374168184442e-07,2.226948382753692e-07,2.322901455363629e-05
3.015156690367159e-07,3.364720602352472e-07,2.256743363878016e-07,2.363942153839044e-05
3.039755826697329e-07,3.3602351035473945e-07,2.2883194320686122e-07,2.406674660598178e-05
3.06475727233598e-07,3.354874814116045e-07,2.3217641239369283e-07,2.450803994207789e-05
3.090038396149664e-07,3.348609126963793e-07,2.357141194068349e-07,2.496014257355145e-05
3.1154857931326014e-07,3.341452306234875e-07,2.394483226084352e-07,2.5419761386587765e-05
3.141008805779638e-07,3.333476127636949e-07,2.4338030431842784e-07,2.588350885117572e-05
3.166535197341788e-07,3.3247856673396957e-07,2.47511444523372e-07,2.634792963809919e-05
3.1920001357936693e-07,3.315491243670208e-07,2.51842781277487e-07,2.680952455488881e-05
3.217337569781712e-07,3.30569817546447e-07,2.563718797631157e-07,2.7264766670786703e-05
3.24247386398712e-07,3.2955008941763985e-07,2.610912732878061e-07,2.7710139567354907e-05
3.267321228200069e-07,3.2849796040669664e-07,2.659903255931088e-07,2.8142214959026293e-05
3.29177211917661e-07,3.274210186580476e-07,2.710573051257722e-07,2.855771986781748e-05
3.315698728761213e-07,3.263274708613962e-07,2.762789426103723e-07,2.89535625303932e-05
3.3389580741194053e-07,3.2522654664225265e-07,2.816399139706874e-07,2.9326869679081798e-05
3.3614012968100097e-07,3.2413108537397537e-07,2.8712438931437176e-07,2.967508448203979e-05
3.38288576314532e-07,3.2306159946161423e-07,2.9271676703817203e-07,2.9996069160921417e-05
3.403283057715813e-07,3.2204567331353393e-07,2.984003661789453e-07,3.0288111113627148e-05
3.42247921963338e-07,3.2111164384225285e-07,3.0415664991137337e-07,3.054982949736813e-05
3.4403708457071673e-07,3.202828421469575e-07,3.09966154850534e-07,3.0780067468989e-05
3.456860330737437e-07,3.195765001503384e-07,3.158103964482529e-07,3.0977814513806566e-05
3.4718577301186237e-07,3.19007267166401e-07,3.21672740183748e-07,3.114215060144555e-05
3.485293586328493e-07,3.185932957839568e-07,3.275368907821473e-07,3.1272229824267576e-05
3.4971338573740647e-07,3.18359570402201e-07,3.333849565721076e-07,3.1367325836661234e-05
3.5073851613112694e-07,3.183355990452196e-07,3.3919663388635156e-07,3.1426906342096365e-05
3.516091980823627e-07,3.185504979971722e-07,3.4494884734616217e-07,3.145069051250801e-05
3.523334258309889e-07,3.19028235329946e-07,3.5061613517191307e-07,3.143868704317134e-05
3.5292195042429955e-07,3.1978501085537033e-07,3.561716974394647e-07,3.1391248386951555e-05
3.533871642080224e-07,3.2083086348131e-07,3.615877911246442e-07,3.1309174405656754e-05
3.537433401625021e-07,3.221726883495044e-07,3.668357508672715e-07,3.119382263791202e-05
3.5400725851616026e-07,3.238139516136462e-07,3.718866471278987e-07,3.104711260457663e-05
3.541970696261349e-07,3.257526937743525e-07,3.7671213213041453e-07,3.0871384611243735e-05
3.5432978482734386e-07,3.2798194569865656e-07,3.8128488408614454e-07,3.0669187636604686e-05
3.544193472567293e-07,3.304918562884072e-07,3.855795127555309e-07,3.0443077523825294e-05
3.5447649188330264e-07,3.332705370654332e-07,3.895742257530514e-07,3.0195469079565008e-05
3.5450927996286824e-07,3.3630309294272534e-07,3.93251572651644e-07,2.9928561074601092e-05
3.545229403299884e-07,3.395705983994637e-07,3.9659756497347045e-07,2.9644329280855687e-05
3.545198226142912e-07,3.430504756535539e-07,3.996007637342091e-07,2.9344608596011425e-05
3.5449981173342117e-07,3.467181373168448e-07,4.0225235846107065e-07,2.90313229942872e-05
3.5446091808371e-07,3.505490311983138e-07,4.0454632480539033e-07,2.8706783146948603e-05
3.5440074924398844e-07,3.545202771916153e-07,4.0647907815809564e-07,2.8373792111414483e-05
3.5431813648016093e-07,3.586116426691839e-07,4.0804954609702847e-07,2.8035447039247124e-05
3.5421383573948563e-07,3.628056590934286e-07,4.092596932144129e-07,2.769480469497636e-05
3.5409087080978165e-07,3.670863164485844e-07,4.1011414977042954e-07,2.735461977321476e-05
3.539537762479656e-07,3.7143775992377246e-07,4.1061884171172927e-07,2.7017299747942788e-05
3.538066268868038e-07,3.758448689536341e-07,4.107797226172733e-07,2.6685126884038862e-05
3.5365301237112496e-07,3.8029426646522156e-07,4.106021506638175e-07,2.6360564317940056e-05
3.534979051497989e-07,3.847745060418924e-07,4.10090943713504e-07,2.604636292238885e-05
3.5334756465276533e-07,3.892769922082879e-07,4.092510636089975e-07,2.574543541956136e-05
3.5320814848094687e-07,3.9379812919862757e-07,4.080889868152833e-07,2.546067324374721e-05
3.530858343900311e-07,3.983397782552725e-07,4.066141579367856e-07,2.519480640869667e-05
3.529867445267714e-07,4.029053391293704e-07,4.0483916840650023e-07,2.495030219884116e-05
3.529153550663535e-07,4.0749424650205093e-07,4.0277859184002595e-07,2.472928905335097e-05
3.528736173753359e-07,4.120997791446961e-07,4.00447430965725e-07,2.4533503726841282e-05
3.528612350030916e-07,4.167109138227354e-07,3.9786015440153313e-07,2.436427658776619e-05
3.5287549046654185e-07,4.2131535630775243e-07,3.9503107699599343e-07,2.4222554251768937e-05
3.529109074118915e-07,4.259001121442914e-07,3.919752431092962e-07,2.410890473375958e-05
3.5295991082912804e-07,4.3044957492113095e-07,3.887086240201357e-07,2.4023479535057347e-05
3.530139427957981e-07,4.349449794261113e-07,3.852477249092978e-07,2.3965992299706524e-05
3.5306377303218057e-07,4.39365708480507e-07,3.816092499233346e-07,2.393574084894879e-05
3.5309931491659204e-07,4.4369025838211224e-07,3.778107821696623e-07,2.3931626128195747e-05
3.53110773609259e-07,4.47898285847035e-07,3.73871933039757e-07,2.3952161399096806e-05
3.530913854963461e-07,4.5197481980458315e-07,3.698135450096932e-07,2.399551574454213e-05
3.53038799151327e-07,4.559135310721414e-07,3.6565528495302096e-07,2.4059587904375492e-05
3.529534770881211e-07,4.597164780464874e-07,3.614143707538248e-07,2.414206474892032e-05
3.528368727352494e-07,4.6339089523055097e-07,3.5710592204929327e-07,2.424046061057458e-05
3.526910368755939e-07,4.6694572754902324e-07,3.5274399695388505e-07,2.435215188744992e-05
3.5251793869520586e-07,4.7038935667734357e-07,3.4834272633942966e-07,2.44743978542672e-05
3.523182379946465e-07,4.7372725837057236e-07,3.439174095086925e-07,2.4604362100437925e-05
3.520907488657765e-07,4.769607127534965e-07,3.3948516552687325e-07,2.4739165286599398e-05
3.51832597816606e-07,4.800891747617422e-07,3.350639101936069e-07,2.4875968672705465e-05
3.515400529642261e-07,4.831134752973744e-07,3.3067058763092127e-07,2.5012085343822226e-05
3.512099495141376e-07,4.860358231322586e-07,3.2632083242481103e-07,2.5145105464981133e-05
3.5084041214621265e-07,4.888580584596152e-07,3.2202972035597144e-07,2.527296085184819e-05
3.5043027741703317e-07,4.915804630961166e-07,3.17813107543678e-07,2.5393880352157403e-05
3.4997792673240854e-07,4.94201541175951e-07,3.136893364065013e-07,2.550629589786357e-05
3.494803086692089e-07,4.967182884063281e-07,3.0967921558522805e-07,2.560876642591227e-05
3.489329169148237e-07,4.99125792611541e-07,3.05804004024342e-07,2.569992941177965e-05
3.483313441378209e-07,5.014174124318545e-07,3.020835757237021e-07,2.5778480807127842e-05
3.4767354136064034e-07,5.0358652816735e-07,2.985354159054404e-07,2.584319176476329e-05
3.469602217160836e-07,5.056271899650591e-07,2.9517389733112674e-07,2.589298237054248e-05
3.461936676701031e-07,5.075324793197755e-07,2.9201000903939207e-07,2.5927077299859758e-05
3.453774990206675e-07,5.092928942736214e-07,2.890525361004508e-07,2.5945196260846164e-05
3.445162553287425e-07,5.108965053757889e-07,2.8630984242709014e-07,2.594764468216787e-05
3.436135253812132e-07,5.123304915261776e-07,2.837901502903597e-07,2.5935241759764238e-05
3.4267113827429773e-07,5.135822165544351e-07,2.8150112162323897e-07,2.5909169536164654e-05
3.4169078188573516e-07,5.146383905474546e-07,2.794500927532356e-07,2.587083011171108e-05
3.4067598208022735e-07,5.154840896675005e-07,2.7764450340527146e-07,2.582171549940993e-05
3.396322246308917e-07,5.16104789700207e-07,2.7609186380582015e-07,2.5763259917588626e-05
3.3856540711578677e-07,5.164905490680441e-07,2.747985840910173e-07,2.5696683591615804e-05
3.3748007897191074e-07,5.166376125940218e-07,2.737687677623889e-07,2.5622896551860045e-05
3.3637867374452746e-07,5.165457562192504e-07,2.7300492783818325e-07,2.554250465103217e-05
3.3526276161777613e-07,5.162155391595005e-07,2.725092087189375e-07,2.5455883650172734e-05
3.341357993605067e-07,5.156481137352832e-07,2.7228330952256923e-07,2.536329311383695e-05
3.330042877288339e-07,5.148455095568621e-07,2.723288390289156e-07,2.5265073041151323e-05
3.318757160736433e-07,5.138107180780921e-07,2.726486395167156e-07,2.5161900782173748e-05
3.3075621644094853e-07,5.125482515389434e-07,2.732470792868354e-07,2.5054894491485572e-05
3.2965070819529617e-07,5.110640910089461e-07,2.741299951650837e-07,2.4945442619973377e-05
3.285645342327272e-07,5.093649236445543e-07,2.7530498936144805e-07,2.483499374992341e-05
3.2750457380258733e-07,5.074578427613452e-07,2.7678009718845e-07,2.472502557385178e-05
3.264790314207394e-07,5.053502469027051e-07,2.785612023442321e-07,2.461707457202149e-05
3.254959719951394e-07,5.030491792971029e-07,2.8065049204863144e-07,2.451268571788201e-05
3.245613000285043e-07,5.005613263690593e-07,2.830461163825237e-07,2.4413328672332045e-05
3.236775974796852e-07,4.978945032183584e-07,2.857416972732013e-07,2.432034187746512e-05
3.228448696595112e-07,4.950583127178138e-07,2.887255814081004e-07,2.423491089287964e-05
3.220622735230339e-07,4.920630148428993e-07,2.919811390802957e-07,2.4158062655100165e-05
3.2132889696482537e-07,4.889187851911293e-07,2.954880775095953e-07,2.4090659642371523e-05
3.2064310125454633e-07,4.85635559187533e-07,2.9922341787358797e-07,2.4033399807447926e-05
3.2000167242739026e-07,4.822224285062656e-07,3.031617871733037e-07,2.398681998090187e-05
3.193999214636489e-07,4.786876496418788e-07,3.0727584641320946e-07,2.395129039500585e-05
3.1883213427346074e-07,4.750397960273239e-07,3.115371650038753e-07,2.392700921355781e-05
3.1829145637286604e-07,4.712892195403621e-07,3.1591694982821e-07,2.391402034061585e-05
3.1776982697959236e-07,4.674492955084457e-07,3.203862842265168e-07,2.391224334509512e-05
3.172589174525062e-07,4.635367219909998e-07,3.2491608593773235e-07,2.392146196508131e-05
3.167517613308553e-07,4.5957027638304214e-07,3.294774415561291e-07,2.394125473762631e-05
3.162431613615093e-07,4.5556846670050476e-07,3.3404225900572005e-07,2.3970929720148425e-05
3.157285360493154e-07,4.515475320839296e-07,3.385831492123918e-07,2.400951931765063e-05
3.152042617446801e-07,4.4752093999959967e-07,3.430731848310027e-07,2.4055823272072282e-05
3.146702092170235e-07,4.43499373969981e-07,3.4748690039901e-07,2.410846849356e-05
3.1413097310525e-07,4.3949001542828906e-07,3.5180103681541746e-07,2.416597857945685e-05
3.1359482775044735e-07,4.354963113277258e-07,3.559935614669282e-07,2.422685920175223e-05
3.130723552490342e-07,4.3151932120082104e-07,3.6004321810815077e-07,2.428968603963433e-05
3.125743755275949e-07,4.275591737130556e-07,3.6393172206477277e-07,2.4353161654541396e-05
3.1210907459057523e-07,4.236154836693901e-07,3.676462258575882e-07,2.441613190778605e-05
3.116805461835823e-07,4.1968759675773453e-07,3.7117912560690156e-07,2.447757882917336e-05
3.112893161323189e-07,4.1577536471596667e-07,3.745260007811049e-07,2.453659747901008e-05
3.109338786811677e-07,4.1188074181301827e-07,3.7768363019941174e-07,2.459234549894272e-05
3.10612106404163e-07,4.080092773178651e-07,3.8064931805558344e-07,2.464396950096168e-05
3.1032127827792e-07,4.0417007667051383e-07,3.8342155405888404e-07,2.469056324680348e-05
3.100572945230461e-07,4.0037533482708845e-07,3.8600079515434133e-07,2.4731192986723567e-05
3.098152092552485e-07,3.966402128180758e-07,3.883901465315381e-07,2.4764934312545946e-05
3.0959121821315487e-07,3.9298234125032686e-07,3.905956048527039e-07,2.4790872174109306e-05
3.0938327366943745e-07,3.8942114111983257e-07,3.926247963909362e-07,2.480809309187099e-05
3.0918923964061146e-07,3.859763118432746e-07,3.9448473796113284e-07,2.4815687676318368e-05
3.090053029677653e-07,3.8266489342247296e-07,3.961800829107782e-07,2.4812763858370645e-05
3.0882649646204037e-07,3.7949871807881455e-07,3.977132320337254e-07,2.4798491333427325e-05
3.0864799912986825e-07,3.764837430613365e-07,3.990863023011594e-07,2.477215064905801e-05
3.084652594786469e-07,3.736206464487067e-07,4.0030232889405776e-07,2.473313286518991e-05
3.0827298720958764e-07,3.70905618340031e-07,4.013643495055586e-07,2.4680888692024786e-05
3.080644555550188e-07,3.683309400178422e-07,4.022748114010932e-07,2.4614872287163238e-05
3.0783182990966557e-07,3.6588561435628797e-07,4.030367712309165e-07,2.453455122192498e-05
3.075674159528661e-07,3.635565119226185e-07,4.036546832572109e-07,2.443951542743544e-05
3.072654875938633e-07,3.613297566920175e-07,4.0413312949741504e-07,2.4329594793707932e-05
3.069239519789883e-07,3.591914418639917e-07,4.044749298707357e-07,2.420485788302096e-05
3.06545059150835e-07,3.571280826264185e-07,4.0468119695403295e-07,2.4065500008078548e-05
3.0613491743449264e-07,3.5512787160958217e-07,4.047540137327003e-07,2.3911748431176323e-05
3.057018310998829e-07,3.531818675841064e-07,4.046984463617578e-07,2.37438467393129e-05
3.052543659333393e-07,3.512840760899404e-07,4.045211652533055e-07,2.356206115247261e-05
3.0480094008820657e-07,3.494306363328401e-07,4.042285532828861e-07,2.336667290704015e-05
3.0435033760085267e-07,3.4761852593025715e-07,4.0382700193389603e-07,2.3158004781462604e-05
3.0391094153068663e-07,3.458444313030583e-07,4.0332338605487253e-07,2.2936537940547408e-05
3.034899569435029e-07,3.441041177986221e-07,4.027239831927576e-07,2.2703094939382395e-05
3.030947416703671e-07,3.423923478173393e-07,4.0203299320495626e-07,2.245893736986371e-05
3.027339108369549e-07,3.407033170130149e-07,4.0125197967476466e-07,2.2205656861381092e-05
3.0241609375128243e-07,3.390312022631609e-07,4.0038073054079363e-07,2.194495500822284e-05
3.021486492661697e-07,3.373707384218192e-07,3.994197296949793e-07,2.167846160921911e-05
3.019375718151577e-07,3.357177109170506e-07,3.983721120417074e-07,2.1407646703933152e-05
3.017870790044688e-07,3.3406874420322647e-07,3.97242415598041e-07,2.1133907948060112e-05
3.0169892265672176e-07,3.324205158301574e-07,3.960342788483008e-07,2.085884288078657e-05
3.016721588534038e-07,3.307691157979933e-07,3.9475022312421217e-07,2.058447947863105e-05
3.017038253343264e-07,3.29109677518713e-07,3.933921526182985e-07,2.031327043146556e-05
3.0179192346327423e-07,3.2743670272772796e-07,3.919615733112286e-07,2.004792501320223e-05
3.01939372937392e-07,3.257456469249741e-07,3.904609477391596e-07,1.9791223014023082e-05
3.02154809793328e-07,3.240344638825983e-07,3.8889486079868863e-07,1.9545852375153007e-05
3.0244999262597946e-07,3.2230306582349593e-07,3.872686195934432e-07,1.931428047495442e-05
3.0283669759447786e-07,3.205511342667948e-07,3.855857859071508e-07,1.909867946727925e-05
3.033244880764051e-07,3.18776593899402e-07,3.838474169025711e-07,1.8900900615062733e-05
3.039202525678473e-07,3.1697604087914074e-07,3.820530459509609e-07,1.872247173770992e-05
3.046291765767898e-07,3.15146820337478e-07,3.80201554606991e-07,1.856458150473467e-05
3.054549010583683e-07,3.1328940239397977e-07,3.7829159837371656e-07,1.842802366174472e-05
3.063990523552618e-07,3.114080904971869e-07,3.763228933223522e-07,1.831314288161673e-05
3.074620446135693e-07,3.095093958050141e-07,3.7429791137974345e-07,1.8219855477454805e-05
3.086447899392263e-07,3.075999999050363e-07,3.7222280218087677e-07,1.8147743997121727e-05
3.0995001954161246e-07,3.056858818195099e-07,3.7010724670594064e-07,1.80961699027605e-05
3.113817162622621e-07,3.037723389717372e-07,3.6796252948185813e-07,1.806437804514091e-05
3.129424440865904e-07,3.0186518280062897e-07,3.657990010814e-07,1.805159780444013e-05
3.146316397616641e-07,2.9997241052516706e-07,3.6362510224382204e-07,1.80571282297921e-05
3.164464226106781e-07,2.981035055114278e-07,3.614472537016147e-07,1.8080381168982248e-05
3.1838263017185105e-07,2.9626649093550503e-07,3.592698828608189e-07,1.812088282108315e-05
3.204343639709942e-07,2.9446599596208463e-07,3.5709660148643926e-07,1.8178246666657306e-05
3.225934957495323e-07,2.92703648261199e-07,3.549321228336686e-07,1.8252117993446147e-05
3.24851156263711e-07,2.909807147113096e-07,3.527830295217833e-07,1.8342092403205152e-05
3.2719994636561805e-07,2.8930218795627645e-07,3.5065728951732675e-07,1.844762520168456e-05
3.296340754295961e-07,2.8767883051153414e-07,3.485641885489028e-07,1.8567960594637915e-05
3.32147645768232e-07,2.861247178709282e-07,3.465150155366821e-07,1.8702108542473456e-05
3.347341158371244e-07,2.846535548536998e-07,3.4452314069981706e-07,1.8848867024742125e-05
3.373876415450627e-07,2.8327773905074594e-07,3.4260250450916425e-07,1.9006855749642e-05
3.401032004782932e-07,2.820085483272506e-07,3.407655322008413e-07,1.9174548812416136e-05
3.428752907937991e-07,2.808555072407322e-07,3.390223079159105e-07,1.9350321612814125e-05
3.4569884394992163e-07,2.79826818594725e-07,3.3738133136553673e-07,1.9532506351442585e-05
3.485718180856513e-07,2.78930533660984e-07,3.358506818622837e-07,1.971943097298959e-05
3.514954403225221e-07,2.781741138168888e-07,3.344376929004838e-07,1.9909432801690803e-05
3.544722168717437e-07,2.7756406198290965e-07,3.331470179018149e-07,2.010088437586484e-05
3.575041302667612e-07,2.771073415552179e-07,3.319794041888824e-07,2.029225160256849e-05
3.605908464593122e-07,2.7681168174388706e-07,3.309321632869855e-07,2.0482129197437587e-05
3.6372768470038926e-07,2.7668322106343604e-07,3.300006253130933e-07,2.0669223793350555e-05
3.669048048836404e-07,2.7672463470259946e-07,3.291801558121831e-07,2.085230990035249e-05
3.7010825725966774e-07,2.769362674699235e-07,3.2846818638953427e-07,2.103017490762115e-05
3.733217716578876e-07,2.773188426289471e-07,3.278649720229798e-07,2.120157197114786e-05
3.7652800751622563e-07,2.7787424359022216e-07,3.2737231155133837e-07,2.136521308132469e-05
3.797091112615515e-07,2.786034447963962e-07,3.269917001339602e-07,2.1519814565207144e-05
3.828468197970341e-07,2.795050216321096e-07,3.267239275309414e-07,2.1664171613108247e-05
3.8592204437981615e-07,2.80576564529482e-07,3.265696460892705e-07,2.1797226495808787e-05
3.8891454820090974e-07,2.8181743394465664e-07,3.265289768110674e-07,2.1918103297903e-05
3.9180406719407037e-07,2.832301914557981e-07,3.2660043033207545e-07,2.202610205932965e-05
3.9457299363966655e-07,2.848190250593585e-07,3.2678095379562523e-07,2.2120661480894878e-05
3.972083010794118e-07,2.865867408595354e-07,3.270667021273355e-07,2.220133562222676e-05
3.99700415252779e-07,2.8853322497671454e-07,3.2745354731998537e-07,2.2267853768930372e-05
4.020404355376482e-07,2.906549511978041e-07,3.279375240729506e-07,2.232019952695466e-05
4.0421913555041497e-07,2.929447028638732e-07,3.285145414460721e-07,2.235857631177509e-05
4.062281815666783e-07,2.953924627285558e-07,3.291793247182852e-07,2.2383285113507106e-05
4.0806073094378186e-07,2.9798621036411024e-07,3.299252763907464e-07,2.239460544772905e-05
4.097099698968651e-07,3.0071120971453125e-07,3.3074550169395785e-07,2.2392713981590767e-05
4.111675514380518e-07,3.0354944383432325e-07,3.316335232423436e-07,2.237765545229408e-05
4.124237972105022e-07,3.0648030405880015e-07,3.325833622553093e-07,2.234935959213034e-05
4.1346938033662295e-07,3.094818871905473e-07,3.335897875621753e-07,2.2307694594662445e-05
4.142975864343885e-07,3.1253228532670377e-07,3.346488079223491e-07,2.225256914426068e-05
4.149055949658128e-07,3.1561027466990427e-07,3.3575773857625217e-07,2.2184059639633387e-05
4.1529348945009887e-07,3.186958285765564e-07,3.369142406118983e-07,2.210247826115848e-05
4.154631584781338e-07,3.2177242436378515e-07,3.3811473884429807e-07,2.200834743990158e-05
4.154195402845593e-07,3.248304434832348e-07,3.393540272460116e-07,2.1902321391102907e-05
4.1517183543823607e-07,3.278674127242703e-07,3.406270983551653e-07,2.1785084680209e-05
4.1473249209985316e-07,3.308851245805422e-07,3.419310979798941e-07,2.1657279218352093e-05
4.1411588890760323e-07,3.3388849571032143e-07,3.432646446737484e-07,2.151953294271242e-05
4.133374943217678e-07,3.3688591316405286e-07,3.446256206461185e-07,2.137256704707312e-05
4.124126904256002e-07,3.398867822785959e-07,3.460104758563793e-07,2.121727325306476e-05
4.11355927095765e-07,3.428972720615454e-07,3.474149825286734e-07,2.105470335165308e-05
4.101805161915196e-07,3.459182388522194e-07,3.4883495870743326e-07,2.0885994839447587e-05
4.08898432877456e-07,3.489459030688146e-07,3.502666777267694e-07,2.0712273476100947e-05
4.075205328510293e-07,3.519734826450953e-07,3.5170627018866747e-07,2.0534562706133385e-05
4.060577290465923e-07,3.549927259753801e-07,3.5314848193723137e-07,2.03537217303219e-05
4.0452168889373496e-07,3.579949824206089e-07,3.54587341712244e-07,2.0170428017063288e-05
4.0292378069090536e-07,3.6097106305781156e-07,3.5601827675110406e-07,1.9985239857979472e-05
4.0127345033503214e-07,3.639104551245283e-07,3.5743790045563004e-07,1.979878059525912e-05
3.9957742325750406e-07,3.6680165946951773e-07,3.588419276294437e-07,1.961195089196418e-05
3.978399333421634e-07,3.696335969215453e-07,3.602249032370577e-07,1.9425978876838668e-05
3.9606349175707045e-07,3.7239629594122146e-07,3.61581401263968e-07,1.92422960331101e-05
3.942494236766928e-07,3.750799398939776e-07,3.6290636625219936e-07,1.9062358685925045e-05
3.923985259846546e-07,3.77673286454023e-07,3.6419470904858726e-07,1.888748942025894e-05
3.905123799967969e-07,3.801628841207592e-07,3.654407670516661e-07,1.87188862623107e-05
3.885939181389386e-07,3.8253330292642544e-07,3.6663745016281685e-07,1.8557931003208746e-05
3.8664613676814453e-07,3.847676865403224e-07,3.677754552056118e-07,1.8406561113452648e-05
3.8467037690348505e-07,3.8684834214621284e-07,3.688433291885386e-07,1.8267308642484413e-05
3.8266594102625116e-07,3.8875747857226796e-07,3.69828341046252e-07,1.8143010437146792e-05
3.8063085720884865e-07,3.9047771620868357e-07,3.707173312976413e-07,1.8036499781578327e-05
3.785625085806266e-07,3.919928348083632e-07,3.7149725379175547e-07,1.7950418831050373e-05
3.7645808421246187e-07,3.932907076505184e-07,3.72155490982592e-07,1.788709224962971e-05
3.74316203145904e-07,3.943677213742729e-07,3.7268030799766344e-07,1.7848412438964745e-05
3.7213864725624474e-07,3.952299281146203e-07,3.730629653612548e-07,1.7835738736264223e-05
3.699292377624271e-07,3.9588934790100297e-07,3.733005445761676e-07,1.7849825539984264e-05
3.6769100776385456e-07,3.963594404168387e-07,3.733956167870238e-07,1.7890811101763197e-05
3.6542494017706903e-07,3.966526845201147e-07,3.7335267529339507e-07,1.7958298919390735e-05
3.6313044757254893e-07,3.9678076195932325e-07,3.731753590783032e-07,1.8051499127886195e-05
3.608064518382022e-07,3.967567744139299e-07,3.7286661940121827e-07,1.8169349067053896e-05
3.584523086089287e-07,3.965966597623825e-07,3.724301125382591e-07,1.8310571575722874e-05
3.5606772485753567e-07,3.9631780278280346e-07,3.7187048477594853e-07,1.847369507926604e-05
3.536519015453671e-07,3.95936415494443e-07,3.711926751091696e-07,1.8657080191505926e-05
3.5120318300979125e-07,3.9546619219940006e-07,3.704014918071896e-07,1.885896887280496e-05
3.487194194752542e-07,3.9491862002493e-07,3.695017174773238e-07,1.907755414503272e-05
3.4619833687936823e-07,3.9430400260072825e-07,3.6849912859608727e-07,1.931105902905269e-05
3.4363754399722857e-07,3.936328264296395e-07,3.6740241344393774e-07,1.9557776441448292e-05
3.4103426707970183e-07,3.929162954438851e-07,3.6622331299952006e-07,1.981604366242344e-05
3.383853608371638e-07,3.9216543278897593e-07,3.6497372757818716e-07,2.0084190452550306e-05
3.356877145756632e-07,3.9139059970469066e-07,3.636630832498317e-07,2.036049580905943e-05
3.329384614018063e-07,3.9060166455512953e-07,3.622982896911522e-07,2.064316113054213e-05
3.3013514810783576e-07,3.898076947692749e-07,3.608849024563152e-07,2.0930296561214453e-05
3.2727647165704077e-07,3.8901676644118404e-07,3.594278824534075e-07,2.121990800386072e-05
3.2436293098227787e-07,3.8823644046445706e-07,3.579317291442274e-07,2.1509892804346854e-05
3.213965779940109e-07,3.8747477325095465e-07,3.5640033520181993e-07,2.1798055015887303e-05
3.1838035373941157e-07,3.8674096289686133e-07,3.5483680721742746e-07,2.208212366166067e-05
3.1531767425755575e-07,3.860440615478278e-07,3.53243512237442e-07,2.2359771262426927e-05
3.122123806005654e-07,3.853904919123076e-07,3.516222806451596e-07,2.262865750225192e-05
3.090691294537276e-07,3.847827187371232e-07,3.499739979359725e-07,2.28865024798024e-05
3.058939432618958e-07,3.8421941121232534e-07,3.4829810453408754e-07,2.313115490801911e-05
3.026941131010449e-07,3.8369636821783436e-07,3.465932030255858e-07,2.336064269451304e-05
2.994774074003307e-07,3.832080555626774e-07,3.4485787818722897e-07,2.357321465107761e-05
2.962513149513971e-07,3.827491001982544e-07,3.4309129274957017e-07,2.376733628470796e-05
2.9302284407570236e-07,3.8231483349613647e-07,3.4129528612630137e-07,2.394162571961244e-05
2.8979921260207765e-07,3.819008931415274e-07,3.394768287329455e-07,2.409478677418935e-05
2.8658891411409e-07,3.8150289761042594e-07,3.3764673028063113e-07,2.422558340672261e-05
2.8340218723415644e-07,3.811172848129631e-07,3.358156960793381e-07,2.433285695229869e-05
2.8025085062186125e-07,3.807424844281688e-07,3.33994145507487e-07,2.441557048611772e-05
2.771477818731284e-07,3.8037809008205243e-07,3.3219734433303215e-07,2.4472874063681197e-05
2.7410606774215114e-07,3.800224158504233e-07,3.30449087123914e-07,2.4504190816030265e-05
2.711377347206545e-07,3.796713144957103e-07,3.287784196104341e-07,2.450928571269208e-05
2.682527619967909e-07,3.7931888620939297e-07,3.2721290802126777e-07,2.4488269751456805e-05
2.6546023704912766e-07,3.789597182471584e-07,3.2577490561721765e-07,2.4441550364254972e-05
2.6277129875153105e-07,3.785923387433153e-07,3.2448170098184034e-07,2.4369755645187505e-05
2.602010991355927e-07,3.782204850636435e-07,3.233460238026392e-07,2.4273663317500105e-05
2.5776876165180346e-07,3.7785023547228775e-07,3.2237550653609997e-07,2.4154224438206104e-05
2.5549542384509456e-07,3.7748653564966565e-07,3.2157296546320145e-07,2.401266633573445e-05
2.534008399264528e-07,3.771325461191325e-07,3.2093733469515484e-07,2.385048422131185e-05
2.515012000562057e-07,3.7679150455473366e-07,3.2046403571640736e-07,2.3669299937607872e-05
2.498097599172073e-07,3.764689954175653e-07,3.201460113530977e-07,2.347075069785253e-05
2.483378695703541e-07,3.761734878756608e-07,3.199752503203621e-07,2.325644510161565e-05
2.470940896632559e-07,3.7591404575923903e-07,3.199430444681499e-07,2.302796645110469e-05
2.460829304103854e-07,3.7569727488329794e-07,3.200394928353848e-07,2.2786916537937805e-05
2.453058036674283e-07,3.7552700437040747e-07,3.2025396674314125e-07,2.253491346570596e-05
2.447642270231917e-07,3.754060772881865e-07,3.205772320720486e-07,2.227350428723322e-05
2.4446286494565487e-07,3.7533723852093856e-07,3.210037950923866e-07,2.200407754124288e-05
2.444094382887474e-07,3.7532368880895536e-07,3.215316492154896e-07,2.1727859351039124e-05
2.446111911522529e-07,3.753704560397379e-07,3.221589299109515e-07,2.1446023240941494e-05
2.4507160923745e-07,3.754842246562242e-07,3.228809728667945e-07,2.1159871513718328e-05
2.457910132484725e-07,3.756715382703968e-07,3.2369079467657146e-07,2.0870953229118792e-05
2.467700666782213e-07,3.7593862308644045e-07,3.245809164639954e-07,2.0581027093509072e-05
2.480117207786766e-07,3.7629203873585937e-07,3.255429643498102e-07,2.0291926008766844e-05
2.495190835194448e-07,3.7673712846850523e-07,3.265659861273711e-07,2.0005422815255663e-05
2.512917162401473e-07,3.772753863586142e-07,3.276367135247102e-07,1.9723150514124893e-05
2.533242191756137e-07,3.779034969422309e-07,3.287415567959553e-07,1.944657415374046e-05
2.5560833580526463e-07,3.786141470353703e-07,3.2986737425302e-07,1.9176958204244253e-05
2.5813670581511364e-07,3.793970370438857e-07,3.310004972107022e-07,1.891530392014672e-05
2.6090440619722485e-07,3.802394314331906e-07,3.3212639713087247e-07,1.8662338482530333e-05
2.639074513530561e-07,3.8112711348339036e-07,3.3323087578812125e-07,1.841864937034725e-05
2.6714133163903644e-07,3.820465607184711e-07,3.3430178007582906e-07,1.818486203948012e-05
2.7060019301694644e-07,3.829870094455535e-07,3.353305720536432e-07,1.7961654089093194e-05
2.742764046855214e-07,3.8393999125656353e-07,3.363123914087065e-07,1.7749621835122713e-05
2.781616819765918e-07,3.8489725116636965e-07,3.3724411655575253e-07,1.7549169288958686e-05
2.8224723605139124e-07,3.858497369232304e-07,3.381230745947229e-07,1.7360533791360078e-05
2.865212016537709e-07,3.8678722704284656e-07,3.389474708433936e-07,1.7184030780418853e-05
2.909669229761042e-07,3.876979161887528e-07,3.397161766074253e-07,1.7020424648074242e-05
2.9556383851069626e-07,3.885695915046914e-07,3.404270977782341e-07,1.6871114825044822e-05
3.0028918564168077e-07,3.893923449294396e-07,3.410757806722034e-07,1.6738014953105318e-05
3.0511908868964e-07,3.901599347869689e-07,3.4165540052081964e-07,1.662332999584795e-05
3.100288050005059e-07,3.9086837333702e-07,3.4215756671380393e-07,1.6529383414157835e-05
3.149928525187263e-07,3.915137541781508e-07,3.4257261293935454e-07,1.6458420757014422e-05
3.1998550119235613e-07,3.920915364329563e-07,3.428899476151176e-07,1.6412343414259264e-05
3.249818555358931e-07,3.925966674028624e-07,3.431006106067595e-07,1.6392493072563375e-05
3.299589362017052e-07,3.9302338371991225e-07,3.432009632452269e-07,1.639959646145977e-05
3.3489517323608463e-07,3.9336615089679094e-07,3.4319348573408235e-07,1.643383649554033e-05
3.397690443917955e-07,3.936223885335075e-07,3.430841762954377e-07,1.649495292114323e-05
3.445589783971995e-07,3.937936609542434e-07,3.42880391553587e-07,1.6582322230548168e-05
3.4924443888941157e-07,3.9388345949315844e-07,3.425910632755693e-07,1.6695015377510644e-05
3.538068015269042e-07,3.938954835740605e-07,3.422269871149718e-07,1.6831847762897587e-05
3.582292876736693e-07,3.93835455890304e-07,3.41799427044556e-07,1.6991448153845072e-05
3.6249646017080615e-07,3.9371260901473815e-07,3.4131834420694187e-07,1.717234703469709e-05
3.665937094915075e-07,3.9353705613640103e-07,3.407914594449223e-07,1.7373044412005724e-05
3.7050656560423273e-07,3.9331631817034247e-07,3.402236420554877e-07,1.7592032352566834e-05
3.7422013869130985e-07,3.9305573373446325e-07,3.396165420308649e-07,1.7827778542182654e-05
3.7771902424530024e-07,3.9276174444365294e-07,3.3896917063848574e-07,1.8078679913418883e-05
3.809878311533125e-07,3.92443518385079e-07,3.382787933634861e-07,1.8342992880075172e-05
3.840118723296728e-07,3.9211101238963796e-07,3.37541067050611e-07,1.8618783249802554e-05
3.8677750976248004e-07,3.917716676475229e-07,3.3675021225920174e-07,1.8903967654876087e-05
3.892723987426633e-07,3.914295642976944e-07,3.359005559999141e-07,1.9196423578661147e-05
3.914852915379245e-07,3.910887349243474e-07,3.349884908541936e-07,1.94940527550245e-05
3.9340540026275313e-07,3.9075683107790266e-07,3.340126001955389e-07,1.979476528330488e-05
3.950222378636602e-07,3.9044447297003395e-07,3.329724802556845e-07,2.0096452411004627e-05
3.963264430767775e-07,3.9016156083161286e-07,3.3186847676513767e-07,2.0396986445742764e-05
3.9731192344681103e-07,3.899143298662846e-07,3.307018628679925e-07,2.0694221479808406e-05
3.979784534389237e-07,3.8970531793847134e-07,3.294739505441689e-07,2.0985977140500827e-05
3.9833178140297523e-07,3.8953701684010036e-07,3.281850393644992e-07,2.1270034592382017e-05
3.983804591918213e-07,3.8941559407828687e-07,3.268349130837253e-07,2.1544167668829866e-05
3.9813300150104795e-07,3.893497136513453e-07,3.254243229394679e-07,2.1806209276818213e-05
3.9759805386113355e-07,3.8934686204337627e-07,3.239552904488778e-07,2.205415812369908e-05
3.96786319826129e-07,3.8941255258111e-07,3.2242987687495257e-07,2.2286287964965024e-05
3.957112596179885e-07,3.895524962039689e-07,3.208490336202897e-07,2.2501174339215946e-05
3.943871186342397e-07,3.897745933624115e-07,3.192124861287767e-07,2.2697629488431785e-05
3.928267067258493e-07,3.900882164705669e-07,3.175192680960882e-07,2.287461843618405e-05
3.910415348755943e-07,3.905016170221114e-07,3.157681087237456e-07,2.303119969801533e-05
3.890429179454292e-07,3.910211584746069e-07,3.139575774674292e-07,2.3166506650459533e-05
3.868417371156672e-07,3.916540581338787e-07,3.120863551247657e-07,2.327976735202628e-05
3.844475562027457e-07,3.924110028689643e-07,3.1015361073854124e-07,2.3370323158412585e-05
3.818686242290329e-07,3.9330408514738633e-07,3.081589603508452e-07,2.343763987430477e-05
3.791121118996191e-07,3.9434227914579743e-07,3.0610161734815093e-07,2.348135068267334e-05
3.761839776000191e-07,3.955296041436373e-07,3.039800441645011e-07,2.3501319258441282e-05
3.7308978107049814e-07,3.968663319173175e-07,3.017935158672943e-07,2.3497652129763268e-05
3.698368800987508e-07,3.9835003341845003e-07,2.995436307000806e-07,2.347063074654729e-05
3.664357082481635e-07,3.9997528223998794e-07,2.972336424279464e-07,2.3420619526290355e-05
3.6289843250193074e-07,4.0173436760105574e-07,2.948672795469759e-07,2.3348046557113305e-05
3.5923732580552687e-07,4.036185001359002e-07,2.924486497693972e-07,2.3253475655123012e-05
3.5546573385356286e-07,4.0561689348173e-07,2.899825388825608e-07,2.3137638022910307e-05
3.515998861394996e-07,4.0771553721948774e-07,2.8747452390071076e-07,2.300134696453955e-05
3.476581083380641e-07,4.0989749957851563e-07,2.849315559640471e-07,2.284540374113927e-05
3.4365831205995486e-07,4.121436826289624e-07,2.823632920817982e-07,2.267056890502508e-05
3.396167147895807e-07,4.1443325056922215e-07,2.797819380109313e-07,2.2477566607186525e-05
3.3554785474625933e-07,4.167438601109634e-07,2.771997461180975e-07,2.2267107120891007e-05
3.314649490606992e-07,4.190529923454443e-07,2.746274451730303e-07,2.2039925026411084e-05
3.273803277673437e-07,4.2134085891458e-07,2.720756683833452e-07,2.1796807804028746e-05
3.233053418628216e-07,4.2359259003064954e-07,2.6955732347465854e-07,2.153860515352952e-05
3.192500604280907e-07,4.257976323562879e-07,2.670878295154614e-07,2.126622884093865e-05
3.152232907311236e-07,4.2794722091054294e-07,2.6468310806073487e-07,2.0980648801415122e-05
3.112325496083964e-07,4.3003219890604237e-07,2.623579958259676e-07,2.068288856628624e-05
3.072846831783573e-07,4.3204210731371243e-07,2.6012642299339016e-07,2.0374020665205937e-05
3.0338739745508444e-07,4.339654411340025e-07,2.580019505703955e-07,2.0055162561718627e-05
2.995495665503149e-07,4.357916960582696e-07,2.559971888596108e-07,1.9727467430462242e-05
2.957802201483012e-07,4.3751422313161756e-07,2.541227515817958e-07,1.939208910851392e-05
2.920889336479666e-07,4.39129851276772e-07,2.5238682591384036e-07,1.905012768028989e-05
2.884871540555581e-07,4.406350725321847e-07,2.5079535921981537e-07,1.870261683467069e-05
2.8498775872876066e-07,4.420243611446389e-07,2.493529916640248e-07,1.8350576692737884e-05
2.816033113799938e-07,4.43292324503114e-07,2.480641347801959e-07,1.799507075271226e-05
2.783450610403963e-07,4.4443540059379256e-07,2.469325699620288e-07,1.7637225578918125e-05
2.7522270365988304e-07,4.4545102116650884e-07,2.459600555614941e-07,1.727821539677398e-05
2.722440452462872e-07,4.463363047037116e-07,2.4514581212535325e-07,1.6919206492555167e-05
2.6941524941694033e-07,4.470877307793803e-07,2.4448704256279056e-07,1.656128519889417e-05
2.6674257048015124e-07,4.47701920483278e-07,2.439798540874013e-07,1.6205415362888827e-05
2.6423398955081345e-07,4.481775133993253e-07,2.436198673799413e-07,1.5852438532006024e-05
2.618986150941783e-07,4.4851616404585726e-07,2.4340214702891286e-07,1.5503113040108195e-05
2.5974500690834714e-07,4.487210820580037e-07,2.433211363920881e-07,1.5158165299229458e-05
2.57780677299374e-07,4.487949577253234e-07,2.4337049742645456e-07,1.4818297383427707e-05
2.5601242780754855e-07,4.4873878014473866e-07,2.4354222044156e-07,1.448414451403322e-05
2.54446240057348e-07,4.485513424027317e-07,2.4382567589022693e-07,1.4156235299819562e-05
2.5308618452458484e-07,4.482291268943966e-07,2.442075780013589e-07,1.3834998590632684e-05
2.5193285206958124e-07,4.4776624059408076e-07,2.4467306204919374e-07,1.3520825772295669e-05
2.509828819658935e-07,4.471552211389785e-07,2.452075917001006e-07,1.3214129179262269e-05
2.5023007697119606e-07,4.4638925176451547e-07,2.457986220905257e-07,1.2915321192427965e-05
2.4966679757817374e-07,4.4546357577818687e-07,2.4643612090315516e-07,1.2624747733947005e-05
2.492845471849702e-07,4.4437506825458175e-07,2.471126695154273e-07,1.2342649273922334e-05
2.490739058739057e-07,4.4312228810605467e-07,2.478234925984595e-07,1.2069161402024147e-05
2.490246116230525e-07,4.417061202047259e-07,2.485656959525841e-07,1.1804370105341952e-05
2.491266232192281e-07,4.4012874164668186e-07,2.493371740537462e-07,1.1548409574993248e-05
2.493726580454885e-07,4.3839186133707933e-07,2.50136142313271e-07,1.1301505514586665e-05
2.4976137155675717e-07,4.364963177290305e-07,2.5096112927317986e-07,1.1063919998105666e-05
2.502987029462874e-07,4.3444234674355755e-07,2.5181075158303316e-07,1.0835869778643584e-05
2.509961287884115e-07,4.322301808034773e-07,2.526832997112919e-07,1.0617484961325853e-05
2.5186759830683023e-07,4.2986174455210707e-07,2.5357654289183017e-07,1.040883456934554e-05
2.529266133111305e-07,4.2734183471621156e-07,2.544874399028696e-07,1.0210026167801782e-05
2.541837546971889e-07,4.246779469786096e-07,2.5541196508422304e-07,1.0021309534254288e-05
2.556461793971159e-07,4.218807724520521e-07,2.563456929417539e-07,9.843078244809892e-06
2.573192464972498e-07,4.1896464639981936e-07,2.572842586369502e-07,9.675767496910042e-06
2.592074507266044e-07,4.1594557390937383e-07,2.582228431281802e-07,9.519732200588427e-06
2.613134628288561e-07,4.1283809594061607e-07,2.5915540312189693e-07,9.375167411923643e-06
2.6363724607790587e-07,4.0965354331324523e-07,2.6007430657193033e-07,9.242085184180199e-06
2.6617662755415665e-07,4.064001599204117e-07,2.60970272722037e-07,9.120326872891346e-06
2.689279812513828e-07,4.030843521647182e-07,2.6183277449460685e-07,9.009592869657684e-06
2.718852048797623e-07,3.9971186239593523e-07,2.626511804267173e-07,8.909532146583598e-06
2.750383284482477e-07,3.9628783723094713e-07,2.6341577290099697e-07,8.819945399254841e-06
2.7837456192118417e-07,3.928163285452623e-07,2.641175514157193e-07,8.740989692556599e-06
2.818811330179632e-07,3.893008189001214e-07,2.647474735576993e-07,8.673181697318393e-06
2.855467454383409e-07,3.8574642292859895e-07,2.652962270111182e-07,8.61720986582333e-06
2.8936022011814945e-07,3.8216193764712853e-07,2.657542679958202e-07,8.573721594481073e-06
2.9330806215214393e-07,3.7855881907519405e-07,2.661118383636098e-07,8.543193002465088e-06
2.9737368161860964e-07,3.749476656801261e-07,2.663595950812292e-07,8.525971410691141e-06
3.0153809553590807e-07,3.7133604898895226e-07,2.664898925718252e-07,8.522510559212604e-06
3.0578029782955103e-07,3.6772933469930637e-07,2.664978018687029e-07,8.53360074792641e-06
3.100774801825797e-07,3.6413286341173957e-07,2.663813500879651e-07,8.56037901215219e-06
3.1440569779563e-07,3.605531365303229e-07,2.6614097698650663e-07,8.604167028497998e-06
3.1874048650412825e-07,3.56996912347861e-07,2.657785534551355e-07,8.666309689056642e-06
3.230569126389484e-07,3.534696412854394e-07,2.652964502454004e-07,8.74807010473205e-06
3.273292136646855e-07,3.4997519108876465e-07,2.646966290118921e-07,8.850545805121038e-06
3.3153116450573356e-07,3.465167665792173e-07,2.639800640235005e-07,8.974585622837396e-06
3.356374260152433e-07,3.4309806956030645e-07,2.631470579937777e-07,9.120716017060527e-06
3.396244677203981e-07,3.39723839172124e-07,2.6219792601408007e-07,9.289090902621868e-06
3.4347045960119123e-07,3.363991198714668e-07,2.611337642024962e-07,9.479470917104633e-06
3.471549377393414e-07,3.3312783343758076e-07,2.599578567015215e-07,9.691222890852616e-06
3.506596909480619e-07,3.299121520390591e-07,2.586768490794566e-07,9.923338419931564e-06
3.5397148291198726e-07,3.267534261229441e-07,2.5730000260985066e-07,1.0174493574080286e-05
