2.924325377887149e-07,3.676385461439725e-07,3.4943321716420877e-07,2.046557710046232e-05
2.92412460252948e-07,3.6671860421108205e-07,3.493795522649608e-07,2.0501018422189835e-05
2.923203530814489e-07,3.6569946665464357e-07,3.491561145793809e-07,2.0531297079175733e-05
2.9215537630662466e-07,3.64589848979589e-07,3.487671325511028e-07,2.0555796368569182e-05
2.9191712351488573e-07,3.6340273156728136e-07,3.4821618750398605e-07,2.0573837169444666e-05
2.916066429465104e-07,3.621555096175066e-07,3.4750807825819924e-07,2.058467192356832e-05
2.912264223864209e-07,3.6086793624547317e-07,3.466514770724329e-07,2.058755451891473e-05
2.9077949109239586e-07,3.595595295741145e-07,3.456587871301011e-07,2.058188601525374e-05
2.90268538669292e-07,3.5824774677479485e-07,3.445429791833961e-07,2.0567346306834485e-05
2.896958843071618e-07,3.569474474016702e-07,3.4331509847548553e-07,2.0543899364876005e-05
2.890640528279119e-07,3.556705881479936e-07,3.419839796296741e-07,2.0511677152850195e-05
2.883763818284736e-07,3.544255437454215e-07,3.4055672465061824e-07,2.0470853531968555e-05
2.8763753650676145e-07,3.5321692423537224e-07,3.390389505982157e-07,2.042158583686812e-05
2.8685315020808227e-07,3.520462825879064e-07,3.3743477281895854e-07,2.0364008237431306e-05
2.860284904509943e-07,3.5091306507650853e-07,3.357470667989025e-07,2.029823454076622e-05
2.851675310608973e-07,3.49815014849286e-07,3.3397813757046377e-07,2.022436244177677e-05
2.842727092948677e-07,3.4874819364232785e-07,3.321298912423453e-07,2.0142534633658662e-05
2.8334493507008944e-07,3.477072392149101e-07,3.3020344304105084e-07,2.0053132530081967e-05
2.8238412863102124e-07,3.4668612592790973e-07,3.281991304893689e-07,1.995698770884495e-05
2.8139025156008075e-07,3.4567874707827417e-07,3.261171443944271e-07,1.9855372185185973e-05
2.8036459043904966e-07,3.446787863404114e-07,3.239580481427309e-07,1.9749781880946805e-05
2.793107513446753e-07,3.436796768372817e-07,3.2172252726801865e-07,1.9641712944562965e-05
2.7823436189448226e-07,3.426745237788055e-07,3.194108598806152e-07,1.953253144263928e-05
2.77141497661638e-07,3.416559028928416e-07,3.170232348673435e-07,1.942349105173147e-05
2.760374411550223e-07,3.406166225565648e-07,3.1456095972186463e-07,1.931591332434788e-05
2.749269830556013e-07,3.395504427866955e-07,3.12027363003032e-07,1.9211368131180788e-05
2.7381474225493705e-07,3.384514984497721e-07,3.094272288704968e-07,1.911167367486204e-05
2.7270426178577425e-07,3.3731380828716396e-07,3.0676504823463995e-07,1.901875604856069e-05
2.715976316127067e-07,3.361317914310396e-07,3.0404407910603517e-07,1.8934504033661585e-05
2.704964360136669e-07,3.34901302865544e-07,3.012673995874277e-07,1.88606707736843e-05
2.6940266618315145e-07,3.3362035298928525e-07,2.984395722077544e-07,1.8798821416841547e-05
2.683187621405765e-07,3.322886086209489e-07,2.9556777171232136e-07,1.875030852429401e-05
2.6724680928431696e-07,3.309062762675507e-07,2.926627022377159e-07,1.871624666204757e-05
2.661875880291589e-07,3.294733079195534e-07,2.897386172365042e-07,1.869748266026088e-05
2.651408396047983e-07,3.279888442757621e-07,2.868117926664452e-07,1.8694578400062005e-05
2.6410728565443417e-07,3.2645138568034693e-07,2.83898768850322e-07,1.8707794941802562e-05
2.630905930711853e-07,3.248601335830631e-07,2.810152494498035e-07,1.8737052101155147e-05
2.620973739782957e-07,3.23216144842061e-07,2.781753603676107e-07,1.878188744643167e-05
2.611358833615613e-07,3.215221223473485e-07,2.7539224799646484e-07,1.884146842430012e-05
2.6021451267818337e-07,3.197821651443829e-07,2.726809410670661e-07,1.8914679548807988e-05
2.593401841993666e-07,3.180021795801983e-07,2.700608367935256e-07,1.9000266896132884e-05
2.585171148707829e-07,3.1618940197659497e-07,2.6755495834087446e-07,1.9096981355769205e-05
2.5774651553184664e-07,3.143511398370311e-07,2.65187387807736e-07,1.920365345225672e-05
2.5702710257173574e-07,3.124943667142952e-07,2.629808088294546e-07,1.9319197334946177e-05
2.5635625692338383e-07,3.1062662406277907e-07,2.609543696942603e-07,1.944260069738113e-05
2.5573131017804205e-07,3.087583241039386e-07,2.591226586667596e-07,1.9572939299267013e-05
2.551502327434084e-07,3.06904799679811e-07,2.574960429257123e-07,1.9709400295042573e-05
2.5461274978103145e-07,3.050847716715734e-07,2.560813627097799e-07,1.985128202185307e-05
2.5412173627416296e-07,3.033167406325149e-07,2.5488309596134737e-07,1.9997958044348967e-05
2.5368213656195125e-07,3.0161731820640296e-07,2.5390555649684375e-07,2.0148809202835142e-05
2.532980417730096e-07,3.00000943308834e-07,2.5315400870608825e-07,2.0303169476542238e-05
2.5297139190738864e-07,2.984805503172408e-07,2.5263353279074486e-07,2.0460337173523186e-05
2.527026921074308e-07,2.970703934424522e-07,2.52348699154992e-07,2.061960824462627e-05
2.524917767367252e-07,2.9578839557246444e-07,2.523046374885297e-07,2.0780272027257085e-05
2.523382041817111e-07,2.9465498835839144e-07,2.525070497678068e-07,2.0941594424978127e-05
2.522419521432173e-07,2.9368957120821627e-07,2.529619430286017e-07,2.1102824304202853e-05
2.5220402456680944e-07,2.9290736584752244e-07,2.536767611477437e-07,2.1263204217907487e-05
2.5222682484693765e-07,2.9231859411516053e-07,2.546612904796882e-07,2.14219569918288e-05
2.5231418711957824e-07,2.9192942631483625e-07,2.5592571428970264e-07,2.157828512316759e-05
2.52470452678175e-07,2.9174258531804557e-07,2.574774912230754e-07,2.173141827605078e-05
2.5269968379335546e-07,2.917575083049923e-07,2.593212239877661e-07,2.188067403382344e-05
2.530055834667856e-07,2.919703813730378e-07,2.614602896305343e-07,2.2025508956315373e-05
2.5339067073103005e-07,2.923733654733694e-07,2.6389699871407354e-07,2.2165536614829512e-05
2.5385499933171397e-07,2.92953979625355e-07,2.666321907149994e-07,2.2300475286875212e-05
2.543962147364711e-07,2.936964388909673e-07,2.696644949482504e-07,2.2430055117230164e-05
2.5501094989638533e-07,2.94586291073423e-07,2.729883565483741e-07,2.255393863555267e-05
2.55695630364058e-07,2.956170941476122e-07,2.76592555283966e-07,2.267167030788377e-05
2.564457978572981e-07,2.967939908716955e-07,2.804605365810743e-07,2.2782671352834588e-05
2.572553580246527e-07,2.9813231369616564e-07,2.8457193473106825e-07,2.288628308765825e-05
2.581167589080302e-07,2.9965448547107804e-07,2.889041951761321e-07,2.298181856762308e-05
2.5902169879364903e-07,3.013861363281989e-07,2.934331940802972e-07,2.3068593729865125e-05
2.59961707295582e-07,3.0335090794410365e-07,2.981338065424612e-07,2.314592648148164e-05
2.6092836097094924e-07,3.055664929158978e-07,3.029822653678717e-07,2.3213113757306563e-05
2.6191355463480293e-07,3.080432544970285e-07,3.079589318782489e-07,2.3269447356133152e-05
2.629096890916924e-07,3.107837942695877e-07,3.1304831358768965e-07,2.3314282392027287e-05
2.6390973159951585e-07,3.137832911003884e-07,3.1823608805066207e-07,2.334710704557493e-05
2.6490812726617776e-07,3.170309414145256e-07,3.2350662753300163e-07,2.336757826144548e-05
2.6590171482106015e-07,3.20511520748625e-07,3.288436248959e-07,2.337550616150891e-05
2.668891483563509e-07,3.242067467147444e-07,3.34231754023492e-07,2.337081552168016e-05
2.6786979112397324e-07,3.280964316033833e-07,3.396562711178299e-07,2.3353530488573284e-05
2.688431939859364e-07,3.3215926236377397e-07,3.451008909182845e-07,2.3323772075441988e-05
2.698096264803719e-07,3.363743071669523e-07,3.5054628121124894e-07,2.3281759511989186e-05
2.7077124264037855e-07,3.407236580592195e-07,3.559708582592482e-07,2.3227852327145155e-05
2.7173198467849786e-07,3.4519397587819646e-07,3.613529859974104e-07,2.316262529044409e-05
2.7269621864450286e-07,3.497760904179841e-07,3.6667161775002203e-07,2.308689172415992e-05
2.736674975686089e-07,3.5446394023581965e-07,3.7190516713614047e-07,2.3001628090444125e-05
2.746480664948893e-07,3.5925296240900075e-07,3.770312143894969e-07,2.290783919371929e-05
2.75639451018116e-07,3.6413828987498844e-07,3.8202806622555975e-07,2.2806418365973065e-05
2.766429484768192e-07,3.6911320490930843e-07,3.868785057348456e-07,2.2698063122339263e-05
2.776593447076351e-07,3.741673642244273e-07,3.915750444592394e-07,2.258331702234089e-05
2.786896859131042e-07,3.792856026352786e-07,3.961219978990674e-07,2.246271106494073e-05
2.797370225559184e-07,3.8444829549711473e-07,4.005317920674058e-07,2.2336878543037704e-05
2.8080616690158176e-07,3.8963266961329047e-07,4.0481969076101853e-07,2.2206576577215653e-05
2.8190120233625717e-07,3.94814013466394e-07,4.08999997572734e-07,2.2072635053214772e-05
2.83024016638201e-07,3.9996640506677757e-07,4.1308330619604823e-07,2.193586858608432e-05
2.841746905396245e-07,4.0506350397909995e-07,4.170757799917648e-07,2.1796998535839723e-05
2.853517222625636e-07,4.1007991769842784e-07,4.2097996557510327e-07,2.1656621577606315e-05
2.865520254773013e-07,4.149925706289088e-07,4.247945513371518e-07,2.151521786487964e-05
2.877711917597357e-07,4.1978071034260905e-07,4.2851374388992144e-07,2.137321428982518e-05
2.8900309819972393e-07,4.2442418964910325e-07,4.3212880088221857e-07,2.1231166599508186e-05
2.902394525278933e-07,4.289016310550285e-07,4.356309431734952e-07,2.1090006084600603e-05
2.914710719559234e-07,4.331899892386485e-07,4.3901263714120854e-07,2.0951135560264467e-05
2.9269021757810147e-07,4.372650879489765e-07,4.422667458434409e-07,2.081627866819256e-05
2.938911465599873e-07,4.4110250135649157e-07,4.453854033121479e-07,2.068721564344919e-05
2.950684023582845e-07,4.446794072669083e-07,4.4835940335964614e-07,2.0565547576709663e-05
2.962156875474345e-07,4.4797676141430607e-07,4.5117840310397777e-07,2.0452591649852842e-05
2.9732688992859467e-07,4.50979853203008e-07,4.538330153379155e-07,2.0349522224519306e-05
2.983972243282477e-07,4.5367703017550623e-07,4.563171596738373e-07,2.025764737966685e-05
2.99422503928284e-07,4.5605766338624524e-07,4.586272079750082e-07,2.0178506031983293e-05
3.003975815585449e-07,4.5811083736769646e-07,4.607590096742528e-07,2.011373478166706e-05
3.013158101947112e-07,4.5982611383836186e-07,4.627061410582721e-07,2.006490271395738e-05
3.0217014536076076e-07,4.6119540539977243e-07,4.644594809431219e-07,2.003339488420079e-05
3.029550353674224e-07,4.6221360620704965e-07,4.660073182184698e-07,2.0020326534990837e-05
3.036675648525147e-07,4.628776882909696e-07,4.673361974029617e-07,2.0026485083785427e-05
3.0430800122604906e-07,4.6318569573223066e-07,4.684322447257576e-07,2.0052296119422667e-05
3.04880403840904e-07,4.631367991999835e-07,4.692826824716704e-07,2.0097821627811432e-05
3.053922261556081e-07,4.627329528974791e-07,4.698775784859409e-07,2.016279048978336e-05
3.0585269542044644e-07,4.6198048955623207e-07,4.702110390572611e-07,2.0246614440751536e-05
3.0627148082196694e-07,4.608891190067382e-07,4.7028063066110584e-07,2.034836499835448e-05
3.0665810005872173e-07,4.5947006716271784e-07,4.700859807632081e-07,2.0466766348252296e-05
3.0702124978440797e-07,4.577365023519021e-07,4.6962908872561853e-07,2.0600248962745536e-05
3.0736764639678016e-07,4.5570429753858993e-07,4.6891638552886096e-07,2.074703673641424e-05
3.077010673551437e-07,4.5339060424621255e-07,4.679596946504877e-07,2.0905228315219785e-05
3.080221482560905e-07,4.5081217961908274e-07,4.6677410493594123e-07,2.1072862645043225e-05
3.083284296442364e-07,4.4798482859666796e-07,4.653744345100706e-07,2.12479758374378e-05
3.0861451501551264e-07,4.4492323228431255e-07,4.63773446178669e-07,2.1428651586599772e-05
3.088726614055281e-07,4.4164131893684903e-07,4.619820529361849e-07,2.1613045094273708e-05
3.0909380398674765e-07,4.3815271196534283e-07,4.6001003860436953e-07,2.1799364355410252e-05
3.092688476934239e-07,4.3447031882158134e-07,4.5786700830333606e-07,2.1985835091994573e-05
3.093898852309149e-07,4.3060562659344254e-07,4.5556339438259056e-07,2.217068616169484e-05
3.0945175714213e-07,4.2656887587544173e-07,4.5311160978305615e-07,2.2352156579942628e-05
3.094535544976119e-07,4.22370538265493e-07,4.5052743540080674e-07,2.2528505267900048e-05
3.093977530075195e-07,4.180231934970658e-07,4.478298916118698e-07,2.2698012844916488e-05
3.092877756005423e-07,4.135427606326824e-07,4.4503925828472205e-07,2.285897902719767e-05
3.091278418322641e-07,4.089487775291101e-07,4.421756743930954e-07,2.3009716502273134e-05
3.0892535710519127e-07,4.0426349403405476e-07,4.3925845254636614e-07,2.314854047132463e-05
3.086918087541459e-07,3.9951033853486273e-07,4.36304461268145e-07,2.3273774054860724e-05
3.0844000505219056e-07,3.947124269306834e-07,4.333269923188443e-07,2.3383792840975448e-05
3.081806934760756e-07,3.898911604920293e-07,4.3033657910765477e-07,2.347711056987536e-05
3.0792198014468377e-07,3.850659197766385e-07,4.2734165389923953e-07,2.355246327396036e-05
3.0767059639694774e-07,3.802549452196492e-07,4.243481025049601e-07,2.360884525198146e-05
3.0743226756692986e-07,3.7547557579576714e-07,4.2135931559719593e-07,2.364552081597909e-05
3.072113289631164e-07,3.7074318063170006e-07,4.183767058485049e-07,2.366202348850779e-05
3.070114389446729e-07,3.660702824567596e-07,4.15400090695985e-07,2.365810526646215e-05
3.068367191300734e-07,3.6146783620566395e-07,4.124287915612874e-07,2.363365498697161e-05
3.0669182055623387e-07,3.569477619640078e-07,4.0946328522345636e-07,2.3588640899153845e-05
3.0658153353292696e-07,3.525233914426852e-07,4.0650557351104186e-07,2.352308849959596e-05
3.065105528387002e-07,3.4820729362882884e-07,4.0355815095351844e-07,2.3437069278561318e-05
3.064830636676917e-07,3.4400915524706286e-07,4.0062335388692543e-07,2.333068463198818e-05
3.065024516912587e-07,3.399356449203969e-07,3.9770348476361646e-07,2.320406562066404e-05
3.065715307087583e-07,3.35992072261249e-07,3.9480124491184423e-07,2.3057413678675164e-05
3.066929508905379e-07,3.3218417428343e-07,3.9192038029083705e-07,2.2891062856113518e-05
3.068695819420536e-07,3.285183156561205e-07,3.890658073539629e-07,2.270550696178122e-05
3.071043296065804e-07,3.250005356586185e-07,3.862429340108024e-07,2.250135566478968e-05
3.0739856298508024e-07,3.2163681501463324e-07,3.8345713179493226e-07,2.227928975294218e-05
3.0775017758967447e-07,3.184350843786005e-07,3.8071345764550673e-07,2.2040149832725988e-05
3.0815344252088144e-07,3.154062084640293e-07,3.780157731135281e-07,2.1785104258573955e-05
3.086009430968663e-07,3.1256212864511647e-07,3.753659855243372e-07,2.151567313983249e-05
3.0908532212504297e-07,3.0991320864069947e-07,3.727646992910233e-07,2.1233608637937258e-05
3.0959891908294074e-07,3.07467407957057e-07,3.702120485224547e-07,2.094081151215677e-05
3.1013250896732177e-07,3.052307399705333e-07,3.6770737295284367e-07,2.0639322117595144e-05
3.106749743458713e-07,3.0320738455048545e-07,3.652494804201327e-07,2.033135896487701e-05
3.112141804846954e-07,3.013996898733017e-07,3.628388754227868e-07,2.0019375040047103e-05
3.117389782032496e-07,2.9980880888941016e-07,3.6048040383514155e-07,1.9706040516170948e-05
3.1224125651590484e-07,2.984357678475656e-07,3.5818432202622007e-07,1.9394112915903472e-05
3.127157380627364e-07,2.972815607382073e-07,3.5596501879016925e-07,1.9086251471635016e-05
3.131575501028028e-07,2.9634537234662036e-07,3.5383816718368467e-07,1.878486348683332e-05
3.135602075217403e-07,2.956227814550953e-07,3.5181812236111026e-07,1.8492061169087328e-05
3.13915240479922e-07,2.95105704829268e-07,3.4991635599036666e-07,1.8209715102353127e-05
3.142128136565436e-07,2.947832372884939e-07,3.481409827576163e-07,1.7939485779020253e-05
3.144428143945795e-07,2.9464252290462604e-07,3.4649813227424284e-07,1.7682770079970208e-05
3.145959800777014e-07,2.946698248566975e-07,3.449939788017961e-07,1.744063192498719e-05
3.1466457066786144e-07,2.948514145167901e-07,3.436342311699236e-07,1.7213782219256906e-05
3.146424682906034e-07,2.9517412508202725e-07,3.424218044992921e-07,1.7002609250963286e-05
3.1452487627471845e-07,2.9562599671009185e-07,3.4135746237017694e-07,1.6807253399706495e-05
3.143079064114176e-07,2.961967728814125e-07,3.404447667002493e-07,1.6627692453930233e-05
3.139881790195006e-07,2.9687829185063034e-07,3.396951721719601e-07,1.6463823704501188e-05
3.1356254497357784e-07,2.976642216464763e-07,3.391301912357222e-07,1.631562136855848e-05
3.130278354090403e-07,2.98548674002784e-07,3.387803123367053e-07,1.6183384611743052e-05
3.123807080397729e-07,2.995264501227611e-07,3.3868018437855146e-07,1.606789653104258e-05
3.116187520972701e-07,3.005950969825378e-07,3.38862500100632e-07,1.5970330540817236e-05
3.107428350244614e-07,3.0175438643340377e-07,3.393542424464669e-07,1.5891974468888016e-05
3.097580330958857e-07,3.0300307676301976e-07,3.40174581383461e-07,1.5833977728499375e-05
3.086720563034556e-07,3.043369282528496e-07,3.413331779010263e-07,1.5797291655261927e-05
3.074937646123177e-07,3.057489538271409e-07,3.428301112145582e-07,1.5782786392046986e-05
3.062329021194219e-07,3.0723012340569813e-07,3.446585632491714e-07,1.5791347449073485e-05
3.04899382775287e-07,3.087700905744096e-07,3.468098550756618e-07,1.5823873071778923e-05
3.035021806412562e-07,3.1035859360786145e-07,3.4927786148391965e-07,1.5881268861114998e-05
3.020490791449522e-07,3.119866501115335e-07,3.520591238423947e-07,1.596445647425704e-05
3.005477633598936e-07,3.13646229595117e-07,3.55149267682291e-07,1.6074306536823992e-05
2.990077695178922e-07,3.1532962551313486e-07,3.5854075660931026e-07,1.621146589815812e-05
2.97441000040027e-07,3.170303953741135e-07,3.622243324834338e-07,1.637615117395112e-05
2.9585985113039643e-07,3.187441542800324e-07,3.661913868473575e-07,1.656801297124933e-05
2.942756115402992e-07,3.2046692643715585e-07,3.704357380669282e-07,1.6786125417283436e-05
2.9269846497844424e-07,3.221929968126185e-07,3.749547927099609e-07,1.7029059365185638e-05
2.911372193805821e-07,3.239150262851202e-07,3.7974792638658773e-07,1.7294973972211704e-05
2.895981627073062e-07,3.256259260949189e-07,3.848121852542267e-07,1.7581715951110138e-05
2.880847831538031e-07,3.2732052450576246e-07,3.901387619650095e-07,1.7886916007594565e-05
2.8659970848763325e-07,3.2899574958442005e-07,3.957115886473876e-07,1.8208055398943773e-05
2.8514718174237554e-07,3.306496060067614e-07,4.015074784525492e-07,1.854253188320031e-05
2.837331392825767e-07,3.322803425844729e-07,4.07497805382381e-07,1.8887746820533787e-05
2.823640249890373e-07,3.3388588082825377e-07,4.136517110075549e-07,1.9241153144186552e-05
2.81047365201845e-07,3.3546311009200484e-07,4.199397348621007e-07,1.960026480241739e-05
2.7979410993765967e-07,3.3700833187344196e-07,4.2633664991843524e-07,1.9962732445124923e-05
2.786202268864473e-07,3.3851872725777217e-07,4.328234214677905e-07,2.0326457911012515e-05
2.775449039249508e-07,3.399923655664416e-07,4.393869009578005e-07,2.068957826621345e-05
2.765863036122124e-07,3.4142672874603374e-07,4.460160336768779e-07,2.1050337114776395e-05
2.7575852012880825e-07,3.428176421381022e-07,4.526977906158646e-07,2.1406998358383104e-05
2.750707159862968e-07,3.4415886718744865e-07,4.594161739132781e-07,2.1757810916498866e-05
2.7452720807199266e-07,3.454425004229732e-07,4.6615326274235154e-07,2.2100999299626133e-05
2.741280573168149e-07,3.4665994032887786e-07,4.7288997189245646e-07,2.243486458409645e-05
2.7386984479746926e-07,3.478018834492097e-07,4.796057848067717e-07,2.2758080070497133e-05
2.737461581462889e-07,3.4885793405796737e-07,4.862777276239186e-07,2.3070037121230177e-05
2.73747936951718e-07,3.4981810184221723e-07,4.92879504171691e-07,2.337090043540307e-05
2.7386404582764394e-07,3.5067540579080375e-07,4.993818780695116e-07,2.3661294544537075e-05
2.740823774841802e-07,3.514268329622581e-07,5.057538484909775e-07,2.3941917565639896e-05
2.7439138375367647e-07,3.5207246190114457e-07,5.119632604873601e-07,2.421339072925753e-05
2.747811808785076e-07,3.5261480431717174e-07,5.179766914788796e-07,2.447639163508997e-05
2.7524359502661085e-07,3.5305984398144397e-07,5.237593260332878e-07,2.473183012355436e-05
2.757722138958577e-07,3.5341847644839905e-07,5.292751489821996e-07,2.498084932564287e-05
2.763634596841981e-07,3.537050724490357e-07,5.344875705339444e-07,2.5224697382982692e-05
2.770172301376038e-07,3.5393310025323174e-07,5.393604561288611e-07,2.546459781929911e-05
2.777358215693965e-07,3.5411191790716493e-07,5.43859079714464e-07,2.570166330454512e-05
2.785216694313755e-07,3.542473433726717e-07,5.479511231928768e-07,2.593682322904664e-05
2.7937523319353265e-07,3.543443855748817e-07,5.516080392378297e-07,2.617072925419408e-05
2.8029442500568967e-07,3.544091588888042e-07,5.548058170766077e-07,2.64036684154096e-05
2.8127514818325327e-07,3.544488521411271e-07,5.57524851239893e-07,2.663553090109049e-05
2.823113931820673e-07,3.5447047004475927e-07,5.597498982344914e-07,2.686590510929337e-05
2.8339466199703133e-07,3.544794345498554e-07,5.614699353988229e-07,2.709440020828337e-05
2.8451385435909237e-07,3.5447893218300705e-07,5.626773196252954e-07,2.732099548054144e-05
2.856562856412281e-07,3.5446998943068596e-07,5.633669424034105e-07,2.7546021327905388e-05
2.8680853976930656e-07,3.544515093553588e-07,5.635360579069504e-07,2.776983937658747e-05
2.8795613624955714e-07,3.5442006827728577e-07,5.631846372861962e-07,2.7992606268059453e-05
2.89083000944329e-07,3.543700192024425e-07,5.623158261000345e-07,2.8214296707205268e-05
2.901717492907598e-07,3.5429475042936476e-07,5.609355598648682e-07,2.8434932737112183e-05
2.9120479883125484e-07,3.541889505712349e-07,5.590510695982965e-07,2.865479145345395e-05
2.9216565924318065e-07,3.5405014318845674e-07,5.566701029894648e-07,2.8874424630286267e-05
2.930399477701592e-07,3.5387883372541134e-07,5.538021115286858e-07,2.9094567089642223e-05
2.9381607410558283e-07,3.536780383629287e-07,5.504599075020708e-07,2.9315993545442766e-05
2.9448522620101805e-07,3.534521150127165e-07,5.466601323249542e-07,2.9539310257109883e-05
2.95040673304113e-07,3.5320502488583116e-07,5.424232492105021e-07,2.9764766218961287e-05
2.954768822088765e-07,3.5293880515642596e-07,5.377744046135001e-07,2.9992173399654858e-05
2.957888294661432e-07,3.5265259424876866e-07,5.327444217616884e-07,3.022091089944221e-05
2.959718687382727e-07,3.5234261376645665e-07,5.273698989861108e-07,3.04499566237351e-05
2.960223240678165e-07,3.520028409103282e-07,5.216926166600049e-07,3.067793871542077e-05
2.959381816438641e-07,3.516259265993855e-07,5.15757615760513e-07,3.090322387611093e-05
2.9571912776895585e-07,3.5120494596105535e-07,5.096105684686325e-07,3.112401190117767e-05
2.953665747941825e-07,3.5073508433532307e-07,5.032966042851193e-07,3.1338379043774914e-05
2.948838379714458e-07,3.5021369697383555e-07,4.968596753465461e-07,3.154428714166593e-05
2.942755566871805e-07,3.4964033745691515e-07,4.90341366523495e-07,3.1739604262252427e-05
2.9354699134817307e-07,3.490179463601736e-07,4.837812490302255e-07,3.192213721536916e-05
2.927037860831414e-07,3.483526637558415e-07,4.772196361893496e-07,3.208967003251224e-05
2.917517564696196e-07,3.4765173098694505e-07,4.7069942935157e-07,3.224000264953777e-05
2.906971720936124e-07,3.4692219946194093e-07,4.6426406944687213e-07,3.237098822488464e-05
2.895476997047644e-07,3.461705874917637e-07,4.579537421181383e-07,3.248058431472479e-05
2.883128630594255e-07,3.4540262317857863e-07,4.518036075466228e-07,3.256691081629838e-05
2.870032710638499e-07,3.446243900227332e-07,4.4584447726205713e-07,3.26282875424645e-05
2.856291282016188e-07,3.438443523737916e-07,4.4010381410554046e-07,3.266323544909712e-05
2.8419923686448357e-07,3.430736916789608e-07,4.346065788568408e-07,3.267045293027218e-05
2.827213656010701e-07,3.423247354158875e-07,4.2937667832084175e-07,3.2648802574847844e-05
2.812034012372976e-07,3.4160895615987665e-07,4.244369684501782e-07,3.2597329223644094e-05
2.7965419804396554e-07,3.4093599424470825e-07,4.198069365533077e-07,3.251530821707687e-05
2.780839776804282e-07,3.403142447413331e-07,4.1550135660953314e-07,3.2402299329995095e-05
2.765039872397601e-07,3.3975098126295674e-07,4.115311160059212e-07,3.225815089880884e-05
2.749249532667772e-07,3.392509431589612e-07,4.0790390026156346e-07,3.2082948438948034e-05
2.733553073163904e-07,3.388160872559472e-07,4.046240394545314e-07,3.1876969731803834e-05
2.718008065142649e-07,3.384475558151381e-07,4.01692240138984e-07,3.164067004649913e-05
2.70265791559768e-07,3.381468408707548e-07,3.991049299522628e-07,3.137469888910043e-05
2.68755157688904e-07,3.379149312094612e-07,3.9685355127411095e-07,3.107995506701053e-05
2.672760509583574e-07,3.377517222156376e-07,3.949245797132274e-07,3.075762799686907e-05
2.6583798931994204e-07,3.376568572081656e-07,3.9330020429015384e-07,3.0409195175508764e-05
2.6445087073788825e-07,3.376304283034577e-07,3.919595873403268e-07,3.003643855830953e-05
2.631226965978541e-07,3.376723693004941e-07,3.908799872661429e-07,2.9641490056600134e-05
2.61858836289298e-07,3.3778235337205034e-07,3.9003678327888406e-07,2.9226809222885137e-05
2.606621173863641e-07,3.379609184077404e-07,3.8940309557086244e-07,2.8795056789559327e-05
2.5953334126762466e-07,3.3820957016731853e-07,3.889501038111478e-07,2.834894281054145e-05
2.5847337232161017e-07,3.38529818127071e-07,3.8864791613708994e-07,2.7891117297433595e-05
2.5748483666496593e-07,3.389224722867973e-07,3.8846650531086147e-07,2.742410517257462e-05
2.565709063558568e-07,3.3938674970031364e-07,3.8837652892112005e-07,2.695026052909733e-05
2.557338034938313e-07,3.399195490701169e-07,3.883498039177151e-07,2.6471730359829426e-05
2.5497510316697396e-07,3.4051602526822e-07,3.883595899960521e-07,2.599043442345499e-05
2.542961181661901e-07,3.411704919394522e-07,3.8838106795824397e-07,2.55080650475106e-05
2.536974302588784e-07,3.41876398505665e-07,3.8839222571817284e-07,2.502611430676517e-05
2.5317839176750066e-07,3.426265519754016e-07,3.8837604403414886e-07,2.45459463296728e-05
2.527380839557897e-07,3.434144755255518e-07,3.883238991038552e-07,2.4068944320015522e-05
2.523771267275444e-07,3.442354213128105e-07,3.882373313885872e-07,2.359669484864379e-05
2.520979751686973e-07,3.4508595602496764e-07,3.8812605257325723e-07,2.313106648614913e-05
2.519047620822775e-07,3.459625429809676e-07,3.880033233504737e-07,2.267419438689413e-05
2.518038373607566e-07,3.46860584139992e-07,3.87881438667504e-07,2.2228573742904763e-05
2.5180249525770524e-07,3.4777571320496103e-07,3.8776963141627865e-07,2.1797197997660397e-05
2.519060623377995e-07,3.487061360182232e-07,3.876743640945905e-07,2.1383437448615148e-05
2.5211635363949454e-07,3.496538582116341e-07,3.8760013165316315e-07,2.099064917302925e-05
2.524319137233897e-07,3.5062476035898533e-07,3.8754998130498717e-07,2.062178447637092e-05
2.5284884068063943e-07,3.5162678282352525e-07,3.875266630512419e-07,2.0279168784479682e-05
2.5336114375128043e-07,3.5266695967382157e-07,3.8753383741910203e-07,1.996446998655342e-05
2.539603446608772e-07,3.537502450845769e-07,3.8757481778513863e-07,1.967878515665337e-05
2.5463516644895075e-07,3.5488025795545247e-07,3.8764996749777606e-07,1.9422759845143675e-05
2.5537198371041345e-07,3.560595829296856e-07,3.8775694148982676e-07,1.91966874963267e-05
2.561561632732005e-07,3.572885455463246e-07,3.878937178894232e-07,1.9000559552755185e-05
2.569738169795946e-07,3.585644074336136e-07,3.8806133056295536e-07,1.8834079493921624e-05
2.5781270130761125e-07,3.598823453670135e-07,3.882659076360164e-07,1.869674075115317e-05
2.58661579518805e-07,3.6123616109985213e-07,3.8852021587725723e-07,1.858806103615445e-05
2.5950932934091147e-07,3.626174587287506e-07,3.8884283193231543e-07,1.850785686789577e-05
2.60345405116434e-07,3.6401486408507573e-07,3.8925505576701495e-07,1.8456331357889265e-05
2.6116077463613174e-07,3.654157722785269e-07,3.8977816143446436e-07,1.8433970731899382e-05
2.6194787172227245e-07,3.668116099551757e-07,3.904312190594357e-07,1.84413933525388e-05
2.6270047527867105e-07,3.68202820461901e-07,3.912285765268454e-07,1.8479162593848213e-05
2.6341485290245307e-07,3.695988866179621e-07,3.921785486704364e-07,1.85475760459659e-05
2.640910548315212e-07,3.710146998133035e-07,3.932852515280265e-07,1.864661246241925e-05
2.6473259134066875e-07,3.7246704151794e-07,3.9455294637314267e-07,1.877608185731536e-05
2.65345530647034e-07,3.7397251397596737e-07,3.959900541550472e-07,1.893572909817797e-05
2.659379688259373e-07,3.7554661311066607e-07,3.9761018580802995e-07,1.91251372254272e-05
2.665186188835761e-07,3.7720292766487157e-07,3.9942989199145995e-07,1.9343548653463743e-05
2.6709509892357705e-07,3.789518614291935e-07,4.0146576906806726e-07,1.9589757895005318e-05
2.676736422493973e-07,3.807993376117086e-07,4.037332191854751e-07,1.986211537988258e-05
2.6825933066630693e-07,3.827464118034296e-07,4.062459742503636e-07,2.015859453312385e-05
2.688556084409348e-07,3.847897786550337e-07,4.090150028998184e-07,2.047687011178793e-05
2.694644653061645e-07,3.869226525403077e-07,4.120462447835734e-07,2.0814373781899405e-05
2.700879228200183e-07,3.891364688283324e-07,4.15337942918703e-07,2.1168316309274483e-05
2.7072877287453e-07,3.9142266292795595e-07,4.1887995481992725e-07,2.153570303580593e-05
2.713898441921373e-07,3.937729059171849e-07,4.22655178843184e-07,2.1913378621424654e-05
2.720731613404652e-07,3.96178514987092e-07,4.266414155174614e-07,2.2298126959257244e-05
2.727796534614959e-07,3.986298857030051e-07,4.3081251901824933e-07,2.2686788494681964e-05
2.735094359885421e-07,4.0111533113012526e-07,4.351384723346529e-07,2.307631098838699e-05
2.7426329678096143e-07,4.036200579429323e-07,4.395859427370486e-07,2.3463738561077288e-05
2.7504466353613637e-07,4.0612698080388996e-07,4.441196353394416e-07,2.3846196775583595e-05
2.758594190247942e-07,4.0861978338375656e-07,4.4870267621991475e-07,2.422087116020795e-05
2.767141142934819e-07,4.11085834706039e-07,4.5329616227077046e-07,2.4584979731961826e-05
2.7761549631204105e-07,4.135154434680821e-07,4.5785951494775134e-07,2.4935773744527302e-05
2.785709125040368e-07,4.158985378163536e-07,4.62352381744481e-07,2.5270566173014525e-05
2.795880499266086e-07,4.182230956057876e-07,4.6673669531797287e-07,2.5586773454912515e-05
2.8067380089011326e-07,4.2047598520414025e-07,4.709776536710518e-07,2.5881976021100494e-05
2.8183274812913017e-07,4.226437148461165e-07,4.7504513175903843e-07,2.615399508695717e-05
2.83067192424267e-07,4.2471265791774527e-07,4.789160013068261e-07,2.6400966819055826e-05
2.843790528755552e-07,4.2666993063241466e-07,4.825752983858758e-07,2.6621399848330574e-05
2.8577088147855013e-07,4.2850394246975607e-07,4.860158342313964e-07,2.6814214690279173e-05
2.872444047228442e-07,4.302039841715935e-07,4.8923696193985e-07,2.697874674353104e-05
2.8879871224933604e-07,4.317609089340684e-07,4.922416357257396e-07,2.71146749436758e-05
2.904314622486908e-07,4.3316897025291893e-07,4.950328925157522e-07,2.722188004607645e-05
2.921417740848014e-07,4.344256953464467e-07,4.976137462340357e-07,2.7300314514574577e-05
2.939303693740106e-07,4.3552946249376366e-07,4.999908636719347e-07,2.7349960928256242e-05
2.9579865191551177e-07,4.364786327234907e-07,5.02177921441961e-07,2.737084979363937e-05
2.977509544094227e-07,4.372737651961997e-07,5.041959163118233e-07,2.7363072439257777e-05
2.997972817697025e-07,4.3791994962557774e-07,5.060705578645347e-07,2.732677961263093e-05
3.0195223252902266e-07,4.384267847828674e-07,5.078281131587101e-07,2.726218245917041e-05
3.042312116606285e-07,4.3880654823434905e-07,5.094916180102739e-07,2.7169573185744345e-05
3.0664673077956445e-07,4.390720325442565e-07,5.110785380236185e-07,2.704937971812157e-05
3.092059820915337e-07,4.392347759474741e-07,5.126005258889509e-07,2.6902279509055225e-05
3.1191015053349444e-07,4.393043896287946e-07,5.140653286933713e-07,2.672934937906663e-05
3.147551160695489e-07,4.3928887586711436e-07,5.154784360714509e-07,2.6532116156744324e-05
3.1773269289365173e-07,4.391942584114939e-07,5.16842553730029e-07,2.6312428449272962e-05
3.2083172890618053e-07,4.390236010167411e-07,5.181563269314898e-07,2.6072246230912325e-05
3.240388455488767e-07,4.387774154147468e-07,5.194144580101754e-07,2.581347114287381e-05
3.273390465717028e-07,4.38455283555832e-07,5.206097104684462e-07,2.5537847160484226e-05
3.307161011854069e-07,4.3805654392210437e-07,5.217358762540239e-07,2.52469151353894e-05
3.34152170050637e-07,4.375795567912265e-07,5.227907227636432e-07,2.4942017773563684e-05
3.3762717951598025e-07,4.370215623202996e-07,5.237789307741259e-07,2.4624378214470325e-05
3.411201539311879e-07,4.363802828748749e-07,5.24714540097048e-07,2.429529463352049e-05
3.446132648845293e-07,4.3565540655237854e-07,5.256202759621942e-07,2.3956391937133026e-05
3.4809595554174755e-07,4.348477113686074e-07,5.265221595286257e-07,2.360972212857572e-05
3.515655986988081e-07,4.339566996593981e-07,5.274430110892197e-07,2.325761796910679e-05
3.5502356346502963e-07,4.3297994284956426e-07,5.284004519909548e-07,2.290243235094473e-05
3.5847008937938644e-07,4.3191460959661597e-07,5.294093025210475e-07,2.254632276832853e-05
3.619025605776603e-07,4.3075860311330547e-07,5.304837788111149e-07,2.219121444869407e-05
3.653173875194571e-07,4.295110607752366e-07,5.316374279617179e-07,2.183902407066014e-05
3.6871251465460393e-07,4.281731618036589e-07,5.328811959801807e-07,2.1491975028221232e-05
3.720890847350711e-07,4.267474678086403e-07,5.342210944907115e-07,2.1152701006893104e-05
3.7545251013481275e-07,4.2523529875185133e-07,5.356574338862454e-07,2.0824101652053727e-05
3.7881242131753993e-07,4.236353082022797e-07,5.371850101292792e-07,2.0509143312965085e-05
3.821811117537144e-07,4.219446438333267e-07,5.387930645625078e-07,2.021071101854746e-05
3.855715755857008e-07,4.2016018842026293e-07,5.404669760127542e-07,1.993151500453485e-05
3.889966305426864e-07,4.18278590731736e-07,5.421928407454981e-07,1.9674044677230145e-05
3.924690619104908e-07,4.1629676320696027e-07,5.439613996718003e-07,1.944053256294761e-05
3.960002625061432e-07,4.142126458029802e-07,5.457687497586936e-07,1.923288592281534e-05
3.995974987135352e-07,4.120245758595315e-07,5.476165790015686e-07,1.905260880051235e-05
4.0326380875839537e-07,4.0973046525460757e-07,5.495123960437308e-07,1.8900748804939186e-05
4.0700040426091496e-07,4.073284570361005e-07,5.514660699102572e-07,1.8777854650094253e-05
4.10807478683726e-07,4.048185488000925e-07,5.53485755622703e-07,1.868396170661964e-05
4.14682959798361e-07,4.022042481302353e-07,5.555798510238968e-07,1.861865311893704e-05
4.1862230211105217e-07,3.994932547239036e-07,5.577616021397662e-07,1.8581176975816787e-05
4.226201923877762e-07,3.9669598547994257e-07,5.600493301705645e-07,1.857056676309854e-05
4.266718770106797e-07,3.9382315806245993e-07,5.62463213303868e-07,1.8585753368602727e-05
4.3077296778566906e-07,3.908851653330777e-07,5.650219707369631e-07,1.86256617328412e-05
4.3491820650480526e-07,3.878926827698086e-07,5.67739647649331e-07,1.8689258554473506e-05
4.3909935383882884e-07,3.848563651366304e-07,5.706230069113978e-07,1.877553629808695e-05
4.4330376572162607e-07,3.817860137533258e-07,5.736706451391417e-07,1.8883460947001565e-05
4.4751600003906174e-07,3.78690224180409e-07,5.768732602195817e-07,1.9011921474692027e-05
4.5172069014625367e-07,3.755762069021149e-07,5.802141391028326e-07,1.915968566272405e-05
4.559028546257296e-07,3.7244921844457456e-07,5.836700545221769e-07,1.932534487917628e-05
4.6004673489076283e-07,3.693118579526558e-07,5.872126480240302e-07,1.950726379222863e-05
4.641360813567508e-07,3.661643247520092e-07,5.908094950831511e-07,1.9703575353899368e-05
4.6815574007314784e-07,3.6300637277924145e-07,5.944247583714463e-07,1.9912241452239528e-05
4.720936856016465e-07,3.598403017974951e-07,5.980205972454493e-07,2.01311423804967e-05
4.7594206337407524e-07,3.566741772118289e-07,6.015599937367654e-07,2.0358124756648443e-05
4.796961277686922e-07,3.5352386172622427e-07,6.050099855465981e-07,2.0591005554463878e-05
4.833530731279462e-07,3.5041087667446817e-07,6.083430571996873e-07,2.0827589588685086e-05
4.869119090392755e-07,3.4735746804720026e-07,6.115355673925092e-07,2.106572735813553e-05
4.903717727887235e-07,3.443851243395618e-07,6.145650471799844e-07,2.130337595865532e-05
4.937282722619379e-07,3.4151676177845987e-07,6.174092555997407e-07,2.1538591426203976e-05
4.969718091769555e-07,3.387763228465117e-07,6.200480654452435e-07,2.176945159843152e-05
5.00089329431124e-07,3.3618482101994466e-07,6.224656614174796e-07,2.199399485088953e-05
5.030660841521018e-07,3.337578783039392e-07,6.2464937108374e-07,2.2210224850957002e-05
5.058852582199986e-07,3.3150689753660305e-07,6.265864581658804e-07,2.241617936048813e-05
5.085274576659664e-07,3.294410908375836e-07,6.282636440361008e-07,2.261006971664775e-05
5.10971353256768e-07,3.275672475344566e-07,6.29670375731344e-07,2.279044634249096e-05
5.13194628783616e-07,3.2588797493029324e-07,6.308025328902709e-07,2.295626306590219e-05
5.151752860746153e-07,3.244016537863357e-07,6.316634246368703e-07,2.310677575174882e-05
5.168929728233016e-07,3.231056040882124e-07,6.322630877420128e-07,2.3241366418686686e-05
5.18329266113595e-07,3.220004044064461e-07,6.326177633087961e-07,2.335943957450705e-05
5.194674652649086e-07,3.210912508647185e-07,6.327469008530803e-07,2.3460435402301685e-05
5.202925290419322e-07,3.203853168437952e-07,6.326677312975616e-07,2.3543881146600324e-05
5.207916771818864e-07,3.198884534665493e-07,6.323935787413313e-07,2.360940820593083e-05
5.209565073972913e-07,3.19604132983109e-07,6.319370849903303e-07,2.365674500532148e-05
5.207849810462605e-07,3.195341210845734e-07,6.313124773366415e-07,2.368577660989817e-05
5.20280714299726e-07,3.196786834665137e-07,6.305336737936993e-07,2.369672730415441e-05
5.194501714269486e-07,3.2003552888033577e-07,6.29611499671505e-07,2.3690314693673906e-05
5.183006080591807e-07,3.2059887004920386e-07,6.285537389360165e-07,2.3667699276627108e-05
5.168395752538996e-07,3.213602489831704e-07,6.2736749587885e-07,2.363030420995075e-05
5.150741588923357e-07,3.223098333329842e-07,6.260625928255015e-07,2.3579644934496398e-05
5.130096331269818e-07,3.234358890335665e-07,6.246552813676698e-07,2.351720411426221e-05
5.106488874786398e-07,3.2472338466722925e-07,6.231704969785867e-07,2.344443280949524e-05
5.079929810563478e-07,3.261536268446237e-07,6.216418194944006e-07,2.336290348454655e-05
5.050423785233778e-07,3.2770528226002715e-07,6.201088429031008e-07,2.3274422068269675e-05
5.017983457747325e-07,3.2935617163957146e-07,6.186114729495602e-07,2.3180972276996085e-05
4.982640502690527e-07,3.310845263976274e-07,6.1718349178437e-07,2.308459711743451e-05
4.944446242170509e-07,3.328692733626835e-07,6.158496360075667e-07,2.2987312516103e-05
4.903459555940357e-07,3.3469057973132647e-07,6.146275000206312e-07,2.2891033343856866e-05
4.859736484258438e-07,3.365308142717512e-07,6.135307744826168e-07,2.2797489829627013e-05
4.813332659280857e-07,3.383742060758603e-07,6.125702044904424e-07,2.2708155511219198e-05
4.764316918885398e-07,3.402054691302313e-07,6.117529778391192e-07,2.2624213451110654e-05
4.7127911499382284e-07,3.420094613000555e-07,6.110818524053733e-07,2.2546566411345134e-05
4.6589020418160667e-07,3.437717825380345e-07,6.105549626790964e-07,2.2475865077053605e-05
4.6028333669904297e-07,3.4547900527485e-07,6.101686821659316e-07,2.241251308199177e-05
4.544786235184714e-07,3.4711808102636266e-07,6.099222227312355e-07,2.2356639050521607e-05
4.484958754282332e-07,3.486753620888865e-07,6.098196780057596e-07,2.230806862883389e-05
4.423532771484146e-07,3.501370833291389e-07,6.098692516876565e-07,2.2266332478626936e-05
4.360674189905786e-07,3.514927418500075e-07,6.100809559639803e-07,2.2230719028477193e-05
4.2965505502181756e-07,3.5273887031529605e-07,6.104624908601521e-07,2.2200368247295546e-05
4.231359188452467e-07,3.5387877272834244e-07,6.110151874601731e-07,2.217438212572465e-05
4.165345894042634e-07,3.5491825143975157e-07,6.117325822468164e-07,2.2151893881099028e-05
4.098802140886042e-07,3.5586142678300117e-07,6.126017864186607e-07,2.213207851547928e-05
4.0320424614888156e-07,3.567089591831799e-07,6.136069286939182e-07,2.2114156095425995e-05
3.9653727339298e-07,3.5745874846399325e-07,6.14732286225288e-07,2.209741481550158e-05
3.899072714615103e-07,3.581092334599317e-07,6.15961883003667e-07,2.208122480568932e-05
3.833400099761807e-07,3.5866339237291396e-07,6.172766959769099e-07,2.206502146766312e-05
3.7685969762163723e-07,3.5912956801129644e-07,6.186537069796712e-07,2.204826310185029e-05
3.704886931045688e-07,3.595189431374842e-07,6.200670965808167e-07,2.2030378629299786e-05
3.642474837955965e-07,3.5984343763497724e-07,6.214885834752652e-07,2.2010750935598908e-05
3.581562435683042e-07,3.601155961719106e-07,6.228871774292242e-07,2.1988765724443285e-05
3.5223659633537547e-07,3.6034886136143385e-07,6.242309913427839e-07,2.196386983987919e-05
3.465110273374012e-07,3.605571426524479e-07,6.254900473169407e-07,2.193557679351221e-05
3.4100020984124513e-07,3.607535467425288e-07,6.266366973783513e-07,2.1903434866606304e-05
3.357210008844441e-07,3.609482517772985e-07,6.276439735676907e-07,2.1866993678375172e-05
3.30686100589401e-07,3.611472289186439e-07,6.284848267726263e-07,2.1825779722424842e-05
3.2590421519952604e-07,3.613536732802826e-07,6.291328120596293e-07,2.177928862674073e-05
3.213804076433743e-07,3.6156998903841436e-07,6.295625873210811e-07,2.1727011544348834e-05
3.171168224273417e-07,3.6179745515078976e-07,6.297497099283701e-07,2.1668493299645842e-05
3.131134053561651e-07,3.6203482862770796e-07,6.29670603312602e-07,2.160340001980517e-05
3.093687099056924e-07,3.6227788476763895e-07,6.293030439915215e-07,2.153159689343302e-05
3.0588044233171764e-07,3.625195706438776e-07,6.286266677238379e-07,2.145323586556004e-05
3.026450233946889e-07,3.627503182614495e-07,6.276234216759604e-07,2.1368798900266304e-05
2.9965702434712085e-07,3.629590540011982e-07,6.262779999916111e-07,2.127903367690257e-05
2.969091937178096e-07,3.631346416717704e-07,6.245782733282384e-07,2.11847992852897e-05
2.943928452408309e-07,3.632663650519464e-07,6.225168360841103e-07,2.1086902625054755e-05
2.9209899195003376e-07,3.6334340782587226e-07,6.200930013415728e-07,2.0986000550097e-05
2.9002068796719304e-07,3.633551328661746e-07,6.173119937655334e-07,2.088259674316063e-05
2.881557296557415e-07,3.6329298923402526e-07,6.141821050880763e-07,2.077709428911788e-05
2.865073319044746e-07,3.6315263415842745e-07,6.107142307407937e-07,2.0669847598877297e-05
2.8508162324719483e-07,3.629343235453848e-07,6.069232446189586e-07,2.056117951614062e-05
2.8388437616576765e-07,3.6264093757610176e-07,6.02827074546081e-07,2.0451378727484152e-05
2.8292051990786465e-07,3.622751257380663e-07,5.984444419878137e-07,2.034075530267402e-05
2.8219622575700816e-07,3.618376287238576e-07,5.937945439444334e-07,2.0229716580202388e-05
2.817196343452372e-07,3.613274253556898e-07,5.8889705653271e-07,2.0118714460247213e-05
2.814991346895697e-07,3.607434004972391e-07,5.837704990131976e-07,2.000810074025861e-05
2.8154156569096843e-07,3.600857587655604e-07,5.784306450310115e-07,1.98980594441367e-05
2.8185071086042965e-07,3.5935534852809955e-07,5.728906646024443e-07,1.978871358600231e-05
2.824256878783838e-07,3.585521967281452e-07,5.671633889858289e-07,1.9680401961144607e-05
2.832606744615376e-07,3.576753543431112e-07,5.612636603704754e-07,1.957392754507404e-05
2.8434610047327825e-07,3.567246293088974e-07,5.552084626925902e-07,1.947055914903399e-05
2.856694897690753e-07,3.557028672370529e-07,5.490170016790893e-07,1.937184797459021e-05
2.8721567059116337e-07,3.546160341249011e-07,5.427117689163475e-07,1.9279434383919838e-05
2.88967569954734e-07,3.534711088367497e-07,5.363170543514971e-07,1.919491138536182e-05
2.9090780064992326e-07,3.522742923418192e-07,5.298550196186347e-07,1.9119739881433225e-05
2.930202519267113e-07,3.510309453461809e-07,5.233435423252329e-07,1.9055180933733012e-05
2.9529049770338214e-07,3.4974714722935264e-07,5.167966665587254e-07,1.9002224988943297e-05
2.977041669650256e-07,3.4843070789734557e-07,5.102257971838422e-07,1.896153996633151e-05
3.0024488424785373e-07,3.470898573642664e-07,5.036408925033626e-07,1.8933458442131743e-05
3.028944603337881e-07,3.457311682005661e-07,4.970515833604944e-07,1.891799150983313e-05
3.0563473276878836e-07,3.4435898882542284e-07,4.904679837985718e-07,1.8914849481158758e-05
3.0844832505149923e-07,3.429775358786273e-07,4.839014635989255e-07,1.8923485017009697e-05
3.1131807515713876e-07,3.415947267822109e-07,4.773656440983328e-07,1.894317400780496e-05
3.1422635734071196e-07,3.402247860436565e-07,4.7087655622627537e-07,1.89731074225286e-05
3.171546352852391e-07,3.3888851513270677e-07,4.6445160882095404e-07,1.9012473823987533e-05
3.2008374861876004e-07,3.376125007036889e-07,4.5810916013140106e-07,1.906053417845027e-05
3.229944051416509e-07,3.364275269848664e-07,4.5186973962704535e-07,1.911667535919382e-05
3.258668174473209e-07,3.3536533111824397e-07,4.457576320576738e-07,1.91804248294286e-05
3.2868048299827084e-07,3.344546044203372e-07,4.398008343159405e-07,1.92514295928339e-05
3.314144844390788e-07,3.337187475635512e-07,4.340281905942161e-07,1.932942166712881e-05
3.340474185343004e-07,3.331755235866905e-07,4.2846489694562847e-07,1.941419569280769e-05
3.365573717213001e-07,3.328372371249916e-07,4.2312996106706857e-07,1.9505593200568395e-05
3.3892216886239336e-07,3.327124059978116e-07,4.1803708609657284e-07,1.960345983682244e-05
3.4111939185602197e-07,3.3280900770510725e-07,4.131973174655217e-07,1.9707558925519494e-05
3.431266379043812e-07,3.331359213293622e-07,4.0862308117364246e-07,1.9817480787466887e-05
3.449227692142915e-07,3.3370121801165925e-07,4.043326862274461e-07,1.9932640115552068e-05
3.46489713318638e-07,3.3451070444529857e-07,4.003505788363045e-07,2.0052378247024228e-05
3.478134292037707e-07,3.355692383623207e-07,3.9670187231454633e-07,2.017605549894848e-05
3.488832466257163e-07,3.3688270043641555e-07,3.934071701629617e-07,2.0303071564041072e-05
3.4969015957320556e-07,3.384579333911194e-07,3.9048322257867626e-07,2.0432860331908928e-05
3.502257437157021e-07,3.4030122258868926e-07,3.8794755042078096e-07,2.0564870404856228e-05
3.504829252216902e-07,3.424173043917646e-07,3.858212449281246e-07,2.0698518768953346e-05
3.504576922707887e-07,3.448091268591746e-07,3.841272409108821e-07,2.0833149527010675e-05
3.5015043082594534e-07,3.474775698731998e-07,3.8288548380965294e-07,2.0968007926327e-05
3.495666392586777e-07,3.504210434332828e-07,3.8210847869056024e-07,2.110220603658281e-05
3.4871640744153515e-07,3.5363462201315533e-07,3.8179951177289296e-07,2.1234702467154863e-05
3.4761242885780874e-07,3.5710870131672404e-07,3.8195243891030457e-07,2.136435261191765e-05
3.4626792141071486e-07,3.608282478958365e-07,3.8255256231831453e-07,2.1490044263575785e-05
3.446954618289509e-07,3.647730708992128e-07,3.8357966891840417e-07,2.1610872806757903e-05
3.429067323987598e-07,3.6891968455618546e-07,3.850112980972033e-07,2.172626336787779e-05
3.409130356904607e-07,3.732451173625343e-07,3.868227765968632e-07,2.183595566703954e-05
3.387255192967067e-07,3.777292860116356e-07,3.889847822186473e-07,2.1939864816263765e-05
3.3635460443147137e-07,3.823536211500098e-07,3.9146236712744547e-07,2.203790327659457e-05
3.3381000471439644e-07,3.8709959534230156e-07,3.9421731441535366e-07,2.212984173544417e-05
3.3110193704808604e-07,3.919485136541165e-07,3.9721304858176456e-07,2.221526234305081e-05
3.2824212667593014e-07,3.9688004069527543e-07,4.0041997609894097e-07,2.2293596410530807e-05
3.2524319452796047e-07,4.018708649481072e-07,4.038180455493722e-07,2.2364183863776805e-05
3.2211731000718926e-07,4.0689543336485036e-07,4.0739611375840333e-07,2.2426364127511307e-05
3.1887609822387577e-07,4.11927595680947e-07,4.1115224078645294e-07,2.247967040315116e-05
3.1553156890551485e-07,4.1694359756712863e-07,4.1509429567447673e-07,2.252401483492089e-05
3.1209666548155816e-07,4.2192554095567825e-07,4.192347542870922e-07,2.255964259051792e-05
3.085851912985145e-07,4.268605730191312e-07,4.235818957129347e-07,2.2586905058445764e-05
3.050113913015013e-07,4.3173622713051385e-07,4.281353020060052e-07,2.260607077941413e-05
3.013895604349334e-07,4.365378136384454e-07,4.328866175738672e-07,2.261728053274336e-05
2.977342596922297e-07,4.412492176067997e-07,4.3782321573464957e-07,2.262071009363839e-05
2.940611474981311e-07,4.458536342929018e-07,4.4293344180492667e-07,2.261689712106738e-05
2.9038735131255576e-07,4.503324364580943e-07,4.482102421338294e-07,2.2606965299213243e-05
2.86730303042386e-07,4.54663785927147e-07,4.5365280449009935e-07,2.2592558382987986e-05
2.831055937458261e-07,4.58822567736808e-07,4.592694151298518e-07,2.2575603478880905e-05
2.79525715438876e-07,4.627814689148077e-07,4.6508004436963007e-07,2.255808832901963e-05
2.760009882601525e-07,4.6651320231930287e-07,4.7111673885718853e-07,2.2541896885988346e-05
2.725422255414128e-07,4.699933448362419e-07,4.774239999726887e-07,2.2528670690596626e-05
2.6916279332388875e-07,4.732015573343526e-07,4.840563640866798e-07,2.251968448366433e-05
2.658778883761001e-07,4.76120718640053e-07,4.910687773816516e-07,2.251577636119567e-05
2.627021485183814e-07,4.787367172596179e-07,4.985050363146539e-07,2.251736491259747e-05
2.5964869509877924e-07,4.810401076912415e-07,5.063920129429447e-07,2.252451188292104e-05
2.567305209836471e-07,4.830270141829489e-07,5.147394687861132e-07,2.253696649335061e-05
2.5396180555291385e-07,4.846969947323516e-07,5.235427451198374e-07,2.2554196413561872e-05
2.513569968478817e-07,4.860500466334768e-07,5.327872342948193e-07,2.257545333464085e-05
2.4892923214412786e-07,4.87086729642995e-07,5.424511352650761e-07,2.25998716285284e-05
2.466899736265729e-07,4.87810484048754e-07,5.525045164035597e-07,2.2626563162879784e-05
2.44649004169035e-07,4.882281753539342e-07,5.629085031063822e-07,2.2654699050081984e-05
2.428140295786061e-07,4.883483886200893e-07,5.736166169074743e-07,2.2683571788233802e-05
2.4118991288570853e-07,4.881794381732954e-07,5.845757278343098e-07,2.271261572222291e-05
2.3977820157105196e-07,4.877280060262818e-07,5.95726572297251e-07,2.274139794951467e-05
2.385785173698052e-07,4.869983570001559e-07,6.070063944929759e-07,2.276961444004709e-05
2.3759099709697105e-07,4.859926276373015e-07,6.183526261351214e-07,2.2797083888863682e-05
2.368170857127099e-07,4.847124024149369e-07,6.297039162973888e-07,2.282369876238648e-05
2.362584328335118e-07,4.831602648690517e-07,6.409992451453554e-07,2.2849327528679723e-05
2.359156181564671e-07,4.8134073939063e-07,6.521783552757001e-07,2.287371477779048e-05
2.3578770241330022e-07,4.792614166538486e-07,6.631829006235348e-07,2.2896436408504737e-05
2.358721993322596e-07,4.769335220512157e-07,6.739590358061968e-07,2.291695212153759e-05
2.3616564587915406e-07,4.7437018380588743e-07,6.844646172333722e-07,2.2934731880534812e-05
2.366653759447173e-07,4.715834617024965e-07,6.94676901545276e-07,2.2949342756851286e-05
2.373701955526029e-07,4.68582920248613e-07,7.045927712566414e-07,2.296043953107917e-05
2.382785334707376e-07,4.6537654499247635e-07,7.142215941205559e-07,2.296772283960929e-05
2.3938688890178263e-07,4.6197303513083456e-07,7.235779755225584e-07,2.297091497695347e-05
2.4069011170631764e-07,4.583837184674547e-07,7.326793466921315e-07,2.2969753850353682e-05
2.421821520461566e-07,4.546227007603965e-07,7.415451288640584e-07,2.296397879249008e-05
2.4385592660456464e-07,4.5070619891843186e-07,7.501922893580396e-07,2.2953271403867545e-05
2.457026567002497e-07,4.466523301231981e-07,7.586305494876714e-07,2.293719211415232e-05
2.477123553532639e-07,4.424801677808749e-07,7.668629316630444e-07,2.291519163366538e-05
2.498748152181858e-07,4.3820766417690447e-07,7.748895989558968e-07,2.2886684955847565e-05
2.521790173542093e-07,4.33850992421085e-07,7.827094708019952e-07,2.2851140202964583e-05
2.546117867813991e-07,4.294261523524047e-07,7.903193332090869e-07,2.2808193403845665e-05
2.5715752046577676e-07,4.249503202324537e-07,7.977152689438236e-07,2.2757763340919228e-05
2.59798544270871e-07,4.2044097515138714e-07,8.048957369767194e-07,2.2700059692274052e-05
2.6251535793804086e-07,4.159136417045057e-07,8.118614610960062e-07,2.2635452298974772e-05
2.652874755297882e-07,4.1138043489733856e-07,8.186180286185328e-07,2.256429868937828e-05
2.6809505908536853e-07,4.0685058464888e-07,8.251884314650352e-07,2.2486840170192933e-05
2.7091979167402766e-07,4.023330657617627e-07,8.316259737175321e-07,2.240319571422664e-05
2.7374401830233664e-07,3.97839901968124e-07,8.380138423641714e-07,2.23134004253192e-05
2.765500414649983e-07,3.9338727224233534e-07,8.444520656797379e-07,2.2217430199195146e-05
2.79321354414644e-07,3.8899380664382184e-07,8.510433510848823e-07,2.2115229098583387e-05
2.8204418858285e-07,3.846778795322529e-07,8.578842262077599e-07,2.2006825217319448e-05
2.847073531063537e-07,3.8045548546739287e-07,8.650574206791597e-07,2.189251858217494e-05
2.873008989710112e-07,3.763396667948579e-07,8.726242945866966e-07,2.177295093447631e-05
2.898149495710141e-07,3.723409413563715e-07,8.8062259122586e-07,2.164896183006806e-05
2.922393389223228e-07,3.684675655580203e-07,8.890689289653509e-07,2.152135858798591e-05
2.9456402939958987e-07,3.6472586073571855e-07,8.979611827228333e-07,2.139077470197384e-05
2.967793832925012e-07,3.6112121660222503e-07,9.072802518024851e-07,2.1257748515981026e-05
2.9887572335788787e-07,3.576592544971325e-07,9.169919900864851e-07,2.112303126076068e-05
3.0084327014853304e-07,3.543457554455044e-07,9.270488319585035e-07,2.098789735282126e-05
3.0267270392220533e-07,3.51185523470377e-07,9.373915531791048e-07,2.0854201360300294e-05
3.04355146480972e-07,3.481816149584681e-07,9.479514471470885e-07,2.0724203003915575e-05
3.058820357812023e-07,3.453351990501689e-07,9.58654743937876e-07,2.06003377523142e-05
3.072460587273625e-07,3.426465772511601e-07,9.694325317979981e-07,2.0485012243857693e-05
3.084424635751567e-07,3.4011765051799824e-07,9.80230913535672e-07,2.0380423983792483e-05
3.0946927150036373e-07,3.37753252839001e-07,9.91010606395352e-07,2.028841246242029e-05
3.1032594670405623e-07,3.355592078345941e-07,1.0017372804474687e-06,2.0210358734000585e-05
3.110117639858255e-07,3.3353902900690324e-07,1.0123739236734562e-06,2.0147147072056253e-05
3.115251662372095e-07,3.3169203685113354e-07,1.0228809187915724e-06,2.009918688759483e-05
3.118641388270193e-07,3.300136199110808e-07,1.0332218706203386e-06,2.006646784494929e-05
3.120272432657538e-07,3.2849741242525103e-07,1.0433695655382444e-06,2.004861285947788e-05
3.120142797492585e-07,3.271383469610033e-07,1.05330543662632e-06,2.004491697708924e-05
3.11825781781106e-07,3.2593482250031036e-07,1.0630121757086087e-06,2.0054391645603103e-05
3.1146246299904735e-07,3.2488908602062786e-07,1.072468212703995e-06,2.0075839222694552e-05
3.1092503890823906e-07,3.240057388780751e-07,1.0816497714868715e-06,2.010796236011119e-05
3.102136248508095e-07,3.2328857382813346e-07,1.0905346940702112e-06,2.0149487639752288e-05
3.093277148979393e-07,3.2273788015780386e-07,1.099101131820495e-06,2.0199252729238644e-05
3.082679836862913e-07,3.223507881517805e-07,1.1073224084795237e-06,2.025622193891933e-05
3.070384655169304e-07,3.221232238954013e-07,1.1151630511770098e-06,2.031946765686132e-05
3.056470216330921e-07,3.220507007594613e-07,1.1225788454556142e-06,2.0388163911506925e-05
3.041042552539218e-07,3.2212804381099464e-07,1.1295209538383422e-06,2.0461577581440804e-05
3.024219748077105e-07,3.223490164909924e-07,1.1359408500103429e-06,2.053902982940464e-05
3.006117632602582e-07,3.2270642714139327e-07,1.1417912736224293e-06,2.0619834549765693e-05
2.9868434107732505e-07,3.231920637389516e-07,1.1470236855758636e-06,2.0703233343508278e-05
2.966500461563011e-07,3.2379555745506374e-07,1.1515873993319942e-06,2.0788349691897517e-05
2.945194625303381e-07,3.245038462705029e-07,1.1554318522347788e-06,2.08741961838199e-05
2.9230298882113854e-07,3.253025032453979e-07,1.1585097403524493e-06,2.095971298594253e-05
2.9000991698938827e-07,3.261781900705104e-07,1.1607798715498655e-06,2.104376578800597e-05
2.876481822732834e-07,3.271208858778177e-07,1.1622095174670952e-06,2.112511433874904e-05
2.852246162604364e-07,3.281242083707521e-07,1.1627757515737269e-06,2.120241230621556e-05
2.827454072361032e-07,3.2918443784469597e-07,1.1624656265912698e-06,2.1274257703520886e-05
2.802168087139131e-07,3.303001703994116e-07,1.1612760012455926e-06,2.1339328869483536e-05
2.7764598379466645e-07,3.314719706559853e-07,1.1592134362326722e-06,2.1396611605269467e-05
2.750418598592814e-07,3.327007535905459e-07,1.156293811392049e-06,2.1445587921165225e-05
2.7241573802940824e-07,3.3398576195670245e-07,1.1525423882457785e-06,2.148627120491501e-05
2.69780842969382e-07,3.353233546891564e-07,1.1479933088369934e-06,2.1519137203812133e-05
2.671505432501287e-07,3.3670658536723765e-07,1.1426853431284464e-06,2.15450177262858e-05
2.6453686600551876e-07,3.3812572933509676e-07,1.13665553606206e-06,2.1564943346489546e-05
2.619505471810993e-07,3.395701217405693e-07,1.1299359117431587e-06,2.157994217551135e-05
2.594015642927001e-07,3.410299598492058e-07,1.1225543865035844e-06,2.1590862692367648e-05
2.5689927328424376e-07,3.4249694334632237e-07,1.1145365110987743e-06,2.1598304286382087e-05
2.544533459074155e-07,3.439642545916623e-07,1.1059058105146915e-06,2.1602687765810612e-05
2.5207548394854174e-07,3.4542556632894175e-07,1.096685873851142e-06,2.1604396312469355e-05
2.4977908683795627e-07,3.468737590111209e-07,1.0869061372948645e-06,2.1603875791760497e-05
2.4757637622995026e-07,3.483015064294749e-07,1.0766073559136338e-06,2.160164816942769e-05
2.454763550860042e-07,3.4970258747639973e-07,1.0658443979759165e-06,2.159826027774015e-05
2.434853998955644e-07,3.510717420465521e-07,1.0546871484337368e-06,2.1594197868656197e-05
2.4160840060261934e-07,3.5240437014036805e-07,1.0432190988255908e-06,2.1589798627662533e-05
2.398484110958559e-07,3.536967678292883e-07,1.0315338471353993e-06,2.1585234623819102e-05
2.382056354317821e-07,3.549450292491424e-07,1.0197304870620364e-06,2.1580614226172847e-05
2.3667757175918613e-07,3.5614330367720853e-07,1.007907755231867e-06,2.1576116640632338e-05
2.352611529670706e-07,3.5728388008948313e-07,9.961583615753214e-07,2.157202885836589e-05
2.33955903908079e-07,3.5835827389435675e-07,9.84566620857668e-07,2.1568695047431e-05
2.3276556426435127e-07,3.593582137090069e-07,9.732095247238666e-07,2.1566452469727294e-05
2.316973752891516e-07,3.602773182915128e-07,9.621572057655314e-07,2.1565564750757106e-05
2.3076065694734225e-07,3.611118507018161e-07,9.514695961776451e-07,2.1566140296496934e-05
2.2996552607120427e-07,3.6185930586738075e-07,9.411917746299252e-07,2.1568061525677904e-05
2.2932205389602862e-07,3.62517222253557e-07,9.313530684663038e-07,2.1570970817207232e-05
2.288403118869844e-07,3.6308329125543006e-07,9.219721887054957e-07,2.1574321812547334e-05
2.2853063004813646e-07,3.6355556936083606e-07,9.130682851189345e-07,2.1577458538636792e-05
2.2840364665621572e-07,3.63932307410407e-07,9.046738343532354e-07,2.157968185018039e-05
2.2847009543703216e-07,3.642118887531231e-07,8.968406349828613e-07,2.1580285094752012e-05
2.2873927010599852e-07,3.643932640446732e-07,8.89634484964266e-07,2.157855968276502e-05
2.2921685899914299e-07,3.644759647054018e-07,8.831224178601497e-07,2.1573780742090575e-05
2.2990455065714587e-07,3.644589703660657e-07,8.773593920642241e-07,2.156518177786512e-05
2.3080133921708175e-07,3.6434012883619313e-07,8.723804622071768e-07,2.155193657182376e-05
2.3190522582394122e-07,3.641177283654553e-07,8.682001650122519e-07,2.1533171162285807e-05
2.3321502054031219e-07,3.6379199766803773e-07,8.648161344858019e-07,2.150799398413003e-05
2.3473131113019942e-07,3.63363845297044e-07,8.622130755690893e-07,2.147551706445254e-05
2.3645538290360823e-07,3.6283297422483353e-07,8.603650676206402e-07,2.1434870018179707e-05
2.3838683264135233e-07,3.621987788024553e-07,8.592366445052912e-07,2.138522103071666e-05
2.4052204091247945e-07,3.6146380321218635e-07,8.587841085406943e-07,2.1325806154423168e-05
2.428539741572683e-07,3.606377740335154e-07,8.589577558825981e-07,2.125596064202732e-05
2.4537204863812127e-07,3.597394137780657e-07,8.597057424323677e-07,2.1175157662374506e-05
2.480621348064773e-07,3.587936603857415e-07,8.609816608867292e-07,2.1083069205843226e-05
2.509074379654369e-07,3.5782746861059926e-07,8.627540835391167e-07,2.0979637106694045e-05
2.5388977134801e-07,3.5686838027354214e-07,8.650102412137106e-07,2.086510904056873e-05
2.569913194620579e-07,3.5594401294391e-07,8.67749977834499e-07,2.074000994199854e-05
2.601969958087736e-07,3.550802847647549e-07,8.70975144021871e-07,2.0605061648535584e-05
2.6349513482939574e-07,3.5429938150558705e-07,8.746813578351183e-07,2.0461076861508046e-05
2.668754551756195e-07,3.536186925117835e-07,8.78854843207303e-07,2.0308855354754053e-05
2.703274783102459e-07,3.5305083089402326e-07,8.834731603930374e-07,2.0149119830827454e-05
2.738418352125122e-07,3.5260404589187284e-07,8.885070723675999e-07,1.998248858117964e-05
2.7741207100938464e-07,3.5228291530188616e-07,8.939221705352701e-07,1.9809448163080888e-05
2.810338342658888e-07,3.5208898791143017e-07,8.996821226728667e-07,1.9630337406198707e-05
2.8470196715922106e-07,3.520208604439513e-07,9.057546164758013e-07,1.9445378519141047e-05
2.884080360447492e-07,3.5207528422782995e-07,9.121145244796331e-07,1.9254760806649426e-05
2.921396543268594e-07,3.522510833231541e-07,9.187397104935005e-07,1.9058737807686592e-05
2.958815821262849e-07,3.5255308030281647e-07,9.25606949526548e-07,1.8857658390541128e-05
2.9961810313302587e-07,3.529907323921492e-07,9.326941686077543e-07,1.865191072771359e-05
3.033346973675486e-07,3.535727104954377e-07,9.399812648707392e-07,1.8441853712093618e-05
3.0701735507135855e-07,3.543051732954777e-07,9.47446688580138e-07,1.822779171517637e-05
3.1065113653650906e-07,3.551963716769617e-07,9.550704767471432e-07,1.8009977871924094e-05
3.14220227740345e-07,3.5626061017798976e-07,9.62847511502983e-07,1.7788616055714434e-05
3.177102972643784e-07,3.5751573988967856e-07,9.708002680485805e-07,1.7563859340630303e-05
3.211117881226437e-07,3.589776854265352e-07,9.789799527300418e-07,1.7335812232262743e-05
3.2442007877845346e-07,3.60657305438866e-07,9.87455166895206e-07,1.7104537378735393e-05
3.276316445877092e-07,3.6256009703346e-07,9.962947766590365e-07,1.687008181591385e-05
3.307405176650817e-07,3.646868199892267e-07,1.005552180858404e-06,1.6632525153543555e-05
3.337373415733049e-07,3.670337179088664e-07,1.015256179743311e-06,1.6392011196007793e-05
3.3661018956188565e-07,3.6959341532605524e-07,1.0254119877253657e-06,1.6148738209600882e-05
3.393468693235411e-07,3.7235670301382864e-07,1.036013323357609e-06,1.5902925014904085e-05
3.4193721812668984e-07,3.7531306445827647e-07,1.0470614535513405e-06,1.5654801485746233e-05
3.443728003476256e-07,3.7845049396460747e-07,1.0585826379011771e-06,1.5404687824813335e-05
3.466447797326409e-07,3.8175626451757546e-07,1.0706352790124323e-06,1.5153123486057046e-05
3.487428513578302e-07,3.852178131871565e-07,1.0833012729051303e-06,1.4900911645930383e-05
3.506560282655965e-07,3.888244912981382e-07,1.0966653221318312e-06,1.4649070483692416e-05
3.523740971533929e-07,3.925708574043616e-07,1.110798505776798e-06,1.4398767126371454e-05
3.5388893788854673e-07,3.9645791323863993e-07,1.1257588412948784e-06,1.4151232822268347e-05
3.551963074392699e-07,4.0049044060874745e-07,1.1416007519253842e-06,1.3907657788203005e-05
3.562983339536461e-07,4.046727941926497e-07,1.1583771088877695e-06,1.366910582159216e-05
3.5720523867235923e-07,4.0900503953811975e-07,1.1761312996340596e-06,1.3436476757154048e-05
3.5793444056009174e-07,4.134805501253423e-07,1.1948873270329192e-06,1.3210532572570255e-05
3.585068384868843e-07,4.1808614121632045e-07,1.2146420161279544e-06,1.2991981826112148e-05
3.5894245274224297e-07,4.2280408144346096e-07,1.2353600621052583e-06,1.2781557399935973e-05
3.5925780796802577e-07,4.276137017630928e-07,1.2569745171933941e-06,1.258000464145473e-05
3.5946540678945227e-07,4.324917750575383e-07,1.2793931198259394e-06,1.2387996556078915e-05
3.5957495502359274e-07,4.374130223305814e-07,1.3025054325524557e-06,1.2206063947710494e-05
3.595955311508696e-07,4.423509997096957e-07,1.3261864178459528e-06,1.2034569299088616e-05
3.5953653649719207e-07,4.4727934840047245e-07,1.3503000124408724e-06,1.187371672935034e-05
3.594068704184169e-07,4.5217514503934477e-07,1.3747076531411577e-06,1.172362065963927e-05
3.5921417298775566e-07,4.570227156507172e-07,1.3992776300673222e-06,1.1584425824351775e-05
3.5896497253716846e-07,4.618128270462957e-07,1.4238879600560037e-06,1.1456408320836546e-05
3.5866501899965574e-07,4.6653739558586825e-07,1.4484221871762052e-06,1.1339993722357147e-05
3.583192416203749e-07,4.7118507984080457e-07,1.4727642550237404e-06,1.1235691083918966e-05
3.579314667989811e-07,4.757400258980365e-07,1.4967998995327318e-06,1.1143995943154688e-05
3.575041932274197e-07,4.801819236086643e-07,1.5204251294033212e-06,1.1065306961029311e-05
3.570388509448524e-07,4.844863016331589e-07,1.5435543425222425e-06,1.0999866649129294e-05
3.565371916534475e-07,4.886254004846281e-07,1.5661224938859728e-06,1.0947750011363943e-05
3.560028103082864e-07,4.925697562830966e-07,1.588082567955438e-06,1.0908962470589863e-05
3.554405540805887e-07,4.962900622208273e-07,1.6094021368263231e-06,1.088365106676165e-05
3.548544672607642e-07,4.997582701379123e-07,1.6300607461931366e-06,1.0872258150004486e-05
3.5424670921487496e-07,5.029472745159567e-07,1.6500454877320732e-06,1.0875442254791254e-05
3.5361787820567044e-07,5.058302253242213e-07,1.6693418322098022e-06,1.0893844279043484e-05
3.529683684628582e-07,5.08381031256893e-07,1.6879241109830264e-06,1.0927892457034823e-05
3.523004097052349e-07,5.105760006430211e-07,1.7057536723964526e-06,1.0977756362321138e-05
3.5162007508878216e-07,5.123961474516549e-07,1.7227858479162917e-06,1.104353003861202e-05
3.5093838422354497e-07,5.13829170607576e-07,1.7389811474353416e-06,1.1125577011860612e-05
3.502706321938076e-07,5.148689811955889e-07,1.7543160482282138e-06,1.1224710779088413e-05
3.4963393271330234e-07,5.155143303760005e-07,1.768786024350592e-06,1.134202571352753e-05
3.490441615009413e-07,5.157697633912272e-07,1.7823957330251926e-06,1.1478594522894315e-05
3.4851445619570173e-07,5.156462141996148e-07,1.795144803085826e-06,1.1635265589270413e-05
3.4805592301945856e-07,5.151579564069246e-07,1.807023169210616e-06,1.1812558679663006e-05
3.4767858060216407e-07,5.143189247331974e-07,1.8180182214103268e-06,1.2010604058583967e-05
3.4739105444884467e-07,5.131414434823281e-07,1.8281244350611854e-06,1.2229119738645115e-05
3.4719930233313985e-07,5.116364653313603e-07,1.8373462935969624e-06,1.246742792840609e-05
3.4710564658728307e-07,5.098145857773121e-07,1.8456920823250648e-06,1.2724498395486035e-05
3.471093690959121e-07,5.076869792380822e-07,1.853164028156908e-06,1.2998993417765928e-05
3.4720810206421266e-07,5.052652625008911e-07,1.8597544132096829e-06,1.3289300769224887e-05
3.4739822690280427e-07,5.025617249861867e-07,1.8654502844781016e-06,1.3593563878975078e-05
3.4767522338442e-07,4.995903438275017e-07,1.8702394533409119e-06,1.3909711679887833e-05
3.480355561735279e-07,4.963667160249096e-07,1.8741120593727246e-06,1.4235488268650162e-05
3.484784969364093e-07,4.929066308624241e-07,1.877058950662928e-06,1.4568498031394904e-05
3.490061563509943e-07,4.892245156414096e-07,1.8790712643402776e-06,1.4906269529216062e-05
3.496222617578818e-07,4.853328338842676e-07,1.8801431846056927e-06,1.5246321972798774e-05
3.503304092798381e-07,4.812432055081593e-07,1.8802750386015843e-06,1.5586227720745174e-05
3.5113227227600307e-07,4.769681640195761e-07,1.879475252494876e-06,1.5923667419985902e-05
3.520271323037803e-07,4.7252125094796315e-07,1.8777610042177563e-06,1.6256462345058717e-05
3.530129237579908e-07,4.6791606808304004e-07,1.8751546264222461e-06,1.658257758941469e-05
3.54086520815189e-07,4.6316607619304896e-07,1.8716765434686713e-06,1.6900113093186828e-05
3.552426552159385e-07,4.582848245284939e-07,1.8673400936724918e-06,1.7207305867852113e-05
3.564732856397286e-07,4.532868845841515e-07,1.8621511690164764e-06,1.750254325505599e-05
3.577680429134116e-07,4.481893282993965e-07,1.8561120965446686e-06,1.778435550756823e-05
3.5911510696074403e-07,4.430112339731714e-07,1.8492273755185497e-06,1.8051370896284148e-05
3.605028304976802e-07,4.37771211450396e-07,1.841509387295192e-06,1.830226490328037e-05
3.6192272688178204e-07,4.324867364490219e-07,1.832983569243119e-06,1.8535736536856697e-05
3.633717831282955e-07,4.2717634041935024e-07,1.8236912562646786e-06,1.8750509946866392e-05
3.6485159180855424e-07,4.218608131879601e-07,1.8136865695349743e-06,1.8945352749148958e-05
3.663656868213569e-07,4.165617024982923e-07,1.803027082627344e-06,1.911911168456796e-05
3.6791794374058545e-07,4.1129987801534354e-07,1.7917643610436715e-06,1.927075403682312e-05
3.69512538309833e-07,4.0609550457684226e-07,1.7799396773135563e-06,1.939938708638556e-05
3.711544988272712e-07,4.009682944220298e-07,1.767585254580217e-06,1.9504251012092366e-05
3.7284990403951676e-07,3.959370372953344e-07,1.754731255612154e-06,1.95847050119332e-05
3.746043964001095e-07,3.9101832861512617e-07,1.7414168694376162e-06,1.9640214493865288e-05
3.7642036895806345e-07,3.862259408970847e-07,1.727697396421606e-06,1.9670347061151505e-05
3.782960085760002e-07,3.8157154509907997e-07,1.713639649313719e-06,1.967480516382525e-05
3.8022731562345094e-07,3.770654815162308e-07,1.6993092796840169e-06,1.965351694728842e-05
3.822103887713701e-07,3.7271672827854854e-07,1.684763077446806e-06,1.960673156141507e-05
3.842422481025251e-07,3.6853247111699203e-07,1.6700540892026612e-06,1.953501855850095e-05
3.8632067624462147e-07,3.6451817535028855e-07,1.6552449345052842e-06,1.943916744910599e-05
3.8844340173855217e-07,3.6067819485818343e-07,1.640421819557018e-06,1.9320077962749444e-05
3.906074267385243e-07,3.570162482456057e-07,1.6257043714234536e-06,1.917869738874024e-05
3.928089371333538e-07,3.535364340463718e-07,1.611244989196751e-06,1.9015990820063176e-05
3.9504274061008295e-07,3.5024522127566786e-07,1.5972143630042015e-06,1.883291878646462e-05
3.9730125570409713e-07,3.4715326362294986e-07,1.5837785456786447e-06,1.863044216484117e-05
3.995740109309272e-07,3.44275675173425e-07,1.5710800351001906e-06,1.8409630332594435e-05
4.018486525772951e-07,3.416291943232761e-07,1.5592345444988016e-06,1.817190425385786e-05
4.041140336234394e-07,3.392273566223313e-07,1.5483409376578551e-06,1.7919240031358903e-05
4.063626141701508e-07,3.3707797444913785e-07,1.5384899106198363e-06,1.7654105134551334e-05
4.08588922082007e-07,3.351836841366515e-07,1.5297636876524911e-06,1.7379178545201723e-05
4.107860526179122e-07,3.3354276788818423e-07,1.5222296635180828e-06,1.7097073443293387e-05
4.1294476974153963e-07,3.32149639672819e-07,1.5159329357295646e-06,1.681019788876466e-05
4.150562864547913e-07,3.3099613135306025e-07,1.5108914680705788e-06,1.6520854204575266e-05
4.171149337926324e-07,3.3007399144137787e-07,1.50709457373448e-06,1.6231556785868205e-05
4.191173115520596e-07,3.2937794545726127e-07,1.5045032181570812e-06,1.5945293039511413e-05
4.210598287434928e-07,3.2890690645884426e-07,1.5030521770189629e-06,1.5665503003005936e-05
4.229373159382422e-07,3.286612164170721e-07,1.5026546911690384e-06,1.5395861497065093e-05
4.247423043148917e-07,3.28638090379873e-07,1.5032099164318562e-06,1.5140034044813395e-05
4.264647408677551e-07,3.288296664826619e-07,1.5046104430345518e-06,1.4901465400701593e-05
4.280922921310549e-07,3.2922444069012353e-07,1.506745871374172e-06,1.4683210598611414e-05
4.296106884663738e-07,3.298093351544126e-07,1.5095067944104446e-06,1.4487828434014971e-05
4.310043299983654e-07,3.305713346817663e-07,1.5127924497324948e-06,1.4317342433369656e-05
4.3225746554119386e-07,3.3149942835612093e-07,1.5165124362677685e-06,1.4173242851759191e-05
4.333549344803934e-07,3.325859479694944e-07,1.5205781229170056e-06,1.40564981465444e-05
4.342823452924264e-07,3.338267275387341e-07,1.5248946581447722e-06,1.3967573178155172e-05
4.3502786853764495e-07,3.352209071360758e-07,1.5293623579833608e-06,1.3906473854743472e-05
4.3558489065522397e-07,3.367698148546209e-07,1.5338833215911924e-06,1.3872820694325116e-05
4.3595186643446673e-07,3.3847399079112767e-07,1.5383640665904085e-06,1.3865927643528287e-05
4.3613069849823036e-07,3.40329858837424e-07,1.5427122203185004e-06,1.3884870969326749e-05
4.36126386345137e-07,3.423288813925217e-07,1.5468330430891162e-06,1.3928559317048349e-05
4.3594579355352345e-07,3.4445941356195897e-07,1.5506298975622253e-06,1.399580724858274e-05
4.355948783161634e-07,3.4670850409058105e-07,1.5540077202754015e-06,1.408538829004275e-05
4.350772047989101e-07,3.490618691165791e-07,1.5568770938463497e-06,1.419605968706482e-05
4.3439414413692246e-07,3.515030362615121e-07,1.5591586012902391e-06,1.4326567304936707e-05
4.335455541456828e-07,3.540128777823618e-07,1.5607877220101685e-06,1.4475626476633927e-05
4.32531142775142e-07,3.5656968045867795e-07,1.5617182456045397e-06,1.464188271139099e-05
4.3135221315355256e-07,3.591500875002113e-07,1.5619257479021322e-06,1.4823873143463727e-05
4.300120221897315e-07,3.6173012965595776e-07,1.5614163128453796e-06,1.5020004265694296e-05
4.285146499067189e-07,3.642856974498399e-07,1.5602339004334291e-06,1.522855308960961e-05
4.268649312603229e-07,3.667945039396219e-07,1.558451030732135e-06,1.5447705779334803e-05
4.2507078514113546e-07,3.692392004404511e-07,1.5561462737724812e-06,1.567562838806891e-05
4.231458099626262e-07,3.716076397916553e-07,1.553392502987712e-06,1.591052358434884e-05
4.211092982054985e-07,3.738900140801193e-07,1.550267651322606e-06,1.615064820260034e-05
4.189832365663372e-07,3.760765324239774e-07,1.5468735075780546e-06,1.639429861452935e-05
4.167890502984562e-07,3.7815731708348473e-07,1.5433442621867788e-06,1.6639774136107283e-05
4.145471474562192e-07,3.8012381119716476e-07,1.5398417408015709e-06,1.6885349398354692e-05
4.1227770861589717e-07,3.8196984438874576e-07,1.5365431402949363e-06,1.712927208425233e-05
4.0999928455989094e-07,3.8369053310946846e-07,1.5336253498444304e-06,1.736977877839865e-05
4.077263701819103e-07,3.852802213637703e-07,1.5312497001998802e-06,1.7605133383525015e-05
4.054693150193328e-07,3.867324247944453e-07,1.5295514851931369e-06,1.7833684861349476e-05
4.032369342693617e-07,3.8804201795433295e-07,1.5286337949202387e-06,1.8053932678903867e-05
4.010389826913093e-07,3.892066151645246e-07,1.5285643939658183e-06,1.826459945739344e-05
3.988861673829008e-07,3.90225971762733e-07,1.529379061071146e-06,1.8464717492469705e-05
3.967897353753659e-07,3.9110199237503546e-07,1.5310901850280644e-06,1.865369504567852e-05
3.947626746868101e-07,3.918395619493512e-07,1.5336912950966586e-06,1.883128026221689e-05
3.928200786131664e-07,3.924461543591229e-07,1.5371544398772996e-06,1.899741293142136e-05
3.909779628486885e-07,3.9293102276516103e-07,1.5414274832471441e-06,1.915206516489618e-05
3.892530029448985e-07,3.933046285169375e-07,1.546436698750254e-06,1.9295163742994682e-05
3.876623457200516e-07,3.9357731291810743e-07,1.5520938287866666e-06,1.9426594401609635e-05
3.862214632091447e-07,3.937577573213465e-07,1.558302875233659e-06,1.954623057612289e-05
3.849418127389872e-07,3.938526938886851e-07,1.5649626965339692e-06,1.9653940932863183e-05
3.838305885688219e-07,3.938686243551781e-07,1.5719672255594974e-06,1.9749595161886632e-05
3.8289171204962843e-07,3.9381406996852203e-07,1.5792067533882531e-06,1.9833170840280787e-05
3.8212629898771883e-07,3.936994472074806e-07,1.5865714430833597e-06,1.9904957520987115e-05
3.815326671898383e-07,3.935348689442168e-07,1.5939578446199634e-06,1.9965635372390825e-05
3.8110657508624137e-07,3.933291691454803e-07,1.6012765930138563e-06,2.001611554500867e-05
3.8084162838755457e-07,3.930914887192807e-07,1.6084549118896132e-06,2.0057303059066565e-05
3.807298633792736e-07,3.9283315835969675e-07,1.6154300600075987e-06,2.0089962240560066e-05
3.8076280951409114e-07,3.9256692672101773e-07,1.6221399124851748e-06,2.0114778022354364e-05
3.8093270875625657e-07,3.923039012290466e-07,1.628522094990419e-06,2.0132609130039607e-05
3.8123229974263895e-07,3.9205126556957174e-07,1.634524458933674e-06,2.014473131530012e-05
3.81652761337321e-07,3.918120107016211e-07,1.6401163345392688e-06,2.0152849031801945e-05
3.8218237289491527e-07,3.915859349459774e-07,1.6452888268943282e-06,2.0158917162237168e-05
3.828074017346162e-07,3.9137128117996224e-07,1.6500437568069289e-06,2.016495521497261e-05
3.835140760701511e-07,3.91165819118925e-07,1.654382187386972e-06,2.0172922166879072e-05
3.842900478836914e-07,3.9096723890183677e-07,1.6583042302465412e-06,2.018460706335956e-05
3.851241742819604e-07,3.9077465867697637e-07,1.6618196660344434e-06,2.0201514268634505e-05
3.8600534300709024e-07,3.905903808162396e-07,1.6649578137591748e-06,2.0224783512313025e-05
3.8692194723444574e-07,3.904190279918654e-07,1.6677682506739934e-06,2.0255172245628603e-05
3.878617497826582e-07,3.9026479948737603e-07,1.6703133741797943e-06,2.029309215285638e-05
3.888116847569527e-07,3.901293021114696e-07,1.6726570724503357e-06,2.033866212887748e-05
3.8975861965437815e-07,3.900106238119418e-07,1.6748528707687876e-06,2.039172562329937e-05
3.9069121389317593e-07,3.8990454905628746e-07,1.6769364028328527e-06,2.045183172711966e-05
3.916004950384749e-07,3.8980830952751177e-07,1.6789262426144257e-06,2.0518228405774802e-05
3.924776487592001e-07,3.897236275413544e-07,1.6808290695954931e-06,2.058990629038148e-05
3.933114567897341e-07,3.8965557797317686e-07,1.6826417412313197e-06,2.066569790303641e-05
3.940878001184674e-07,3.896088242141133e-07,1.684350051929579e-06,2.0744394214314007e-05
3.947908574952819e-07,3.895856451064753e-07,1.6859287348578338e-06,2.082482556603378e-05
3.954048142755682e-07,3.8958712268326905e-07,1.687345456276837e-06,2.0905893057313448e-05
3.9591468874902723e-07,3.896146940487896e-07,1.6885669311782469e-06,2.098657833122648e-05
3.9630627370637626e-07,3.896697411724874e-07,1.6895637041655752e-06,2.1065960666506494e-05
3.965665878648887e-07,3.897527301141024e-07,1.6903188935083531e-06,2.1143236705381493e-05
3.966841339733022e-07,3.898640335169533e-07,1.6908453423419096e-06,2.1217718851479207e-05
3.966481830298996e-07,3.9000513097747713e-07,1.6911983041054855e-06,2.1288804234852186e-05
3.9644961088893243e-07,3.901777268276792e-07,1.6914703371147758e-06,2.1355916737899413e-05
3.960849003414157e-07,3.903814472445261e-07,1.691772064431924e-06,2.1418447174830927e-05
3.955602391479606e-07,3.906126254961046e-07,1.692209602517214e-06,2.1475742171859844e-05
3.948914787630266e-07,3.9086446256225034e-07,1.6928665046606996e-06,2.152712892015165e-05
3.940999498592229e-07,3.911274489901039e-07,1.693794336315036e-06,2.157191009509666e-05
3.9320839255900686e-07,3.9139035713393077e-07,1.6950115471964519e-06,2.1609332576943133e-05
3.9223945188335816e-07,3.916419120045765e-07,1.6965071678823888e-06,2.1638584583810973e-05
3.9121481510480007e-07,3.918718105285796e-07,1.6982468148859963e-06,2.165883796027586e-05
3.901537884641407e-07,3.9207048403719507e-07,1.7001792622258518e-06,2.1669297466065115e-05
3.890724659976203e-07,3.9222827906699243e-07,1.7022403146013228e-06,2.166921937098396e-05
3.8798330383764076e-07,3.9233484096790365e-07,1.7043532760735534e-06,2.1657912983794766e-05
3.8689465880269946e-07,3.923797069346994e-07,1.7064300833917646e-06,2.1634753473739805e-05
3.858117012908728e-07,3.923547084625432e-07,1.708374924495657e-06,2.159921749046489e-05
3.847387376582752e-07,3.922562617968772e-07,1.7100905350825457e-06,2.155094286397197e-05
3.8368056352056277e-07,3.920850885767681e-07,1.7114920882197296e-06,2.1489814500578447e-05
3.8264144692433523e-07,3.918437703604091e-07,1.7125293405935103e-06,2.141605222331056e-05
3.8162340449803945e-07,3.915340820153854e-07,1.7132044402153318e-06,2.1330217003857416e-05
3.806271653849624e-07,3.91155510047212e-07,1.713571906199135e-06,2.123308822145804e-05
3.7965639504490963e-07,3.907051265006634e-07,1.7137201610086831e-06,2.112548595062893e-05
3.78721153787781e-07,3.901779356191137e-07,1.713744308544702e-06,2.100816515013619e-05
3.778370557762814e-07,3.895669477492378e-07,1.7137238926577146e-06,2.088182359920308e-05
3.7702121694480256e-07,3.888637100897024e-07,1.7137158900718515e-06,2.0747141111026364e-05
3.762885796133475e-07,3.880610829029785e-07,1.7137607869096162e-06,2.0604776700479602e-05
3.7565056301753526e-07,3.8715762541712714e-07,1.7138927083023584e-06,2.0455358912443592e-05
3.7511513976751533e-07,3.8616039761002934e-07,1.7141480884212434e-06,2.029956917852559e-05
3.74686955696419e-07,3.8508454809578157e-07,1.7145681231538425e-06,2.0138311867803933e-05
3.7436737800974866e-07,3.8395045703594475e-07,1.7151918879482254e-06,1.9972780552073386e-05
3.7415507801684023e-07,3.8278044812128366e-07,1.716047439288324e-06,1.9804323471138376e-05
3.7404736776933495e-07,3.8159730521922477e-07,1.7171492957146597e-06,1.9634250262959328e-05
3.7404140014887364e-07,3.8042487188693524e-07,1.718499638012199e-06,1.946371353462193e-05
3.741344396399933e-07,3.79288929201469e-07,1.7200916861840615e-06,1.929372829721537e-05
3.7432317453951526e-07,3.7821663040799005e-07,1.7219162729060063e-06,1.9125398173915755e-05
3.746020627963818e-07,3.772338741723312e-07,1.723963437986269e-06,1.8960227727663432e-05
3.7496192412852566e-07,3.763618768038578e-07,1.7262147532828198e-06,1.88002310853519e-05
3.7539054522917635e-07,3.756158363638756e-07,1.7286351285668141e-06,1.864777635825636e-05
3.758741691737939e-07,3.750062478437894e-07,1.7311705291667911e-06,1.850535550053112e-05
3.763979774591164e-07,3.745399376471933e-07,1.733749528493186e-06,1.8375409863799e-05
3.7694682944761227e-07,3.742194297667177e-07,1.7362861376331982e-06,1.8260214174324866e-05
3.7750686245905744e-07,3.7404242915501974e-07,1.7386842068152991e-06,1.816178928298131e-05
3.7806552339295347e-07,3.7400220470918986e-07,1.7408459665276145e-06,1.8081833768092472e-05
3.786099456098554e-07,3.740878813779069e-07,1.7426860842396008e-06,1.8021677674439638e-05
3.791272185543014e-07,3.7428545988147436e-07,1.7441433822955243e-06,1.7982261106394015e-05
3.796072390711782e-07,3.7458163022503563e-07,1.7451782632971439e-06,1.7964129020153352e-05
3.800440435521086e-07,3.749689887141335e-07,1.7457587586674518e-06,1.7967416721666847e-05
3.804339239361516e-07,3.754488662637257e-07,1.7458521113891582e-06,1.7991833768520254e-05
3.807733401048236e-07,3.7603080908178223e-07,1.745427659285207e-06,1.8036690848981173e-05
3.8105881839225884e-07,3.767295497813523e-07,1.7444618300754954e-06,1.810097857192406e-05
3.8128778271753357e-07,3.7756097791038534e-07,1.7429456698560452e-06,1.8183474397677227e-05
3.8145809585790313e-07,3.7854017942326476e-07,1.7409028958040832e-06,1.828286175946908e-05
3.815667954069704e-07,3.7968144975448474e-07,1.738410147899495e-06,1.8397829066249013e-05
3.816101847806106e-07,3.809973575893735e-07,1.7356029756525098e-06,1.852711651443557e-05
3.8158477685983174e-07,3.8249661721025327e-07,1.732664568072612e-06,1.866953770262876e-05
3.814878207471135e-07,3.841821494064857e-07,1.729804146463276e-06,1.8824014884627488e-05
3.813174746132932e-07,3.860502782225761e-07,1.7272306646477486e-06,1.898961025518269e-05
3.8107244243381404e-07,3.88091271546429e-07,1.7251298850748105e-06,1.9165525037124563e-05
3.807511964399491e-07,3.902905694659096e-07,1.7236560492381302e-06,1.9351074109019958e-05
3.803516043521378e-07,3.926302830618486e-07,1.7229378658705037e-06,1.954563895824943e-05
3.798708580756912e-07,3.950910726310036e-07,1.7230863359514286e-06,1.9748576229670223e-05
3.7930530117117464e-07,3.9765576052044076e-07,1.7241968202355438e-06,1.9959094870025806e-05
3.786503506775974e-07,4.0031477512875533e-07,1.7263472614195662e-06,2.01761647832148e-05
3.7790066526561e-07,4.0306802812444403e-07,1.7295956490268146e-06,2.039849147696842e-05
3.770506015439149e-07,4.059198829544895e-07,1.733975788252626e-06,2.0624543736502266e-05
3.760946243809115e-07,4.0887273907289356e-07,1.7394910485847062e-06,2.0852621270570125e-05
3.750276680866275e-07,4.1192455535164425e-07,1.746111605316603e-06,2.1080947828716197e-05
3.73846114079477e-07,4.15069246555909e-07,1.7537780319856853e-06,2.130774269962621e-05
3.725488877539785e-07,4.182971031830875e-07,1.7624075281451336e-06,2.153122953759753e-05
3.7113739907951433e-07,4.2159497651771003e-07,1.7719025083859452e-06,2.174961632195168e-05
3.6961461511350755e-07,4.249473720500121e-07,1.7821629547933566e-06,2.1961100869620906e-05
3.6798436630455657e-07,4.2833722225734345e-07,1.793099627482376e-06,2.216390038550692e-05
3.6625129457893783e-07,4.3174513245121726e-07,1.804645354520784e-06,2.235630066119106e-05
3.6442154074181907e-07,4.3514913675879775e-07,1.816760089165408e-06,2.2536752179299985e-05
3.625029681826237e-07,4.3852608679001883e-07,1.8294238488013126e-06,2.270398616049687e-05
3.605036023699553e-07,4.418528214930636e-07,1.8426195282038944e-06,2.2857042128436805e-05
3.584295278627592e-07,4.4510627730503863e-07,1.856316426523073e-06,2.299516521184143e-05
3.5628400773059137e-07,4.482639792626233e-07,1.8704650404638333e-06,2.3117686980169958e-05
3.5406839529074337e-07,4.51305283254597e-07,1.8850028359773883e-06,2.3224015114533333e-05
3.517843602586424e-07,4.542112474013401e-07,1.8998613813042138e-06,2.3313714084962282e-05
3.4943525686831717e-07,4.569624817457533e-07,1.914971043737457e-06,2.338657086921955e-05
3.4702527824225886e-07,4.5953747973779477e-07,1.930264997452987e-06,2.344258592776547e-05
3.4455815345179486e-07,4.619128832049733e-07,1.945678808393351e-06,2.3481910950359766e-05
3.420365948745133e-07,4.640647962503978e-07,1.961145709458715e-06,2.350483721865175e-05
3.394623825008349e-07,4.659699128245104e-07,1.9765976005273204e-06,2.3511915725909694e-05
3.368385070737165e-07,4.6760631668729886e-07,1.99197431823556e-06,2.3504079645396327e-05
3.3417257381668937e-07,4.689546285264677e-07,2.007231671622574e-06,2.3482582702787185e-05
3.314771645116469e-07,4.699988761215289e-07,2.022339499281544e-06,2.3448798783462782e-05
3.287667750947777e-07,4.7072627606624176e-07,2.0372707520791567e-06,2.340403350577626e-05
3.260560189186522e-07,4.711267858698285e-07,2.051997897339065e-06,2.3349437742335987e-05
3.233605767528501e-07,4.7119410150702103e-07,2.0665096860651883e-06,2.3286124495852565e-05
3.206976567737784e-07,4.7092889184848735e-07,2.0808332175226457e-06,2.321545061649627e-05
3.180850338303091e-07,4.703418423781762e-07,2.09503911725616e-06,2.313918659275584e-05
3.155402545711127e-07,4.6945264022391703e-07,2.1092292765083053e-06,2.3059438708132465e-05
3.1308083099334697e-07,4.682859484729701e-07,2.1235175584991333e-06,2.2978465019372014e-05
3.10726218579296e-07,4.6687016904681866e-07,2.1380100047808403e-06,2.2898500141357464e-05
3.084997627129563e-07,4.6523946968874576e-07,2.15278899434213e-06,2.282160234923594e-05
3.064267773937872e-07,4.634326620800212e-07,2.167903745480264e-06,2.2749544384027025e-05
3.0452998898422253e-07,4.614880387433735e-07,2.1833683292375567e-06,2.2683763739362425e-05
3.028268517830827e-07,4.594396632740696e-07,2.1991687913631887e-06,2.262535527430612e-05
3.0132982297493106e-07,4.573171081525864e-07,2.21527522201102e-06,2.2575088284330926e-05
3.000478687347929e-07,4.551476717002072e-07,2.231649674198658e-06,2.253343368306438e-05
2.989871747642448e-07,4.529594547590439e-07,2.248245189903008e-06,2.250057337293361e-05
2.981507215843959e-07,4.5078259601497926e-07,2.264999201327436e-06,2.247638225239489e-05
2.9753913589425613e-07,4.4864882924770994e-07,2.2818289273404542e-06,2.2460418220596472e-05
2.971537285133031e-07,4.4659173482955645e-07,2.298631684067316e-06,2.245196042623664e-05
2.9699842380030174e-07,4.44647375028656e-07,2.315287528111e-06,2.2450094199128102e-05
2.970778264282936e-07,4.4285305712695944e-07,2.3316642270887784e-06,2.2453811781668934e-05
2.973934354307243e-07,4.4124340692268677e-07,2.3476242829087537e-06,2.2462100112413808e-05
2.9794224644465627e-07,4.3984629866983347e-07,2.3630303952107743e-06,2.24739949259855e-05
2.987184182646461e-07,4.38682838846455e-07,2.3777494550736343e-06,2.2488606733559013e-05
2.9971459496766877e-07,4.377708523908533e-07,2.3916581558368896e-06,2.2505145041913893e-05
3.0092146117321e-07,4.3712610796666366e-07,2.4046513839928107e-06,2.2522938039363642e-05
3.023275436264431e-07,4.3675945090937125e-07,2.4166516781035755e-06,2.2541429571635682e-05
3.0391970363751714e-07,4.3667387826956547e-07,2.427610928168388e-06,2.2560153665264484e-05
3.056827349643749e-07,4.3686426651384743e-07,2.4374978064002564e-06,2.2578675220938603e-05
3.075984657748218e-07,4.373190648377524e-07,2.4462853138734334e-06,2.259650826365491e-05
3.096462009055201e-07,4.380221982412981e-07,2.4539557325817766e-06,2.261310001827727e-05
3.118043115110036e-07,4.389553589083157e-07,2.460514807955614e-06,2.2627912257980625e-05
3.1405158483330536e-07,4.4010337985500316e-07,2.4659971703950366e-06,2.264048771704551e-05
3.163675136895944e-07,4.4146277479759925e-07,2.470459749940868e-06,2.265042287191112e-05
3.1873130697471445e-07,4.4304886505172777e-07,2.473969120705653e-06,2.2657303531132235e-05
3.2112121861352293e-07,4.4489723205102043e-07,2.4765869230241784e-06,2.2660670007830968e-05
3.235157953805165e-07,4.4705861784927255e-07,2.4783598051629755e-06,2.266001939499893e-05
3.258952150392849e-07,4.495890002800515e-07,2.479320410996592e-06,2.2654865310629445e-05
3.2824147977169016e-07,4.5254076350731446e-07,2.4794940125014355e-06,2.2644851168945065e-05
3.3053947494623606e-07,4.559620680011546e-07,2.4788998369295424e-06,2.262982088955072e-05
3.3277832895965986e-07,4.599026654997874e-07,2.477546032614451e-06,2.260980340854339e-05
3.349507080520737e-07,4.6441715324917176e-07,2.4754258270372083e-06,2.2584959031503625e-05
3.37050972137712e-07,4.6956151587889655e-07,2.472518871724666e-06,2.255550217768617e-05
3.3907396184203037e-07,4.75386104534784e-07,2.468794187380792e-06,2.252160599990135e-05
3.410141437485073e-07,4.819293342553269e-07,2.4642113537108293e-06,2.2483329584309664e-05
3.4286439068524397e-07,4.892143793261279e-07,2.4587226169662653e-06,2.2440592212403908e-05
3.446152429622269e-07,4.972485349367894e-07,2.4522808686767004e-06,2.239319307515885e-05
3.4625612435098377e-07,5.06022992073784e-07,2.4448506717693714e-06,2.2340876000754323e-05
3.477780746716207e-07,5.155135197329512e-07,2.436412013999669e-06,2.2283410233817128e-05
3.4917512472191247e-07,5.256854709239814e-07,2.426953937765199e-06,2.222062838771228e-05
3.504429519771954e-07,5.365016910788006e-07,2.41646557092062e-06,2.215240534887097e-05
3.5157757857854736e-07,5.479266546191603e-07,2.4049330307988747e-06,2.207861245787365e-05
3.5257583048709324e-07,5.599242618382029e-07,2.3923467159712555e-06,2.199910167052131e-05
