1.342207706995344e-06,1.0266813871100063e-06,8.336481064887391e-07,1.3196890171541707e-05
1.3036533805139495e-06,1.0425959066602856e-06,8.325897133861781e-07,1.2890895176370191e-05
1.2644759197804485e-06,1.058984254738e-06,8.322029160902369e-07,1.2611203552736095e-05
1.224790353490894e-06,1.0757349954500861e-06,8.324770054547597e-07,1.2357929648036295e-05
1.1847115652037578e-06,1.0927329333513479e-06,8.334122832164523e-07,1.2130909613895508e-05
1.1443528978092834e-06,1.109858919046553e-06,8.350114912883166e-07,1.1929913793742713e-05
1.1038256013953354e-06,1.1269901441831194e-06,8.372721285756916e-07,1.175494300382549e-05
1.0632388537754515e-06,1.1440030955894971e-06,8.401841131864146e-07,1.1606413600533653e-05
1.0226997810622772e-06,1.1607792330453723e-06,8.437329176100985e-07,1.1485091423711935e-05
9.82313336923242e-07,1.17720896338139e-06,8.479047359275833e-07,1.1391872787167715e-05
9.421818310465497e-07,1.1931910607466649e-06,8.526881956769064e-07,1.1327640525638627e-05
9.024033859659351e-07,1.2086296608012023e-06,8.580701819373719e-07,1.1293322697496444e-05
8.630698442975731e-07,1.2234317844775666e-06,8.640291884302534e-07,1.1290024749633788e-05
8.242657116346384e-07,1.2375073339089744e-06,8.705315137620699e-07,1.131902726786938e-05
7.860684154497345e-07,1.2507715000433714e-06,8.775316284618471e-07,1.1381639843769866e-05
7.485492835192608e-07,1.2631469185067643e-06,8.849732566872967e-07,1.1479021765562234e-05
7.117748850412298e-07,1.274563154013305e-06,8.92789633257222e-07,1.161204174295674e-05
6.758080590791636e-07,1.2849550723592422e-06,9.009057375326141e-07,1.1781196081897475e-05
6.407083913377867e-07,1.2942661587652463e-06,9.092428788269769e-07,1.198655995684178e-05
6.065327547589707e-07,1.3024592308586114e-06,9.177218546693035e-07,1.2227747717806402e-05
5.73335808299034e-07,1.3095250571503986e-06,9.262630218359873e-07,1.250389893993827e-05
5.411694254224136e-07,1.3154777422437882e-06,9.347855411353855e-07,1.2813717112515739e-05
5.100810465813289e-07,1.3203409715253128e-06,9.432074638384872e-07,1.31555585158299e-05
4.801128901238115e-07,1.324137878905067e-06,9.514464065530979e-07,1.3527527239640072e-05
4.5130309069620027e-07,1.3268888841453137e-06,9.59421807684972e-07,1.3927509919516877e-05
4.2368728451799977e-07,1.3286133970246098e-06,9.670606498842769e-07,1.4353139160329916e-05
3.972989830884635e-07,1.329330981288263e-06,9.7430527400581e-07,1.4801773259186841e-05
3.721683736719573e-07,1.3290602894228178e-06,9.811181883529249e-07,1.5270571054378587e-05
3.48320451864825e-07,1.3278165827990149e-06,9.874801294191431e-07,1.5756626675012345e-05
3.257737683616955e-07,1.3256118461471936e-06,9.933826609722745e-07,1.6257081042577523e-05
3.045399544089411e-07,1.3224644819788343e-06,9.988196378665846e-07,1.676917825222278e-05
2.846234329650148e-07,1.3184173015095311e-06,1.0037819369490843e-06,1.7290280924521085e-05
2.660213498089364e-07,1.3135465287812162e-06,1.008257076586325e-06,1.7817872170854898e-05
2.487241513547271e-07,1.3079511142704942e-06,1.0122304153530056e-06,1.834955062576529e-05
2.3271637771877394e-07,1.3017349471048269e-06,1.0156847385246427e-06,1.8882991598740747e-05
2.1797754306425518e-07,1.29499830107301e-06,1.0186008545372866e-06,1.941588385584296e-05
2.0448461050555086e-07,1.2878441777466634e-06,1.0209625983287029e-06,1.994588728402361e-05
1.9221596395010905e-07,1.2803921319325735e-06,1.0227636979892941e-06,2.0470611002282944e-05
1.8115304201030003e-07,1.2727826067897309e-06,1.0240110250330204e-06,2.0987608633804072e-05
1.7127735807280712e-07,1.2651677156837844e-06,1.0247230362742202e-06,2.1494424681245646e-05
1.6256613942531234e-07,1.2577002785835451e-06,1.0249257760688395e-06,2.198867846289594e-05
1.5499027339659006e-07,1.2505276066829062e-06,1.02464852939775e-06,2.246813414093221e-05
1.485145837344007e-07,1.2437887519609549e-06,1.0239256507921958e-06,2.2930732090811166e-05
1.4309912952341466e-07,1.237612984077695e-06,1.022809781698503e-06,2.337455739527177e-05
1.3870113192189572e-07,1.2321156349812337e-06,1.0213864412572023e-06,2.3797774796460825e-05
1.3527729591813582e-07,1.2273900679909654e-06,1.0197756241206216e-06,2.4198621917263088e-05
1.3278480384380428e-07,1.2235029885434003e-06,1.0181184922976512e-06,2.457545928357415e-05
1.3118001763828525e-07,1.220499500554857e-06,1.0165572738195377e-06,2.4926815337848785e-05
1.30416827239469e-07,1.2184104900766857e-06,1.0152190444869473e-06,2.525141698926253e-05
1.3044668148383624e-07,1.2172516266768105e-06,1.014208917076441e-06,2.554820657447201e-05
1.3122031113014886e-07,1.21701846670955e-06,1.013608807058455e-06,2.5816342713204066e-05
1.326889203090017e-07,1.2176884529626329e-06,1.0134766297230783e-06,2.605517861525041e-05
1.3480366646049296e-07,1.2192284027687207e-06,1.013846256944521e-06,2.6264214432120573e-05
1.3751555557797293e-07,1.2216000218125255e-06,1.0147295992695112e-06,2.6443052413364607e-05
1.4077674355767242e-07,1.2247631304555008e-06,1.0161202482493414e-06,2.659137335807048e-05
1.4454213468755634e-07,1.228679340383601e-06,1.0179978824556031e-06,2.670892143266445e-05
1.487707012465052e-07,1.2333153819062682e-06,1.0203329102412157e-06,2.679550334939057e-05
1.5342608059402578e-07,1.2386441640656478e-06,1.0230925982767926e-06,2.685101737958016e-05
1.584763537340801e-07,1.2446425523265237e-06,1.02625003194097e-06,2.687548269055745e-05
1.6389335975389599e-07,1.251286073349364e-06,1.0297924599863658e-06,2.6869036061079378e-05
1.6965151251178326e-07,1.2585426814565307e-06,1.0337242709368872e-06,2.683195023983533e-05
1.7572680420876006e-07,1.266368242401376e-06,1.038064734488628e-06,2.676478746959952e-05
1.8209637398213824e-07,1.274705172596656e-06,1.042841306705878e-06,2.6668604186763103e-05
1.887372807777789e-07,1.2834831231306887e-06,1.048078048189746e-06,2.6544918599904583e-05
1.956243957795882e-07,1.292621216685847e-06,1.0537853441093549e-06,2.6395451852989718e-05
2.027293516881773e-07,1.3020343938298438e-06,1.0599589818221816e-06,2.6221934054271115e-05
2.100222359096988e-07,1.3116420025541656e-06,1.0665860780760521e-06,2.6026048603482355e-05
2.1747504667025862e-07,1.3213727633637049e-06,1.0736492429597356e-06,2.5809435880695026e-05
2.2506265908982482e-07,1.331163899496315e-06,1.0811248200322528e-06,2.557372617546688e-05
2.327599928700233e-07,1.340955480283301e-06,1.0889784533152546e-06,2.532056359275864e-05
2.4053979999340767e-07,1.3506847519141293e-06,1.0971654286300305e-06,2.5051595463327092e-05
2.48373589865614e-07,1.3602841874172995e-06,1.1056401142219348e-06,2.476844640873493e-05
2.56232887970085e-07,1.3696813267560193e-06,1.1143693760000787e-06,2.4472696720655177e-05
2.640888610885193e-07,1.3788006622395978e-06,1.1233386643570938e-06,2.416586366109029e-05
2.719118891789195e-07,1.387569539074999e-06,1.1325463497358487e-06,2.3849377426732725e-05
2.796721192512186e-07,1.3959276312395763e-06,1.1419925206376155e-06,2.3524551587640814e-05
2.873405552202514e-07,1.4038379410619068e-06,1.1516713175458835e-06,2.3192566920223417e-05
2.9489105067664127e-07,1.411290834167719e-06,1.1615719447847963e-06,2.285449207682644e-05
3.023031373371614e-07,1.4182945569658354e-06,1.1716844470645337e-06,2.2511330638139397e-05
3.0956291259484816e-07,1.4248608660386103e-06,1.182002917238861e-06,2.2164047592200227e-05
3.166600892581153e-07,1.4309961379465833e-06,1.1925254157475589e-06,2.1813543496662632e-05
3.235843140145071e-07,1.4366975264986941e-06,1.2032527132203006e-06,2.1460603360310534e-05
3.3032481524724114e-07,1.441951033276508e-06,1.2141858551248431e-06,2.110587223057103e-05
3.368728599742101e-07,1.4467306091207242e-06,1.2253226427549436e-06,2.0749870142947588e-05
3.4322297366185827e-07,1.4509993461648677e-06,1.236652663982569e-06,2.039302644719552e-05
3.493709716063853e-07,1.4547135204516775e-06,1.2481510722649544e-06,2.0035715013804072e-05
3.5531156265788543e-07,1.4578280858497642e-06,1.2597746085244275e-06,1.967827214806352e-05
3.610382346336055e-07,1.4603043621190125e-06,1.2714635464488408e-06,1.932100150908909e-05
3.6654392899061346e-07,1.4621167880191896e-06,1.2831503275365862e-06,1.896420270635562e-05
3.718211060217258e-07,1.463249574071085e-06,1.294769796420345e-06,1.860822889094176e-05
3.7686231469119464e-07,1.4636868686565573e-06,1.3062616409036078e-06,1.8253522788336167e-05
3.816610323610097e-07,1.4634119693061587e-06,1.3175650738895414e-06,1.7900596885812418e-05
3.8621263342559815e-07,1.4624222877650326e-06,1.3286170741014944e-06,1.754997806951456e-05
3.905162212648297e-07,1.4607500908270833e-06,1.3393587619019457e-06,1.7202157308830606e-05
3.945760135228517e-07,1.458469767800019e-06,1.3497435789930192e-06,1.6857599735654918e-05
3.984013573804401e-07,1.4556861160272225e-06,1.3597425501891711e-06,1.651682513688332e-05
4.020056373677276e-07,1.4525181239890531e-06,1.3693446459174663e-06,1.6180451284114124e-05
4.054038133226366e-07,1.4490883890898492e-06,1.3785494727818551e-06,1.5849134561834884e-05
4.086091084608677e-07,1.445515882286987e-06,1.387355410629582e-06,1.5523484176406918e-05
4.1163039985197883e-07,1.441909596806692e-06,1.3957514533551578e-06,1.5204011599867157e-05
4.144713299038238e-07,1.4383634304069097e-06,1.4037158181657584e-06,1.4891118929478565e-05
4.1713090300865564e-07,1.434952039281576e-06,1.4112184414530443e-06,1.4585133520313089e-05
4.1960570248230343e-07,1.4317276174747625e-06,1.418223426241971e-06,1.4286366224735645e-05
4.218948014143024e-07,1.4287196216495253e-06,1.4246892004347808e-06,1.3995133323855136e-05
4.2400512864329045e-07,1.425938704528147e-06,1.4305681012896263e-06,1.3711732965612344e-05
4.259519142369604e-07,1.4233814446566888e-06,1.4358079012120838e-06,1.3436428853099347e-05
4.2775388636290324e-07,1.4210317359325192e-06,1.4403537090493974e-06,1.316945781255076e-05
4.29428021238933e-07,1.4188616526949445e-06,1.444148275724849e-06,1.2911029844285574e-05
4.3098729964920816e-07,1.4168383950855958e-06,1.4471329844329044e-06,1.266130688837215e-05
4.324430509352192e-07,1.4149367829081932e-06,1.4492512772547037e-06,1.2420374381933408e-05
4.338094433423152e-07,1.4131476835883992e-06,1.4504520878953296e-06,1.2188232070198613e-05
4.3510462082174865e-07,1.4114762874572392e-06,1.4506916416212072e-06,1.1964841897063128e-05
4.363484467521964e-07,1.4099359075707183e-06,1.449934553052167e-06,1.1750209325441625e-05
4.375607206577962e-07,1.4085444370420064e-06,1.448153636962145e-06,1.1544390478112965e-05
4.387603084393276e-07,1.4073240002728586e-06,1.445327300923109e-06,1.1347410944121715e-05
4.399636803145357e-07,1.4063012828816058e-06,1.4414362270770034e-06,1.1159210820933943e-05
4.411828451254553e-07,1.4055052552659747e-06,1.4364619497417259e-06,1.097968036990231e-05
4.4242389951392615e-07,1.404961134191501e-06,1.4303885596611069e-06,1.0808743356439794e-05
4.436875348303981e-07,1.4046839992163972e-06,1.4232061457535622e-06,1.0646403175881116e-05
4.4497133945238027e-07,1.404676088046253e-06,1.4149129476549998e-06,1.049271264415092e-05
4.4627149470425136e-07,1.4049290563988918e-06,1.4055155423832222e-06,1.0347700345138229e-05
4.475822076511939e-07,1.4054276653759086e-06,1.3950279291846938e-06,1.0211307022816065e-05
4.4889471341903285e-07,1.4061498345044298e-06,1.3834701502966706e-06,1.008336629977834e-05
4.5019782025219525e-07,1.4070655127959226e-06,1.370866605229381e-06,9.963617150908407e-06
4.5147871340708076e-07,1.4081391881893546e-06,1.3572434855826985e-06,9.85171797259492e-06
4.527227104426403e-07,1.4093339916304519e-06,1.3426267723931059e-06,9.747262143676138e-06
4.539128114143917e-07,1.4106133012806175e-06,1.32704292137679e-06,9.649826966601312e-06
4.5503018528040676e-07,1.411939130092776e-06,1.3105215007439908e-06,9.559096045705837e-06
4.56056233976786e-07,1.413270963888632e-06,1.293097239556247e-06,9.475015762112552e-06
4.569750092332609e-07,1.414569467512807e-06,1.274810204941917e-06,9.397871128405872e-06
4.577742795212471e-07,1.4158013967068698e-06,1.2557059311949871e-06,9.328252810393359e-06
4.5844600714919607e-07,1.416937774005469e-06,1.235837063262071e-06,9.26697631029941e-06
4.58986004845893e-07,1.4179471739094401e-06,1.2152647554104042e-06,9.21498190446155e-06
4.5939127314050683e-07,1.4187934238887536e-06,1.1940575754838041e-06,9.173226220949447e-06
4.596569738979848e-07,1.4194394104102328e-06,1.1722877435948379e-06,9.142607484398422e-06
4.5977670729818537e-07,1.4198493553180197e-06,1.1500268592037634e-06,9.12397438111429e-06
4.597467861995901e-07,1.4199870267663104e-06,1.127344795627964e-06,9.118181474101356e-06
4.5957038527516326e-07,1.4198166982495985e-06,1.104312807472433e-06,9.126078391069723e-06
4.592565426627308e-07,1.4193091218854246e-06,1.0810071070689323e-06,9.14842439944699e-06
4.588155311118289e-07,1.4184451751992862e-06,1.057509057992589e-06,9.185825608385976e-06
4.582562768701682e-07,1.4172116922031124e-06,1.0339015949015914e-06,9.238745275840345e-06
4.575866728577153e-07,1.4155944990233983e-06,1.010264108710422e-06,9.30756278535908e-06
4.568139033754425e-07,1.413579031817219e-06,9.866690735885237e-07,9.392636819842636e-06
4.559445601760414e-07,1.4111606416492253e-06,9.631826714991985e-07,9.494400937554417e-06
4.549852661646122e-07,1.4083525534328104e-06,9.398679010156269e-07,9.613589701310526e-06
4.5394248284727753e-07,1.4051825291121077e-06,9.167858254904379e-07,9.751499378069013e-06
4.528221327035407e-07,1.4016883206389308e-06,8.939935190174126e-07,9.909985085394659e-06
4.5163155289989817e-07,1.3979188424535497e-06,8.71541848387933e-07,1.0091151832782589e-05
4.5038171846823703e-07,1.3939315102752458e-06,8.494763349575469e-07,1.0296986524139336e-05
4.4908585616719007e-07,1.3897849018147728e-06,8.278404396452634e-07,1.0529096483715603e-05
4.4775593157415455e-07,1.3855355940798736e-06,8.066774957325453e-07,1.0788657316900024e-05
4.464002630460865e-07,1.3812389143636314e-06,7.860291738356281e-07,1.1076644208173612e-05
4.450225824264144e-07,1.3769480245961395e-06,7.659322917305044e-07,1.1394149349202735e-05
4.4362228365145857e-07,1.3727093571839605e-06,7.464168677788759e-07,1.1742478990837833e-05
4.421961878933058e-07,1.3685577648773195e-06,7.275065524405824e-07,1.2123017323151366e-05
4.4074102717229405e-07,1.3645149491084856e-06,7.092211493250632e-07,1.253704213575307e-05
4.3925471523343066e-07,1.360588914618289e-06,6.915797793784346e-07,1.2985596907010406e-05
4.3773572365249674e-07,1.3567724178624069e-06,6.74601570257775e-07,1.3469422033075114e-05
4.36182308827788e-07,1.353043716187174e-06,6.583029673558436e-07,1.398890513322662e-05
4.345929278350686e-07,1.3493711849623574e-06,6.426964683701905e-07,1.4544008851241553e-05
4.3296684228899755e-07,1.3457174587490623e-06,6.277945166533412e-07,1.5134183340738427e-05
4.313049286376352e-07,1.3420398927787213e-06,6.136148104917817e-07,1.5758312799433047e-05
4.296111113081194e-07,1.3382906242686636e-06,6.001817809308956e-07,1.641469929165786e-05
4.2789162293785135e-07,1.334420789804332e-06,5.875232667578245e-07,1.7101054537560917e-05
4.261515104051812e-07,1.3303876997955782e-06,5.756641869740711e-07,1.7814521748595882e-05
4.2439249841738746e-07,1.3261594307711448e-06,5.646209516588142e-07,1.855174225725073e-05
4.226138392974849e-07,1.3217151299570394e-06,5.543996042681123e-07,1.9308939644375453e-05
4.2081421583965223e-07,1.3170436003543192e-06,5.449967791739136e-07,2.008203214801021e-05
4.189938730224597e-07,1.3121398779829297e-06,5.364018229239409e-07,2.0866795922930614e-05
4.1715653319478077e-07,1.3069997220627687e-06,5.286004021295818e-07,2.1659021966707682e-05
4.153101778051172e-07,1.3016159105878945e-06,5.215813970977946e-07,2.2454590822501344e-05
4.1346814741595333e-07,1.2959778632082452e-06,5.153481346137449e-07,2.3249477245838572e-05
4.116512029517964e-07,1.2900735152610095e-06,5.099292324128336e-07,2.4039741955249028e-05
4.098878170576139e-07,1.2838921026094972e-06,5.053782782305735e-07,2.482153349846245e-05
4.082112612990934e-07,1.2774243715967405e-06,5.017602063047979e-07,2.5591094389533678e-05
4.066542434777289e-07,1.2706608573808209e-06,4.991425368028495e-07,2.6344764889488336e-05
4.0524342272615385e-07,1.2635949787637021e-06,4.976047078590744e-07,2.707898232378633e-05
4.039977451257015e-07,1.2562310678459291e-06,4.972506353233639e-07,2.7790288570279878e-05
4.0293193863411296e-07,1.2485878186326335e-06,4.98208588972435e-07,2.847537051136148e-05
4.0206178112266577e-07,1.2406921168797772e-06,5.006215985644341e-07,2.913111670756765e-05
4.0140709924574157e-07,1.2325701677281552e-06,5.046326477747449e-07,2.9754642196409254e-05
4.009913282689572e-07,1.2242440778758615e-06,5.1036511937069e-07,3.0343271790618847e-05
4.008378914495147e-07,1.215734345517188e-06,5.179066328664903e-07,3.0894510302062894e-05
4.009655182515915e-07,1.2070655069221422e-06,5.273044709794773e-07,3.1406044199377255e-05
4.0138736457255133e-07,1.1982700964562911e-06,5.385687386241476e-07,3.187581808402019e-05
4.0211514226598397e-07,1.1893850100043517e-06,5.516760147903271e-07,3.230218026627832e-05
4.031626639401397e-07,1.1804426905344592e-06,5.665725619821764e-07,3.268400468485487e-05
4.0454481169519883e-07,1.1714661771952086e-06,5.831778594341638e-07,3.302069360563028e-05
4.062752805111979e-07,1.162472139821653e-06,6.013879746870234e-07,3.331208032057788e-05
4.0836684184829436e-07,1.1534785082112456e-06,6.210798467427907e-07,3.355830764104234e-05
4.108320617170634e-07,1.1445101715298565e-06,6.421190745963557e-07,3.375971640714697e-05
4.136813692059183e-07,1.1355992128259442e-06,6.643721292440679e-07,3.3916750201280185e-05
4.169197853401512e-07,1.1267813189059858e-06,6.87718730012285e-07,3.402989993751559e-05
4.2054511787028386e-07,1.118090293606359e-06,7.120568467102429e-07,3.409971940384817e-05
4.2454831514560147e-07,1.1095519190989988e-06,7.372980059326005e-07,3.41269016958593e-05
4.289159266931054e-07,1.1011801261871941e-06,7.633576505429687e-07,3.4112354966446314e-05
4.336345313552921e-07,1.0929771997605036e-06,7.901457871730134e-07,3.4057212288332146e-05
4.386957658318757e-07,1.0849361263176303e-06,8.175621467243475e-07,3.396276865949918e-05
4.440984015955402e-07,1.07704513360462e-06,8.454974087500257e-07,3.383039210175468e-05
4.498453463473762e-07,1.0692973735677348e-06,8.738355213239121e-07,3.366151131641264e-05
4.559398882664358e-07,1.061700043546495e-06,9.024527781528837e-07,3.3457761916250145e-05
4.623848346164554e-07,1.0542731086684308e-06,9.312159451019917e-07,3.3221123057859115e-05
4.691809078009515e-07,1.0470411395694602e-06,9.599826337005542e-07,3.295379856449353e-05
4.763225059453871e-07,1.040027343965555e-06,9.886044831506406e-07,3.2657949979966994e-05
4.837944810970891e-07,1.0332534262243548e-06,1.016932852494361e-06,3.2335546210295006e-05
4.91571395354288e-07,1.026748067936266e-06,1.0448274221910986e-06,3.19883580860085e-05
4.996179497621635e-07,1.0205591216128318e-06,1.072165861061562e-06,3.1618000566545266e-05
5.078903825362093e-07,1.0147574445051529e-06,1.0988475543138442e-06,3.1225988014518066e-05
5.163389631512355e-07,1.0094313134730768e-06,1.1247876586730313e-06,3.0813795384394115e-05
5.249105990316283e-07,1.0046782005588465e-06,1.1499075688967243e-06,3.0382903821878388e-05
5.335504204691254e-07,1.0005960658120204e-06,1.1741294267004231e-06,2.993485577783128e-05
5.422023634650021e-07,9.972746173163078e-07,1.197376973457081e-06,2.9471346024066265e-05
5.508093682896751e-07,9.947882908397295e-07,1.2195815064033134e-06,2.8994266591773773e-05
5.593133920485951e-07,9.931932407316106e-07,1.2406891877581134e-06,2.8505646563810418e-05
5.676555374995252e-07,9.92527920160217e-07,1.2606642145307505e-06,2.8007544551688238e-05
5.757769940900736e-07,9.928136276140907e-07,1.2794844706625591e-06,2.750194738205968e-05
5.836210088196968e-07,9.940540060067102e-07,1.2971318335112058e-06,2.6990696372606105e-05
5.911362350800452e-07,9.962356815292629e-07,1.313584307033553e-06,2.6475481342127272e-05
5.98280404053019e-07,9.99331132136967e-07,1.3288153223426703e-06,2.59579033130238e-05
6.050203604311815e-07,1.0033017036555613e-06,1.3427973331617008e-06,2.543952412779793e-05
6.11328329526016e-07,1.0081000383185071e-06,1.355504311545567e-06,2.492185136606712e-05
6.171793969580278e-07,1.0136743433912643e-06,1.3669128592318807e-06,2.4406292462156462e-05
6.225509687232209e-07,1.0199721990167709e-06,1.3770022740382229e-06,2.3894109546478532e-05
6.274216135456121e-07,1.0269398612167074e-06,1.3857531116181579e-06,2.338638138883377e-05
6.317700104903452e-07,1.0345214797370602e-06,1.3931483512884346e-06,2.2883987112752907e-05
6.355752700546636e-07,1.0426634120964055e-06,1.3991792291212587e-06,2.2387658978496358e-05
6.38818092560051e-07,1.0513189028562262e-06,1.4038499182100822e-06,2.189819808800118e-05
6.414817954074614e-07,1.060446756830732e-06,1.4071767397278406e-06,2.1416838907359086e-05
6.435521045342718e-07,1.070005700282277e-06,1.4091837098190913e-06,2.0945503875013454e-05
6.450160494343524e-07,1.0799502017878136e-06,1.40989871564998e-06,2.0486731117356438e-05
6.458622239315354e-07,1.0902318092195863e-06,1.409354577314043e-06,2.0043381898017968e-05
6.460836995216317e-07,1.1008033203554985e-06,1.4075936855626018e-06,1.961832028211765e-05
6.456808890804077e-07,1.1116178964420021e-06,1.4046714451731115e-06,1.921419018397304e-05
6.446604486863375e-07,1.1226245039278356e-06,1.4006585570871628e-06,1.8833506742637653e-05
6.430315421663386e-07,1.1337679142389034e-06,1.3956418986991452e-06,1.8479065338765306e-05
6.40803834677359e-07,1.144991575943288e-06,1.389720160122706e-06,1.8154209934542318e-05
6.379875466303981e-07,1.1562372603774382e-06,1.3829946736883229e-06,1.7862687594667777e-05
6.345937881432924e-07,1.1674421871083894e-06,1.3755601891579716e-06,1.7608333273650927e-05
6.30635202810603e-07,1.1785370237909297e-06,1.367499483779491e-06,1.739480980577118e-05
6.261267981674551e-07,1.1894458550893734e-06,1.3588825705750692e-06,1.7225389421921744e-05
6.210861004919799e-07,1.2000886499472617e-06,1.3497676132004551e-06,1.7102761535038903e-05
6.155323721336952e-07,1.2103867483195846e-06,1.3402014588927089e-06,1.7028915024493787e-05
6.094857136054287e-07,1.2202676895480096e-06,1.3302203993055008e-06,1.7005121392330454e-05
6.029674044868507e-07,1.229666145744505e-06,1.319851114207739e-06,1.7031972571787954e-05
5.960012799634283e-07,1.2385236094122012e-06,1.3091122707925189e-06,1.7109392307793698e-05
5.886144951210778e-07,1.2467874964669168e-06,1.2980194128013599e-06,1.7236606465645097e-05
5.808369521403967e-07,1.254410099022254e-06,1.2865940486629514e-06,1.7412143668271743e-05
5.727002074280989e-07,1.2613516939821685e-06,1.2748721844935644e-06,1.7633913060617137e-05
5.642367770511657e-07,1.2675851871829071e-06,1.2629069023555241e-06,1.7899319777147303e-05
5.554796609237828e-07,1.2730952736534851e-06,1.2507678730903905e-06,1.8205378089095896e-05
5.464616795528509e-07,1.2778733144718673e-06,1.2385427624601057e-06,1.8548830516266283e-05
5.372152200114818e-07,1.2819135080393856e-06,1.2263368434144887e-06,1.892627561141636e-05
5.277727378168749e-07,1.2852116740952387e-06,1.214264910960345e-06,1.933428635435148e-05
5.181666370146828e-07,1.2877641172446159e-06,1.2024372263492409e-06,1.97694987772627e-05
5.084278489858621e-07,1.289566287497405e-06,1.190947035287417e-06,2.0228657843010748e-05
4.985847530229332e-07,1.2906168905646091e-06,1.1798652796087317e-06,2.0708629049535933e-05
4.88663298130465e-07,1.2909274018817202e-06,1.1692425287788564e-06,2.1206385117340148e-05
4.786879037272684e-07,1.290525975237192e-06,1.1591157537103321e-06,2.1718959014960805e-05
4.6868271651385814e-07,1.2894546159748213e-06,1.1495168658333818e-06,2.2243362298549787e-05
4.5867195735916327e-07,1.287766778646601e-06,1.140479481006938e-06,2.277650264855089e-05
4.486796613570357e-07,1.2855220122860441e-06,1.1320427474574766e-06,2.3315161977343328e-05
4.387302691590525e-07,1.282776122748742e-06,1.1242514154582364e-06,2.385604903659732e-05
4.288483920181179e-07,1.2795739396314586e-06,1.1171500288966605e-06,2.439585453039435e-05
4.190570543318414e-07,1.2759469753172615e-06,1.1107736074429058e-06,2.493125974982684e-05
4.093775995071168e-07,1.2719145267695602e-06,1.1051411850786974e-06,2.5458938091391065e-05
3.99831356364942e-07,1.2674887486043235e-06,1.1002542439425791e-06,2.597559340130903e-05
3.904394895081613e-07,1.2626805777449207e-06,1.096096917501859e-06,2.6478018585007268e-05
3.812210099090138e-07,1.2575000507164844e-06,1.0926362907805191e-06,2.696312431452689e-05
3.7219202269049737e-07,1.2519521102879406e-06,1.0898239345231772e-06,2.7427929056053908e-05
3.6336707016929284e-07,1.2460351482824737e-06,1.087598603453321e-06,2.786955245948523e-05
3.5476091802850306e-07,1.2397438274765192e-06,1.0858900388363749e-06,2.8285232917314587e-05
3.4638877236295707e-07,1.2330714269222141e-06,1.0846264301235456e-06,2.867237460570164e-05
3.382648645013063e-07,1.2260090351257908e-06,1.0837445956121551e-06,2.902865495225639e-05
3.304015856108271e-07,1.2185441695235958e-06,1.0831952119669626e-06,2.9352192161586908e-05
3.228097127327629e-07,1.2106625421308672e-06,1.0829383416062826e-06,2.9641670508179828e-05
3.154986677591908e-07,1.202353008070198e-06,1.0829338177518489e-06,2.9896302149373077e-05
3.084771686469784e-07,1.193611797393137e-06,1.0831340384405692e-06,3.0115643638353056e-05
3.0175396005816843e-07,1.1844424646290741e-06,1.0834831804415727e-06,3.029939958900683e-05
2.9533773295541746e-07,1.1748521666663912e-06,1.0839238936074095e-06,3.044732474131553e-05
2.8923699132606147e-07,1.164847825674946e-06,1.0844093312641909e-06,3.0559245029697355e-05
2.8345965518274147e-07,1.1544347723548694e-06,1.084913322663782e-06,3.063511524769294e-05
2.7801171348805176e-07,1.143619163970205e-06,1.0854321711128436e-06,3.067504146815793e-05
2.7289660652172644e-07,1.1324142572043195e-06,1.0859783944030592e-06,3.067937311117544e-05
2.6811650680858715e-07,1.1208463685317844e-06,1.0865708871095085e-06,3.06489978725039e-05
2.636739342338556e-07,1.1089547525546038e-06,1.0872256096016263e-06,3.058564288159617e-05
2.595725792478076e-07,1.09678551286065e-06,1.087949593115936e-06,3.0491849872203638e-05
2.558183607625265e-07,1.084384989624834e-06,1.088740261875383e-06,3.0370659626882567e-05
2.5242040376920254e-07,1.0717962255801278e-06,1.0895888890828434e-06,3.022524618217522e-05
2.4939013715433544e-07,1.0590580789168908e-06,1.09048367667212e-06,3.0058646097141912e-05
2.467406891799252e-07,1.04620555065405e-06,1.0914103855353322e-06,2.987376273617737e-05
2.4448965152087025e-07,1.033270097281348e-06,1.0923516847069064e-06,2.9673686198009217e-05
2.4266194358942904e-07,1.0202785951457745e-06,1.0932865280585556e-06,2.9461989297959967e-05
2.412892408888087e-07,1.0072521938669691e-06,1.0941908790721078e-06,2.924270541879392e-05
2.4040770689766896e-07,9.94209354937571e-07,1.0950404342037184e-06,2.9020084831747163e-05
2.4005553094201745e-07,9.811716176189931e-07,1.095813847918593e-06,2.8798342240860412e-05
2.402705264193204e-07,9.681641589201799e-07,1.0964938101066813e-06,2.8581477654577837e-05
2.4108775769932296e-07,9.552107459403083e-07,1.0970653222605423e-06,2.8373162697082458e-05
2.4253680759140313e-07,9.423299983736307e-07,1.0975127393785037e-06,2.817666349209977e-05
2.446404565318155e-07,9.29535314373572e-07,1.0978168258360573e-06,2.7994785782274592e-05
2.4741490816072003e-07,9.16836631547065e-07,1.097953219810302e-06,2.7829848757710826e-05
2.50870158408351e-07,9.042423002384786e-07,1.0978938497346564e-06,2.7683677365135572e-05
2.5501201353086874e-07,8.917627454616512e-07,1.0976094770235599e-06,2.75575793011148e-05
2.5984447954427444e-07,8.794193678252034e-07,1.0970699486793694e-06,2.745230566640893e-05
2.653686665120451e-07,8.67251696032978e-07,1.0962430124103675e-06,2.736803122142438e-05
2.7157974303502e-07,8.553126883150747e-07,1.0950951627247749e-06,2.7304379151706774e-05
2.78466076229569e-07,8.436593692907922e-07,1.0935952136595199e-06,2.726050670888499e-05
2.860110449051304e-07,8.323496087384419e-07,1.091717656912173e-06,2.7235256218474608e-05
2.9419591697173826e-07,8.214402055814057e-07,1.0894426371819898e-06,2.7227334791172885e-05
3.030026951130114e-07,8.109814615199955e-07,1.0867531795926215e-06,2.72354587282349e-05
3.1241561260336926e-07,8.010135913465274e-07,1.0836329757276527e-06,2.725841583542117e-05
3.224197059027115e-07,7.915677291191395e-07,1.080065842167533e-06,2.729505655812156e-05
3.3299715685512617e-07,7.826697790144347e-07,1.076035560230958e-06,2.73442662360283e-05
3.4412499293653997e-07,7.74346108216275e-07,1.0715264139546153e-06,2.7404943179974383e-05
3.557750560844353e-07,7.666280195758702e-07,1.066525426535006e-06,2.747596987465651e-05
3.6791327508459354e-07,7.595502642810916e-07,1.0610242859627662e-06,2.7556172196602418e-05
3.8049818823230074e-07,7.531440200552883e-07,1.0550183189924323e-06,2.764427967420053e-05
3.934811081387986e-07,7.474297407289183e-07,1.0485034481732422e-06,2.7738916209055792e-05
4.0680837771214397e-07,7.424161418087031e-07,1.0414750395965857e-06,2.7838642421204866e-05
4.2042514437282296e-07,7.381126307754388e-07,1.033930849229157e-06,2.7942007898188408e-05
4.342778806594096e-07,7.345506034013498e-07,1.0258744852323872e-06,2.804756290020624e-05
4.4831238847588397e-07,7.31791545139553e-07,1.0173148960338676e-06,2.815384600848597e-05
4.6247048634268857e-07,7.299143520406226e-07,1.0082636811862634e-06,2.8259380558915254e-05
4.766909695145727e-07,7.289990100858385e-07,9.987329196785047e-07,2.8362692784076366e-05
4.90914018385455e-07,7.291158141981819e-07,9.887331627343204e-07,2.8462337141830688e-05
5.050840508011494e-07,7.303163068230146e-07,9.782729837142772e-07,2.855688975780664e-05
5.191481519207112e-07,7.326272702179485e-07,9.673605329605436e-07,2.8644908497428937e-05
5.330523370745532e-07,7.360505015588042e-07,9.560043136036036e-07,2.872490143433719e-05
5.467399498474926e-07,7.405656774542427e-07,9.442127294860279e-07,2.879534504449775e-05
5.601523593530592e-07,7.46133194486207e-07,9.319945384046827e-07,2.885479991337278e-05
5.732300067924366e-07,7.526971248586921e-07,9.193600027595554e-07,2.8902134838647943e-05
5.859138813640818e-07,7.601891493128448e-07,9.06320840191818e-07,2.893672778746123e-05
5.981471774388308e-07,7.685317147687255e-07,8.928898762224254e-07,2.8958462941377368e-05
6.098764502425993e-07,7.776387983098183e-07,8.790829610039763e-07,2.896751606688673e-05
6.210529172742635e-07,7.874166204018166e-07,8.649217951081959e-07,2.896408617916447e-05
6.316336618815296e-07,7.977674161228259e-07,8.50434476398823e-07,2.8948230711754383e-05
6.415808436508271e-07,8.085955158864312e-07,8.356568325339607e-07,2.8919841629675317e-05
6.508590141783132e-07,8.198117728538959e-07,8.206377729020713e-07,2.887867609134047e-05
6.594336405183286e-07,8.313336218387773e-07,8.054429398797068e-07,2.88243814139786e-05
6.672724734503886e-07,8.430833241282665e-07,7.901512349657855e-07,2.8756607318187206e-05
6.74347771724001e-07,8.549878297024351e-07,7.7484602066335e-07,2.8675316754406764e-05
6.806377569767057e-07,8.669780335721023e-07,7.596057638293258e-07,2.858113999119528e-05
6.861281881898151e-07,8.789860546512581e-07,7.444985003269988e-07,2.847545742516924e-05
6.908135162725642e-07,8.909444185157389e-07,7.29581393574009e-07,2.8360179559839727e-05
6.94696065512842e-07,9.027870885069507e-07,7.149034466250309e-07,2.8237448976908282e-05
6.977842924294783e-07,9.144482187578782e-07,7.005094098942032e-07,2.8109406462475207e-05
7.000915502473118e-07,9.258597590883283e-07,6.864443705925872e-07,2.7978110098387884e-05
7.016358385828696e-07,9.36951717438452e-07,6.727576164780389e-07,2.784569498506642e-05
7.024394119380235e-07,9.476547038049021e-07,6.59502588653079e-07,2.7714623260437488e-05
7.025264042852379e-07,9.57902689389221e-07,6.467326615502045e-07,2.7587737969594286e-05
7.019204324742796e-07,9.6763582845827e-07,6.344984518182192e-07,2.746810729528241e-05
7.006447194018606e-07,9.768032144019969e-07,6.228507907263957e-07,2.735885019761473e-05
6.98724044083009e-07,9.853635612810006e-07,6.11844307797353e-07,2.726302091487493e-05
6.9618666849591e-07,9.932827897452522e-07,6.015356717150866e-07,2.71835012410678e-05
6.93064302934716e-07,1.0005321764950472e-06,5.919781566374381e-07,2.7122869451490505e-05
6.893912643374516e-07,1.0070908372210931e-06,5.832167575174472e-07,2.708329733282761e-05
6.852055650413867e-07,1.0129506141035378e-06,5.752865338532703e-07,2.706652347103036e-05
6.80550086923088e-07,1.0181201966790613e-06,5.682141920863062e-07,2.70738655460516e-05
6.754705950167929e-07,1.0226255032635126e-06,5.620190734397972e-07,2.7106195774452443e-05
6.70011670599056e-07,1.0265040580586976e-06,5.567118158746286e-07,2.71638685612762e-05
6.642144061638552e-07,1.029798442845922e-06,5.522939666616176e-07,2.7246667558066066e-05
6.581177456615953e-07,1.032552699524175e-06,5.487601295048453e-07,2.735380646764165e-05
6.517618585448938e-07,1.0348078095596356e-06,5.461020154302497e-07,2.748396517213428e-05
6.451911922385346e-07,1.0365977286752572e-06,5.443154754926774e-07,2.7635382338685088e-05
6.3845592593309e-07,1.0379503715998085e-06,5.434082004572946e-07,2.7806018773420143e-05
6.316113171408572e-07,1.0388892215774313e-06,5.434001749676903e-07,2.7993715565629443e-05
6.247147886846965e-07,1.039432168813957e-06,5.443143202481537e-07,2.819628759975196e-05
6.17821191853272e-07,1.0395926138532707e-06,5.461671794774644e-07,2.841158810640461e-05
6.109788720100303e-07,1.0393858489646664e-06,5.48969620171862e-07,2.863757367417415e-05
6.042291336173754e-07,1.0388376860128764e-06,5.527328623463815e-07,2.8872338685122093e-05
5.976071582731544e-07,1.0379897411830298e-06,5.574687278759059e-07,2.911408457446009e-05
5.911417250112389e-07,1.0368942866237491e-06,5.631825963001667e-07,2.9361034901185802e-05
5.848545730539929e-07,1.035600694670008e-06,5.698654564013424e-07,2.961134871420457e-05
5.787600990915224e-07,1.0341493877288457e-06,5.774899139994814e-07,2.9863086619568846e-05
5.728656325832541e-07,1.0325831314486858e-06,5.860111466384275e-07,3.0114254201267102e-05
5.671732401339133e-07,1.030962998130105e-06,5.95370833045001e-07,3.0362875998084192e-05
5.616816279788748e-07,1.029370742544505e-06,6.055003903374116e-07,3.0607016517536986e-05
5.56386592775274e-07,1.0278992933412143e-06,6.16321979536719e-07,3.084474927492819e-05
5.51281504229579e-07,1.0266439657448977e-06,6.277495004325998e-07,3.107414492683815e-05
5.463581467987426e-07,1.0256977561860244e-06,6.396920150974854e-07,3.129330533117711e-05
5.416062785375078e-07,1.025148029943814e-06,6.520585719793751e-07,3.150039015257148e-05
5.370128543977226e-07,1.0250739629981107e-06,6.647608884295438e-07,3.169358645562679e-05
5.325635164415935e-07,1.025545342409691e-06,6.777121499529504e-07,3.187107265725883e-05
5.282454490552489e-07,1.026621603028234e-06,6.908238924108257e-07,3.203105417880784e-05
5.240489521239925e-07,1.0283491277083205e-06,7.040056694268116e-07,3.217185950896944e-05
5.199684164164046e-07,1.0307570145072358e-06,7.171720972919352e-07,3.2292053239110937e-05
5.160033049950166e-07,1.033854501306476e-06,7.302549416455612e-07,3.2390570392419515e-05
5.121567966480764e-07,1.0376322608409916e-06,7.432103086531267e-07,3.24668545460445e-05
5.084324420478997e-07,1.0420658529019577e-06,7.560156928977476e-07,3.2520902001389914e-05
5.048326328065505e-07,1.0471202704558595e-06,7.686626952024006e-07,3.255314058030553e-05
5.013593672609499e-07,1.0527560461688542e-06,7.811508628152484e-07,3.2564187760363235e-05
4.980146079292402e-07,1.0589353536707717e-06,7.934806800476262e-07,3.2554619533335976e-05
4.94799670610173e-07,1.0656262320233655e-06,8.056466625242486e-07,3.252486748621076e-05
4.917143495128663e-07,1.0728032350502571e-06,8.176359986089455e-07,3.2475229595527286e-05
4.887564268006028e-07,1.0804419845585171e-06,8.294315345820824e-07,3.240589496130296e-05
4.85922429107691e-07,1.088511366180654e-06,8.410132406812416e-07,3.2316996200857693e-05
4.832081546196729e-07,1.0969722816511894e-06,8.523571293699197e-07,3.220882893248366e-05
4.806072513493296e-07,1.1057815126958557e-06,8.634356922497704e-07,3.2082188213411404e-05
4.78109512309236e-07,1.1148936711773434e-06,8.742230349274702e-07,3.1938513017613564e-05
4.75700747606919e-07,1.1242621423215655e-06,8.847030275780735e-07,3.177971632441825e-05
4.733636006206053e-07,1.1338390127984242e-06,8.948755267890037e-07,3.160789510011817e-05
4.710782277999055e-07,1.1435722802771375e-06,9.047569741123451e-07,3.1425085303434026e-05
4.688228678485056e-07,1.1534057078027457e-06,9.143755402710268e-07,3.12331446923947e-05
4.6657454790132284e-07,1.1632844315175677e-06,9.237643779243099e-07,3.1033894148158536e-05
4.6431018155287564e-07,1.1731600319519731e-06,9.329565742712208e-07,3.0829450136819846e-05
4.620082989476245e-07,1.182989741347649e-06,9.41981546794273e-07,3.0622407575824144e-05
4.596501251531745e-07,1.1927322158223448e-06,9.508610948255819e-07,3.0415740804989867e-05
4.572188923433281e-07,1.2023428027320456e-06,9.596061826221174e-07,3.021260900930519e-05
4.546990130650297e-07,1.2117705600280873e-06,9.682162642956872e-07,3.001619825094323e-05
4.5207640147093097e-07,1.2209618970055726e-06,9.766797686632772e-07,2.9829597565539106e-05
4.4933936498325643e-07,1.229867650037383e-06,9.84973673956837e-07,2.965570106428208e-05
4.4648133597546213e-07,1.2384431723544248e-06,9.930634954024094e-07,2.9497131932314336e-05
4.4350628762617616e-07,1.2466428961239705e-06,1.0009051545327872e-06,2.9356178252040168e-05
4.4043209499706403e-07,1.2544200666975055e-06,1.008447387970426e-06,2.9234759224181074e-05
4.3728686583654147e-07,1.2617323585392455e-06,1.0156344338451343e-06,2.9134423560143843e-05
4.341007954344623e-07,1.2685460232372294e-06,1.0224116239780436e-06,2.9056326225810194e-05
4.309009405895426e-07,1.2748376667862138e-06,1.0287342052904123e-06,2.9001151685365595e-05
4.277123364738367e-07,1.2805970141504653e-06,1.0345742437092483e-06,2.896902043857287e-05
4.245617975695164e-07,1.285827363184735e-06,1.0399198103716334e-06,2.8959457328399707e-05
4.21479873543813e-07,1.290539408702427e-06,1.044766917400588e-06,2.897148129231905e-05
4.1850014886351563e-07,1.2947442310697679e-06,1.0491111535189402e-06,2.900378574966933e-05
4.1565615353341717e-07,1.298451364529908e-06,1.0529434789943873e-06,2.9054901033508144e-05
4.129767392187226e-07,1.3016679179859389e-06,1.0562486031494951e-06,2.912328076031731e-05
4.1048266379369394e-07,1.3043968793428065e-06,1.0590048821643236e-06,2.9207369767987676e-05
4.081859395034038e-07,1.3066410820131323e-06,1.061186130384045e-06,2.930569789264499e-05
4.0609148923070113e-07,1.3084160709264678e-06,1.0627638015168511e-06,2.9416946362686066e-05
4.0420025292808007e-07,1.3097629186066263e-06,1.0637082341830983e-06,2.9539942031112184e-05
4.025115479674314e-07,1.3107478993129973e-06,1.0639898279526346e-06,2.967360664988982e-05
4.0102351310610116e-07,1.3114483357813965e-06,1.0635807969789059e-06,2.9816880449660438e-05
3.9973366131575476e-07,1.3119361817597908e-06,1.0624583490988585e-06,2.99686085644137e-05
3.986398203185012e-07,1.3122696893991795e-06,1.0606103168399206e-06,3.0127441510825727e-05
3.977390624558692e-07,1.3124965504309237e-06,1.0580387663208293e-06,3.0291824056097412e-05
3.970253416440436e-07,1.3126672895243964e-06,1.0547555653662036e-06,3.0460053006868537e-05
3.964890157583475e-07,1.3128522470235088e-06,1.0507739099316177e-06,3.06303451546041e-05
3.9611828595622894e-07,1.3131497630064834e-06,1.046103918511893e-06,3.080089279375064e-05
3.959003746902639e-07,1.3136793233837829e-06,1.040752784997444e-06,3.096989111761797e-05
3.958221739887496e-07,1.314565600249928e-06,1.0347271854518049e-06,3.113554186566728e-05
3.958702788999102e-07,1.3159224214935853e-06,1.028037307243867e-06,3.129611196372746e-05
3.96029800624713e-07,1.3178434036374657e-06,1.0206996257817856e-06,3.145006463202589e-05
3.962837100005397e-07,1.3204022131658304e-06,1.0127359515083887e-06,3.1596137784754506e-05
3.9661357050967284e-07,1.323658962629065e-06,1.0041705190326814e-06,3.1733329542896914e-05
3.9700011197642226e-07,1.3276647874653142e-06,9.950278408719224e-07,3.186085528945458e-05
3.974246432844117e-07,1.332459772721762e-06,9.853323810410878e-07,3.197807643807971e-05
3.978725851272821e-07,1.3380666698163384e-06,9.751093777436488e-07,3.208439515039504e-05
3.983358265683617e-07,1.3444868319217777e-06,9.64385952941772e-07,3.217915376691674e-05
3.9881130772497866e-07,1.3517026421611817e-06,9.531940653092062e-07,3.2261586039546496e-05
3.9929793577021776e-07,1.3596831206635167e-06,9.415774279839741e-07,3.233086836256189e-05
3.9979389542389976e-07,1.3683873627790691e-06,9.296005647676396e-07,3.2386242498647415e-05
4.002950609024479e-07,1.3777684995642795e-06,9.173534156533405e-07,3.242709191861623e-05
4.00796078525505e-07,1.3877819173698343e-06,9.049475270042326e-07,3.245292519245039e-05
4.0129485556605676e-07,1.3983926245650353e-06,8.925085877895889e-07,3.246332943861989e-05
4.017971124787636e-07,1.409575053745516e-06,8.801697215451523e-07,3.2457943545589314e-05
4.023159737371e-07,1.4213057098061057e-06,8.680636107759182e-07,3.243645759235964e-05
4.02868091278911e-07,1.4335542719732787e-06,8.563129428698954e-07,3.239862521156057e-05
4.034720739569873e-07,1.446278497798929e-06,8.450225448262006e-07,3.2344267428066204e-05
4.041486509041258e-07,1.4594235252230213e-06,8.342758631693584e-07,3.227326158950077e-05
4.0491931708236687e-07,1.4729224694130673e-06,8.241351505949684e-07,3.2185516632420646e-05
4.0580447247358953e-07,1.4866970039625472e-06,8.146440434008006e-07,3.2080935587135906e-05
4.0682202453842504e-07,1.5006595642738288e-06,8.058331491959677e-07,3.195937735992102e-05
4.0798672723903257e-07,1.5147192189222928e-06,7.977270069252661e-07,3.182063719144888e-05
4.093103459320014e-07,1.5287890643514596e-06,7.903488450412477e-07,3.166444649747295e-05
4.10801002152301e-07,1.5427893522801794e-06,7.837236368555304e-07,3.149047668781076e-05
4.1246191244526524e-07,1.5566449742383163e-06,7.778809635774367e-07,3.1298349762137754e-05
4.142905660239941e-07,1.570280233558226e-06,7.728562669890192e-07,3.108767206564912e-05
4.1627839234991567e-07,1.583615354637901e-06,7.686899699175703e-07,3.0858084634546856e-05
4.1841256417933454e-07,1.596568643980639e-06,7.654252880547967e-07,3.0609296333254306e-05
4.2067951001885294e-07,1.609060434630523e-06,7.631062560050292e-07,3.0341083012808117e-05
4.2306581229983345e-07,1.6210140717370162e-06,7.617776813955472e-07,3.0053274637282268e-05
4.255558334211689e-07,1.6323583610877345e-06,7.614842705621476e-07,2.974577189206731e-05
4.28130112342609e-07,1.6430347742214762e-06,7.62265168738004e-07,2.9418604995937444e-05
4.307658128631035e-07,1.6530038768171532e-06,7.641464362972675e-07,2.9071968334951703e-05
4.334380516556772e-07,1.6622440468959231e-06,7.67137200931615e-07,2.870617269822097e-05
4.3612282426990736e-07,1.6707423716291452e-06,7.712304319710149e-07,2.8321569922196745e-05
4.388013351447153e-07,1.6784848264352698e-06,7.764046956728516e-07,2.7918523785906256e-05
4.414620985994683e-07,1.6854524199352924e-06,7.826254687781334e-07,2.749742367861572e-05
4.4409911953443935e-07,1.6916226631984918e-06,7.89846196744219e-07,2.7058713511543866e-05
4.467092281146604e-07,1.6969706919768504e-06,7.980095493873691e-07,2.6602927474444536e-05
4.4928987752320224e-07,1.7014689130321391e-06,8.070508831446654e-07,2.613072436177031e-05
4.5183654336751755e-07,1.7050887687285478e-06,8.16903816745361e-07,2.564291512939364e-05
4.543417094258046e-07,1.707802617025831e-06,8.275050776833906e-07,2.514049348815299e-05
4.567961386830153e-07,1.709582402222549e-06,8.387954898577591e-07,2.462466490425474e-05
4.591896794617336e-07,1.7104021360337268e-06,8.507156830838924e-07,2.409683782489648e-05
4.6151030703757153e-07,1.7102488487717257e-06,8.631995476649433e-07,2.355855995622593e-05
4.637430069016675e-07,1.709130935445348e-06,8.761701690825619e-07,2.3011428234924427e-05
4.6587041360739186e-07,1.707078161408094e-06,8.895394185313412e-07,2.2457009321269656e-05
4.6787446373751964e-07,1.704140696653941e-06,9.032099328648785e-07,2.189680506140588e-05
4.69737337581851e-07,1.7003864056869727e-06,9.170783993453644e-07,2.1332274007407508e-05
4.714423105854308e-07,1.6958917457732809e-06,9.310384976514096e-07,2.0764859074393494e-05
4.729756263998353e-07,1.6907300365225118e-06,9.449828625933864e-07,2.0195978200388e-05
4.743285524291444e-07,1.6849622663988272e-06,9.588049857850136e-07,1.962699965556667e-05
4.754973116536726e-07,1.678632671607857e-06,9.724000926548532e-07,1.9059240494125846e-05
4.7648020534285574e-07,1.6717689393252072e-06,9.856649659767573e-07,1.8494032325333544e-05
4.772754353467309e-07,1.664384873691139e-06,9.984994591537571e-07,1.793287234815521e-05
4.778822790704895e-07,1.6564827649755262e-06,1.0108097349741805e-06,1.73775589802275e-05
4.783023274309386e-07,1.648055163440496e-06,1.0225112610759857e-06,1.683017314681018e-05
4.785380505412239e-07,1.639087918593586e-06,1.0335304755541351e-06,1.6292903952590907e-05
4.785917341930884e-07,1.6295633728901503e-06,1.043803559348762e-06,1.576784067149831e-05
4.784663416401812e-07,1.6194619980475862e-06,1.0532725739297917e-06,1.5256863301497385e-05
4.781659453509089e-07,1.608763535515999e-06,1.0618834217826174e-06,1.4761710512084052e-05
4.776953282530776e-07,1.597448568891699e-06,1.0695886288573334e-06,1.4284184515077407e-05
4.770589915701269e-07,1.5855021361250731e-06,1.0763518361699785e-06,1.3826315729788794e-05
4.7625933655330106e-07,1.5729204473461597e-06,1.0821513046010552e-06,1.3390327143967681e-05
4.752960295535557e-07,1.559716500687525e-06,1.0869829889684412e-06,1.2978428262105027e-05
4.7416810928585577e-07,1.545918473211943e-06,1.0908607505007084e-06,1.2592595927896094e-05
4.728779075177313e-07,1.5315608491455466e-06,1.0938129836805029e-06,1.2234449374392152e-05
4.7143420684864786e-07,1.516675655275696e-06,1.095880847604693e-06,1.1905212289573026e-05
4.6985145655252216e-07,1.501290118143213e-06,1.097117768666467e-06,1.1605710863541122e-05
4.6814546210042774e-07,1.4854293889342027e-06,1.097584244237953e-06,1.1336422997002084e-05
4.663300062938651e-07,1.4691204576829881e-06,1.097338959854765e-06,1.1097666733495973e-05
4.644164159699569e-07,1.452394453996801e-06,1.096432351777289e-06,1.0889923581797704e-05
4.624139012011535e-07,1.4352844058452047e-06,1.094905116758496e-06,1.0714065983541645e-05
4.603295096211154e-07,1.4178209794679438e-06,1.092790675414925e-06,1.0571274913769979e-05
4.5816864341823256e-07,1.4000323061833869e-06,1.0901199188818475e-06,1.046274211481709e-05
4.559357354581847e-07,1.3819466746658701e-06,1.0869255409215954e-06,1.038938355666812e-05
4.5363432885313883e-07,1.3635945579947064e-06,1.0832430120307763e-06,1.035171145626944e-05
4.512668510610277e-07,1.3450123719275446e-06,1.0791101462127822e-06,1.0349990163557004e-05
4.488341989129202e-07,1.3262460906579792e-06,1.0745703315654526e-06,1.038463610172894e-05
4.4633615609139225e-07,1.3073468181458946e-06,1.0696785795016479e-06,1.0456516763216666e-05
4.437729042440045e-07,1.288361928395775e-06,1.0645056344872786e-06,1.0566904720591814e-05
4.4114562478747024e-07,1.2693335488530609e-06,1.059137583618775e-06,1.0717239948111155e-05
4.3845608261681204e-07,1.2503023736944914e-06,1.0536702992234508e-06,1.0908916928491764e-05
4.357068450490939e-07,1.2313075122597203e-06,1.0482021937036159e-06,1.1143121491023789e-05
4.3290235041112e-07,1.2123835835539141e-06,1.0428309704007077e-06,1.1420691046767196e-05
4.3005072829331434e-07,1.193559024009646e-06,1.0376529760665793e-06,1.174202261142128e-05
4.271654066482383e-07,1.1748555185881314e-06,1.032758586387818e-06,1.210703853578967e-05
4.2426457982242797e-07,1.1562905383692556e-06,1.0282239102017684e-06,1.251518130833353e-05
4.213689184131387e-07,1.1378845537989201e-06,1.0241058885959578e-06,1.2965418420927953e-05
4.1849934638235025e-07,1.1196700289197956e-06,1.0204436214760335e-06,1.345623680046839e-05
4.1567617040980857e-07,1.1016979814508197e-06,1.0172624327888878e-06,1.3985606042810389e-05
4.129192432782815e-07,1.0840374033682666e-06,1.0145776011958924e-06,1.4550951838371432e-05
4.10247021504214e-07,1.0667656282221225e-06,1.0123974937046606e-06,1.5149207514656073e-05
4.076744278307168e-07,1.0499561458115069e-06,1.0107260134037577e-06,1.5776952696526025e-05
4.052118104740513e-07,1.0336710443340617e-06,1.009564384352068e-06,1.6430597993746392e-05
4.0286594212438605e-07,1.0179580655002298e-06,1.0089127122474407e-06,1.7106557538064458e-05
4.006427738985068e-07,1.0028511355289058e-06,1.0087690597121375e-06,1.7801360638215473e-05
3.9855039197153564e-07,9.883739011573495e-07,1.0091239963397742e-06,1.8511705626385118e-05
3.965987717981179e-07,9.745429344550378e-07,1.0099549647521565e-06,1.923448119320717e-05
3.947961950207211e-07,9.613699940106216e-07,1.0112266395383874e-06,1.996675069233248e-05
3.9314704213253176e-07,9.488665823211037e-07,1.0128971872070309e-06,2.0705706803114808e-05
3.9165300603363477e-07,9.370473624288005e-07,1.0149245252573713e-06,2.1448628812178825e-05
3.903145140129123e-07,9.259279727751831e-07,1.0172675586723708e-06,2.2192835810006712e-05
3.891300913464256e-07,9.155232343347641e-07,1.019883102970278e-06,2.2935615288339497e-05
3.880951989422228e-07,9.058492285623484e-07,1.0227227181428877e-06,2.3674172689273723e-05
3.8720225903492133e-07,8.969253363408493e-07,1.0257317975638665e-06,2.440565595570382e-05
3.864416049109938e-07,8.887796175668385e-07,1.0288502356377415e-06,2.5127217498737603e-05
3.8580227517945343e-07,8.814604922608828e-07,1.0320136728058469e-06,2.5836050089992424e-05
3.8527227701649116e-07,8.750416198675334e-07,1.035155140833023e-06,2.652940197232009e-05
3.84839112253845e-07,8.696108746674187e-07,1.038206930087045e-06,2.720460977794621e-05
3.844910005080554e-07,8.652555766990025e-07,1.0411015276301114e-06,2.7859143408925874e-05
3.842181179052488e-07,8.620553954522827e-07,1.04377111524211e-06,2.8490598661973364e-05
3.8401347822406576e-07,8.60081297388014e-07,1.046148306463248e-06,2.9096618308009004e-05
3.8387312660461934e-07,8.593947906806137e-07,1.048170475619137e-06,2.9674827053012573e-05
3.837946937669692e-07,8.600427101173897e-07,1.0497857473063366e-06,3.0222845722358318e-05
3.8377484651922024e-07,8.620497816525059e-07,1.0509575140693206e-06,3.073836149009472e-05
3.8380797044657725e-07,8.65415186070781e-07,1.0516670899647438e-06,3.1219243219893336e-05
3.838871772105794e-07,8.701136261883631e-07,1.05191484419903e-06,3.166371052465714e-05
3.8400610665733533e-07,8.760977405384636e-07,1.0517177763173044e-06,3.2070471732800984e-05
3.841591085572044e-07,8.833007407375677e-07,1.0511022143724315e-06,3.2438712037830014e-05
3.843398318512687e-07,8.91640105302116e-07,1.0500945072487594e-06,3.276793756467459e-05
3.845408517796141e-07,9.010232050380107e-07,1.048714176839672e-06,3.305778153974432e-05
3.8475460138485923e-07,9.113542107366548e-07,1.0469716268957548e-06,3.330787459002182e-05
3.8497360952613404e-07,9.225403096254757e-07,1.044870137174654e-06,3.351781942995208e-05
3.8519054085381215e-07,9.344954843813524e-07,1.042410752430712e-06,3.368722902742714e-05
3.8539926819316135e-07,9.471407452365849e-07,1.0395972411808134e-06,3.38157735340022e-05
3.8559598508875005e-07,9.604025662320177e-07,1.0364388125801296e-06,3.390328496813539e-05
3.8577933007254293e-07,9.74212775752678e-07,1.0329507922164655e-06,3.395002214968635e-05
3.85950210432484e-07,9.885088703499209e-07,1.029153114637861e-06,3.3956978964221616e-05
3.861123870517786e-07,1.0032315448479334e-06,1.025065881079813e-06,3.392595257892539e-05
3.862729870081745e-07,1.0183191142240844e-06,1.0207053526684375e-06,3.38593427270243e-05
3.8644117729695847e-07,1.0337012544314388e-06,1.0160838540630042e-06,3.375987643390952e-05
3.866262461258172e-07,1.0492953289345385e-06,1.0112104952238871e-06,3.3630389107866494e-05
3.868377128059078e-07,1.0650067053673493e-06,1.006090804930023e-06,3.347379070370278e-05
3.87086768193331e-07,1.0807312631987689e-06,1.0007290080077954e-06,3.329327565452623e-05
3.8738663103145154e-07,1.096358815809453e-06,9.951318561785176e-07,3.309253832414754e-05
3.877511967459011e-07,1.1117792614394821e-06,9.89308159650557e-07,3.2875730993915944e-05
3.8819281710865435e-07,1.1268902824315297e-06,9.832657278953922e-07,3.264722460531961e-05
3.8872012292001306e-07,1.141601215994817e-06,9.770122402946087e-07,3.241136393516183e-05
3.89337314940344e-07,1.1558328713936005e-06,9.705594318532912e-07,3.217229109306479e-05
3.9004578532534423e-07,1.1695190961764118e-06,9.639251285065652e-07,3.1933826489591224e-05
3.908457542067122e-07,1.182611865387986e-06,9.571315287579076e-07,3.169938679459151e-05
3.9173572929750937e-07,1.1950823019320148e-06,9.502015792966735e-07,3.1471936764834245e-05
3.9271170587538353e-07,1.2069126441133071e-06,9.431548547111168e-07,3.125398818089511e-05
3.9376752599631147e-07,1.2180864677182848e-06,9.360045420698527e-07,3.1047635446893444e-05
3.948947430514264e-07,1.228583713159248e-06,9.287571130685707e-07,3.0854581176018396e-05
3.960815881320329e-07,1.2383794943203354e-06,9.214141096136619e-07,3.067612394014552e-05
3.973124141348457e-07,1.2474445997329251e-06,9.139744524087532e-07,3.0513126103830073e-05
3.985682057643336e-07,1.255748421454807e-06,9.064357482462551e-07,3.0365990428742748e-05
3.998275612323553e-07,1.263267700573768e-06,8.987940170289191e-07,3.0234675086304328e-05
4.0106769303325465e-07,1.2699967046723108e-06,8.910437548823553e-07,3.0118784792682868e-05
4.022657007151776e-07,1.2759467279278627e-06,8.831797462108431e-07,3.001772459754791e-05
4.0339951729336967e-07,1.2811344833963716e-06,8.752000639649962e-07,2.993082656513375e-05
4.044479254937079e-07,1.2855726862998982e-06,8.671099312896204e-07,2.985739837803188e-05
4.0539072976246746e-07,1.2892698372757237e-06,8.589239923994397e-07,2.9796740277192706e-05
4.062095246732172e-07,1.2922335805184743e-06,8.506632493467698e-07,2.9748167383946893e-05
4.0688809186703565e-07,1.2944725697187064e-06,8.423489507275978e-07,2.9711016826580823e-05
4.074118375431231e-07,1.2959975385640199e-06,8.340011331743115e-07,2.9684629559471028e-05
4.077665421214231e-07,1.296822218379264e-06,8.256442453313209e-07,2.9668310726599352e-05
4.0793766335532215e-07,1.2969625982368737e-06,8.173125369315009e-07,2.9661263100092358e-05
4.079108362279104e-07,1.2964338252469817e-06,8.090478666008623e-07,2.966253283063287e-05
4.076728378255197e-07,1.2952469161513515e-06,8.008919071917186e-07,2.967103360179681e-05
4.072130108650097e-07,1.2934067225867395e-06,7.92880196816699e-07,2.9685615302164635e-05
4.0652495274210354e-07,1.2909111068691615e-06,7.850408147654055e-07,2.9705089041938893e-05
4.056066370968708e-07,1.2877526055495993e-06,7.773952777160534e-07,2.9728222445009228e-05
4.0445874470576273e-07,1.283923684871114e-06,7.699602237557502e-07,2.9753762807887488e-05
4.030830396110086e-07,1.2794240063082199e-06,7.627492877788702e-07,2.9780474914017603e-05
4.0148144312452344e-07,1.274264047172815e-06,7.557742708577313e-07,2.9807134819511608e-05
3.996557880763664e-07,1.2684622645597547e-06,7.490448932638249e-07,2.983246049193301e-05
3.9760842070587174e-07,1.2620420054877785e-06,7.425677054049234e-07,2.985504603242381e-05
3.9534278753331274e-07,1.2550326058540795e-06,7.363473600740539e-07,2.9873377113712043e-05
3.9286312751195656e-07,1.2474698989913049e-06,7.303930739088446e-07,2.988592836575122e-05
3.901739464909164e-07,1.2393914768622248e-06,7.247288493578034e-07,2.989130322563233e-05
3.872803301105854e-07,1.23083021644307e-06,7.194022841987747e-07,2.9888395006223225e-05
3.841888738465496e-07,1.2218114929415248e-06,7.144893254479555e-07,2.9876513634797705e-05
3.809084477523704e-07,1.212354156890015e-06,7.100942927891545e-07,2.985538421763144e-05
3.7745105102509974e-07,1.2024731025828313e-06,7.063396395662151e-07,2.982500899949876e-05
3.738336302751279e-07,1.1921806564778688e-06,7.033465589695814e-07,2.978547119451884e-05
3.7008043054070355e-07,1.1814861378022495e-06,7.012237739345787e-07,2.9736769847005396e-05
3.6622411807072377e-07,1.1703979221702584e-06,7.000750589496779e-07,2.9678755268388903e-05
3.623046310790868e-07,1.1589279127110641e-06,7.000131658935998e-07,2.9611148461701007e-05
3.5836652245831045e-07,1.147092102044839e-06,7.011647639586712e-07,2.9533574249603185e-05
3.544569119083575e-07,1.1349063104851262e-06,7.036650220210001e-07,2.9445652806231892e-05
3.506249644083209e-07,1.1223823491177565e-06,7.076485460384638e-07,2.93472709263862e-05
3.469212139039148e-07,1.1095279426112205e-06,7.132417414795563e-07,2.923891186858337e-05
3.433951791545569e-07,1.0963497897333138e-06,7.205578871136401e-07,2.9121739364029932e-05
3.4009210831654356e-07,1.0828576436943642e-06,7.296946340578441e-07,2.899740791774245e-05
3.3705098575743194e-07,1.0690666883797769e-06,7.407328300520631e-07,2.8867804102828058e-05
3.343038861566381e-07,1.0549968309324854e-06,7.537354073550292e-07,2.8734820384847478e-05
3.318760153013637e-07,1.0406719227983828e-06,7.687448845105131e-07,2.860023819564181e-05
3.297882621035532e-07,1.0261209703094343e-06,7.85777461024413e-07,2.8465854644006226e-05
3.2806123420609653e-07,1.0113773078781315e-06,8.048165185206375e-07,2.8333752006610847e-05
3.267162496949536e-07,9.964744652146887e-07,8.258141072328525e-07,2.8206394088206208e-05
3.2577473006786125e-07,9.814432944551794e-07,8.48703439814704e-07,2.8086498366414697e-05
3.2526040317471645e-07,9.663116729853515e-07,8.734148506664837e-07,2.7976872159386145e-05
3.252016841571239e-07,9.511066217336498e-07,8.998868904711254e-07,2.788028166052049e-05
3.256304786993575e-07,9.358600489502779e-07,9.280713998467304e-07,2.7799332485057592e-05
3.2657910677698077e-07,9.206140066577356e-07,9.57933924554772e-07,2.7736359124463454e-05
3.28077656461625e-07,9.05418995078217e-07,9.894472078426413e-07,2.769333887817328e-05
3.301527800393821e-07,8.903264884028023e-07,1.0225771837934646e-06,2.7671860317773828e-05
3.328276375639543e-07,8.753827222521071e-07,1.0572678827638041e-06,2.7673131660211512e-05
3.361209269846697e-07,8.60627355478014e-07,1.09343210154731e-06,2.769795577830555e-05
3.400441326067727e-07,8.460974696487799e-07,1.13094892516241e-06,2.774665341756261e-05
3.445986448145097e-07,8.318355472307395e-07,1.1696656238747971e-06,2.7819006327284087e-05
3.497751928935043e-07,8.178929913306026e-07,1.2094021742138757e-06,2.791425457059725e-05
3.55556539579781e-07,8.043236388313936e-07,1.2499586855159335e-06,2.803113455246966e-05
3.619222555368242e-07,7.911751203005539e-07,1.291125343721117e-06,2.816799513835472e-05
3.6885270781460466e-07,7.784860279357865e-07,1.332693005329197e-06,2.8322994952148936e-05
3.763291794306961e-07,7.662890596059866e-07,1.3744640733768769e-06,2.849426820276756e-05
3.8433064927477603e-07,7.546171805419249e-07,1.4162619325783222e-06,2.8679982578976124e-05
3.9283103655856773e-07,7.435064817263561e-07,1.4579332152207888e-06,2.8878341924700075e-05
4.0179899181302034e-07,7.329938784834929e-07,1.4993405170904156e-06,2.908760739249165e-05
4.111995957204019e-07,7.231180067945048e-07,1.5403501890008254e-06,2.9306134674802845e-05
4.2099647078694345e-07,7.139257509866309e-07,1.5808220012112592e-06,2.9532371486491933e-05
4.311522302639579e-07,7.054733682568019e-07,1.6206052278414832e-06,2.9764796423304687e-05
4.4162628926867817e-07,6.978171670361953e-07,1.659540671866494e-06,3.0001832696136652e-05
4.5237236809847937e-07,6.910037750941873e-07,1.6974656959378313e-06,3.0241780810847277e-05
4.6333915074856474e-07,6.850664849198029e-07,1.7342206120078567e-06,3.0482832677476585e-05
4.7447406937529116e-07,6.80026312280717e-07,1.7696540665108998e-06,3.0723171387972726e-05
4.857258436492183e-07,6.759017940652085e-07,1.8036255173768963e-06,3.0961054315270344e-05
4.970428106655754e-07,6.727252908712509e-07,1.8360060106866744e-06,3.119482375496383e-05
5.083703393674791e-07,6.705499201207375e-07,1.8666783401226746e-06,3.142289747281777e-05
5.196518933873049e-07,6.694419918273136e-07,1.8955354641671554e-06,3.164378714960642e-05
5.30832043596725e-07,6.69468429388625e-07,1.92247640917908e-06,3.1856099279915616e-05
5.418567576467507e-07,6.706846097656694e-07,1.9474019796189137e-06,3.205844758882453e-05
5.526715209299429e-07,6.731251614142553e-07,1.970213119945493e-06,3.22493396256373e-05
5.632211024788879e-07,6.768008301711307e-07,1.990811768353722e-06,3.24271713926865e-05
5.734510746731665e-07,6.817006304033543e-07,2.009103059735954e-06,3.259034855734737e-05
5.833086336253251e-07,6.877967143928133e-07,2.0249976608885283e-06,3.2737462840502315e-05
5.927423639575248e-07,6.950483650348044e-07,2.038413408044966e-06,3.286747811944795e-05
6.017021076720847e-07,7.034037343209873e-07,2.0492775307141187e-06,3.297987907848977e-05
6.101397787648772e-07,7.128040431207848e-07,2.057529461551284e-06,3.307468427764284e-05
6.180119698108647e-07,7.231917347324752e-07,2.0631216325947047e-06,3.315227401862825e-05
6.252843911737557e-07,7.345147248836419e-07,2.0660178444288068e-06,3.321310943913534e-05
6.319360799914804e-07,7.467215579075188e-07,2.0661917665980898e-06,3.3257488219139084e-05
6.379598396501726e-07,7.597539443214263e-07,2.063627535402056e-06,3.3285452107944084e-05
6.433574738920402e-07,7.735454067987143e-07,2.0583219102794844e-06,3.329683127196032e-05
6.481335797436828e-07,7.880268252388484e-07,2.050285340019932e-06,3.329130517426659e-05
6.522929847597743e-07,8.031329771195444e-07,2.039541075864434e-06,3.3268457468916366e-05
6.558417690684873e-07,8.188036117368798e-07,2.0261248313718622e-06,3.322796717071505e-05
6.587874333200868e-07,8.349776389488922e-07,2.010085034129436e-06,3.316993079056743e-05
6.61136662869298e-07,8.515853553987138e-07,1.99148142662254e-06,3.309502413074642e-05
6.62893626371491e-07,8.685444932283756e-07,1.9703836912440044e-06,3.3004365226328447e-05
6.640600706095556e-07,8.857610939290562e-07,1.9468725063056658e-06,3.289928101571886e-05
6.646358917418664e-07,9.031326574621513e-07,1.9210414218517875e-06,3.278113926196766e-05
6.646199971229745e-07,9.205520707857626e-07,1.892997447464864e-06,3.2651285647498185e-05
6.640116220157403e-07,9.379134557306423e-07,1.862859505174261e-06,3.2511185396467134e-05
6.628110499494696e-07,9.55118884570623e-07,1.8307539243939938e-06,3.2362700373473755e-05
6.610198314823739e-07,9.720810741783709e-07,1.7968094390424854e-06,3.2208200508844067e-05
6.586427065186701e-07,9.887214803041165e-07,1.7611568990568768e-06,3.205042390608461e-05
6.556920709340767e-07,1.0049684277319356e-06,1.7239331411988969e-06,3.1892276379289394e-05
6.521913093569748e-07,1.0207565974513064e-06,1.6852822132101014e-06,3.1736685632390146e-05
6.481722690662073e-07,1.0360249996601214e-06,1.6453516220810882e-06,3.158647839403293e-05
6.436689798448393e-07,1.0507126465916956e-06,1.604287867272974e-06,3.144425448501405e-05
6.387138777341778e-07,1.0647551138326157e-06,1.5622339708094556e-06,3.131229689407261e-05
6.333379870341171e-07,1.078085341242019e-06,1.5193290848300102e-06,3.1192545107769425e-05
6.275728523412406e-07,1.090639185144968e-06,1.475710582824631e-06,3.108660335409519e-05
6.214523583026997e-07,1.102361862862026e-06,1.431518715500072e-06,3.0995741256546965e-05
6.150132502302451e-07,1.1132123011732469e-06,1.3869028044768529e-06,3.092086045578395e-05
6.082938228029563e-07,1.1231678702350608e-06,1.3420253784569738e-06,3.086243272221804e-05
6.013314852295106e-07,1.1322266860328646e-06,1.297059935095736e-06,3.0820442311789794e-05
5.941611577403293e-07,1.140400631153059e-06,1.252182892681016e-06,3.079438075467003e-05
5.868149640732826e-07,1.1477036130558444e-06,1.2075644780170357e-06,3.078333938066678e-05
5.793217458297263e-07,1.1541453636705759e-06,1.1633628730568427e-06,3.078618193135899e-05
5.717064741234552e-07,1.1597340327336753e-06,1.119722718083925e-06,3.080170193750247e-05
5.639914074220989e-07,1.1644824159327646e-06,1.0767767555271415e-06,3.0828693445967996e-05
5.561990664299721e-07,1.1684093195505207e-06,1.0346507456545508e-06,3.0865974070911214e-05
5.483546288703094e-07,1.1715358052631457e-06,9.93470374467282e-07,3.091243088604542e-05
5.404856607379144e-07,1.1738863104842189e-06,9.533661728828972e-07,3.096707939977764e-05
5.3261977416404e-07,1.1754984151304686e-06,9.144761345345733e-07,3.102907901582271e-05
5.247824255784386e-07,1.176430087932718e-06,8.769478322271522e-07,3.109767565144114e-05
5.169955781578912e-07,1.1767534629701435e-06,8.409382014008177e-07,3.1172079164456314e-05
5.092773650742331e-07,1.1765406238048416e-06,8.066091622063905e-07,3.12513358382078e-05
5.016433253906654e-07,1.1758551671512957e-06,7.74120555776038e-07,3.1334302109476936e-05
4.94107609526955e-07,1.1747552569663632e-06,7.436221657148085e-07,3.1419725774095525e-05
4.86682312745369e-07,1.1733063858443466e-06,7.152456724317958e-07,3.150631012888693e-05
4.793765932700177e-07,1.1715961853492814e-06,6.890978121212191e-07,3.159272589256173e-05
4.7219747050434606e-07,1.1697384553342109e-06,6.652580873412982e-07,3.1677649731526944e-05
4.6515107557471285e-07,1.1678647189030307e-06,6.437831822058675e-07,3.175983721623829e-05
4.582431231567272e-07,1.166113477423023e-06,6.247139328193189e-07,3.183814926463947e-05
4.5147987589697294e-07,1.1646195611347752e-06,6.080786419985265e-07,3.191147991784263e-05
4.4487063318237573e-07,1.163500783746928e-06,5.938907539179518e-07,3.197865128022169e-05
4.3842991537327154e-07,1.1628467230031e-06,5.821440466299305e-07,3.2038436059554216e-05
4.3217680026733073e-07,1.162715304036977e-06,5.728102660631807e-07,3.208977679349913e-05
4.2613187860256045e-07,1.1631358507507157e-06,5.658408735643424e-07,3.2132024725411934e-05
4.2031460559500535e-07,1.1641144383719644e-06,5.611720904147947e-07,3.216497529033653e-05
4.147423137985339e-07,1.1656382750613025e-06,5.587324453253286e-07,3.2188731759866586e-05
4.094295108719872e-07,1.1676789857138984e-06,5.584498680485151e-07,3.220357165415322e-05
4.0438698628460567e-07,1.170197955918079e-06,5.602530140843478e-07,3.220986081803935e-05
3.9962234372308953e-07,1.1731535830878262e-06,5.640651845584136e-07,3.220794775117718e-05
3.9514105540075203e-07,1.1765062040758098e-06,5.697967831186551e-07,3.219803474933421e-05
3.90946234447463e-07,1.1802199201836842e-06,5.773431418246416e-07,3.218010415966063e-05
3.8703818447377674e-07,1.1842634327510367e-06,5.865871414490757e-07,3.215393351612662e-05
3.834138351250647e-07,1.188610078657834e-06,5.974023891970958e-07,3.211915307392611e-05
3.8006569526198564e-07,1.1932381138657604e-06,6.096555649097422e-07,3.2075313734765306e-05
3.769819628463951e-07,1.1981334940566476e-06,6.232077734366073e-07,3.202203872825524e-05
3.741480857565907e-07,1.2032927045045879e-06,6.37915720138621e-07,3.195929652944596e-05
3.7154866267409993e-07,1.208719977965722e-06,6.536353859887513e-07,3.188759219251348e-05
3.6916936649111314e-07,1.214418059550187e-06,6.702272840710537e-07,3.1807858080099395e-05
3.6699793168128295e-07,1.22037825341267e-06,6.875581990506567e-07,3.172116879156557e-05
3.6502347474831816e-07,1.2265754384009287e-06,7.054990268030351e-07,3.16286241904833e-05
3.6323550166748314e-07,1.232968818876658e-06,7.239230588019269e-07,3.153146670225161e-05
3.6162326316743434e-07,1.2395081353125587e-06,7.427046413663997e-07,3.143116944402615e-05
3.6017522372473994e-07,1.2461449635552131e-06,7.617172272560813e-07,3.1329381759689004e-05
3.588796270435596e-07,1.2528427397191043e-06,7.808350173576083e-07,3.122782932616453e-05
3.5772604943875605e-07,1.2595775096851057e-06,7.999393821833474e-07,3.1128216911990035e-05
3.567062824871711e-07,1.2663311357974286e-06,8.18924905861278e-07,3.1032135825473065e-05
3.558138374714179e-07,1.2730856557768388e-06,8.377012759876557e-07,3.094098789492778e-05
3.5504246025240884e-07,1.2798208670798288e-06,8.561907909426156e-07,3.0855937118168365e-05
3.5438513728636323e-07,1.2865101809989442e-06,8.743231327359632e-07,3.0777879535043274e-05
3.538347485571441e-07,1.2931149428683229e-06,8.92032492651213e-07,3.070741114289815e-05
3.533846051229502e-07,1.2995827774949088e-06,9.092619089830572e-07,3.064480909525219e-05
3.530271513978131e-07,1.3058518438125273e-06,9.259718709715893e-07,3.059006167336309e-05
3.527523750710591e-07,1.3118583700771048e-06,9.421466897350985e-07,3.0542936883003415e-05
3.525475853061145e-07,1.3175446929725164e-06,9.577962171257095e-07,3.0503029387554896e-05
3.5239813942873703e-07,1.322865772318026e-06,9.729519036118305e-07,3.0469747557119776e-05
3.5228905597883244e-07,1.3277897505608583e-06,9.87658288193973e-07,3.0442276014131927e-05
3.522081923581593e-07,1.3322903215386317e-06,1.0019646547701084e-06,3.041958707601131e-05
3.521493812490471e-07,1.336338825760345e-06,1.0159176998769629e-06,3.0400513048740035e-05
3.521129349808022e-07,1.3399032687680641e-06,1.0295538099303764e-06,3.0383822679044866e-05
3.5210388885623655e-07,1.342949724151542e-06,1.0428937529606743e-06,3.036827172611312e-05
3.521298181517507e-07,1.345441521168857e-06,1.055941135454621e-06,3.03526391126432e-05
3.5219910984818273e-07,1.347339107116216e-06,1.0686832653810964e-06,3.033576900185724e-05
3.523204410532632e-07,1.3486025839552273e-06,1.0810952474300434e-06,3.0316622739133795e-05
3.525035928745579e-07,1.3491965872289343e-06,1.0931462244014446e-06,3.0294303778874294e-05
3.5275972598574147e-07,1.3490978961334648e-06,1.1048031432549275e-06,3.026802828531212e-05
3.5309965323385724e-07,1.3483013086147106e-06,1.1160305682425296e-06,3.0237068150532037e-05
3.5353235204250737e-07,1.3468169112488216e-06,1.126789544208042e-06,3.020069771158618e-05
3.5406568167665147e-07,1.3446610378683778e-06,1.137038316745644e-06,3.0158161868201397e-05
3.547067732405342e-07,1.3418494470660308e-06,1.1467350336906284e-06,3.01087075177818e-05
3.5546022203183006e-07,1.338397428443556e-06,1.1558410381447408e-06,3.0051679426222857e-05
3.563260688616722e-07,1.3343270371242672e-06,1.1643231574307402e-06,2.998658456740965e-05
3.5729969758831697e-07,1.3296774312796678e-06,1.1721540258662718e-06,2.9913048514220666e-05
3.583745164623556e-07,1.3245093513196123e-06,1.1793110495154814e-06,2.9830698419436607e-05
3.5954635211268377e-07,1.3188984518272716e-06,1.1857749834524928e-06,2.973907563560371e-05
3.608150598472479e-07,1.3129238163558072e-06,1.191529582406955e-06,2.963765081816421e-05
3.621811872378547e-07,1.3066602739305916e-06,1.1965634976875559e-06,2.9525895041199023e-05
3.636422737875726e-07,1.3001740395580082e-06,1.2008719820338451e-06,2.940332665946939e-05
3.6519250829343757e-07,1.2935187488741848e-06,1.2044552880138457e-06,2.926958088159793e-05
3.668240634271948e-07,1.2867342581709974e-06,1.2073139608335826e-06,2.912455341348111e-05
3.685274213649382e-07,1.2798489185151182e-06,1.209444325938151e-06,2.8968513221692244e-05
3.7029040068974474e-07,1.2728813862345292e-06,1.210837825438098e-06,2.880209336412082e-05
3.7209750740060726e-07,1.265840870378081e-06,1.2114833489319841e-06,2.862620117818516e-05
3.739301887975517e-07,1.2587279289986696e-06,1.2113704382318548e-06,2.844190249029625e-05
3.7576736393656676e-07,1.2515361936696716e-06,1.2104943208331406e-06,2.8250288468124512e-05
3.775866522453168e-07,1.2442546811864249e-06,1.2088597974661482e-06,2.8052342754136022e-05
3.793665812998449e-07,1.2368706283517759e-06,1.2064784862209906e-06,2.784887271057528e-05
3.8108818491575216e-07,1.2293721515818016e-06,1.2033625152591924e-06,2.764052772645512e-05
3.8273509105041946e-07,1.2217506829997758e-06,1.199522231312012e-06,2.7427837627359648e-05
3.842931611438114e-07,1.214003219494372e-06,1.1949684104773316e-06,2.721122285119047e-05
3.857503210142772e-07,1.206134065505307e-06,1.1897143557441747e-06,2.699100427985036e-05
3.8709646498705274e-07,1.1981559372719543e-06,1.1837774902648027e-06,2.676750930475873e-05
3.8832309274720203e-07,1.1900902219566958e-06,1.1771821809859208e-06,2.6541314566187804e-05
3.894228448160019e-07,1.181967192965806e-06,1.1699602996923737e-06,2.631340531083828e-05
3.9039034112073005e-07,1.1738241613942656e-06,1.162147027729984e-06,2.608504895336261e-05
3.912239900578897e-07,1.1656981676750998e-06,1.1537773899487829e-06,2.585761253491261e-05
3.9192594597101496e-07,1.1576180554154958e-06,1.1448896974144054e-06,2.563256520963605e-05
3.9249968830707383e-07,1.1496026532011258e-06,1.135534676874325e-06,2.541150288118379e-05
3.929475916859129e-07,1.1416645085115956e-06,1.1257836198379204e-06,2.519605633244569e-05
3.9326973210638036e-07,1.1338145355684584e-06,1.1157291613514862e-06,2.4987773758048746e-05
3.934635948710015e-07,1.1260632206645728e-06,1.1054761454234572e-06,2.4788040076298238e-05
3.935244063759945e-07,1.1184194347199491e-06,1.0951267735930443e-06,2.4598028208234926e-05
3.93445830097341e-07,1.1108909678456364e-06,1.0847691687870295e-06,2.4418677896312346e-05
3.9322059689050243e-07,1.103487774217023e-06,1.074475364225467e-06,2.4250700312561474e-05
3.928410263408398e-07,1.0962264466036664e-06,1.06430694186939e-06,2.409459393536948e-05
3.922993964694282e-07,1.0891313265405402e-06,1.0543216387007249e-06,2.3950648964964594e-05
3.915879515318855e-07,1.0822283664275117e-06,1.0445753736241458e-06,2.38189456687712e-05
3.906989433470921e-07,1.0755364161071506e-06,1.0351189945614443e-06,2.369936525935832e-05
3.896255037483417e-07,1.0690633618451329e-06,1.0259938404429753e-06,2.359161761707185e-05
3.8836387309415543e-07,1.0628075122579928e-06,1.0172310942421906e-06,2.349527908483552e-05
3.8691541695588173e-07,1.0567613507763487e-06,1.0088538510866673e-06,2.3409807483594643e-05
3.8528601194435117e-07,1.0509183276342293e-06,1.000876613209252e-06,2.3334505204632594e-05
3.8348465716465526e-07,1.045281258377491e-06,9.933030221724244e-07,2.3268466488824414e-05
3.8152522220295966e-07,1.0398632898856563e-06,9.86127009536442e-07,2.321056340412251e-05
3.794303927421377e-07,1.034678469700268e-06,9.79336495585719e-07,2.315947331895775e-05
3.772328990268655e-07,1.0297331905717921e-06,9.72914409542503e-07,2.311372874353823e-05
3.74972060464816e-07,1.0250275008658959e-06,9.66836932202102e-07,2.307178174414236e-05
3.726889711724115e-07,1.0205609934933932e-06,9.610736998992112e-07,2.3032079205566496e-05
3.7042349008678907e-07,1.0163334997544262e-06,9.555905238853606e-07,2.299314344239107e-05
3.682121937890049e-07,1.012341414275828e-06,9.503502694960085e-07,2.295364459992405e-05
3.6608635276670634e-07,1.0085786029940542e-06,9.453116639730093e-07,2.2912449901921192e-05
3.6407147836575843e-07,1.0050442272491242e-06,9.404299461209431e-07,2.286864431408468e-05
3.621884393167157e-07,1.0017488929617995e-06,9.356596477681532e-07,2.2821508116195173e-05
3.604543487109118e-07,9.987109966797926e-07,9.309571311716387e-07,2.277043744569899e-05
3.5888380399722796e-07,9.959484626903923e-07,9.262812541051643e-07,2.2714866737606562e-05
3.574908683001857e-07,9.93475673965303e-07,9.21591789546851e-07,2.265428924028261e-05
3.562890798979386e-07,9.913045348759052e-07,9.168484819770436e-07,2.25883346222272e-05
3.5528914337307626e-07,9.894472579119445e-07,9.120126633049986e-07,2.2516768980995867e-05
3.5449749125600365e-07,9.879261384300092e-07,9.07048411424592e-07,2.2439436545361214e-05
3.539170956667628e-07,9.86786422333798e-07,9.01922550414968e-07,2.2356239046194125e-05
3.535497987024636e-07,9.860970194743908e-07,8.966071366232902e-07,2.2267121375683896e-05
3.5339812412975e-07,9.859360283148432e-07,8.910846095194289e-07,2.217205320868865e-05
3.53464174662146e-07,9.863723135585738e-07,8.853521906176297e-07,2.2071065634144e-05
3.5374666859688e-07,9.874527681363815e-07,8.794229860699812e-07,2.1964290682579683e-05
3.542395612917797e-07,9.891993777179002e-07,8.733224886589977e-07,2.185192196697829e-05
3.5493396518043385e-07,9.916146098559034e-07,8.670817728016929e-07,2.1734132099804378e-05
3.5582207529108454e-07,9.94688064374519e-07,8.607306013494585e-07,2.1611041731943632e-05
3.568996664367671e-07,9.983989267929145e-07,8.542923344179037e-07,2.1482807356142527e-05
3.58164718166518e-07,1.0027152723173342e-06,8.477816501719049e-07,2.134980746293511e-05
3.596142769271389e-07,1.0075930544685844e-06,8.412057651697516e-07,2.1212793521978838e-05
3.6124416834158907e-07,1.012976449896797e-06,8.345686435146839e-07,2.107286315648393e-05
3.630513316820117e-07,1.0188008405633546e-06,8.278774680866039e-07,2.093125973722369e-05
3.6503402204724343e-07,1.0249963635621635e-06,8.211502476756534e-07,2.0789129844143538e-05
3.6718888621417713e-07,1.0314894498926886e-06,8.144191465375334e-07,2.0647361746492306e-05
3.6950846539810773e-07,1.038205906803434e-06,8.077243861034894e-07,2.0506546101974425e-05
3.719810908683543e-07,1.0450778043386655e-06,8.011059287014024e-07,2.036701855078533e-05
3.7459214766395824e-07,1.052048384132486e-06,7.946028017901703e-07,2.0228948939524263e-05
3.7732585159531883e-07,1.059070873293773e-06,7.882547378751148e-07,2.0092521988198278e-05
3.801673335993229e-07,1.066103467365335e-06,7.820984179382196e-07,1.9958223499377647e-05
3.8310352036315753e-07,1.0731037954465876e-06,7.761640760777588e-07,1.9827049400056404e-05
3.861214987292712e-07,1.0800262046579839e-06,7.704792280613351e-07,1.9700444713421647e-05
3.892065933407289e-07,1.0868228365644392e-06,7.650755011054582e-07,1.958006474349967e-05
3.923428432425567e-07,1.0934448476061644e-06,7.599919804726254e-07,1.946755672766293e-05
3.9551472601737155e-07,1.0998430687758178e-06,7.55273737773811e-07,1.9364430100388592e-05
3.9870827712579175e-07,1.1059713202795616e-06,7.509670825016954e-07,1.92720843718112e-05
4.019110636139046e-07,1.1117897150242543e-06,7.47114318009908e-07,1.919206008503229e-05
4.051106979216446e-07,1.1172628755715482e-06,7.437504867828098e-07,1.9126331434171035e-05
4.082928650902178e-07,1.1223565431668823e-06,7.409012833045006e-07,1.907736238170221e-05
4.1144039937539627e-07,1.127039749012568e-06,7.38581740212246e-07,1.9047932455574084e-05
4.145341769235402e-07,1.1312918211397322e-06,7.36797650592781e-07,1.904091590015929e-05
4.1755558207399924e-07,1.1351058478878357e-06,7.355482553014074e-07,1.905909970368556e-05
4.204881605493469e-07,1.1384835505290869e-06,7.348262662558581e-07,1.9105048255526454e-05
4.233170398961427e-07,1.1414266433090592e-06,7.346154562583484e-07,1.9181004401000795e-05
4.2602869456601403e-07,1.143932090422845e-06,7.34889854501235e-07,1.9288802018821404e-05
4.2861160018540456e-07,1.1459916949847066e-06,7.35616885935821e-07,1.942978978964705e-05
4.3105518583468474e-07,1.14759290638852e-06,7.367628494786636e-07,1.9604783605120045e-05
4.333480832385835e-07,1.1487204779606882e-06,7.382981032845852e-07,1.9814026623370267e-05
4.3547755227278595e-07,1.1493612487474494e-06,7.401992477741855e-07,2.0057133488695058e-05
4.3742944144610653e-07,1.1495121324860859e-06,7.424463004240241e-07,2.033305344291729e-05
4.3918937219970607e-07,1.1491853117930436e-06,7.450183521632573e-07,2.064009595663768e-05
4.407455654900015e-07,1.148404843202907e-06,7.478924482060942e-07,2.097603611115073e-05
4.4209058709488793e-07,1.1471977590719034e-06,7.51043433165508e-07,2.133830441878775e-05
4.432205131887639e-07,1.1455876330987156e-06,7.544417381891922e-07,2.1724210011478715e-05
4.441331250112876e-07,1.143593260513456e-06,7.580520507204359e-07,2.2131096827451075e-05
4.4482666193372095e-07,1.141229509891378e-06,7.618349505750509e-07,2.255640636491533e-05
4.452999730026698e-07,1.1385089566530995e-06,7.657484891669388e-07,2.299771774599925e-05
4.4555382673166857e-07,1.1354460710744456e-06,7.697477908710434e-07,2.345279612624925e-05
4.455916603125013e-07,1.1320654599784678e-06,7.737850051220969e-07,2.391959021621001e-05
4.454190298021698e-07,1.1284102414401648e-06,7.778123018789819e-07,2.439614234557036e-05
4.450439605243082e-07,1.1245416184755141e-06,7.817871991982091e-07,2.488045457425385e-05
4.444796760576542e-07,1.12052724844034e-06,7.856759137150768e-07,2.537037412455665e-05
4.4374603764420435e-07,1.1164275491146488e-06,7.894525515631273e-07,2.586355547534696e-05
4.4286695377107173e-07,1.112288494520071e-06,7.930977480256881e-07,2.6357512918868218e-05
4.41866211655081e-07,1.1081435357362481e-06,7.96598705423856e-07,2.684969387792424e-05
4.407641445930294e-07,1.1040271935641496e-06,7.99946933372559e-07,2.733752341821073e-05
4.3957613275032367e-07,1.0999931056998658e-06,8.031330226513094e-07,2.7818443311012764e-05
4.3831381611420544e-07,1.0961191973256298e-06,8.061430269332829e-07,2.828996370635397e-05
4.369885613230061e-07,1.0924977364286713e-06,8.08958364643182e-07,2.874972070841895e-05
4.3561406486831295e-07,1.089222463647796e-06,8.115588302562956e-07,2.9195499378731323e-05
4.3420553841476057e-07,1.0863795311301422e-06,8.139286998124004e-07,2.962517192019989e-05
4.327776985964529e-07,1.0840428431631686e-06,8.160616048115406e-07,3.003660040215559e-05
4.313446122825018e-07,1.0822719063405605e-06,8.179594803104255e-07,3.042762022887074e-05
4.2992068124040157e-07,1.0811102588309722e-06,8.196290080852269e-07,3.0796134224472365e-05
4.2852126146882527e-07,1.0805847035961068e-06,8.210793895177666e-07,3.114026329048725e-05
4.2716281335150523e-07,1.0807048149191046e-06,8.223188175683717e-07,3.1458512824107956e-05
4.258619104840206e-07,1.081462220967013e-06,8.233494573728029e-07,3.1749903972824964e-05
4.2463302805561045e-07,1.0828309177648793e-06,8.241652374772048e-07,3.201397517852829e-05
4.2348683812076176e-07,1.084769153926964e-06,8.247535723493842e-07,3.225061550711453e-05
4.2242943871466343e-07,1.0872223564964675e-06,8.25098950582218e-07,3.2459816541787915e-05
4.2146214286797965e-07,1.0901269923377415e-06,8.251865329120406e-07,3.264149017454714e-05
4.2058328534848437e-07,1.0934152062649844e-06,8.250047961235845e-07,3.2795428186524594e-05
4.1979158656346406e-07,1.0970201968702732e-06,8.245474784544565e-07,3.292133941574917e-05
4.190869843552546e-07,1.1008820328024406e-06,8.238139612055566e-07,3.301887197056158e-05
4.1846799111962925e-07,1.1049514827501648e-06,8.228072947856242e-07,3.308766718995923e-05
4.179294973885983e-07,1.1091891822028528e-06,8.215343627568064e-07,3.312759330565572e-05
4.174631488200775e-07,1.1135611500304514e-06,8.200108485266491e-07,3.313909716243395e-05
4.170590021515206e-07,1.11803433504693e-06,8.182654698568625e-07,3.312336089221043e-05
4.16706909241784e-07,1.1225741345269807e-06,8.163400435331165e-07,3.308215506092854e-05
4.16396742929564e-07,1.1271443962373984e-06,8.142882305828116e-07,3.301757698250597e-05
4.1611850683398533e-07,1.13170959291221e-06,8.121741278271519e-07,3.2931810768244005e-05
4.158641244387515e-07,1.1362376333271091e-06,8.100676153090793e-07,3.282700674094933e-05
4.156295955046295e-07,1.1407045777107565e-06,8.08036098513488e-07,3.270542416794551e-05
4.1541517700075394e-07,1.1450997249539013e-06,8.061386270884036e-07,3.2569726053546975e-05
4.1522339270839526e-07,1.1494226356607357e-06,8.044253139209225e-07,3.2423087297990584e-05
4.150562438534183e-07,1.1536721600973377e-06,8.029383836955124e-07,3.226903341315786e-05
4.149138386569661e-07,1.1578376691265672e-06,8.017125831700029e-07,3.211119604779541e-05
4.1479524534760495e-07,1.1618966514338391e-06,8.007742561866622e-07,3.1953111937359776e-05
4.1470001590799706e-07,1.1658163523592292e-06,8.001389959937771e-07,3.179808724484834e-05
4.146284696693714e-07,1.1695575508146851e-06,7.998105282939769e-07,3.1649112276184086e-05
4.145803526225067e-07,1.1730778890966005e-06,7.997825362386725e-07,3.1508809346231755e-05
4.1455367419968707e-07,1.1763331254621662e-06,8.000437535274627e-07,3.1379425608888206e-05
4.145450639329968e-07,1.1792803019418169e-06,8.005859764689422e-07,3.126287514039843e-05
4.145504036369461e-07,1.181887195788282e-06,8.014108931224729e-07,3.116077494522124e-05
4.1456410958813527e-07,1.184142724673252e-06,8.025309829434017e-07,3.107441029686761e-05
4.145784170382297e-07,1.18605781030116e-06,8.039650836147769e-07,3.100464492876347e-05
4.145863907720145e-07,1.1876552710681977e-06,8.05733753165309e-07,3.0951837150070256e-05
4.145884930431545e-07,1.1889567712525392e-06,8.07856899532209e-07,3.091580614334288e-05
4.145967323192898e-07,1.1899738711296708e-06,8.103517816479563e-07,3.089589178713258e-05
4.146323980581828e-07,1.1907058328364036e-06,8.132324161543666e-07,3.089110994166788e-05
4.147205258339183e-07,1.1911436535972022e-06,8.165122898492499e-07,3.0900315934495286e-05
4.148864795035275e-07,1.1912753373023435e-06,8.202065769524938e-07,3.092230533638248e-05
4.1515516483712727e-07,1.1910866972083219e-06,8.243308957229079e-07,3.095587649881719e-05
4.155492335038611e-07,1.1905592862460794e-06,8.288977788643447e-07,3.0999885783418964e-05
4.160857774574434e-07,1.1896725043433444e-06,8.339118391344007e-07,3.1053280404970004e-05
4.167748441527428e-07,1.1884114788407571e-06,8.393667853816261e-07,3.1115092389114984e-05
4.176204780815007e-07,1.1867717003661504e-06,8.452474521035548e-07,3.118439575723531e-05
4.1862220663553097e-07,1.1847536548810482e-06,8.515336754277023e-07,3.126023074246753e-05
4.1977584107109043e-07,1.1823563246725646e-06,8.582027074725842e-07,3.1341507986464725e-05
4.210737440467602e-07,1.1795832407901423e-06,8.652320292444634e-07,3.14269555635623e-05
4.2250511635294905e-07,1.1764613821634864e-06,8.726033237437266e-07,3.151514901552376e-05
4.240560804027023e-07,1.1730556016661485e-06,8.803046475560894e-07,3.160456607843669e-05
4.257096933131955e-07,1.1694632237650292e-06,8.883281512256807e-07,3.1693620947112796e-05
4.2744720979230564e-07,1.1657971854414594e-06,8.966635731691618e-07,3.178069993061007e-05
4.292501311678044e-07,1.1621726590486429e-06,9.052909405338213e-07,3.1864214030652656e-05
4.311010350140442e-07,1.1586974743467026e-06,9.141771933790985e-07,3.1942631584984636e-05
4.329830930460274e-07,1.1554632465582829e-06,9.232786911690776e-07,3.2014435876157943e-05
4.348798117787612e-07,1.1525390631315028e-06,9.325466603040728e-07,3.207804291054824e-05
4.367752314486211e-07,1.149969582806588e-06,9.419314441934463e-07,3.213179132903633e-05
4.386534784221461e-07,1.147777599870419e-06,9.513848620264105e-07,3.2174043262591786e-05
4.404976917072216e-07,1.145968831727998e-06,9.608609336252412e-07,3.2203340806340854e-05
4.4228941122281896e-07,1.144535362986993e-06,9.70314239509845e-07,3.2218582126471954e-05
4.4400920467846115e-07,1.1434575089847414e-06,9.796989621912183e-07,3.221918264016186e-05
4.4563831488483866e-07,1.1427072968179222e-06,9.88972539783583e-07,3.2205114520959265e-05
4.471594374737645e-07,1.1422551474288177e-06,9.98100711779423e-07,3.217677122279653e-05
4.485556293418481e-07,1.1420787427361798e-06,1.0070581272907465e-06,3.213472921236867e-05
4.4980906705562257e-07,1.1421705669570636e-06,1.0158237243861259e-06,3.2079501751754087e-05
4.509011120291331e-07,1.1425390450689527e-06,1.0243743733923276e-06,3.2011375994748935e-05
4.518133970548332e-07,1.1432021901601308e-06,1.0326806912178628e-06,3.1930389678863234e-05
4.52528570908089e-07,1.1441789540477137e-06,1.0407058572714957e-06,3.183639870063348e-05
4.530297961317603e-07,1.1454851108628348e-06,1.0484057455272714e-06,3.1729177369219485e-05
4.53300595692725e-07,1.1471345573996849e-06,1.0557294955610556e-06,3.160861343166402e-05
4.533267366192707e-07,1.14913948502367e-06,1.062620984644173e-06,3.147500944963717e-05
4.5309814181278326e-07,1.1515056048356208e-06,1.069021898887904e-06,3.132927008587273e-05
4.5260839469476535e-07,1.1542271478008076e-06,1.0748754313854512e-06,3.1172813755156764e-05
4.5185382878813676e-07,1.157286312712722e-06,1.0801274436763966e-06,3.100732439283413e-05
4.5083409323847206e-07,1.1606551622896325e-06,1.0847247493909371e-06,3.083449717666387e-05
4.4955216705142355e-07,1.1642980444460686e-06,1.088615613048465e-06,3.0655906574008033e-05
4.480134072094035e-07,1.168178250146296e-06,1.0917558554820366e-06,3.0473156305202252e-05
4.4622524843804855e-07,1.1722676368501239e-06,1.094116368487753e-06,3.028821239000104e-05
4.4419684538865737e-07,1.1765505005898912e-06,1.0956860051150172e-06,3.0103565829551216e-05
4.419378896838154e-07,1.18102136484069e-06,1.096468643233671e-06,2.9922117403715943e-05
4.3945746702381726e-07,1.1856815060570896e-06,1.096476230229955e-06,2.9746968430152632e-05
4.3676327249563075e-07,1.1905324602288642e-06,1.0957212676063751e-06,2.958124091890943e-05
4.338615619499652e-07,1.1955673863147163e-06,1.0942134105451478e-06,2.942793745557635e-05
4.307597903465915e-07,1.2007670071783109e-06,1.0919611367482258e-06,2.9289836421539282e-05
4.274721159653772e-07,1.2061015451622034e-06,1.0889743828318458e-06,2.9169413446383003e-05
4.240229425694392e-07,1.2115332191656922e-06,1.0852647185557935e-06,2.9068773194889845e-05
4.204453030387393e-07,1.2170181816696508e-06,1.0808441874391436e-06,2.8989591145881035e-05
4.1677752737700783e-07,1.2225140263092943e-06,1.0757263327340556e-06,2.893307650675968e-05
4.1306053650381203e-07,1.2279909549000686e-06,1.0699300768722556e-06,2.889995256212008e-05
4.093345414171909e-07,1.2334345725698441e-06,1.0634822470340958e-06,2.88904367543398e-05
4.056371571948498e-07,1.2388380956513598e-06,1.0564157948211058e-06,2.8904210296002613e-05
4.0200488665698423e-07,1.244193378804495e-06,1.0487664986135723e-06,2.894041162685167e-05
3.9847432453763e-07,1.249485248129588e-06,1.0405708877938043e-06,2.899771222073612e-05
3.9508197390052924e-07,1.254688078583851e-06,1.0318643797107785e-06,2.907447145169925e-05
3.9186600094199595e-07,1.2597656773988796e-06,1.0226801280194622e-06,2.9168899279188966e-05
3.888674338129195e-07,1.2646750392211712e-06,1.0130510544787883e-06,2.927917261245777e-05
3.86126580183787e-07,1.269370351894986e-06,1.0030133495756593e-06,2.9403520175939137e-05
3.8367790563471326e-07,1.2738053115159262e-06,9.926067356227522e-07,2.954030133926424e-05
3.815477993422244e-07,1.2779393118663354e-06,9.818709274680591e-07,2.9688045960730614e-05
3.7975582405829064e-07,1.2817479872872251e-06,9.7084222492968e-07,2.984542943780211e-05
3.7831804235349507e-07,1.2852249721988494e-06,9.595522133662895e-07,3.0011215159074006e-05
3.7724858962910035e-07,1.2883694088534607e-06,9.480271835649105e-07,3.018417019180628e-05
3.7655765627039256e-07,1.2911735648800148e-06,9.362877475235598e-07,3.0362951125976672e-05
3.762492577119902e-07,1.2936253336691307e-06,9.243490318168501e-07,3.054604535910383e-05
3.7632077031091717e-07,1.295724978071137e-06,9.122212722499409e-07,3.0731812558556337e-05
3.767629541284962e-07,1.2975005173054443e-06,8.999109905683979e-07,3.091853470959918e-05
3.7756040300211275e-07,1.2990038109430795e-06,8.874228039463173e-07,3.11044297801883e-05
3.786932163544189e-07,1.3002910212780443e-06,8.747622490539594e-07,3.1287682953570386e-05
3.801391497410599e-07,1.30140846651035e-06,8.61939445060944e-07,3.146651072597671e-05
3.818743892059143e-07,1.3023900698595283e-06,8.489706199863134e-07,3.1639202588040954e-05
3.8387271934741297e-07,1.3032598700735536e-06,8.358764287188276e-07,3.180408617133136e-05
3.861053192008637e-07,1.3040379085202885e-06,8.226804346149175e-07,3.195944429969256e-05
3.885420337884917e-07,1.3047456163331091e-06,8.094101426454916e-07,3.2103475384339926e-05
3.9115204673826e-07,1.3054054870334056e-06,7.960993686179114e-07,3.2234338085262704e-05
