3.674437881863675e-07,1.3482807853284209e-06,4.354421604645418e-07,2.541378604218425e-05
3.730861431569036e-07,1.3617716006018306e-06,4.337195139689138e-07,2.6015388879685158e-05
3.790667608116908e-07,1.3748006874563892e-06,4.3178315575691137e-07,2.660774453710191e-05
3.8539221872805683e-07,1.3872802181335249e-06,4.2963435755479366e-07,2.7187804663351818e-05
3.9206712403563646e-07,1.3991409662843814e-06,4.2727509731219993e-07,2.7752561718996778e-05
3.9908970413827574e-07,1.4103279776405918e-06,4.247074442978114e-07,2.8299065298847307e-05
4.0645082537793156e-07,1.4207898865008298e-06,4.2193566614146454e-07,2.882449353296156e-05
4.1413410106668025e-07,1.4304785954862031e-06,4.189681057698144e-07,2.9326226003510272e-05
4.2211582912969814e-07,1.4393575491061968e-06,4.1581627870877814e-07,2.980183727516e-05
4.3036623629062146e-07,1.4474031680546473e-06,4.1249241390060294e-07,3.024902752407364e-05
4.3885305963866493e-07,1.4545962584792576e-06,4.090075399356639e-07,3.066559115162195e-05
4.4754476250739715e-07,1.460914405791587e-06,4.053706942494781e-07,3.104946599484736e-05
4.564107306249813e-07,1.466332970443264e-06,4.015897398494926e-07,3.139882690683472e-05
4.654195939324003e-07,1.470832413659e-06,3.976733634415629e-07,3.1712211855738956e-05
4.745367840596509e-07,1.4744038068511053e-06,3.936325786905441e-07,3.198866831082193e-05
4.837224569997222e-07,1.4770472773159616e-06,3.8948144747345656e-07,3.222780850383347e-05
4.929317981474931e-07,1.4787685389237063e-06,3.8523707924859037e-07,3.242969253640786e-05
5.021170047722053e-07,1.4795781659718071e-06,3.809184064584747e-07,3.2594617099202243e-05
5.112286741820262e-07,1.4794934683505732e-06,3.7654411427643116e-07,3.2722926002201306e-05
5.202160865325539e-07,1.4785476121289231e-06,3.7213055140748137e-07,3.2814918014449426e-05
5.29027938672081e-07,1.476804040324577e-06,3.6769088244373023e-07,3.287087342530772e-05
5.376165552671273e-07,1.4743601272400075e-06,3.632361176044789e-07,3.289111669553156e-05
5.459453947600986e-07,1.471332722345092e-06,3.587764243395016e-07,3.2876060785252837e-05
5.539929089268176e-07,1.4678382272107158e-06,3.54321776719774e-07,3.2826365084719455e-05
5.617485564196443e-07,1.4639802653378348e-06,3.4988327777084713e-07,3.2743259964117624e-05
5.692064369807358e-07,1.4598446432064904e-06,3.4547463449659383e-07,3.262875907274417e-05
5.76362184039184e-07,1.4554976274802315e-06,3.411113156326014e-07,3.2485536151677056e-05
5.832124882256357e-07,1.450987214555672e-06,3.3680803281136197e-07,3.2316624215980934e-05
5.897558134905626e-07,1.44634563642259e-06,3.325770998370761e-07,3.212514329743995e-05
5.959943320205722e-07,1.4415904929270682e-06,3.284279901314396e-07,3.191411386718473e-05
6.019347280923689e-07,1.436725025132811e-06,3.243674519043921e-07,3.1686484883075824e-05
6.075857031686932e-07,1.4317391058258282e-06,3.203999123409842e-07,3.1445408790103914e-05
6.129544383650221e-07,1.4266113230083646e-06,3.165278682976138e-07,3.1194461100592854e-05
6.180446129154857e-07,1.4213128838642875e-06,3.127526496650725e-07,3.093759096308393e-05
6.228562700501399e-07,1.415816562228797e-06,3.090757614336385e-07,3.067892467489982e-05
6.273864173628515e-07,1.4101099028876554e-06,3.0550062169668286e-07,3.042257470873654e-05
6.316286573705749e-07,1.4042034227438863e-06,3.020339512440347e-07,3.0172493298030254e-05
6.35572377766578e-07,1.3981282992389714e-06,2.986850072240932e-07,2.9932361338249517e-05
6.39203598930846e-07,1.3919274299423915e-06,2.954631728271178e-07,2.970550552711856e-05
6.42507112416443e-07,1.3856452830802885e-06,2.923766795431067e-07,2.9494851912619458e-05
6.454675174300726e-07,1.379321912910672e-06,2.8943380453831855e-07,2.9302906485327253e-05
6.480685590557517e-07,1.3729938868747816e-06,2.8664515532747103e-07,2.9131734187634045e-05
6.502927401377343e-07,1.3666971126892484e-06,2.840238796981944e-07,2.898292410517943e-05
6.521230688205976e-07,1.3604651049084447e-06,2.8158295932434437e-07,2.88575432664167e-05
6.535456915503047e-07,1.3543228420842624e-06,2.79332202097869e-07,2.8756082073656896e-05
6.545501828993096e-07,1.348282292784638e-06,2.7727733129342197e-07,2.867842428817057e-05
6.551276141008411e-07,1.3423451514567257e-06,2.75421125283917e-07,2.862390202053872e-05
6.552695451343579e-07,1.3365103581248877e-06,2.7376444935697195e-07,2.8591449917115446e-05
6.549687362655058e-07,1.3307788434244358e-06,2.72305856995742e-07,2.857980039575287e-05
6.542202983441316e-07,1.3251531327990344e-06,2.710410431849802e-07,2.858765440485837e-05
6.530232736584529e-07,1.3196361471145665e-06,2.699632367178322e-07,2.861380122334635e-05
6.513826899195646e-07,1.3142328836477488e-06,2.690641850098446e-07,2.8657177567532316e-05
6.49310136898933e-07,1.3089523086433176e-06,2.683352791815669e-07,2.8716864929415986e-05
6.468218776953215e-07,1.30380414189961e-06,2.6776853406934966e-07,2.879205373799636e-05
6.439365531866515e-07,1.298792084992662e-06,2.673577890710234e-07,2.8881998404334803e-05
6.406735859061672e-07,1.2939108751837902e-06,2.6709973680615985e-07,2.8985937091287727e-05
6.370514600779163e-07,1.289148912863117e-06,2.669927812631656e-07,2.9102970541969207e-05
6.330870440224992e-07,1.2844915563800237e-06,2.670344825335298e-07,2.923200019870391e-05
6.287975820060594e-07,1.2799226127499957e-06,2.6722062995735077e-07,2.937178429569141e-05
6.242036985095659e-07,1.2754241586546996e-06,2.675456775757453e-07,2.9521002074858037e-05
6.193303588688483e-07,1.270974007835967e-06,2.680029500208196e-07,2.9678252424312822e-05
6.142054837844939e-07,1.2665428272689136e-06,2.685845678590186e-07,2.9842054676870172e-05
6.088589470650708e-07,1.2620955371641744e-06,2.692807476231355e-07,3.0010888912828557e-05
6.033230083397357e-07,1.257597887983661e-06,2.700787147442781e-07,3.0183218397513025e-05
5.976320381798045e-07,1.2530227302404093e-06,2.7096313611850905e-07,3.0357439840468725e-05
5.918201737518505e-07,1.24835065426024e-06,2.719193550172107e-07,3.0531809873247115e-05
5.859178560485793e-07,1.2435663056988895e-06,2.7293695063621784e-07,3.070448206109819e-05
5.799497499013599e-07,1.2386545131880855e-06,2.740099518703817e-07,3.0873692348621435e-05
5.739359245880793e-07,1.2336011112041936e-06,2.7513580964451256e-07,3.1037943502427554e-05
5.678943228699204e-07,1.2284019845097215e-06,2.7631661580159675e-07,3.119604699034456e-05
5.618421871556046e-07,1.223071717516123e-06,2.7755911064549745e-07,3.134704033614084e-05
5.557986923997765e-07,1.2176404933832869e-06,2.788705603128459e-07,3.1490062491687435e-05
5.497903573807224e-07,1.2121447827197563e-06,2.8025493017843985e-07,3.16242363299355e-05
5.438552941939745e-07,1.2066207331865795e-06,2.817126032009232e-07,3.1748582249952335e-05
5.380414097374769e-07,1.2011014934724238e-06,2.832416087845027e-07,3.1861996450483004e-05
5.323986701295769e-07,1.1956240053176528e-06,2.8483867039659766e-07,3.196329920367071e-05
5.269718168508518e-07,1.1902434080137469e-06,2.864993526765152e-07,3.205129385952415e-05
5.217983395268115e-07,1.185038375396293e-06,2.882173426095039e-07,3.212479640396339e-05
5.16909302374652e-07,1.1801022266304123e-06,2.899855232172789e-07,3.218266654551732e-05
5.123305381975282e-07,1.175528941836883e-06,2.9179859867556405e-07,3.2223938338958115e-05
5.080836222963694e-07,1.17139987756079e-06,2.936528159889598e-07,3.224810123580464e-05
5.041850921734429e-07,1.167775220743647e-06,2.9554318788489244e-07,3.22553185025176e-05
5.006450364481395e-07,1.1646924180231906e-06,2.974625208573552e-07,3.2246323649683845e-05
4.974671240397333e-07,1.1621691604857116e-06,2.9940190654347505e-07,3.222213435912239e-05
4.94649308136186e-07,1.1602087794732705e-06,3.01350463059083e-07,3.2183898168821984e-05
4.921843538453521e-07,1.1588053221268543e-06,3.032951522375874e-07,3.2132874583990634e-05
4.900610562694137e-07,1.157945196277515e-06,3.052216055154676e-07,3.207039753297303e-05
4.882670603325379e-07,1.1576062767218112e-06,3.071152508320568e-07,3.199780518611593e-05
4.867912058506685e-07,1.1577573570115524e-06,3.089615204359149e-07,3.191637292516823e-05
4.856224432766889e-07,1.1583584280736776e-06,3.1074546714138194e-07,3.1827252547239196e-05
4.847469309564819e-07,1.1593611664587766e-06,3.124531275434693e-07,3.173144735649019e-05
4.841464397412564e-07,1.16071253659422e-06,3.140744568250023e-07,3.162983572625138e-05
4.837983377987153e-07,1.162363364481881e-06,3.156044265776637e-07,3.1523194301722006e-05
4.836766866621783e-07,1.1642763814379768e-06,3.170411221336173e-07,3.141219229091568e-05
4.837535597985539e-07,1.1664287974235537e-06,3.1838375648146765e-07,3.129738632573326e-05
4.83999725065103e-07,1.1688102401000422e-06,3.196329340557168e-07,3.1179237013591324e-05
4.843855871068347e-07,1.1714167952246551e-06,3.207916214978349e-07,3.1058137779487106e-05
4.848820563054871e-07,1.1742423041920055e-06,3.218656204607802e-07,3.0934431641322964e-05
4.854600868456286e-07,1.177272717837322e-06,3.228638579134428e-07,3.080839272044537e-05
4.860911544714779e-07,1.1804886707228147e-06,3.2379724372929566e-07,3.0680175032858444e-05
4.86751005237315e-07,1.1838729046435377e-06,3.2467643295603883e-07,3.0549756161892204e-05
4.874232152285504e-07,1.1874140115562107e-06,3.255108722305533e-07,3.041690886151857e-05
4.880979375498798e-07,1.191103787687237e-06,3.263092860230738e-07,3.028121896256568e-05
4.887677352634264e-07,1.194933227972622e-06,3.2708003436954216e-07,3.0142146393965808e-05
4.894262723762306e-07,1.1988916618662206e-06,3.2783078032785613e-07,2.9999104870779522e-05
4.900712794313458e-07,1.202967598413652e-06,3.285683364624352e-07,2.9851525930511682e-05
4.9070795211413e-07,1.2071466481959559e-06,3.2929892935486323e-07,2.969890107966924e-05
4.913495660039437e-07,1.2114073612612596e-06,3.300280255050561e-07,2.9540825965296174e-05
4.920148591907786e-07,1.2157199882121165e-06,3.307593278059553e-07,2.937704211855643e-05
4.927229432326088e-07,1.2200466846895849e-06,3.3149336662214167e-07,2.9207440546514423e-05
4.934883236252228e-07,1.2243403283921767e-06,3.322270926202653e-07,2.9032030580462586e-05
4.943194192720672e-07,1.2285450308200484e-06,3.329557189167493e-07,2.885089555229238e-05
4.952202281058291e-07,1.2326013133082381e-06,3.3367534251672747e-07,2.866413518599524e-05
4.961914734548094e-07,1.2364553202395636e-06,3.3438411569168965e-07,2.8471841245068878e-05
4.972300187362224e-07,1.2400674668408984e-06,3.350825937400567e-07,2.8274135391520282e-05
4.983283225360065e-07,1.2434142821276063e-06,3.3577375470202176e-07,2.807117545900635e-05
4.994753036671128e-07,1.246482444654086e-06,3.364610997269958e-07,2.7863081577506642e-05
5.00658784686752e-07,1.249260010447115e-06,3.371455645973394e-07,2.7649868833302943e-05
5.018677126732693e-07,1.2517296173313362e-06,3.378242331344504e-07,2.743144481526664e-05
5.030922131201538e-07,1.2538656103594723e-06,3.384916750019346e-07,2.720767900953266e-05
5.043234262725281e-07,1.2556363280936968e-06,3.3914214923393146e-07,2.6978525851746524e-05
5.05554718726625e-07,1.257011582358343e-06,3.397706277532377e-07,2.6744099033082167e-05
5.067812658104898e-07,1.2579719550828742e-06,3.4037299283013985e-07,2.650462611394242e-05
5.079969923100643e-07,1.2585130118867005e-06,3.409469934227546e-07,2.626034081466989e-05
5.091921327353673e-07,1.2586405858975105e-06,3.4149241101006e-07,2.601140535764581e-05
5.103529104509728e-07,1.258365434586135e-06,3.4200886847394553e-07,2.5757940803233052e-05
5.114621803584105e-07,1.2577047602560794e-06,3.424936117565576e-07,2.5500185190476445e-05
5.125001238915971e-07,1.256681874980643e-06,3.429409535684453e-07,2.523866196556336e-05
5.134451689767346e-07,1.2553180374620374e-06,3.433426298235866e-07,2.4974201303034915e-05
5.142754693834483e-07,1.2536272698696986e-06,3.4368857682101013e-07,2.4707798089620472e-05
5.149704006321096e-07,1.251624910327256e-06,3.4396763791206176e-07,2.444041798391616e-05
5.155116449735995e-07,1.249345448683447e-06,3.4416771953806585e-07,2.4172870545452028e-05
5.158836476194485e-07,1.246853343105211e-06,3.442761652151129e-07,2.390578341709766e-05
5.16072815007834e-07,1.2442379618940054e-06,3.442810087564324e-07,2.36396240946657e-05
5.160665415491204e-07,1.241600460407438e-06,3.441723007450792e-07,2.337475098048134e-05
5.158543721383069e-07,1.2390422546499213e-06,3.4394268238655586e-07,2.311156049075683e-05
5.154305136409695e-07,1.2366582663447004e-06,3.435872901927573e-07,2.2850756974272408e-05
5.147941648800818e-07,1.2345333990650415e-06,3.431030433713482e-07,2.259358076822391e-05
5.139473288236594e-07,1.2327382173423306e-06,3.424875688672516e-07,2.2341784876019712e-05
5.128932138242928e-07,1.2313250379201e-06,3.417387756030224e-07,2.2097410261261133e-05
5.116360798581522e-07,1.2303271488662944e-06,3.408556325346195e-07,2.1862556591151723e-05
5.101814990468704e-07,1.2297586639082113e-06,3.398393768855305e-07,2.1639224833009602e-05
5.085365584055653e-07,1.2296147833963462e-06,3.386941811639619e-07,2.1429269836506988e-05
5.067096169116467e-07,1.2298746525740281e-06,3.3742719094933944e-07,2.1234536837102407e-05
5.047096976982586e-07,1.230506334586185e-06,3.3604780857814365e-07,2.105707784821001e-05
5.025462700670827e-07,1.231472889805957e-06,3.345661662443143e-07,2.0899209888620824e-05
5.002297530310021e-07,1.2327379294142166e-06,3.329915951831016e-07,2.0763396825845252e-05
4.977712986061802e-07,1.234269502501728e-06,3.313315617952664e-07,2.0652104275341056e-05
4.951812404139689e-07,1.236042338033856e-06,3.295910648066871e-07,2.056767803608781e-05
4.924679651238623e-07,1.2380360334819503e-06,3.27772640763202e-07,2.0512232994739238e-05
4.896376095523746e-07,1.2402301039166851e-06,3.2587693379430424e-07,2.048756396964952e-05
4.866941900139965e-07,1.2426036669742672e-06,3.23903977001345e-07,2.049508695182164e-05
4.836408631137716e-07,1.2451408924905314e-06,3.218548260087368e-07,2.053581297795753e-05
4.804814755593947e-07,1.247832298512053e-06,3.19731831378319e-07,2.061035153478313e-05
4.772206754272505e-07,1.2506673237482669e-06,3.175374308251216e-07,2.071889885707937e-05
4.738634926896442e-07,1.253626349189631e-06,3.1527355818982213e-07,2.0861175871547898e-05
4.704157613172708e-07,1.2566787854038026e-06,3.1294251173122824e-07,2.1036360201273454e-05
4.668839339986658e-07,1.25978425699197e-06,3.105482810046592e-07,2.124306966972787e-05
4.6327342400769643e-07,1.2628955543042572e-06,3.0809656110644285e-07,2.147941575739125e-05
4.595874726549964e-07,1.2659668914890534e-06,3.0559358081703966e-07,2.1743132925112715e-05
4.55827472375695e-07,1.268963928310292e-06,3.03046094597069e-07,2.2031749368007747e-05
4.5199359935218327e-07,1.2718667868091414e-06,3.0046190278782873e-07,2.23427275884981e-05
4.4808559465961435e-07,1.2746659632656549e-06,2.978489052390566e-07,2.2673555873024854e-05
4.4410407757051743e-07,1.2773561840588494e-06,2.952138226530969e-07,2.302182261663035e-05
4.400511248951808e-07,1.279929588467505e-06,2.925620262772121e-07,2.3385270592355482e-05
4.3592898158215274e-07,1.2823700303520772e-06,2.8989876452867777e-07,2.376179071401883e-05
4.317384408661602e-07,1.2846508946589346e-06,2.872313804844962e-07,2.414934299761075e-05
4.274791866558869e-07,1.286736367273124e-06,2.845704943353404e-07,2.4545845748120364e-05
4.2315169714905423e-07,1.288585061775455e-06,2.819286561224622e-07,2.4949092174396545e-05
4.1875784340153256e-07,1.2901552421545666e-06,2.793178601751317e-07,2.535674041399747e-05
4.142996151536554e-07,1.291414487079332e-06,2.767485241104749e-07,2.5766383612164214e-05
4.0977868983179283e-07,1.2923525973166599e-06,2.742305608111187e-07,2.617563794651319e-05
4.0519706879459897e-07,1.2929845322869758e-06,2.717743163988005e-07,2.6582176752813544e-05
4.005569665893146e-07,1.2933380786968132e-06,2.6938946837963125e-07,2.6983714410161104e-05
3.958606911553699e-07,1.293439625055877e-06,2.6708315160534674e-07,2.7378001681105885e-05
3.911119106556845e-07,1.2933083408406469e-06,2.648593970616393e-07,2.776286598948871e-05
3.863175950935747e-07,1.2929548547714404e-06,2.627200246723583e-07,2.8136233298204865e-05
3.8148844410524716e-07,1.292379503733184e-06,2.606666572835506e-07,2.8496062235808862e-05
3.766370200525168e-07,1.2915721822017937e-06,2.5870332060887707e-07,2.8840262780166454e-05
3.717754832216649e-07,1.2905143160719142e-06,2.568380773192749e-07,2.9166719013877227e-05
3.669148340166842e-07,1.2891802131356851e-06,2.5508316636002514e-07,2.947341030956681e-05
3.620656185910518e-07,1.2875399400835952e-06,2.534545033622818e-07,2.9758564794604804e-05
3.5723883630768154e-07,1.2855663928688308e-06,2.5197188495048056e-07,3.0020819682593933e-05
3.524470185106001e-07,1.283241404753738e-06,2.506596746585877e-07,3.025931705972597e-05
3.477058857045153e-07,1.2805542677036422e-06,2.495448105527226e-07,3.0473632383159985e-05
3.430343963815065e-07,1.2774957101516044e-06,2.486520226743848e-07,3.066357607239372e-05
3.384519720581243e-07,1.2740590721455008e-06,2.480007127292203e-07,3.082900080393365e-05
3.339758703708322e-07,1.2702540497008757e-06,2.47604795062267e-07,3.0969679531906345e-05
3.2962142198925325e-07,1.2661194933061896e-06,2.474728949002519e-07,3.108527195295486e-05
3.254042207731989e-07,1.261717548686639e-06,2.476084427878042e-07,3.117536981258781e-05
3.2134136375680214e-07,1.2571139424266329e-06,2.480109927822677e-07,3.123955707026624e-05
3.1745085499650605e-07,1.252363941993053e-06,2.4867763425968343e-07,3.1277480749010885e-05
3.1375193313796074e-07,1.2475099743503886e-06,2.496031714630091e-07,3.1289052753869346e-05
3.1026672865225325e-07,1.2425838126836315e-06,2.507800625443707e-07,3.127475319274557e-05
3.070188818791223e-07,1.2376088615740534e-06,2.52198891138742e-07,3.12357578564549e-05
3.0402885024433524e-07,1.2326005660898355e-06,2.538500180022279e-07,3.1173782101952945e-05
3.013113463239202e-07,1.227564381276784e-06,2.5572657848745195e-07,3.1090825547500514e-05
2.9887642700733234e-07,1.2224960519208929e-06,2.578264109501838e-07,3.098896455093466e-05
2.9673047130351853e-07,1.2173871275788024e-06,2.6015154681453045e-07,3.087026587536553e-05
2.9487553559770277e-07,1.2122301291997163e-06,2.627067785388964e-07,3.073691551737071e-05
2.9330888098134843e-07,1.2070181989322296e-06,2.6549741060597226e-07,3.0591452111616285e-05
2.9202332876678324e-07,1.2017417787220577e-06,2.685262339083037e-07,3.0436824993846917e-05
2.910080735735633e-07,1.1963866700396255e-06,2.7179221072277067e-07,3.0276246616758918e-05
2.902496829266993e-07,1.1909359908780303e-06,2.7529212682181144e-07,3.011301225187684e-05
2.897327013934409e-07,1.1853749268940405e-06,2.7902372326411416e-07,2.995035589995128e-05
2.894406761174927e-07,1.1796917995709372e-06,2.8298679575065324e-07,2.9791337979295013e-05
2.893586325252085e-07,1.1738736657831279e-06,2.871803445464672e-07,2.9638766639494617e-05
2.894753551158061e-07,1.167902558209899e-06,2.915995608664746e-07,2.9495144268026814e-05
2.897851640071435e-07,1.161755821174664e-06,2.962358074793509e-07,2.9362635414555653e-05
2.902916303696167e-07,1.1554088372648748e-06,3.010773057634881e-07,2.9243062167519983e-05
2.9101016418883056e-07,1.1488375699475748e-06,3.061100662783796e-07,2.9137917199561156e-05
2.919634084312693e-07,1.1420202423767314e-06,3.1132096430474585e-07,2.9048366230762568e-05
2.9317329977353227e-07,1.134938219402779e-06,3.167000705846873e-07,2.897522885152193e-05
2.9465742980112917e-07,1.127576607653335e-06,3.222386365983944e-07,2.8918944029874248e-05
2.9642851193310517e-07,1.1199279730423629e-06,3.279247743686225e-07,2.8879525592413422e-05
2.9849431920725024e-07,1.1119988667707551e-06,3.337406058910739e-07,2.8856554439139917e-05
3.0085928674306157e-07,1.1038119750675372e-06,3.396620060756144e-07,2.884926438050932e-05
3.0352588892993543e-07,1.0954011894447608e-06,3.456599195175103e-07,2.8856679400092103e-05
3.064932559361063e-07,1.086804663811776e-06,3.517019359805584e-07,2.887772237043548e-05
3.0975519555220214e-07,1.0780597130540824e-06,3.5775377476092036e-07,2.891129236720901e-05
3.132999448560551e-07,1.069199638634868e-06,3.6378063043705603e-07,2.89563313524964e-05
3.1711116445748594e-07,1.0602531274683895e-06,3.6974803159621685e-07,2.9011862625881432e-05
3.211690043047418e-07,1.0512462442780515e-06,3.7562288750236366e-07,2.907698119407269e-05
3.2545054103583145e-07,1.0422030091949702e-06,3.8137567289097094e-07,2.915080407004081e-05
3.299299612400628e-07,1.0331424769935646e-06,3.86982179000585e-07,2.9232389195765728e-05
3.345801008227177e-07,1.0240768366493445e-06,3.9242241566463974e-07,2.9320635787553773e-05
3.3937566448686e-07,1.0150151005640949e-06,3.976777830446654e-07,2.941422985420473e-05
3.4429487952604646e-07,1.005971320848465e-06,4.0272946982196e-07,2.9511664656997774e-05
3.493174728093154e-07,9.969725607608043e-07,4.0755918555238045e-07,2.961127588567172e-05
3.544219146765097e-07,9.880625961567809e-07,4.121515182023511e-07,2.971126881666372e-05
3.595847013549697e-07,9.792987668154946e-07,4.164954494948694e-07,2.9809770591309247e-05
3.6478133983855965e-07,9.707422774122264e-07,4.205839673460348e-07,2.9904912759225e-05
3.69988206837481e-07,9.624477327240222e-07,4.244135227240581e-07,2.999489376467183e-05
3.7518375533742454e-07,9.54457561424898e-07,4.2798281946256756e-07,3.007796542834821e-05
3.803473104372451e-07,9.468033211796801e-07,4.3129007103724927e-07,3.015238523919837e-05
3.8545646951916964e-07,9.395133046990893e-07,4.3433155088463423e-07,3.02164274605614e-05
3.90486163935536e-07,9.326213565315302e-07,4.371028746256078e-07,3.0268463458267297e-05
3.9541120530605995e-07,9.261737196773594e-07,4.396008075399398e-07,3.0307068996930493e-05
4.0021048469373954e-07,9.202354003707405e-07,4.418241826422221e-07,3.0331164077010657e-05
4.048686945468158e-07,9.148896767340479e-07,4.437746010469781e-07,3.0340170455650897e-05
4.093746586697777e-07,9.102235099021305e-07,4.454569270659524e-07,3.033406023097765e-05
4.137197270810713e-07,9.063092927791773e-07,4.468782759215351e-07,3.031320325424021e-05
4.1789895902116533e-07,9.031992381469627e-07,4.4804617193119327e-07,3.027809770318233e-05
4.2191325796343344e-07,9.009367443556705e-07,4.489680771475852e-07,3.022915479861101e-05
4.25768714087157e-07,8.995745912059645e-07,4.4965128016882573e-07,3.0166624554429718e-05
4.2947318754997994e-07,8.991828125648985e-07,4.5010166353486386e-07,3.0090609748306206e-05
4.3303313188846417e-07,8.998416586574341e-07,4.503230985010249e-07,3.0001085572507813e-05
4.364520790691492e-07,9.016291599340479e-07,4.503179491921008e-07,2.989795152965996e-05
4.397302928948836e-07,9.046103923303608e-07,4.500877710168625e-07,2.9781238872981628e-05
4.428649891843128e-07,9.088308405646841e-07,4.496347799288287e-07,2.965142498936426e-05
4.4585125991042844e-07,9.143153176082672e-07,4.489631458531497e-07,2.9509565165104798e-05
4.486832907202714e-07,9.21071383711208e-07,4.48078513104305e-07,2.9357134334841865e-05
4.513557791314105e-07,9.290922797982428e-07,4.4698730039463435e-07,2.919576783234015e-05
4.538673277380309e-07,9.383558824668879e-07,4.4569689698016825e-07,2.902704765332912e-05
4.5622457797258035e-07,9.488222317268566e-07,4.4421520582407906e-07,2.8852411323116186e-05
4.584429767516883e-07,9.604324793642378e-07,4.425496740808832e-07,2.8673307440074732e-05
4.6054396926437996e-07,9.731096352784442e-07,4.4070795141269426e-07,2.849153137678628e-05
4.625509965137595e-07,9.867607107993122e-07,4.386995458800355e-07,2.8309420470281866e-05
4.644863543872519e-07,1.0012790688889292e-06,4.3653533811912316e-07,2.8129766018796332e-05
4.6637079280471203e-07,1.0165480192123685e-06,4.3422519316889104e-07,2.7955608122600347e-05
4.6822469393781844e-07,1.0324482143189344e-06,4.3177682126145284e-07,2.7790063105197645e-05
4.7006795863295117e-07,1.0488663703375407e-06,4.291961619340376e-07,2.763618738512761e-05
4.719180853372513e-07,1.0656982905076376e-06,4.2648760414263293e-07,2.749684693086841e-05
4.737873992304243e-07,1.0828450786271058e-06,4.236542455530676e-07,2.7374607020713323e-05
4.7568123960722726e-07,1.1002101976090047e-06,4.206990480982407e-07,2.7271669864133083e-05
4.775986761334518e-07,1.1177000296236586e-06,4.176265292377315e-07,2.718983560525296e-05
4.795347177961278e-07,1.13522199735039e-06,4.14444155048566e-07,2.7130441143239545e-05
4.814820119649294e-07,1.1526800269221785e-06,4.1116224273311063e-07,2.7094283117868906e-05
4.834320042479806e-07,1.1699726972663224e-06,4.077924324435481e-07,2.708156921541177e-05
4.85377933503654e-07,1.1869946115540731e-06,4.0434701750998617e-07,2.709192053862532e-05
4.873200971486268e-07,1.203640729219242e-06,4.0083945250480215e-07,2.71244321199309e-05
4.892684077280048e-07,1.219814740021179e-06,3.972842209791638e-07,2.717780348414135e-05
4.912389236743136e-07,1.2354354342530277e-06,3.936962263525613e-07,2.725052341414672e-05
4.932479974618585e-07,1.2504332317731957e-06,3.900908661124369e-07,2.734104731080568e-05
4.953085975658474e-07,1.2647412638144256e-06,3.8648429540821707e-07,2.7447911643244456e-05
4.974297991709535e-07,1.278290613336701e-06,3.828922473165317e-07,2.756978795868813e-05
4.996173098301289e-07,1.291010959891178e-06,3.7932813468447563e-07,2.7705496891204608e-05
5.018724791930999e-07,1.3028329104116205e-06,3.758034503098808e-07,2.785397510415577e-05
5.041908845404718e-07,1.313690125310808e-06,3.72329646126001e-07,2.801420445113441e-05
5.06562869254151e-07,1.323522091889406e-06,3.689184292561672e-07,2.818514221682732e-05
5.089749318102084e-07,1.3322796377949136e-06,3.655815377621817e-07,2.8365651396605767e-05
5.114102951798325e-07,1.3399321843512016e-06,3.623318556170153e-07,2.855442132325379e-05
5.138495068570854e-07,1.346470572140275e-06,3.59184376797768e-07,2.8749958386456623e-05
5.162711550782536e-07,1.3519012324007073e-06,3.5615483113569867e-07,2.895067741419541e-05
5.186519009162118e-07,1.3562356464673754e-06,3.5325676864648964e-07,2.9154970296583893e-05
5.209666826233264e-07,1.3594821206048586e-06,3.505008389186947e-07,2.936119887125335e-05
5.231893821339852e-07,1.3616428228467442e-06,3.478982540506447e-07,2.9567696596757643e-05
5.252932030812564e-07,1.3627157775163914e-06,3.4546542732102185e-07,2.977282520574132e-05
5.272510972767924e-07,1.3627019494622202e-06,3.43224590981694e-07,2.997503475363519e-05
5.290364023861993e-07,1.3616142455758517e-06,3.411992360791738e-07,3.0172844865625172e-05
5.306234485821641e-07,1.3594813047689418e-06,3.394091302161259e-07,3.0364745180779986e-05
5.319894268925671e-07,1.3563443649067291e-06,3.378687988004087e-07,3.0549108792284604e-05
5.331178552103014e-07,1.3522519970439405e-06,3.3658810036137254e-07,3.0724208938649835e-05
5.340004481060358e-07,1.3472601479745063e-06,3.355729404386017e-07,3.0888362861397525e-05
5.346350549201464e-07,1.3414418286777315e-06,3.348258133633007e-07,3.104015381447195e-05
5.350214523503157e-07,1.3348951948829963e-06,3.343461073232541e-07,3.117862254681956e-05
5.351581049994164e-07,1.3277379247734378e-06,3.3413072428006675e-07,3.1303312041760915e-05
5.35041220363739e-07,1.3200978197848983e-06,3.3417476190060904e-07,3.141413647737293e-05
5.346651074946015e-07,1.3121083224643994e-06,3.344715735319889e-07,3.15111510747716e-05
5.340225565671719e-07,1.3039004525320342e-06,3.3501286570020873e-07,3.159433679030065e-05
5.33105106916744e-07,1.2955904647285534e-06,3.357888478786841e-07,3.166350267940799e-05
5.319034375306414e-07,1.2872737186757856e-06,3.367873650743791e-07,3.171831595863699e-05
5.304084509001377e-07,1.279027737358954e-06,3.379927154997703e-07,3.17583554438237e-05
5.286136711517066e-07,1.2709176024498517e-06,3.393863382117468e-07,3.178314700240911e-05
5.265171204152408e-07,1.2629972477950917e-06,3.4094894408835843e-07,3.179230573794334e-05
5.241199194678432e-07,1.2553091413958578e-06,3.4266154408288425e-07,3.178584083363927e-05
5.214234012821513e-07,1.2478862195791012e-06,3.445047448769253e-07,3.176440501942824e-05
5.184288585985218e-07,1.240752350684965e-06,3.4645732056412417e-07,3.1729270750733344e-05
5.151399621778029e-07,1.2339199581570604e-06,3.484951418274424e-07,3.168210332372683e-05
5.115644739593767e-07,1.2273897798481142e-06,3.505913520019923e-07,3.1624687878789615e-05
5.077133446948446e-07,1.221154904937278e-06,3.52717719397187e-07,3.155870895938029e-05
5.035998533944424e-07,1.2152075177738549e-06,3.548461663731994e-07,3.1485760857249194e-05
4.992417838766092e-07,1.2095444923581351e-06,3.5694973556181797e-07,3.1407623110772526e-05
4.946630832394212e-07,1.204166680910403e-06,3.5900311329762455e-07,3.1326481614523874e-05
4.898921117579704e-07,1.1990720228157057e-06,3.609833893390378e-07,3.124488159963792e-05
4.849604400157733e-07,1.1942488643975995e-06,3.6287099334777883e-07,3.116555250891733e-05
4.799021367125528e-07,1.1896747975906252e-06,3.6464965806690973e-07,3.1091251879166305e-05
4.747501301713422e-07,1.1853196570718004e-06,3.663059363604087e-07,3.1024634489067365e-05
4.6953263494401295e-07,1.1811482410873905e-06,3.6782982998458633e-07,3.096813762601079e-05
4.6427246302294104e-07,1.1771216453846694e-06,3.6921496888051656e-07,3.092389562518974e-05
4.589872263939142e-07,1.1731986201321413e-06,3.7045655224681247e-07,3.089368469665696e-05
4.536895179903528e-07,1.169337028324606e-06,3.71548990363269e-07,3.087889639866192e-05
4.4838847743545274e-07,1.1654939971134571e-06,3.724849761267888e-07,3.0880541526087545e-05
4.430940109301704e-07,1.1616250959281742e-06,3.7325548538001924e-07,3.08992607978773e-05
4.3782246494061355e-07,1.1576843776484443e-06,3.7385030432947704e-07,3.0935314456455376e-05
4.325998984055586e-07,1.1536249079642838e-06,3.742589172042749e-07,3.098854533401759e-05
4.2746060184534936e-07,1.1493995261660112e-06,3.7447211454695076e-07,3.1058333515657454e-05
4.2244298080116725e-07,1.144964453594383e-06,3.744843306474336e-07,3.1143607426899425e-05
4.175867945966072e-07,1.14028432342645e-06,3.742944373959712e-07,3.124297014548431e-05
4.1293192276056535e-07,1.135332444876663e-06,3.7390401062480477e-07,3.135488587045019e-05
4.0851578331047676e-07,1.130087146690186e-06,3.733156826352903e-07,3.147781692566118e-05
4.043704034976903e-07,1.1245297060326817e-06,3.7253293050793046e-07,3.1610296639736426e-05
4.005221183559619e-07,1.118643216163725e-06,3.7155975523432863e-07,3.175098733895523e-05
3.969926823109453e-07,1.1124120007986824e-06,3.703998240895886e-07,3.189872647399697e-05
3.937990885035201e-07,1.1058237962192653e-06,3.690566147458954e-07,3.205253556705844e-05
3.9095254395221184e-07,1.0988718071747112e-06,3.675352747600592e-07,3.221158253620576e-05
3.8845834820379747e-07,1.0915556406174956e-06,3.6584434768647864e-07,3.237508484428787e-05
3.8631629454011997e-07,1.0838851239769257e-06,3.6399560452897273e-07,3.2542163641575647e-05
3.8452087777319884e-07,1.075884281325017e-06,3.620033770965757e-07,3.271174243963736e-05
3.8306263341217853e-07,1.067588390199391e-06,3.598843038758812e-07,3.2882570844531524e-05
3.8193074837998157e-07,1.0590352220915912e-06,3.576562366892004e-07,3.305330815056959e-05
3.811139286570196e-07,1.0502584151087228e-06,3.553368722954565e-07,3.3222570252682316e-05
3.8059855652626793e-07,1.0412876265730111e-06,3.5294319854603867e-07,3.338894980780015e-05
3.8036729461359907e-07,1.0321524040893528e-06,3.5049109985280963e-07,3.3551053270483305e-05
3.80399842890713e-07,1.0228831545595579e-06,3.479952544710207e-07,3.3707534907845856e-05
3.8067446760091406e-07,1.013507917553847e-06,3.454698518137048e-07,3.3857061641438344e-05
3.811692323140341e-07,1.0040499033091688e-06,3.429290295573763e-07,3.399820729149265e-05
3.818627427179738e-07,9.945271353172638e-07,3.403860061726437e-07,3.412938319804362e-05
3.8273475594114146e-07,9.84951629662083e-07,3.378515215651105e-07,3.42488862920162e-05
3.837670469493524e-07,9.75331069528249e-07,3.35333084632768e-07,3.435502853545669e-05
3.849432861305464e-07,9.656790107157952e-07,3.328358284857008e-07,3.44462960800448e-05
3.862474485894223e-07,9.560289735091729e-07,3.303640806866415e-07,3.452152098526626e-05
3.8766267501093025e-07,9.464383289399359e-07,3.279221444107367e-07,3.4579987400673996e-05
3.891712011570414e-07,9.369810799838604e-07,3.2551372351451297e-07,3.4621373433566025e-05
3.9075409845977776e-07,9.277426753320541e-07,3.231406430768998e-07,3.4645552492823326e-05
3.9239077906780954e-07,9.188187148331459e-07,3.208024309164928e-07,3.4652382576209414e-05
3.940591623853913e-07,9.103090566820463e-07,3.184977710940121e-07,3.4641595266755466e-05
3.957359304269842e-07,9.023074456362148e-07,3.16226470621702e-07,3.461279412140788e-05
3.973963785386208e-07,8.94893836922447e-07,3.1399032487405767e-07,3.45654935784163e-05
3.9901528931311864e-07,8.881318841987103e-07,3.117934923533248e-07,3.4499173859477985e-05
4.005697339383177e-07,8.820691387450348e-07,3.0964242195670207e-07,3.4413441392478697e-05
4.020422933098138e-07,8.767384613582672e-07,3.075447450452068e-07,3.430833998780553e-05
4.0342180027502203e-07,8.721595562874365e-07,3.0550832834549744e-07,3.4184598471866536e-05
4.047012242263156e-07,8.683403096476309e-07,3.0354038158953407e-07,3.404357473931494e-05
4.0587608981986133e-07,8.652797721505512e-07,3.016458418346255e-07,3.388698319981367e-05
4.0694477518402063e-07,8.62971284017511e-07,2.9982727161152746e-07,3.371662130437769e-05
4.0790854294887406e-07,8.614016085640768e-07,2.9808680290991576e-07,3.353420406486829e-05
4.0877051279938134e-07,8.605489477875639e-07,2.9642717031030514e-07,3.334141702874204e-05
4.095350273329925e-07,8.60385373708209e-07,2.9485176703190013e-07,3.3140200882426725e-05
4.10208483414106e-07,8.608805281333849e-07,2.933649905023464e-07,3.293299548281607e-05
4.108003197615693e-07,8.620016650551384e-07,2.91971183577356e-07,3.2722697963223346e-05
4.1132265068586437e-07,8.637114842280136e-07,2.9067273507993944e-07,3.2512442552131764e-05
4.1178897977438273e-07,8.659669538445722e-07,2.894703416212408e-07,3.230541019708587e-05
4.122128964975563e-07,8.687202066829139e-07,2.8836399604916964e-07,3.21047042053095e-05
4.126078086037944e-07,8.719197035582689e-07,2.873521556108974e-07,3.1913249605213185e-05
4.129876854918289e-07,8.755105483323195e-07,2.8643119158210723e-07,3.173370461797737e-05
4.1336862533595353e-07,8.794366382571699e-07,2.855968873377833e-07,3.156839913084224e-05
4.1377183491342076e-07,8.836451079976978e-07,2.8484553350141567e-07,3.141931643202762e-05
4.1422543287081093e-07,8.880884210821932e-07,2.841731930814405e-07,3.128809510308879e-05
4.147617561024143e-07,8.927215070340469e-07,2.83575842055622e-07,3.117599427941137e-05
4.154117731113351e-07,8.974986098467129e-07,2.8305230176167e-07,3.1083807965248966e-05
4.1620076094679594e-07,9.023749748285044e-07,2.826068574707715e-07,3.10117799253458e-05
4.171472161138892e-07,9.073101339651406e-07,2.8224773637363785e-07,3.0959584384133836e-05
4.182648890982585e-07,9.122682526818315e-07,2.819830133073113e-07,3.0926411532936575e-05
4.195661862446683e-07,9.172179329756741e-07,2.818181948849603e-07,3.091114464931181e-05
4.2106314621242794e-07,9.22132877848629e-07,2.8175738600351725e-07,3.0912551910117304e-05
4.2276506674560686e-07,9.269909096858034e-07,2.8180662187050426e-07,3.092941095750333e-05
4.246766165684882e-07,9.317720479754431e-07,2.819750527465913e-07,3.0960560781819576e-05
4.2679863336595783e-07,9.364570826306228e-07,2.8227271896104486e-07,3.1004928990368684e-05
4.2913042028767205e-07,9.410263436827984e-07,2.827092550386562e-07,3.10615509664259e-05
4.3167350065481215e-07,9.454613805910387e-07,2.832945511434364e-07,3.112956032376914e-05
4.3443568281041574e-07,9.497506414070776e-07,2.840382203506885e-07,3.1208142050286264e-05
4.374304624248805e-07,9.53892232648463e-07,2.849481480635396e-07,3.129645731693866e-05
4.4067157732190115e-07,9.578880902413565e-07,2.860300614109849e-07,3.1393556567432186e-05
4.4416888297430315e-07,9.617350409453357e-07,2.872875825574291e-07,3.1498331312107756e-05
4.4792739254684667e-07,9.654221835341256e-07,2.887217031310522e-07,3.160954766857092e-05
4.519464418113554e-07,9.689369995548201e-07,2.903301076899497e-07,3.172591691960971e-05
4.5621833997425174e-07,9.722735089912035e-07,2.9210712448773606e-07,3.184613886090806e-05
4.6072818614864243e-07,9.754334432946757e-07,2.9404434010563694e-07,3.196891747725501e-05
4.6545564506602174e-07,9.784213629334778e-07,2.961313918437936e-07,3.209297814624281e-05
4.7037877965096883e-07,9.812419394506675e-07,2.983560181195845e-07,3.221709221955165e-05
4.7547836480723724e-07,9.838996491292535e-07,3.007031649265755e-07,3.234005302943916e-05
4.807395060775199e-07,9.863957006841615e-07,3.0315421999940053e-07,3.246056499286979e-05
4.861508731721443e-07,9.887236596912017e-07,3.0568735936407306e-07,3.257713781226488e-05
4.917039259490897e-07,9.908701361885417e-07,3.082789284554845e-07,3.268810187965644e-05
4.97391225142226e-07,9.928234163998043e-07,3.1090447958060906e-07,3.2791746287382645e-05
5.032035631313569e-07,9.94586071217182e-07,3.135385924876343e-07,3.288652345245549e-05
5.091283490768683e-07,9.961835744164749e-07,3.161546772183893e-07,3.297127305199557e-05
5.151492919166325e-07,9.976624822671009e-07,3.187255487685678e-07,3.3045373747763234e-05
5.212465444328337e-07,9.990791814003434e-07,3.2122399893378136e-07,3.310870702185488e-05
5.273981750973958e-07,1.0004873125535707e-06,3.236231621317e-07,3.3161429531321084e-05
5.335814932014242e-07,1.0019300904293851e-06,3.258970456808407e-07,3.3203683587699454e-05
5.397727836351756e-07,1.0034418750729869e-06,3.280212023238864e-07,3.3235397440085545e-05
5.459478937986068e-07,1.0050627915948049e-06,3.299735764880351e-07,3.325623226211991e-05
5.52083652045889e-07,1.006855635527756e-06,3.317349599789191e-07,3.32656135045295e-05
5.581574766142668e-07,1.0089051258283504e-06,3.3328852119625465e-07,3.326278200519041e-05
5.641469718396853e-07,1.0112994194389787e-06,3.346196913411161e-07,3.324691492614643e-05
5.70031256479607e-07,1.0141115507343106e-06,3.3571738787131054e-07,3.321741725074908e-05
5.757909091891047e-07,1.0173904605136595e-06,3.365755906604562e-07,3.31742649252062e-05
5.814054739245063e-07,1.0211603906795442e-06,3.371936740489198e-07,3.3118094800208445e-05
5.868519182687998e-07,1.0254246519032024e-06,3.375751190495869e-07,3.3050011338157596e-05
5.921056994137292e-07,1.0301696062605265e-06,3.3772615023739316e-07,3.297134209315212e-05
5.971424381452635e-07,1.035367708516972e-06,3.3765498265341056e-07,3.2883454510782496e-05
6.019387032876328e-07,1.0409797772955788e-06,3.373710583282887e-07,3.278770045523936e-05
6.064725167019835e-07,1.0469563167490823e-06,3.368851778021707e-07,3.268558263968575e-05
6.107238794569945e-07,1.0532389125730244e-06,3.362112452933804e-07,3.257899147137856e-05
6.146760209838115e-07,1.0597617651180558e-06,3.353676072909989e-07,3.247023053894585e-05
6.183174477475392e-07,1.066453219986402e-06,3.343755727788499e-07,3.236182982621216e-05
6.216417605617363e-07,1.0732384719451796e-06,3.332557862658443e-07,3.225634242677448e-05
6.246457654139406e-07,1.0800427293972114e-06,3.3202563183123734e-07,3.2156214928606015e-05
6.273298972855613e-07,1.0867934678581164e-06,3.3069904846598353e-07,3.206370728843649e-05
6.296994333674758e-07,1.0934226999176523e-06,3.2928713510840025e-07,3.198083361098087e-05
6.317637938253524e-07,1.0998704250342631e-06,3.277984574574976e-07,3.190932616528418e-05
6.335362700940613e-07,1.1060883899701712e-06,3.262400986905261e-07,3.1850630541855594e-05
6.350350648369843e-07,1.1120404102844669e-06,3.2461966805059123e-07,3.1805920652356344e-05
6.362815904128112e-07,1.117696597489635e-06,3.2294615481889964e-07,3.177610054092837e-05
6.372949839352585e-07,1.123025725531477e-06,3.212291914142207e-07,3.176177071516236e-05
6.380879293201036e-07,1.1279928906161052e-06,3.194787850116764e-07,3.1763176493573914e-05
6.386668308784282e-07,1.1325643380675257e-06,3.177056089775708e-07,3.178015504065757e-05
6.390345129884904e-07,1.1367141968069089e-06,3.159213144358497e-07,3.181209372463464e-05
6.391934145200271e-07,1.1404258416140895e-06,3.141402093950268e-07,3.1857958539876565e-05
6.391475575530283e-07,1.1436871021204053e-06,3.123825171840005e-07,3.1916421906050004e-05
6.389014005484982e-07,1.1464854327986522e-06,3.106774760009892e-07,3.19860137074388e-05
6.384571875083382e-07,1.1488062549788117e-06,3.0906358976669085e-07,3.206522842807827e-05
6.378143049719482e-07,1.150633549406232e-06,3.075840640907488e-07,3.215260278063387e-05
6.36969797985299e-07,1.1519522153091477e-06,3.062794974913284e-07,3.224677274878991e-05
6.359179050158955e-07,1.15274928268967e-06,3.0518244585156215e-07,3.234648174758857e-05
6.346500453367106e-07,1.153011811482115e-06,3.043160429634029e-07,3.2450540289876026e-05
6.331562616607238e-07,1.1527251568337978e-06,3.0369508184134634e-07,3.255777802567502e-05
6.314265775262171e-07,1.15187376343969e-06,3.0332799559045845e-07,3.266699981759472e-05
6.294516204822328e-07,1.1504415721155205e-06,3.0321976779951e-07,3.277694077418512e-05
6.272237892880935e-07,1.148410894374568e-06,3.0337389838406374e-07,3.288626912217489e-05
6.247399717825149e-07,1.1457633115314078e-06,3.037915673001102e-07,3.299364370887282e-05
6.220043429427721e-07,1.1424867000584043e-06,3.044699235906591e-07,3.309774291999128e-05
6.190279904787913e-07,1.1385851743398974e-06,3.0540193534473484e-07,3.319725160709167e-05
6.158252488957335e-07,1.134081810856033e-06,3.0657785935723625e-07,3.3290875509230524e-05
6.124104595522735e-07,1.1290135745260024e-06,3.079869499911557e-07,3.337739601812382e-05
6.087963984897225e-07,1.1234288877178327e-06,3.0961904071351885e-07,3.345568123341045e-05
6.049929661535899e-07,1.1173878019694154e-06,3.114673745307307e-07,3.352458971220156e-05
6.010067071582219e-07,1.1109559807123761e-06,3.135318395507059e-07,3.358285577351754e-05
5.968421269801914e-07,1.1041953035386252e-06,3.1581894942296747e-07,3.362908694627804e-05
5.92504001946581e-07,1.097161655022062e-06,3.183375925991622e-07,3.3661875061624664e-05
5.879991631458088e-07,1.0899136290928663e-06,3.210935402777633e-07,3.367996633265791e-05
5.833361158564086e-07,1.082527351594169e-06,3.240860722139141e-07,3.3682474443221974e-05
5.785226508811419e-07,1.0751049343964186e-06,3.27308013561577e-07,3.3669065860652224e-05
5.735639998001182e-07,1.067765047408636e-06,3.30747685159576e-07,3.363998337117282e-05
5.684634638813651e-07,1.060622666501787e-06,3.3439073689711963e-07,3.3595883089690254e-05
5.632257252991161e-07,1.0537751907463406e-06,3.3822121211905844e-07,3.353757777655369e-05
5.578605912335725e-07,1.0473005290138977e-06,3.4222105028962804e-07,3.346578191614925e-05
5.523827687641855e-07,1.0412665927371815e-06,3.4636848928316213e-07,3.338095126628187e-05
5.468079187202771e-07,1.0357500215653991e-06,3.5063791744609925e-07,3.3283262114470895e-05
5.411506363426344e-07,1.030849746810502e-06,3.55001396148875e-07,3.3172672757551694e-05
5.354253434297007e-07,1.0266817968055928e-06,3.594298983402465e-07,3.3049049846450625e-05
5.296461090248626e-07,1.0233609239830851e-06,3.638936415823843e-07,3.291244851580302e-05
5.238253751349603e-07,1.0209829901442935e-06,3.683621939650814e-07,3.2763444241496756e-05
5.179742922726614e-07,1.0196171604683022e-06,3.7280556624920506e-07,3.26032030083657e-05
5.121040831590096e-07,1.0193077087999722e-06,3.771960754735293e-07,3.2433252156914224e-05
5.062268085841135e-07,1.0200774518411442e-06,3.81508921323784e-07,3.2255207635656385e-05
5.00356057992071e-07,1.0219285697848892e-06,3.857211125764488e-07,3.207059779421454e-05
4.945079557373925e-07,1.0248426107894916e-06,3.8981049749277573e-07,3.188083061396544e-05
4.887020517565381e-07,1.0287815998940308e-06,3.9375602135509307e-07,3.1687398180107243e-05
4.829617722185169e-07,1.0336902375967824e-06,3.9753864569381046e-07,3.149221022764949e-05
4.773135348774373e-07,1.039497432154517e-06,4.011414737605165e-07,3.129773073366921e-05
4.717845686002285e-07,1.0461171069725463e-06,4.0454892377084076e-07,3.110682903991451e-05
4.664008077000164e-07,1.0534496270568735e-06,4.0774601529085405e-07,3.092253919578656e-05
4.6118523468627137e-07,1.0613849913165531e-06,4.1071807717581627e-07,3.0747857795106405e-05
4.56156805534755e-07,1.0698094777495709e-06,4.134512855542328e-07,3.058559087030133e-05
4.513302957952676e-07,1.0786127900527443e-06,4.159340449137118e-07,3.043825043182099e-05
4.4671696051640004e-07,1.0876900477983971e-06,4.1815755402117646e-07,3.0308005453118346e-05
4.423257948935462e-07,1.0969415761372819e-06,4.2011510843988726e-07,3.0196675570684193e-05
4.3816426343819964e-07,1.1062757058639712e-06,4.218009214717176e-07,3.010574442046259e-05
4.3423861910600794e-07,1.115610338315994e-06,4.23208675785005e-07,3.0036348198462486e-05
4.3055542656694116e-07,1.1248697406693351e-06,4.243308108808053e-07,2.9989203214585943e-05
4.271231777873553e-07,1.1339813691225e-06,4.251590345185229e-07,2.9964507884321228e-05
4.2395259586809455e-07,1.1428748864696256e-06,4.2568522908232133e-07,2.996188176421745e-05
4.210560030572574e-07,1.1514819534483305e-06,4.2590274055789387e-07,2.998037928439154e-05
4.1844479993659024e-07,1.1597401028261458e-06,4.258078802516208e-07,3.00186075139802e-05
4.161258561228385e-07,1.1675990873100494e-06,4.254008613282217e-07,3.007492721418343e-05
4.141002566854081e-07,1.1750189871304513e-06,4.2468644341280906e-07,3.0147635470738386e-05
4.123642348843418e-07,1.1819602636476886e-06,4.2367389470932776e-07,3.0235051353655524e-05
4.109099433987563e-07,1.1883778777591798e-06,4.223750460797773e-07,3.0335535523402705e-05
4.0972626348401384e-07,1.194223322951415e-06,4.2080216268437257e-07,3.0447509037831176e-05
4.0879970716130827e-07,1.1994496225615874e-06,4.1896834373883314e-07,3.0569471159014695e-05
4.081142975865955e-07,1.2040146380812345e-06,4.1688880927810674e-07,3.0699984225092985e-05
4.076513349937019e-07,1.2078802562455198e-06,4.145798781910483e-07,3.083763567685296e-05
4.0739019439715746e-07,1.211009913790928e-06,4.120565360139895e-07,3.098098763601555e-05
4.073092585007755e-07,1.213369983532733e-06,4.093315790633832e-07,3.112851215350206e-05
4.073872869406324e-07,1.2149359282708749e-06,4.0641678673293946e-07,3.1278573625083314e-05
4.0760796847952147e-07,1.2156986796023175e-06,4.0332408739092327e-07,3.142948067426884e-05
4.079675346991065e-07,1.2156657656219677e-06,4.000656534008749e-07,3.157951977777615e-05
4.0847879775843726e-07,1.2148542261271652e-06,3.9665445246953895e-07,3.172695161664642e-05
4.0916617900940187e-07,1.2132801119294158e-06,3.931055699446814e-07,3.1870040073299766e-05
4.100566295467437e-07,1.2109544245274876e-06,3.8943623034980725e-07,3.200712438372045e-05
4.1117553717522456e-07,1.2078893179554424e-06,3.85665539283135e-07,3.21366579210768e-05
4.1254828743241895e-07,1.204108664374707e-06,3.8181613816140523e-07,3.2257146713983315e-05
4.142014880682636e-07,1.1996534131950035e-06,3.779152134290984e-07,3.2367051435031876e-05
4.161613776193693e-07,1.1945784764785971e-06,3.7399286304077885e-07,3.246478549587208e-05
4.1845059539407957e-07,1.1889457779388114e-06,3.700798919012293e-07,3.254883007084417e-05
4.21084837923863e-07,1.182820810723758e-06,3.6620614127924683e-07,3.2617892220019223e-05
4.2407186186904287e-07,1.1762784054794045e-06,3.623992037477217e-07,3.2671071290142354e-05
4.274132674894185e-07,1.1694122179363049e-06,3.5868389123194326e-07,3.2707997295386136e-05
4.311052465919122e-07,1.162334642376957e-06,3.5508234794170044e-07,3.2728836808555374e-05
4.3513723400475894e-07,1.1551648792150163e-06,3.516147101483757e-07,3.2734119223648466e-05
4.39492292205074e-07,1.1480147640731797e-06,3.482999418866896e-07,3.2724468460020064e-05
4.4414879520987797e-07,1.1409828850828896e-06,3.451550666160825e-07,3.270037310377735e-05
4.490803232332324e-07,1.1341606680221515e-06,3.4219315053519693e-07,3.266209397125549e-05
4.5425512590214757e-07,1.1276410456496587e-06,3.394237498601311e-07,3.260970120175172e-05
4.596363309392562e-07,1.1215197893537138e-06,3.3685625303709605e-07,3.254313134398407e-05
4.651827099629896e-07,1.1158919436810313e-06,3.3450181445099285e-07,3.246223240515544e-05
4.708516449158005e-07,1.1108469200332587e-06,3.323720664280387e-07,3.2366939944029994e-05
4.7660376160795753e-07,1.106463567661903e-06,3.3047749887389306e-07,3.225761124859466e-05
4.82405432206382e-07,1.1028078907333223e-06,3.2882666900083237e-07,3.213523161081502e-05
4.882273447532213e-07,1.0999303425854543e-06,3.274244163669617e-07,3.200129456526341e-05
4.940416292103502e-07,1.097860379282226e-06,3.2627019695453556e-07,3.185751129944782e-05
4.998210659812696e-07,1.0966034782751283e-06,3.2535878628721e-07,3.1705555799364474e-05
5.055409024371654e-07,1.0961431735518335e-06,3.24681736964928e-07,3.154695881357486e-05
5.111814286410343e-07,1.096446201341524e-06,3.2422754443956444e-07,3.138325282031659e-05
5.167284859774328e-07,1.097468342115025e-06,3.2398192065585665e-07,3.1216259350640506e-05
5.221705541865596e-07,1.099158186521215e-06,3.239303200387164e-07,3.104820094982177e-05
5.274955482365554e-07,1.1014581933235285e-06,3.240609953706119e-07,3.088156754583807e-05
5.326900158404043e-07,1.1043038816859831e-06,3.24364696728522e-07,3.071893740262922e-05
5.377409522561889e-07,1.107622853047721e-06,3.2483166693569087e-07,3.0562849984666544e-05
5.426412902907751e-07,1.1113364853627846e-06,3.2544959051077065e-07,3.0415701214927563e-05
5.473974229265089e-07,1.115364890851601e-06,3.262030855351885e-07,3.0279657059960083e-05
5.520329547874285e-07,1.1196337896342237e-06,3.270740702951008e-07,3.0156604374284608e-05
5.565850281333204e-07,1.124080360760762e-06,3.2804383840762573e-07,3.0048136774790198e-05
5.610957504759239e-07,1.1286539183916102e-06,3.290970087358777e-07,2.995556346436911e-05
5.656038820248817e-07,1.133312567562853e-06,3.302248704733524e-07,2.987992019802873e-05
5.701393178429569e-07,1.1380200328102196e-06,3.31424989737991e-07,2.9821951491262463e-05
5.747205830926332e-07,1.1427427585314615e-06,3.32697555958924e-07,2.9782057362649025e-05
5.793553277980406e-07,1.1474468248216923e-06,3.340422643909483e-07,2.976022333668381e-05
5.840422405689468e-07,1.1520956319802472e-06,3.354575765950593e-07,2.9755970064997845e-05
5.887723078096855e-07,1.1566497293060431e-06,3.3694054225888784e-07,2.9768381324736724e-05
5.935302645694356e-07,1.1610699581089977e-06,3.384862822261835e-07,2.9796226687044428e-05
5.982968380366706e-07,1.1653203176053236e-06,3.4008968361184174e-07,2.9838104160634783e-05
6.03050287825084e-07,1.169367474721045e-06,3.4174942880295355e-07,2.989253712385459e-05
6.077677515481703e-07,1.1731805779323535e-06,3.4346899258742125e-07,2.9958052191631574e-05
6.124274168431818e-07,1.1767317787926852e-06,3.452525544178867e-07,3.0033266700804218e-05
6.170103985953028e-07,1.1799933563370951e-06,3.4710133185172693e-07,3.0116945499460437e-05
6.215015780389808e-07,1.182933692281729e-06,3.4901496700819175e-07,3.0207994167177795e-05
6.258894863368564e-07,1.185516599383392e-06,3.5099551735981345e-07,3.0305413182807923e-05
6.301647523151992e-07,1.1877032749993861e-06,3.5304918207279327e-07,3.040823280506701e-05
6.343170969934772e-07,1.1894557142523337e-06,3.5518654479183457e-07,3.0515425561021587e-05
6.383328633722495e-07,1.1907442872423905e-06,3.574245793333989e-07,3.062584356208839e-05
6.421949451299203e-07,1.1915603461458636e-06,3.5978762237781907e-07,3.073823068816231e-05
6.458841808103136e-07,1.191923741886802e-06,3.623033834974442e-07,3.085125937361987e-05
6.493806201092455e-07,1.1918741528761576e-06,3.649963832969068e-07,3.096353756952399e-05
6.526644663329935e-07,1.1914535873833777e-06,3.678834848214417e-07,3.1073614990108615e-05
6.557170311338239e-07,1.1906975014253484e-06,3.709730353592733e-07,3.118001960016897e-05
6.585209200688321e-07,1.189639052850893e-06,3.742665713702567e-07,3.1281303135173654e-05
6.610585346114039e-07,1.1883159561712709e-06,3.77761625014481e-07,3.137607923484197e-05
6.633103334405543e-07,1.1867706789044895e-06,3.814534733089845e-07,3.14630839755393e-05
6.652544323516522e-07,1.1850448863630678e-06,3.853348294032509e-07,3.154125420530343e-05
6.66867514007138e-07,1.1831744732573714e-06,3.8939515187693746e-07,3.1609771780299285e-05
6.681263007786308e-07,1.1811918481075383e-06,3.9362004239199096e-07,3.1668056311101394e-05
6.690081389260696e-07,1.1791359554100298e-06,3.979902102127095e-07,3.171570863518733e-05
6.694905881852499e-07,1.1770594903522132e-06,4.024810372654958e-07,3.175241999092093e-05
6.695515261523786e-07,1.1750226597864063e-06,4.070631925632952e-07,3.177788010959619e-05
6.691699844009076e-07,1.173078143110575e-06,4.1170372938787866e-07,3.179170616634725e-05
6.683270747682435e-07,1.1712626301194787e-06,4.163671228387264e-07,3.179343164815416e-05
6.67006706972145e-07,1.1696042315528402e-06,4.210157333002445e-07,3.1782578212255157e-05
6.651953515173385e-07,1.1681412142474826e-06,4.256105427860276e-07,3.175874701755557e-05
6.628814347270999e-07,1.1669353038290562e-06,4.3011322612641457e-07,3.172166303029404e-05
6.600566612293122e-07,1.1660659272066764e-06,4.34487689794847e-07,3.167117112848979e-05
6.567182127674117e-07,1.165612311430263e-06,4.3869965366900493e-07,3.16072079615629e-05
6.528683349805174e-07,1.1656391765346471e-06,4.4271671889278203e-07,3.1529828902074125e-05
6.485129231274292e-07,1.166190491818052e-06,4.46509652831536e-07,3.143931191081301e-05
6.436634496691314e-07,1.167289018609373e-06,4.500522103251832e-07,3.1336168952746006e-05
6.383409587679746e-07,1.1689399274086015e-06,4.533192917202922e-07,3.1221016881044785e-05
6.325771091508482e-07,1.1711336930877251e-06,4.562858359780317e-07,3.1094470432137104e-05
6.264105378574575e-07,1.17384577669092e-06,4.5892706237572357e-07,3.095708941042685e-05
6.19881944898735e-07,1.1770375731925765e-06,4.612191186244544e-07,3.0809324400328576e-05
6.130329398965401e-07,1.1806595804712e-06,4.6314057393685647e-07,3.065148325697286e-05
6.059087770463096e-07,1.1846528525221015e-06,4.646754001507386e-07,3.0483727820543877e-05
5.985601446897542e-07,1.1889495362235213e-06,4.658153285226346e-07,3.0306072819456605e-05
5.910417851550605e-07,1.193476365525862e-06,4.6655961137716046e-07,3.011838481866256e-05
5.834093970293885e-07,1.1981609538736846e-06,4.6691346159346903e-07,2.9920401359508574e-05
5.757173485330234e-07,1.2029376539682894e-06,4.6688632447352e-07,2.971177666489807e-05
5.680194978080197e-07,1.2077511472175136e-06,4.664899950006172e-07,2.9492134224949865e-05
5.603712997376187e-07,1.2125563359874932e-06,4.657373207403629e-07,2.926109495644387e-05
5.528292461269332e-07,1.217313455724166e-06,4.6464171799349785e-07,2.9018284100647852e-05
5.454472243265275e-07,1.2219825919941013e-06,4.6321692874300355e-07,2.876335647713817e-05
5.382721003648085e-07,1.226524426067042e-06,4.6147662575441864e-07,2.849604706967472e-05
5.31340940580516e-07,1.2309067236991013e-06,4.5943381503626434e-07,2.821619674473669e-05
5.246813734014413e-07,1.2351073728042841e-06,4.5710023670985405e-07,2.7923718477511084e-05
5.18314056210162e-07,1.2391086375148324e-06,4.5448628818526905e-07,2.7618543491569568e-05
5.122540366543607e-07,1.2428899078937846e-06,4.516019475783042e-07,2.7300598027744885e-05
5.065103188876869e-07,1.2464272533208429e-06,4.484576546622736e-07,2.696980603575377e-05
5.010870549563085e-07,1.249697407961538e-06,4.4506404489225815e-07,2.662609795388809e-05
4.959872938157922e-07,1.2526793269935907e-06,4.4143113564773757e-07,2.6269423581144974e-05
4.912146871767377e-07,1.255350622619587e-06,4.3756768245675296e-07,2.589976691378356e-05
4.867708652152583e-07,1.2576826980625538e-06,4.334815591375013e-07,2.551717142573677e-05
4.826523617097213e-07,1.2596406726516097e-06,4.291817571832294e-07,2.5121797631300133e-05
4.788501216037999e-07,1.261188140728385e-06,4.2468014031209066e-07,2.4714002955626714e-05
4.753509492201182e-07,1.2622914933667715e-06,4.199913088020629e-07,2.4294399767230124e-05
4.7213964559969427e-07,1.2629201092600628e-06,4.1513355766446206e-07,2.38638631440076e-05
4.6920016951136467e-07,1.2630429441956466e-06,4.1013347000910287e-07,2.342348461159513e-05
4.6651515421187494e-07,1.2626257106941357e-06,4.050290590333013e-07,2.2974482006712288e-05
4.6406511626402723e-07,1.2616324308434735e-06,3.9986611645216296e-07,2.25181218552678e-05
4.61828421298289e-07,1.2600312620533736e-06,3.946910685909946e-07,2.2055719926014827e-05
4.597825637379611e-07,1.2578025168327944e-06,3.8954590681071097e-07,2.158866579121277e-05
4.579061118295291e-07,1.254945534443935e-06,3.8446626675677365e-07,2.1118373778736983e-05
4.5617964772423545e-07,1.2514786901156213e-06,3.7948181879831525e-07,2.0646195875803386e-05
4.545858089470939e-07,1.2474307467521784e-06,3.7461792937891157e-07,2.017338778017638e-05
4.5310957917660655e-07,1.2428318942993877e-06,3.698969103377971e-07,1.970116723500284e-05
4.517388007751067e-07,1.237713027841627e-06,3.6533828502765604e-07,1.923085045354289e-05
4.5046396959120673e-07,1.2321107845342823e-06,3.609591816179429e-07,1.8763974333638574e-05
4.49276865576859e-07,1.2260713861497766e-06,3.5677538898160297e-07,1.8302295129328157e-05
4.4816862263457003e-07,1.2196498469718652e-06,3.528018964701508e-07,1.7847654004412092e-05
4.471283790797283e-07,1.2129039430505269e-06,3.4905207251234415e-07,1.7401813296031573e-05
4.461440784885928e-07,1.2058877607874417e-06,3.4553628569918534e-07,1.6966416643912642e-05
4.452061364285068e-07,1.1986531218980677e-06,3.422609311819387e-07,1.654312067698039e-05
4.443106949318575e-07,1.1912569639150651e-06,3.392286924269262e-07,1.6133740449278243e-05
4.4345845292258063e-07,1.1837638617958536e-06,3.364403715345137e-07,1.5740248434297262e-05
4.426507662076437e-07,1.1762419813697451e-06,3.338966853116488e-07,1.5364636674459922e-05
4.4188665202617176e-07,1.1687592856601791e-06,3.315984227729072e-07,1.5008725499764265e-05
4.4116161691420144e-07,1.1613853943816677e-06,3.2954535346612346e-07,1.4674009742519004e-05
4.404681636459882e-07,1.154201163771025e-06,3.277348285799438e-07,1.43615999923211e-05
4.397974401756772e-07,1.147306281344729e-06,3.2616071540463013e-07,1.4072231470644262e-05
4.391411540431918e-07,1.1408108076952276e-06,3.248133023110002e-07,1.3806295447399194e-05
4.384925708543444e-07,1.1348159575304248e-06,3.23680329187239e-07,1.3563908225118875e-05
4.378464679895562e-07,1.129400509779873e-06,3.2274874391114937e-07,1.3345091613977443e-05
4.3719960524889705e-07,1.1246172445469091e-06,3.220064648801125e-07,1.3150077010344099e-05
4.3655249446413707e-07,1.120494783325567e-06,3.214428929020873e-07,1.2979545174987705e-05
4.3591163202604143e-07,1.1170423893644107e-06,3.210477230077112e-07,1.2834596172781545e-05
4.352898709073021e-07,1.1142551795448952e-06,3.208097469955587e-07,1.2716502463180992e-05
4.3470383323589717e-07,1.1121160717110114e-06,3.20717532009983e-07,1.2626452360100642e-05
4.34171326517967e-07,1.1105965934328214e-06,3.207612654789332e-07,1.2565469735322106e-05
4.3371011544502135e-07,1.1096596870200384e-06,3.209332587983664e-07,1.2534563824228947e-05
4.3333610964644253e-07,1.1092608135971501e-06,3.212264673511711e-07,1.2534906301738009e-05
4.330628652775089e-07,1.1093457743631871e-06,3.216328693714587e-07,1.2567824734271272e-05
4.329044589351153e-07,1.1098503812245917e-06,3.221434358563163e-07,1.2634649949499116e-05
4.3287718688675604e-07,1.110703915169082e-06,3.227500288844672e-07,1.2736537521917925e-05
4.3299709157435314e-07,1.1118337703615488e-06,3.234475105830446e-07,1.2874337024469953e-05
4.332768122126788e-07,1.1131707078279854e-06,3.242332873383389e-07,1.304853426459046e-05
4.337240556966629e-07,1.1146533317506886e-06,3.251048520556831e-07,1.3259237344349775e-05
4.3434139316213617e-07,1.1162276819261136e-06,3.2605842847205227e-07,1.350617968199725e-05
4.351279388332506e-07,1.1178434015422422e-06,3.2708900944230536e-07,1.3788735788471854e-05
4.3608238226777754e-07,1.119452784641576e-06,3.281911144767342e-07,1.4105943600654925e-05
4.3720490260999974e-07,1.121013666786102e-06,3.2936034665170325e-07,1.4456524156834256e-05
4.3849572759745863e-07,1.1224918724816583e-06,3.3059370564148414e-07,1.483888896151155e-05
4.3995173672218163e-07,1.1238596744451543e-06,3.3188785632027845e-07,1.5251134748496287e-05
4.4156618061572896e-07,1.125091217472763e-06,3.3323770677676905e-07,1.5691031104662733e-05
4.433333689067243e-07,1.1261612642557614e-06,3.3463601967857874e-07,1.615600772877176e-05
4.4525418910805027e-07,1.1270515253052552e-06,3.3607387625594376e-07,1.6643175454312666e-05
4.473372452301268e-07,1.1277597173600791e-06,3.3754218708304876e-07,1.7149405720066424e-05
4.4959495428220566e-07,1.1283017607462177e-06,3.3903264521240696e-07,1.7671436274808906e-05
4.520395948252638e-07,1.1287040615122937e-06,3.4053760911702016e-07,1.8205970793172974e-05
4.546817677678554e-07,1.1289941814795228e-06,3.4205070333993876e-07,1.87497720181591e-05
4.575282434595321e-07,1.129196510052406e-06,3.435685016212763e-07,1.9299734140215155e-05
4.605798227214285e-07,1.1293294040612757e-06,3.4509110016703855e-07,1.9852891852914866e-05
4.6383191620841686e-07,1.1294021878599071e-06,3.466198881915231e-07,2.0406360554457287e-05
4.672758732279002e-07,1.1294157281701442e-06,3.481548831160515e-07,2.0957280412761648e-05
4.7090015133096296e-07,1.1293674129059664e-06,3.49694927480352e-07,2.150281803756128e-05
4.7469309250758827e-07,1.1292570740246034e-06,3.512397711506882e-07,2.204018947302653e-05
4.786463511863603e-07,1.1290887803862408e-06,3.527905855761725e-07,2.2566670204282927e-05
4.827565194559465e-07,1.1288673074618299e-06,3.543480958871955e-07,2.307961860392956e-05
4.870238896708128e-07,1.1285933234989328e-06,3.559109714795951e-07,2.3576514098349336e-05
4.914494396494997e-07,1.1282605723984915e-06,3.5747558929653e-07,2.4054971145324524e-05
4.960320694437063e-07,1.1278554568425134e-06,3.5903560175531256e-07,2.451272915380046e-05
5.007666872879439e-07,1.1273586681211217e-06,3.6058136576693454e-07,2.494762841348133e-05
5.0564364599182e-07,1.1267485626255306e-06,3.621004364026345e-07,2.5357589222108745e-05
5.106507750864173e-07,1.1260043004354764e-06,3.6357869651966097e-07,2.57406405922186e-05
5.157764754275882e-07,1.1251055893195498e-06,3.650011687574155e-07,2.609496288604788e-05
5.21009938008396e-07,1.1240300800944192e-06,3.6635250150765365e-07,2.641887582970273e-05
5.263392674126565e-07,1.1227539447543062e-06,3.6761775417947994e-07,2.671082480247669e-05
5.317520526112856e-07,1.1212602530599637e-06,3.687832749885571e-07,2.696942998207543e-05
5.372369436929202e-07,1.1195532173744983e-06,3.698364531479801e-07,2.719358411857112e-05
5.427818460141484e-07,1.1176658365501645e-06,3.7076462902754337e-07,2.7382601237093443e-05
5.483706926166579e-07,1.1156511630558952e-06,3.7155502401812585e-07,2.753637420313465e-05
5.53982298871691e-07,1.1135681005246994e-06,3.721966043946032e-07,2.765539086190307e-05
5.595903540068255e-07,1.11147608691365e-06,3.726823158879083e-07,2.7740546769663923e-05
5.651638150206657e-07,1.109434184940511e-06,3.730092488361286e-07,2.7792879205801043e-05
5.70668731533002e-07,1.107496918769437e-06,3.731774409928904e-07,2.7813381100015413e-05
5.760705190058198e-07,1.1057095997598185e-06,3.7318907084004025e-07,2.7802950348831544e-05
5.81335780923707e-07,1.1041060262858196e-06,3.730472453065794e-07,2.776241655236037e-05
5.864342708847357e-07,1.1027070941672009e-06,3.727542924386094e-07,2.769258782626151e-05
5.913399591007814e-07,1.101520371490488e-06,3.723110909054207e-07,2.759439076976016e-05
5.960313103090911e-07,1.100542792735297e-06,3.717178580348273e-07,2.7469180088480828e-05
6.004931350629232e-07,1.099764976712128e-06,3.7097580854985683e-07,2.7319023584998003e-05
6.047192641116788e-07,1.099172876715878e-06,3.700890486343854e-07,2.714668408267014e-05
6.087120743581112e-07,1.0987468265783515e-06,3.690656976400353e-07,2.6955348234008685e-05
6.124777103070147e-07,1.098461979567909e-06,3.679175131448453e-07,2.6748333712416487e-05
6.160218844889068e-07,1.0982908243122795e-06,3.6665830977462273e-07,2.6528879796681008e-05
6.193499547594449e-07,1.0982040758586358e-06,3.65301648234705e-07,2.6300099601496452e-05
6.224683897527591e-07,1.0981695005851043e-06,3.6385882831012953e-07,2.6065185376770844e-05
6.253848963241133e-07,1.0981534826405485e-06,3.623381574065487e-07,2.582770996632668e-05
6.281074951573572e-07,1.0981249736964463e-06,3.6074491870330023e-07,2.559171067314935e-05
6.306430907654521e-07,1.0980552310816843e-06,3.590813892139371e-07,2.5361519500901722e-05
6.329965437234939e-07,1.0979135732352457e-06,3.5734708580845305e-07,2.51415222155346e-05
6.351708328336661e-07,1.0976660271477052e-06,3.555396037880819e-07,2.4935937116257682e-05
6.371669985995239e-07,1.097278637566563e-06,3.536565407734931e-07,2.4748635578383232e-05
6.389825237376771e-07,1.0967203783266454e-06,3.516981625234528e-07,2.458302389201e-05
6.406096372905451e-07,1.095961610044275e-06,3.4966881587817604e-07,2.444197787969185e-05
6.42035733583954e-07,1.094970550742446e-06,3.475756948410297e-07,2.432780980154228e-05
6.432454799033594e-07,1.0937122338747722e-06,3.4542703506213287e-07,2.424225563571022e-05
6.442232400258504e-07,1.0921507158380162e-06,3.4323272469014536e-07,2.418647597076805e-05
6.449542341453753e-07,1.0902529417998232e-06,3.410062472583238e-07,2.4161059756138854e-05
6.454239647508607e-07,1.0879912308556593e-06,3.387647546876331e-07,2.416601666556633e-05
6.456183979024121e-07,1.0853432163725186e-06,3.3652689016785716e-07,2.4200764602149287e-05
6.455252759904787e-07,1.0822957736339694e-06,3.343102281510981e-07,2.426416602940428e-05
6.451338831702028e-07,1.0788563689764065e-06,3.321296254223689e-07,2.4354657851102874e-05
6.444340488526618e-07,1.0750596479294934e-06,3.2999684262961536e-07,2.4470429859595145e-05
6.434174363045396e-07,1.0709594076417827e-06,3.279213367517035e-07,2.460956966784253e-05
6.420799595188923e-07,1.066614266796582e-06,3.2591122819124944e-07,2.477015352286032e-05
6.4042199408559e-07,1.0620771694001922e-06,3.2397325020750644e-07,2.4950305396125665e-05
6.384462340791079e-07,1.0573909931170808e-06,3.221120055218664e-07,2.514822918151108e-05
6.361551165027738e-07,1.052591172652374e-06,3.203304375734573e-07,2.5362215083558974e-05
6.335494347885772e-07,1.0477115920406009e-06,3.1863241281612747e-07,2.5590633905430223e-05
6.306282717385575e-07,1.0427863756644605e-06,3.1702501172385226e-07,2.58318972085066e-05
6.27389537177299e-07,1.0378482916005351e-06,3.1551821785327346e-07,2.608436357740618e-05
6.238312957092681e-07,1.0329293912354126e-06,3.1412294984129844e-07,2.6346283324281562e-05
6.199536643193507e-07,1.0280620442386536e-06,3.1284903308273785e-07,2.6615856504376306e-05
6.157616056607041e-07,1.0232768374638953e-06,3.117038497605054e-07,2.6891302704433802e-05
6.112687958625532e-07,1.018602151316049e-06,3.1069150344488297e-07,2.717085050625369e-05
6.064988428985985e-07,1.0140674638448544e-06,3.0981207445720657e-07,2.745270086228319e-05
6.014812681675283e-07,1.0097038462499622e-06,3.09061848674875e-07,2.7735026146125505e-05
5.962456199733018e-07,1.0055403637838006e-06,3.0843466055941675e-07,2.8015986564209448e-05
5.908181505579064e-07,1.001600449782301e-06,3.079230684450833e-07,2.829374119094272e-05
5.852215849582078e-07,9.978983621416495e-07,3.0751935639620674e-07,2.85665103576578e-05
5.794761672494463e-07,9.944357208222711e-07,3.072165566000539e-07,2.8832703631686842e-05
5.73601504210714e-07,9.91200357769243e-07,3.070084810342571e-07,2.909100373172748e-05
5.676184334314299e-07,9.881690792360442e-07,3.068889249116481e-07,2.9340368682125445e-05
5.615491698788245e-07,9.853166729776535e-07,3.068514656927173e-07,2.9580000854192156e-05
5.554165556167959e-07,9.826298973513531e-07,3.06890039908034e-07,2.9809275935230213e-05
5.492443445143479e-07,9.801149385124866e-07,3.069993302229395e-07,3.002763478101555e-05
5.430577573988871e-07,9.777892399591344e-07,3.071745701090995e-07,3.023447982771813e-05
5.368822291813364e-07,9.756665278051457e-07,3.0741159155191764e-07,3.042910059916681e-05
5.307412056940115e-07,9.737495917873778e-07,3.0770743940850675e-07,3.061066802667293e-05
5.246555892680139e-07,9.720342109711931e-07,3.0806022399642127e-07,3.0778308388275314e-05
5.18644066163886e-07,9.7052087246337e-07,3.084683048030201e-07,3.093118019329169e-05
5.127227969464976e-07,9.692281982640422e-07,3.0893018994838245e-07,3.106850272737181e-05
5.069065003518104e-07,9.681965015197687e-07,3.0944444433234076e-07,3.1189547039942196e-05
5.0121112266669e-07,9.67477971873252e-07,3.100093609649041e-07,3.129363393085354e-05
4.95653881975231e-07,9.671257681536049e-07,3.106237522808732e-07,3.138024763552034e-05
4.902503307244396e-07,9.67189451579368e-07,3.112881271866984e-07,3.144921500063949e-05
4.850129459528357e-07,9.67711338160148e-07,3.120041911249141e-07,3.150069688433508e-05
4.799520260020221e-07,9.687204708218118e-07,3.127724560423673e-07,3.153499032476224e-05
4.7507635007281464e-07,9.702277142874122e-07,3.1359021425460987e-07,3.155238200078075e-05
4.7039315826681716e-07,9.722250250306863e-07,3.144521841323626e-07,3.155311268910671e-05
4.659079502648427e-07,9.74687962062479e-07,3.153527963564225e-07,3.1537370280411164e-05
4.616238007723039e-07,9.775798725559552e-07,3.162878195744326e-07,3.1505286920741666e-05
4.575405227061136e-07,9.808571383089169e-07,3.1725486246245963e-07,3.145694186757737e-05
4.536551016903621e-07,9.844737236024144e-07,3.18252706247445e-07,3.1392360053502536e-05
4.4996366793114173e-07,9.88382867889728e-07,3.192802377909602e-07,3.1311518258024073e-05
4.4646306773885784e-07,9.925365909522812e-07,3.2033649642124856e-07,3.121436352890125e-05
4.431506536783597e-07,9.968870147055287e-07,3.214212646667488e-07,3.110081450112373e-05
4.4002276636403625e-07,1.0013907158111335e-06,3.2253476351397253e-07,3.097074927263318e-05
4.3707296106860266e-07,1.0060102473077366e-06,3.23676725421372e-07,3.0824016828649654e-05
4.342910249201918e-07,1.0107093482705543e-06,3.2484592050092504e-07,3.066047096318454e-05
4.316629972135865e-07,1.0154487070118058e-06,3.260403296196034e-07,3.0480014533867243e-05
4.291719949657289e-07,1.020188489231681e-06,3.27257238018338e-07,3.028265453597021e-05
4.2680003775181714e-07,1.0248942258864234e-06,3.2849318424771553e-07,3.0068518362320262e-05
4.245296897336656e-07,1.0295400353886968e-06,3.29744190405062e-07,2.9837783420546913e-05
4.223437416766218e-07,1.0341072304455204e-06,3.3100554766252926e-07,2.9590586701187927e-05
4.2022382671525203e-07,1.0385799705298857e-06,3.3227102182411324e-07,2.9327004535097357e-05
4.181500546967685e-07,1.0429405485000234e-06,3.33533062931426e-07,2.9047082240570668e-05
4.161016724891058e-07,1.047167379769995e-06,3.347846166118461e-07,2.8750853090674976e-05
4.1405768101358206e-07,1.0512373225118714e-06,3.360211738153565e-07,2.8438347379736766e-05
4.119973167367321e-07,1.0551297431890542e-06,3.3724116571619204e-07,2.810961929836139e-05
4.0990077107775437e-07,1.0588287880162588e-06,3.384439972285354e-07,2.776480439081985e-05
4.07750221164154e-07,1.062322792785442e-06,3.3962790681368426e-07,2.740420509193052e-05
4.0553080304697344e-07,1.0656019639493154e-06,3.40790306909182e-07,2.7028353885877694e-05
4.032305536776164e-07,1.0686553599103304e-06,3.419294363062224e-07,2.663799565623135e-05
4.008393949370657e-07,1.071467745437553e-06,3.430444743837967e-07,2.623402056803568e-05
3.98348511405649e-07,1.0740182402077517e-06,3.4413436637595897e-07,2.581740843824043e-05
3.95750494432971e-07,1.076280855196777e-06,3.4519749688369133e-07,2.5389191626600862e-05
3.930399884110546e-07,1.0782264067332086e-06,3.462319224120823e-07,2.495045819297159e-05
3.9021457600406367e-07,1.0798294100201577e-06,3.472348968322948e-07,2.4502410597571405e-05
3.872753944005404e-07,1.0810779404131674e-06,3.482030327995543e-07,2.404638048230525e-05
3.842273779694256e-07,1.08197538130316e-06,3.4913373810753624e-07,2.3583725374069642e-05
3.8107936570443495e-07,1.0825321620061969e-06,3.500256639679547e-07,2.3115712725385405e-05
3.778443235647685e-07,1.082757968858853e-06,3.508776762983805e-07,2.2643509204216322e-05
3.745397659350763e-07,1.0826607865437529e-06,3.516880616657413e-07,2.21682778335003e-05
3.7118827116940596e-07,1.082250939532595e-06,3.5245399365930524e-07,2.1691325388056346e-05
3.678185273470392e-07,1.0815444289973145e-06,3.53170939193034e-07,2.121419969440703e-05
3.6446634796137156e-07,1.0805610191915254e-06,3.538330604086647e-07,2.0738661708771883e-05
3.611723791293434e-07,1.0793194556320762e-06,3.5443443315689064e-07,2.026655212802657e-05
3.5797650777167604e-07,1.0778342878958714e-06,3.5496940202231043e-07,1.9799625186450327e-05
3.549149247809169e-07,1.07611664555485e-06,3.554318114143679e-07,1.9339462247250773e-05
3.5202130216413604e-07,1.0741801083266859e-06,3.558150603735986e-07,1.8887561469975684e-05
3.493267861320136e-07,1.072047174543003e-06,3.56114029809584e-07,1.84455389160158e-05
3.468579520058494e-07,1.0697504413161189e-06,3.5632704165299594e-07,1.8015252413900172e-05
3.4463696900537174e-07,1.0673286183319598e-06,3.564564940739275e-07,1.7598744593116165e-05
3.4268448572475507e-07,1.0648216440619542e-06,3.5650865862425805e-07,1.7198060965119133e-05
3.410207189760894e-07,1.0622746379121969e-06,3.5649247831669506e-07,1.6815071888018173e-05
3.396622466346556e-07,1.0597526874058613e-06,3.564173406816345e-07,1.6451391569938067e-05
3.386185936861477e-07,1.057346932263951e-06,3.562914700729515e-07,1.6108377563752675e-05
3.378931983692427e-07,1.055161044871081e-06,3.5612206807153296e-07,1.5787145160576715e-05
3.374884036879218e-07,1.0532935023101977e-06,3.559156628970495e-07,1.5488620111612546e-05
3.374102186753526e-07,1.0518276445743357e-06,3.5567735919089345e-07,1.5213721732170786e-05
3.3766818689962693e-07,1.0508272642868326e-06,3.554101988341465e-07,1.4963629295984094e-05
3.38271607458024e-07,1.0503344934473863e-06,3.551151943503028e-07,1.4739906727969174e-05
3.392263455468626e-07,1.0503693519716269e-06,3.547913186948528e-07,1.4544378969755317e-05
3.405331687372726e-07,1.0509316370216994e-06,3.544354274958164e-07,1.4378887898717525e-05
3.4218900378139785e-07,1.0520042750703488e-06,3.5404228587900573e-07,1.4245051085737259e-05
3.441909461073123e-07,1.05355589573392e-06,3.5360494256033985e-07,1.4144105320182687e-05
3.465373841977639e-07,1.055542614674389e-06,3.531161639324711e-07,1.4077003121710507e-05
3.49224008806896e-07,1.0579096968941651e-06,3.5257083319161377e-07,1.404475285319849e-05
3.5224007486146865e-07,1.0605934107465042e-06,3.51967097511466e-07,1.4048663276829214e-05
3.555691993891414e-07,1.0635246397595406e-06,3.513046663036107e-07,1.409029864933789e-05
3.5919240328493406e-07,1.0666359522107258e-06,3.505826215450987e-07,1.4171300110331165e-05
3.6308957195658547e-07,1.069870464405843e-06,3.4979949930040733e-07,1.4293231668903498e-05
3.672403377754486e-07,1.0731871176762388e-06,3.489545863022236e-07,1.4457460786224554e-05
3.716268532298028e-07,1.0765594629633713e-06,3.480483590771732e-07,1.4665052763450672e-05
3.762365416884093e-07,1.079970280633074e-06,3.4708228006697714e-07,1.4916689139369031e-05
3.8106278731495866e-07,1.0834064531060929e-06,3.4605863621273496e-07,1.5212616041119934e-05
3.8610472192177685e-07,1.0868586681016165e-06,3.449799235262809e-07,1.5552608197124387e-05
3.913651084204217e-07,1.0903243420627168e-06,3.4384778883972175e-07,1.5935940854608336e-05
3.968449358093191e-07,1.093805049007322e-06,3.426629232839917e-07,1.636136952208438e-05
4.0253840389670135e-07,1.0972975384701344e-06,3.4142707232070057e-07,1.68271083457003e-05
4.084319920037382e-07,1.1007873315419812e-06,3.4014605600833e-07,1.7330805954246343e-05
4.1450733248800245e-07,1.104248938896898e-06,3.3883118802282107e-07,1.7869558331650784e-05
4.20745791424725e-07,1.1076489226544585e-06,3.374982707192032e-07,1.844001340875852e-05
4.271321009847836e-07,1.110947578953183e-06,3.361651970611092e-07,1.903856320808448e-05
4.336547888439274e-07,1.114100029288985e-06,3.3484930118281185e-07,1.966153847098605e-05
4.4030277833047103e-07,1.117060635627908e-06,3.335656974826171e-07,2.030532690109067e-05
4.470612482007468e-07,1.1197895027101705e-06,3.3232686280951146e-07,2.0966427715540217e-05
4.539113172229703e-07,1.12225525542584e-06,3.3114291002265586e-07,2.1641483603684792e-05
4.6083341810805683e-07,1.12443269940222e-06,3.300227034695289e-07,2.2327271342340342e-05
4.678099776810696e-07,1.1262999678085322e-06,3.289749880974928e-07,2.302063305375423e-05
4.7482430007273244e-07,1.1278376028689205e-06,3.2800751637515806e-07,2.3718399096308626e-05
4.81857999032041e-07,1.1290263814209495e-06,3.2712510020495e-07,2.4417345360702608e-05
4.888911987813879e-07,1.129843548638952e-06,3.263297095440267e-07,2.511417200480472e-05
4.959036957127503e-07,1.1302630677971448e-06,3.2562215163558784e-07,2.5805518231974092e-05
5.028734176425301e-07,1.1302627476241109e-06,3.2500266245770805e-07,2.6488028192509685e-05
5.097740869175589e-07,1.1298340682020318e-06,3.244704677954418e-07,2.715840583776122e-05
5.165747885895497e-07,1.1289871923983065e-06,3.240240593484179e-07,2.781342501305605e-05
5.23241203777053e-07,1.1277464531374703e-06,3.236632556176421e-07,2.84499460454083e-05
5.297389303907378e-07,1.1261405162097174e-06,3.2339244439730897e-07,2.9064970888488127e-05
5.360390847750321e-07,1.124197931555645e-06,3.232220253943493e-07,2.965569106225152e-05
5.42122516274561e-07,1.1219507934108134e-06,3.231659386552129e-07,3.021946575230957e-05
5.479784977874989e-07,1.1194364609014806e-06,3.232383007096917e-07,3.0753751482659746e-05
5.535992172613269e-07,1.1166911243216066e-06,3.234533225958612e-07,3.1256071402415434e-05
5.58975652251534e-07,1.1137429252495516e-06,3.2382704061188714e-07,3.172406745359964e-05
5.64097415834863e-07,1.1106147101867051e-06,3.243768235263347e-07,3.215560898678354e-05
5.689537117548046e-07,1.1073359152306046e-06,3.251185691733643e-07,3.2548936907511365e-05
5.735331402060832e-07,1.1039528941472187e-06,3.2606417417412445e-07,3.2902829239721056e-05
5.778233952836348e-07,1.1005275848564763e-06,3.2722033813295e-07,3.3216690893129716e-05
5.818112913435726e-07,1.0971271750306732e-06,3.285879216741668e-07,3.3490463843069076e-05
5.854830883079108e-07,1.0938165405088822e-06,3.3016165012979e-07,3.3724403911415664e-05
5.888258850127642e-07,1.090659872825872e-06,3.3193114087141854e-07,3.3918858265906874e-05
5.918288803333064e-07,1.0877305400296614e-06,3.33882828498519e-07,3.407413206967464e-05
5.94482806839609e-07,1.0851210261201216e-06,3.360017191224343e-07,3.419046148291971e-05
5.967795869730972e-07,1.0829414686527665e-06,3.382735243544105e-07,3.4268056945516795e-05
5.987152753366096e-07,1.081306939149336e-06,3.406865305472734e-07,3.430717357299669e-05
6.002939831765171e-07,1.0803224581017835e-06,3.432311821928385e-07,3.4308246408058424e-05
6.015275391512065e-07,1.0800715592687624e-06,3.458976234199077e-07,3.427214655788531e-05
6.024308646344452e-07,1.0806106678921916e-06,3.486732333727524e-07,3.420040986995926e-05
6.030172541636336e-07,1.0819685396158741e-06,3.515416522065819e-07,3.409520954251167e-05
6.032965537357563e-07,1.0841497496051062e-06,3.5448356904738886e-07,3.395910887341249e-05
6.032770676806357e-07,1.0871413378689635e-06,3.5747856748133435e-07,3.3794783382150275e-05
6.029690633682289e-07,1.0909175370798322e-06,3.6050679309201457e-07,3.3604841281203554e-05
6.023862487651615e-07,1.0954396499927966e-06,3.635492175857856e-07,3.339189993088914e-05
6.015443154402582e-07,1.1006554566991517e-06,3.665870346153094e-07,3.315891939921328e-05
6.004581491471037e-07,1.1065006793785923e-06,3.696020342412157e-07,3.29094531004164e-05
5.991391254692945e-07,1.1129010165403558e-06,3.725775731708704e-07,3.2647589065559366e-05
5.975940405286739e-07,1.1197752387542744e-06,3.7549862367701393e-07,3.237772008111421e-05
5.958269657877851e-07,1.1270397003416806e-06,3.7835109144482283e-07,3.2104307943313105e-05
5.938418559524344e-07,1.134613378655424e-06,3.811213338285371e-07,3.1831682153996634e-05
5.916424714817067e-07,1.142421347847758e-06,3.837968163227553e-07,3.156388489553558e-05
5.892311748527038e-07,1.1503934643874058e-06,3.863687607949585e-07,3.1304566078487285e-05
5.866105076813636e-07,1.15846024129861e-06,3.8883651853326897e-07,3.1056920467182505e-05
5.837858848582293e-07,1.1665503249024465e-06,3.912096742332809e-07,3.0823666011738347e-05
5.807653576026145e-07,1.1745896339334086e-06,3.9350391891412563e-07,3.060704997477812e-05
5.775579839343449e-07,1.1825024066513365e-06,3.957350029538086e-07,3.0408831665002583e-05
5.741733298521378e-07,1.1902142847262238e-06,3.979166452986891e-07,3.0230215766918682e-05
5.7062039891143e-07,1.1976538588590599e-06,4.0006020345957323e-07,3.0071796248183186e-05
5.669056131242528e-07,1.2047527119583822e-06,4.0217287171105864e-07,2.993358795276494e-05
5.63032224119216e-07,1.2114489470785305e-06,4.042561878884135e-07,2.9815158059332903e-05
5.590019283493764e-07,1.217692623181717e-06,4.063064472130361e-07,2.9715815069061407e-05
5.548175957450875e-07,1.2234449951663207e-06,4.083163112966289e-07,2.963478533362656e-05
5.504856599689786e-07,1.2286716287674036e-06,4.1027739338864213e-07,2.9571319524037524e-05
5.460165509895444e-07,1.2333369329292894e-06,4.121827262820696e-07,2.952473994010447e-05
5.414223738739955e-07,1.2374019003909478e-06,4.14026943416456e-07,2.949446664877653e-05
5.367139098082945e-07,1.2408231671435095e-06,4.1580512441597397e-07,2.948001629863061e-05
5.318999366260228e-07,1.2435539929134293e-06,4.1751281518865243e-07,2.948096435400617e-05
5.269880532626945e-07,1.2455482185508494e-06,4.1914713569452464e-07,2.949690061172417e-05
5.219844855428622e-07,1.2467678647351515e-06,4.2070753295564243e-07,2.9527387259489586e-05
5.168932036270693e-07,1.2471925218459242e-06,4.221959481028232e-07,2.957188368150619e-05
5.117157272713188e-07,1.2468243472444099e-06,4.236165196340318e-07,2.962965347311077e-05
5.064518001089315e-07,1.2456860610931026e-06,4.2497394597575886e-07,2.969973290435333e-05
5.011006546186068e-07,1.2438178451333125e-06,4.262712097360774e-07,2.978097093829496e-05
4.956624037932538e-07,1.241276061387713e-06,4.2750917488692424e-07,2.9872084480361493e-05
4.901388435527811e-07,1.2381303338338113e-06,4.286878891763142e-07,2.9971716619996208e-05
4.845342496030472e-07,1.23446003005885e-06,4.298071617961048e-07,3.007849997433859e-05
4.788576064595019e-07,1.2303505864787377e-06,4.308666177489582e-07,3.0191075852869605e-05
4.731240666608547e-07,1.2258857747542977e-06,4.3186618539101936e-07,3.0308056234353205e-05
4.673524448525653e-07,1.221139531941363e-06,4.328051210719297e-07,3.042802608469937e-05
4.6156131890666817e-07,1.2161729092390767e-06,4.3367974677323635e-07,3.054962335642556e-05
4.5576728165529353e-07,1.2110341168016612e-06,4.344836562898766e-07,3.0671590276141854e-05
4.4998484487182656e-07,1.2057623723151658e-06,4.352110239766722e-07,3.079273594007023e-05
4.442280581241032e-07,1.200398976175614e-06,4.3585881908994245e-07,3.091185815212513e-05
4.3851398855968553e-07,1.1949963220566822e-06,4.3642515278154183e-07,3.1027685041775645e-05
4.3286456762480784e-07,1.1896129071334606e-06,4.369061523960075e-07,3.113885168243955e-05
4.273043865631351e-07,1.184303468388112e-06,4.372944058506947e-07,3.1243888758490264e-05
4.218568570940033e-07,1.179117604403453e-06,4.375790998857292e-07,3.1341233924894995e-05
4.1654224732038883e-07,1.1741020016187428e-06,4.377471772298319e-07,3.142931042480365e-05
4.113783453508705e-07,1.1693050362773336e-06,4.3778570925220147e-07,3.1506660737412876e-05
4.0638126092431066e-07,1.1647914191752178e-06,4.3768474949608756e-07,3.157204841942885e-05
4.0156427448201707e-07,1.1606553474193979e-06,4.374383706155387e-07,3.162446251705025e-05
3.969363279255778e-07,1.157017142518662e-06,4.370440327445896e-07,3.166305381619376e-05
3.925026593050354e-07,1.1540135969661915e-06,4.365020038998036e-07,3.168711592115871e-05
3.882673158709627e-07,1.1517911728933986e-06,4.358140499391431e-07,3.169616607534624e-05
3.842345158148994e-07,1.1504947480810128e-06,4.3498156450158406e-07,3.1689986356924707e-05
3.804071782563741e-07,1.1502536222687444e-06,4.340052594806631e-07,3.1668536862514096e-05
3.767855616184357e-07,1.1511734386594885e-06,4.3288613603350324e-07,3.163185713479685e-05
3.7336878914351455e-07,1.153331923747458e-06,4.316260274783457e-07,3.157999675285399e-05
3.7015685140363924e-07,1.1567751381693415e-06,4.302273542768174e-07,3.151293018206056e-05
3.671498884386671e-07,1.1615163682494555e-06,4.2869279919908255e-07,3.143049657779558e-05
3.643465892497962e-07,1.1675390051666048e-06,4.270255057821393e-07,3.133240406263754e-05
3.617449322808862e-07,1.1748040467845677e-06,4.252289939052502e-07,3.1218268840880023e-05
3.5934426447130273e-07,1.1832590988986884e-06,4.233061786233354e-07,3.108765622899096e-05
3.5714674692250156e-07,1.1928427178547152e-06,4.212591595534282e-07,3.0940114374774814e-05
3.5515872917522397e-07,1.2034847026427089e-06,4.190907518281219e-07,3.0775190991921866e-05
3.533913490021079e-07,1.2151079867378135e-06,4.1680579302681635e-07,3.059243018786755e-05
3.518582399934951e-07,1.2276345747909595e-06,4.1441077612840964e-07,3.0391368427118208e-05
3.505720273825905e-07,1.240993052261332e-06,4.1191374218477786e-07,3.0171552613294544e-05
3.495429288421561e-07,1.255122868282294e-06,4.093253138355656e-07,2.993258821334493e-05
3.487794248661884e-07,1.2699727251438429e-06,4.066582889013989e-07,2.9674206306210567e-05
3.482893183251542e-07,1.2854944952439235e-06,4.039258577839768e-07,2.939630600646502e-05
3.4807979147367693e-07,1.3016362097878869e-06,4.0114078094982646e-07,2.9098928190049165e-05
3.481556084713374e-07,1.3183371648228115e-06,3.9831500355896156e-07,2.8782192837937065e-05
3.485169735441188e-07,1.335526147735421e-06,3.954589058288328e-07,2.84462679625013e-05
3.491593729085085e-07,1.353121836936756e-06,3.925813705859221e-07,2.8091376103007685e-05
3.500744574283117e-07,1.3710352624900114e-06,3.896912915647686e-07,2.771781192795169e-05
3.512505521799494e-07,1.3891750410186523e-06,3.867993450634047e-07,2.7325966773796828e-05
3.526751746915793e-07,1.4074520856760522e-06,3.8391841049115546e-07,2.6916350408863778e-05
3.54339909292659e-07,1.425779433462705e-06,3.8106212841343174e-07,2.648958934217465e-05
3.562423363180846e-07,1.4440690874326181e-06,3.782429742876643e-07,2.6046418835864002e-05
3.583832706072176e-07,1.4622296934901769e-06,3.7547198280348026e-07,2.558769725409509e-05
3.6076392336351795e-07,1.480164877932463e-06,3.727605071378351e-07,2.5114416556957528e-05
3.633845104765271e-07,1.4977722872326514e-06,3.7012315669316e-07,2.462767729738253e-05
3.6624246534643936e-07,1.5149452057780149e-06,3.6758143999444706e-07,2.412864571983867e-05
3.6933156423188077e-07,1.5315758876388858e-06,3.65165652099644e-07,2.3618510872848223e-05
3.7264334547368887e-07,1.547558510720634e-06,3.629112794410706e-07,2.3098466163965107e-05
3.7616879845847113e-07,1.562794124258442e-06,3.6085256241724026e-07,2.2569768408965465e-05
3.798984034827829e-07,1.5772007169709748e-06,3.590196958950764e-07,2.2033822245384007e-05
3.8382124417395724e-07,1.5907224178772629e-06,3.574392905022821e-07,2.149214236872088e-05
3.879257111039714e-07,1.6033268307245769e-06,3.561339355052416e-07,2.094621654678984e-05
3.922017842459347e-07,1.6149912675519485e-06,3.551207708375899e-07,2.039744205033732e-05
3.966411659412621e-07,1.625691540139329e-06,3.5441099802321905e-07,1.9847193038228805e-05
4.0123486817456314e-07,1.6354012737291549e-06,3.540106188796717e-07,1.929696742085865e-05
4.0597209316260047e-07,1.644095510387034e-06,3.539214920841203e-07,1.874853926539292e-05
4.108413675768e-07,1.6517513775016202e-06,3.5414169033444525e-07,1.820399692090229e-05
4.1583128388986797e-07,1.6583475552812589e-06,3.5466528295704815e-07,1.7665610770100248e-05
4.2092912749981573e-07,1.6638655356642582e-06,3.5548323070862e-07,1.7135628562867335e-05
4.2611888154337785e-07,1.6682911038652814e-06,3.565848406023442e-07,1.6616130199908307e-05
4.313807107775111e-07,1.6716168161301388e-06,3.5795706573931387e-07,1.6109027875835562e-05
4.366914723444417e-07,1.673849545257022e-06,3.5958290728827147e-07,1.561622875657705e-05
4.420250389381258e-07,1.6750167071819744e-06,3.614419915205536e-07,1.5139833441083109e-05
4.473521465233843e-07,1.6751594357362374e-06,3.635117893135357e-07,1.4682188786603159e-05
4.5264023563622647e-07,1.674319981962428e-06,3.6576786147825105e-07,1.4245754247134147e-05
4.5785513344712315e-07,1.6725413684345897e-06,3.6818513063896775e-07,1.3832878867117109e-05
4.629657904641049e-07,1.669880449235753e-06,3.7073946929011395e-07,1.344561799593281e-05
4.679494438801412e-07,1.6664173937547603e-06,3.73407088424527e-07,1.3085659365409136e-05
4.7279300770058385e-07,1.6622486653370388e-06,3.761629699685706e-07,1.2754316681589238e-05
4.774897123066844e-07,1.6574712215372371e-06,3.789802554737816e-07,1.2452548081576125e-05
4.820337357802498e-07,1.6521727103974854e-06,3.81830569832366e-07,1.218106515103215e-05
4.86417274851719e-07,1.6464290780788715e-06,3.846845940943528e-07,1.1940590188420446e-05
4.906324705646872e-07,1.6403030309508156e-06,3.875121714342175e-07,1.1732111851575191e-05
4.946751751153323e-07,1.6338417141045775e-06,3.90282200255675e-07,1.1556902905413744e-05
4.985462836834203e-07,1.6270765594185629e-06,3.92963467544615e-07,1.1416325420397115e-05
5.022506490705629e-07,1.6200265053644432e-06,3.9552650584625036e-07,1.1311621765817568e-05
5.057956683807892e-07,1.612701384157912e-06,3.97944797390118e-07,1.1243763735072986e-05
5.091898096819307e-07,1.605102270400874e-06,4.0019446747216633e-07,1.1213420906336019e-05
5.12440677568389e-07,1.5972206968907342e-06,4.022533468397586e-07,1.1221164217735693e-05
5.155533551164203e-07,1.5890406145678031e-06,4.041004045833072e-07,1.1267769287970945e-05
5.185295302617548e-07,1.5805440985104024e-06,4.0571637658700155e-07,1.135431009386532e-05
5.213673011299446e-07,1.571718860517748e-06,4.070849887714536e-07,1.148202042687763e-05
5.240618976116869e-07,1.5625625919592824e-06,4.081930627334293e-07,1.1652118534110695e-05
5.266074530657035e-07,1.5530795275775983e-06,4.090294557739713e-07,1.186567727638866e-05
5.289984300596658e-07,1.5432734055723875e-06,4.095840652509344e-07,1.2123524910631324e-05
5.31228703603739e-07,1.5331456016232618e-06,4.098477216984247e-07,1.2426152042248618e-05
5.332894118860654e-07,1.5226991771530382e-06,4.0981378730203926e-07,1.2773616857151558e-05
5.351694908335528e-07,1.5119437400934226e-06,4.094814101373508e-07,1.3165484306719455e-05
5.368608691860203e-07,1.5008963666529136e-06,4.088575889813163e-07,1.360082298987357e-05
5.383644376305743e-07,1.4895760813297536e-06,4.079556902662804e-07,1.4078212412686976e-05
5.396916981628229e-07,1.4779977773970132e-06,4.067920754274703e-07,1.4595715295963382e-05
5.408640524327634e-07,1.4661733828692625e-06,4.0538349004268326e-07,1.515085053513378e-05
5.419128528854607e-07,1.4541153818107261e-06,4.037459335124567e-07,1.574061546708006e-05
5.428771679997561e-07,1.4418358044820744e-06,4.018948444073955e-07,1.6361561969096652e-05
