6.180495810530655e-07,1.369444566677521e-06,3.898642502739325e-07,3.423802721795117e-05
6.19199524336885e-07,1.3729555872058838e-06,3.877304771305418e-07,3.4069788772963925e-05
6.198118976140864e-07,1.3765091422368285e-06,3.8542638212859525e-07,3.389113458079701e-05
6.199079403458726e-07,1.3800838693997627e-06,3.8295498063451305e-07,3.370350217342035e-05
6.195103644838207e-07,1.38366147326511e-06,3.803204497485656e-07,3.3508452195267896e-05
6.186450064271504e-07,1.3872380912294848e-06,3.7752866282099773e-07,3.3307961571208906e-05
6.17339876164146e-07,1.390830313059485e-06,3.745878814599454e-07,3.310455268588653e-05
6.156227078014692e-07,1.3944715595256138e-06,3.7150794493158545e-07,3.290118362080292e-05
6.135194409469363e-07,1.3982041724241406e-06,3.682989362440978e-07,3.2701048438315625e-05
6.110536129498739e-07,1.4020714552435296e-06,3.6497214678689606e-07,3.2507374284338846e-05
6.082457315252336e-07,1.4061102245450807e-06,3.615419935438964e-07,3.232324057255607e-05
6.051126169744286e-07,1.410345888021781e-06,3.580254345223494e-07,3.215144347169233e-05
6.016673058976786e-07,1.4147914098709738e-06,3.5443938574773907e-07,3.199440768621637e-05
5.979201409301281e-07,1.4194478656742192e-06,3.507985427345272e-07,3.1854137737636906e-05
5.938813595141601e-07,1.4243049471588643e-06,3.4711476255539607e-07,3.173220065187929e-05
5.895642020034406e-07,1.4293445604448559e-06,3.433976557719915e-07,3.162971637817059e-05
5.849868201327696e-07,1.4345484292824948e-06,3.396550120220187e-07,3.1547329032178024e-05
5.801723007032842e-07,1.439901445131534e-06,3.3589291000617545e-07,3.148517115029885e-05
5.751469401502098e-07,1.4453857391866014e-06,3.321163368971693e-07,3.144285631405096e-05
5.699372613307737e-07,1.4509730346972167e-06,3.283300307425269e-07,3.1419514792939964e-05
5.645671200593214e-07,1.4566219829770505e-06,3.245390461705719e-07,3.1413879999392406e-05
5.590564295860532e-07,1.462280283700514e-06,3.207488724732047e-07,3.1424434448530464e-05
5.534215847066014e-07,1.4678905490060625e-06,3.1696484237566254e-07,3.1449574827249104e-05
5.476764646012289e-07,1.473395272641718e-06,3.131916438532361e-07,3.148773217075258e-05
5.418335902873693e-07,1.4787381231005875e-06,3.094342646811973e-07,3.1537443416148024e-05
5.359051663644782e-07,1.483865397728568e-06,3.056999280664545e-07,3.15973960779145e-05
5.299028366261918e-07,1.4887262593523688e-06,3.019991264558645e-07,3.166643821858028e-05
5.238370039231763e-07,1.4932691490168189e-06,2.98344662209806e-07,3.174354159600458e-05
5.177190357542295e-07,1.4974404771709203e-06,2.947493514967757e-07,3.1827724275268956e-05
5.115656981822229e-07,1.5011893555579662e-06,2.912241778306753e-07,3.191794869637401e-05
5.054001742247839e-07,1.5044729162618788e-06,2.877782162374195e-07,3.2013027137923466e-05
4.992480927740148e-07,1.5072579206307503e-06,2.844196051237287e-07,3.2111608446951695e-05
4.931335050124438e-07,1.5095212524671447e-06,2.811556898088762e-07,3.221226351431115e-05
4.870778257776661e-07,1.5112511031829994e-06,2.7799218675361893e-07,3.2313567449377994e-05
4.810997425669921e-07,1.512445867622665e-06,2.7493287117446213e-07,3.241411729469269e-05
4.7521453083987806e-07,1.5131087619129248e-06,2.719799705243726e-07,3.251252313739916e-05
4.69433977203956e-07,1.5132414982071838e-06,2.6913437111449673e-07,3.2607403077209585e-05
4.637675431838426e-07,1.5128456124330022e-06,2.6639579174570397e-07,3.2697379851993625e-05
4.5822318764338257e-07,1.511933859994832e-06,2.6376342814441236e-07,3.278110968973935e-05
4.5280734138521177e-07,1.510537965339516e-06,2.6123655638638856e-07,3.285737893792013e-05
4.4752602062223633e-07,1.5087049320507525e-06,2.5881425586068416e-07,3.292520235367725e-05
4.4238710898925436e-07,1.506493799028901e-06,2.564949427859653e-07,3.298384237559764e-05
4.374008416876993e-07,1.5039764614619124e-06,2.542773947843848e-07,3.3032766245334366e-05
4.3257741247892255e-07,1.501231185027524e-06,2.521624672285618e-07,3.307158180440892e-05
4.2792433890303776e-07,1.4983296490374975e-06,2.501527884776312e-07,3.309997310513744e-05
4.234472115844021e-07,1.495330991018746e-06,2.482508412554733e-07,3.311764101829715e-05
4.1915377947734975e-07,1.492286362422995e-06,2.464584812523332e-07,3.312423946890202e-05
4.1505603639676255e-07,1.4892436874452872e-06,2.447783271543121e-07,3.3119332630230915e-05
4.11166781906001e-07,1.4862439889185136e-06,2.4321432590955016e-07,3.3102409368360935e-05
4.074947305197735e-07,1.4833129462298922e-06,2.4177020206360843e-07,3.307292525267863e-05
4.040432159447777e-07,1.4804566434049317e-06,2.404478820087732e-07,3.303032429502897e-05
4.0081216358431505e-07,1.4776635951961013e-06,2.392475860021132e-07,3.2974033634900285e-05
3.9780133570659907e-07,1.4749083046716212e-06,2.381685624265544e-07,3.290347858158294e-05
3.95013238394961e-07,1.4721544191247292e-06,2.3720943368669228e-07,3.281821826016887e-05
3.9245434972794583e-07,1.4693597173120674e-06,2.3636883601414103e-07,3.271814265840426e-05
3.9013479338896365e-07,1.466481114962854e-06,2.356463082016326e-07,3.260349940456897e-05
3.8806620658664703e-07,1.4634761652584559e-06,2.350416810744286e-07,3.2474740654724605e-05
3.8625811111721993e-07,1.4603029684168497e-06,2.3455305571277426e-07,3.23323666700267e-05
3.8471491885292603e-07,1.456921215157296e-06,2.3417582558190279e-07,3.2176817542414874e-05
3.834346067154095e-07,1.453293923046063e-06,2.3390371330575843e-07,3.200840913620821e-05
3.824087739536965e-07,1.449387880556711e-06,2.337304422080636e-07,3.1827323918571773e-05
3.816241797015074e-07,1.4451719863976567e-06,2.3365098856031398e-07,3.163363176364425e-05
3.8106556846673043e-07,1.4406182615896411e-06,2.3366308350492997e-07,3.1427322243605215e-05
3.807175093944266e-07,1.4357088690162482e-06,2.337696295112337e-07,3.120834533549905e-05
3.8056347353680725e-07,1.430441470498364e-06,2.339800607842855e-07,3.0976643264913297e-05
3.805844323988629e-07,1.4248260306898017e-06,2.3430859040620948e-07,3.073215436183117e-05
3.807591877492262e-07,1.4188781863334317e-06,2.347717930086529e-07,3.0474790638764772e-05
3.810654512359421e-07,1.4126151026868234e-06,2.3538761808194142e-07,3.0204419486215692e-05
3.8148120085755856e-07,1.4060527111550795e-06,2.361737402149802e-07,2.9920890232889808e-05
3.8198620584256246e-07,1.3992033908982055e-06,2.3714533683956407e-07,2.962410868386477e-05
3.8256227341221816e-07,1.3920758333037251e-06,2.3831443110823922e-07,2.9314104780737226e-05
3.8319252446775963e-07,1.3846781047019377e-06,2.396898261893657e-07,2.899103079170381e-05
3.838615341501447e-07,1.3770210752688923e-06,2.412761009279089e-07,2.8655089591731416e-05
3.8455634360438905e-07,1.3691173991239106e-06,2.430724051761631e-07,2.8306461386805663e-05
3.852668130492885e-07,1.3609786105412705e-06,2.4507265520320496e-07,2.7945281944374373e-05
3.859847324080638e-07,1.3526155746435086e-06,2.472676518487185e-07,2.757165352885081e-05
3.867024561287061e-07,1.344038692552395e-06,2.4964776164402053e-07,2.718565713029509e-05
3.8741144382282797e-07,1.3352547780514208e-06,2.522038905076686e-07,2.678736676645844e-05
3.8810189822251417e-07,1.3262644492546052e-06,2.549266557795241e-07,2.637687206217996e-05
3.887652987108485e-07,1.317061479581651e-06,2.578072467135389e-07,2.5954311373094903e-05
3.8939721265522745e-07,1.3076326906413204e-06,2.608407091976789e-07,2.551991502871813e-05
3.899966492669986e-07,1.297959376910846e-06,2.640268480075302e-07,2.5074033957686104e-05
3.905648064815624e-07,1.28802332029372e-06,2.673674616311014e-07,2.461712147727409e-05
3.9110671269106586e-07,1.277818758869987e-06,2.708643317831269e-07,2.4149688601238986e-05
3.9163251551518247e-07,1.2673640191288315e-06,2.745192947792189e-07,2.367228036784857e-05
3.92155094897149e-07,1.2567011493053802e-06,2.783332579634692e-07,2.3185493513695668e-05
3.926862944864732e-07,1.2458816335360291e-06,2.8230365364469054e-07,2.2690066887683043e-05
3.932350102211002e-07,1.2349515525885346e-06,2.8642344283078033e-07,2.2187017054517974e-05
3.9380766267266046e-07,1.2239481692764281e-06,2.906821586734283e-07,2.1677654975128878e-05
3.94409507930492e-07,1.2129041369427109e-06,2.9506650971338263e-07,2.116342569170356e-05
3.9504462710769523e-07,1.2018482038015578e-06,2.995599233517444e-07,2.064574128790936e-05
3.9571462125944574e-07,1.1908008415623457e-06,3.041425449188509e-07,2.0125938526893e-05
3.964179980837413e-07,1.1797721183254415e-06,3.087926214143045e-07,1.960535178278232e-05
3.971506866657642e-07,1.1687659826030735e-06,3.134879803663972e-07,1.908544892485411e-05
3.979064751374847e-07,1.1577912756625318e-06,3.182060429027713e-07,1.8567924974114735e-05
3.9867681920991384e-07,1.146874570522743e-06,3.2292316529214905e-07,1.8054661574054576e-05
3.994510834686067e-07,1.1360616126354919e-06,3.2761437958037e-07,1.754758590586248e-05
4.0021806493704035e-07,1.1254035802761549e-06,3.322531892146615e-07,1.704852809563327e-05
4.0096704381582687e-07,1.114942871112077e-06,3.36812176717766e-07,1.6559176231567573e-05
4.016875639680957e-07,1.1047123258705808e-06,3.4126608975377286e-07,1.6081185428844917e-05
4.023696784754206e-07,1.0947504533881952e-06,3.455953387830278e-07,1.5616355602522754e-05
4.03004549633408e-07,1.0851217921962913e-06,3.497855279680216e-07,1.5166721066203605e-05
4.0358510516803604e-07,1.075922203011131e-06,3.538235961990488e-07,1.473449880924484e-05
4.0410780013630576e-07,1.0672650056318122e-06,3.576949427828011e-07,1.4321931328420419e-05
4.0457494634409964e-07,1.0592626947336391e-06,3.6138330134411633e-07,1.3931089906000562e-05
4.0499533741720577e-07,1.0520125795909046e-06,3.648723212811846e-07,1.3563737482524272e-05
4.053814920914954e-07,1.045587701700159e-06,3.681475910535877e-07,1.3221281232117649e-05
4.057460031576078e-07,1.0400349280681602e-06,3.711984496689108e-07,1.2904759118263555e-05
4.0610123977605853e-07,1.0353771025324712e-06,3.740188919586122e-07,1.2614886264607806e-05
4.064613241475075e-07,1.0316152740750972e-06,3.7660661157748406e-07,1.235226444594494e-05
4.0684171838999636e-07,1.0287319737881392e-06,3.7896079304032657e-07,1.211770400765879e-05
4.072564236314015e-07,1.0266971105798596e-06,3.8108065141988726e-07,1.1912403773842565e-05
4.077175947723389e-07,1.0254742107721442e-06,3.82965178691452e-07,1.1737855589605154e-05
4.0823852743173705e-07,1.025022417817939e-06,3.846132314757308e-07,1.1595628183051985e-05
4.088348714333204e-07,1.0252949958228742e-06,3.860236252201632e-07,1.1487171213879073e-05
4.0952193302803457e-07,1.02623828485617e-06,3.871952262251301e-07,1.1413663054622513e-05
4.1031314687170226e-07,1.027790444781758e-06,3.8812732230416524e-07,1.1376030005178962e-05
4.11222738496537e-07,1.0298803260845829e-06,3.888199622587824e-07,1.1375184120343789e-05
4.122684550424397e-07,1.0324290706969602e-06,3.892732445319943e-07,1.1412221261965855e-05
4.1347097193613746e-07,1.0353527956151808e-06,3.894864452580849e-07,1.1488393879428267e-05
4.1485190023712406e-07,1.0385648565782451e-06,3.894587049062369e-07,1.1604959150404116e-05
4.164326255736097e-07,1.0419794355310746e-06,3.891903388086181e-07,1.176302618174879e-05
4.182338852473911e-07,1.0455147556446616e-06,3.8868367578583524e-07,1.1963441166454026e-05
4.202757363806391e-07,1.0490933261978277e-06,3.8794439840423174e-07,1.2206712104233307e-05
4.225770735545077e-07,1.0526433563154143e-06,3.869825732485456e-07,1.2492955475543872e-05
4.251534026169594e-07,1.056104434323162e-06,3.8581184979682996e-07,1.2821867758053556e-05
4.280133564094508e-07,1.0594327179001743e-06,3.844483538600608e-07,1.3192741160323735e-05
4.3115662551995413e-07,1.062601690441644e-06,3.829103256662294e-07,1.3604500959533534e-05
4.3457565575652714e-07,1.0655996194417294e-06,3.8121717998930246e-07,1.4055710235541708e-05
4.38259557018934e-07,1.068424852985654e-06,3.793880185295543e-07,1.4544532083885446e-05
4.421964968820252e-07,1.071079757578703e-06,3.774409515782813e-07,1.5068682302858856e-05
4.4637461731593255e-07,1.0735657371263302e-06,3.753931646572383e-07,1.5625410239862548e-05
4.507839044110101e-07,1.0758802788286174e-06,3.732613267288497e-07,1.6211561175727033e-05
4.5541797445870783e-07,1.0780152700075708e-06,3.710619227350367e-07,1.68237362916001e-05
4.6027321488220815e-07,1.079957729982647e-06,3.688104578685486e-07,1.7458464610872437e-05
4.6534564554260904e-07,1.0816926441638843e-06,3.6652008807081045e-07,1.811230445458945e-05
4.706275746337671e-07,1.0832040717634508e-06,3.6420112401351827e-07,1.8781896358812758e-05
4.761062870223362e-07,1.0844741050553622e-06,3.618617902754919e-07,1.946399897405129e-05
4.817650506805622e-07,1.0854850044054199e-06,3.5951043102774223e-07,2.0155473723422722e-05
4.875835581854577e-07,1.0862290007548978e-06,3.571583620700235e-07,2.0853219665547547e-05
4.93537053644448e-07,1.0867210164974831e-06,3.5482086516659265e-07,2.1554129444193605e-05
4.99596752509879e-07,1.0870022512144778e-06,3.5251494602666266e-07,2.225507788620344e-05
5.057319857275275e-07,1.0871314556864004e-06,3.502556438835974e-07,2.295289888820504e-05
5.119118607453879e-07,1.0871730191695904e-06,3.480537220420626e-07,2.364437680991893e-05
5.181047831104835e-07,1.0871874213686935e-06,3.4591554632205787e-07,2.4326288856290585e-05
5.242765028091023e-07,1.0872232998578907e-06,3.438440181830391e-07,2.499545051749397e-05
5.303893165883094e-07,1.087312725204217e-06,3.418397376370448e-07,2.564873990993119e-05
5.364037034710723e-07,1.0874710207677594e-06,3.399026835610992e-07,2.628315219979978e-05
5.422812585795563e-07,1.0876997367579487e-06,3.3803472885408647e-07,2.68958983397826e-05
5.479879196472163e-07,1.0879942408962609e-06,3.3624194862151786e-07,2.748448052929848e-05
5.534965384703136e-07,1.0883600145479075e-06,3.3453437201744443e-07,2.804667464753109e-05
5.587867938664972e-07,1.0888315693290172e-06,3.329229180078068e-07,2.8580437767517363e-05
5.638420175632311e-07,1.089475019770419e-06,3.314166299458441e-07,2.908382686169641e-05
5.686458083632975e-07,1.0903694284832734e-06,3.300228022567961e-07,2.9554985308124243e-05
5.73181474400149e-07,1.0915870558119317e-06,3.287497901396096e-07,2.9992191047298705e-05
5.774343477352403e-07,1.093191037524355e-06,3.276095425807692e-07,3.0393954024612184e-05
5.813944534408014e-07,1.095250818486969e-06,3.266172834424676e-07,3.075916122359264e-05
5.850564727989298e-07,1.0978585594906528e-06,3.257899505068886e-07,3.108718883717355e-05
5.884163830985986e-07,1.1011271290162018e-06,3.2514469066159354e-07,3.1377863427351875e-05
5.914678999089891e-07,1.105171578599887e-06,3.246960181699238e-07,3.163128848001618e-05
5.942013979499328e-07,1.1100905609611251e-06,3.24452801789926e-07,3.184765309700993e-05
5.966047417349367e-07,1.1159566464350595e-06,3.2441774070736325e-07,3.2027105882365664e-05
5.986644209411786e-07,1.1228168457758353e-06,3.2458898975335694e-07,3.216972391574571e-05
6.003661740242694e-07,1.1306992227004276e-06,3.2496129862173273e-07,3.227554402429787e-05
6.016953972217264e-07,1.1396158626643222e-06,3.255254847150217e-07,3.2344610982458577e-05
6.026384897840271e-07,1.1495585197330729e-06,3.2626804234270097e-07,3.237711655378904e-05
6.03186584373755e-07,1.1604937939470012e-06,3.271719701545572e-07,3.237370745490536e-05
6.03341007575084e-07,1.1723635848305e-06,3.2821762284521925e-07,3.233577976994776e-05
6.031162632003342e-07,1.1850904429335831e-06,3.2938314154910733e-07,3.2265500986746774e-05
6.025380555324621e-07,1.1985853307903052e-06,3.306451848503077e-07,3.216558193054861e-05
6.016388163180316e-07,1.2127547144608813e-06,3.319805829276543e-07,3.2038976906657525e-05
6.004530414938308e-07,1.2275057301970628e-06,3.3336893484666986e-07,3.1888642525481785e-05
5.990132160268282e-07,1.242752985283327e-06,3.347943426719445e-07,3.1717501388402444e-05
5.973480655735406e-07,1.2584280623509336e-06,3.3624502659613085e-07,3.152865567183103e-05
5.954829886849843e-07,1.2744825384533735e-06,3.3771249302641463e-07,3.1325611276764445e-05
5.934398587199954e-07,1.2908787957959743e-06,3.391910589439744e-07,3.111227033339478e-05
5.912358299168652e-07,1.3075770323106702e-06,3.406777137800439e-07,3.0892749393557884e-05
5.888836035023996e-07,1.3245279506561896e-06,3.4217286119708207e-07,3.067118504574175e-05
5.8639354886688e-07,1.3416744450375476e-06,3.436799544813654e-07,3.0451579183857647e-05
5.837761596348327e-07,1.3589603536861472e-06,3.452025253326404e-07,3.0237672871730653e-05
5.810438928523464e-07,1.3763356708471143e-06,3.467409322607746e-07,3.003283973979039e-05
5.782110411786686e-07,1.393750019125753e-06,3.482909351856061e-07,2.9840006636712798e-05
5.752914535498675e-07,1.4111438704859689e-06,3.49844018695186e-07,2.966161625970371e-05
5.722961468938154e-07,1.4284525907898122e-06,3.5138875980841843e-07,2.9499627123904774e-05
5.692325816816289e-07,1.4456219005150342e-06,3.5291227138729966e-07,2.9355510979442724e-05
5.661064909309249e-07,1.462617750621828e-06,3.5440106045275815e-07,2.9230223805370994e-05
5.62924193566838e-07,1.4794195483771212e-06,3.55841261280481e-07,2.912418251938223e-05
5.596917334408152e-07,1.4960045225044143e-06,3.5721861635378907e-07,2.9037277372074622e-05
5.564124331815995e-07,1.5123376695307086e-06,3.585196342375268e-07,2.896894453961483e-05
5.530871964525345e-07,1.5283725758401483e-06,3.597339891492206e-07,2.8918326485287342e-05
5.497169321960836e-07,1.5440571140083266e-06,3.6085528329834497e-07,2.8884463921832983e-05
5.463031483877493e-07,1.559335283535797e-06,3.6187903865444313e-07,2.886641743844715e-05
5.428463829106702e-07,1.5741443925516639e-06,3.628006406383807e-07,2.8863301261110413e-05
5.393456390304482e-07,1.5884125089227983e-06,3.636159611590462e-07,2.8874286004154084e-05
5.3579890004457e-07,1.6020587185923747e-06,3.6432418081948955e-07,2.8898623622438896e-05
5.32203233677554e-07,1.6149961443052861e-06,3.6492944332832153e-07,2.8935686239334736e-05
5.28556611380093e-07,1.6271360275425259e-06,3.6543886151416824e-07,2.8984952776162456e-05
5.248612042128489e-07,1.638390797219931e-06,3.65859111607465e-07,2.9045911732093086e-05
5.211235036203897e-07,1.6486754126876306e-06,3.661953055290915e-07,2.9117923538971178e-05
5.173517954261066e-07,1.6579076825501006e-06,3.664517777667607e-07,2.920012537353465e-05
5.135559239878852e-07,1.666011526646381e-06,3.666329987488957e-07,2.9291442208126204e-05
5.097487863243399e-07,1.6729243268600966e-06,3.667438300577237e-07,2.9390664990547882e-05
5.059465809200497e-07,1.6786025789698529e-06,3.6678885309994384e-07,2.949649904149273e-05
5.021701977659048e-07,1.6830248551493216e-06,3.6677197826188323e-07,2.9607573996114453e-05
4.984481066529113e-07,1.6861929116381824e-06,3.6669627576694996e-07,2.9722482559376123e-05
4.948148289765045e-07,1.6881250837438584e-06,3.6656302556795617e-07,2.98398518381665e-05
4.913054667307347e-07,1.688845275802041e-06,3.6637108124020745e-07,2.9958356777307947e-05
4.87953380204219e-07,1.6883790586744992e-06,3.661169184887135e-07,3.007663122532234e-05
4.847904080840287e-07,1.6867546250822434e-06,3.657947058203091e-07,3.0193166542737782e-05
4.818442288593053e-07,1.6839998958673637e-06,3.653972668970721e-07,3.0306303200918404e-05
4.791342111965718e-07,1.6801377878521196e-06,3.6491815205089957e-07,3.041430870782058e-05
4.766699481612976e-07,1.6751870590422547e-06,3.64353073298411e-07,3.0515487872174566e-05
4.7445267029642496e-07,1.6691729704145392e-06,3.636996215282976e-07,3.0608324443631204e-05
4.724784562429981e-07,1.6621417743325198e-06,3.629560216036957e-07,3.069161731430264e-05
4.7074188377002563e-07,1.6541649546074032e-06,3.6212047116154007e-07,3.0764496875491176e-05
4.692369665721737e-07,1.6453307967264687e-06,3.6119188700688467e-07,3.082629473075708e-05
4.6795506060647574e-07,1.635732625440525e-06,3.601712758311482e-07,3.0876369532158244e-05
4.6688339549327365e-07,1.6254579765970214e-06,3.590625673664119e-07,3.091400314612743e-05
4.660059285748513e-07,1.614580178748439e-06,3.5787292343642073e-07,3.093840854587404e-05
4.6530643152836544e-07,1.603156037183467e-06,3.566124400789089e-07,3.0948784844765285e-05
4.6477336779289884e-07,1.5912289243346094e-06,3.5529214892556075e-07,3.09443379344897e-05
4.6440295924732895e-07,1.5788317011287036e-06,3.539210026114429e-07,3.092433433611615e-05
4.6419757278443136e-07,1.5659877697907401e-06,3.525043660671251e-07,3.0888330604314554e-05
4.6416150422313325e-07,1.5527137846383437e-06,3.5104466347287147e-07,3.083646338128811e-05
4.6429677322250136e-07,1.5390243379613859e-06,3.4954267186445186e-07,3.076949722638844e-05
4.646008192049985e-07,1.524934423189171e-06,3.479980307803645e-07,3.0688619663847464e-05
4.650683541809625e-07,1.5104584690866811e-06,3.4640932889147585e-07,3.059522096163681e-05
4.656954035605937e-07,1.495608783965626e-06,3.4477490891756247e-07,3.049075554423395e-05
4.6648039657577275e-07,1.4803953858688988e-06,3.4309356914468605e-07,3.037671577717788e-05
4.6742212438548344e-07,1.4648292047895202e-06,3.413644618817902e-07,3.025479475826491e-05
4.6851876577991685e-07,1.4489307887993601e-06,3.395874010478049e-07,3.012711367550857e-05
4.697686083396248e-07,1.4327409389062142e-06,3.377635325890781e-07,2.9996268160794702e-05
4.711695528247613e-07,1.4163243977055443e-06,3.3589531103462646e-07,2.9865206249575103e-05
4.727174709216729e-07,1.3997630622924739e-06,3.3398586751306054e-07,2.9737094919416114e-05
4.7440574113775475e-07,1.3831464433944331e-06,3.320380586824559e-07,2.9615188992246705e-05
4.7622595988834246e-07,1.3665654090198057e-06,3.300535719386801e-07,2.9502659007918324e-05
4.781683032278559e-07,1.35010655696525e-06,3.280324359425269e-07,2.9402411311906403e-05
4.802208027932136e-07,1.3338477594500195e-06,3.2597261204201585e-07,2.9316964308632293e-05
4.823685547448632e-07,1.317856675418857e-06,3.238697806223913e-07,2.924840485214804e-05
4.845942606781425e-07,1.3021905430858977e-06,3.217179341731258e-07,2.9198399251362206e-05
4.868792949516147e-07,1.2868994855514007e-06,3.195105702572329e-07,2.9168198988417895e-05
4.892044331297227e-07,1.2720322517809394e-06,3.172413409375653e-07,2.9158600599994012e-05
4.915512480321599e-07,1.2576354737376002e-06,3.149036481528166e-07,2.916989120277689e-05
4.939036606906703e-07,1.2437455899800778e-06,3.124903920523648e-07,2.920182550312791e-05
4.962472984952522e-07,1.230383039711795e-06,3.099952498922976e-07,2.92536506253736e-05
4.98567549582208e-07,1.217553506056527e-06,3.074156666163847e-07,2.9324215000518866e-05
5.00850869383895e-07,1.2052539289033527e-06,3.0475584243420247e-07,2.9412168045419697e-05
5.030889144676587e-07,1.193480340145065e-06,3.020267121786097e-07,2.951615110048205e-05
5.052786928922811e-07,1.1822323607868186e-06,2.992434138231681e-07,2.9634895621449824e-05
5.074181095607655e-07,1.1715124883030162e-06,2.964233880133633e-07,2.976726167550843e-05
5.095027199830349e-07,1.1613284847050353e-06,2.935848819413913e-07,2.9912252160997914e-05
5.115258483978584e-07,1.151703146192846e-06,2.90744983709462e-07,3.006897625054309e-05
5.134822494351388e-07,1.1426828212546002e-06,2.8791880554913374e-07,3.0236567804710713e-05
5.153729647564159e-07,1.134335710700172e-06,2.8512060012597085e-07,3.0414119743858862e-05
5.17206042916011e-07,1.1267400779151729e-06,2.823650725838244e-07,3.0600647343156386e-05
5.189942462641138e-07,1.1199712490154421e-06,2.796666617746397e-07,3.079501933806448e-05
5.207542109653522e-07,1.11409579710456e-06,2.770373253076584e-07,3.099585497139175e-05
5.2250570382095e-07,1.109170477411298e-06,2.744854637468685e-07,3.120147708008884e-05
5.24268349607545e-07,1.1052389671347196e-06,2.720168326846526e-07,3.140996422172555e-05
5.260571178534426e-07,1.1023270327939088e-06,2.696357829992763e-07,3.161926929152433e-05
5.27880096522322e-07,1.1004421980002485e-06,2.6734559400848544e-07,3.1827365752389664e-05
5.297410365922325e-07,1.099581617328627e-06,2.651487697164453e-07,3.203237120011768e-05
5.316449349874721e-07,1.0997489926452276e-06,2.6304740206073e-07,3.223256520575417e-05
5.336020936272065e-07,1.1009747988560896e-06,2.6104245190908606e-07,3.2426269942502254e-05
5.356276491678946e-07,1.1033220429706892e-06,2.591329610416237e-07,3.261171849383038e-05
5.377369644954207e-07,1.1068666955009166e-06,2.573164288902189e-07,3.278707358856296e-05
5.399408488326476e-07,1.111669909106262e-06,2.5558925263717907e-07,3.29505848989253e-05
5.422440233435876e-07,1.1177678387272683e-06,2.5394665743638377e-07,3.3100758904162004e-05
5.446458471179034e-07,1.1251847458269846e-06,2.5238300338985647e-07,3.3236486523473125e-05
5.471414938631155e-07,1.133953435756068e-06,2.5089353939165826e-07,3.335709542221082e-05
5.497229854238164e-07,1.144124299099219e-06,2.4947823369287965e-07,3.346225760442352e-05
5.523798990464138e-07,1.1557610654753129e-06,2.4814483474361897e-07,3.355178209269845e-05
5.5510009649998e-07,1.1689332836177749e-06,2.469067234301548e-07,3.3625416673215615e-05
5.578711616414805e-07,1.1837101902153229e-06,2.457772758924108e-07,3.3682740484024047e-05
5.606832527228201e-07,1.200153854725581e-06,2.447662482309404e-07,3.372315423680273e-05
5.635318580596343e-07,1.2183103850144975e-06,2.438795381310936e-07,3.374591590899758e-05
5.664177189849769e-07,1.2382020535965255e-06,2.431202921360923e-07,3.3750180988123143e-05
5.693447896583269e-07,1.259824862818358e-06,2.4248972056848996e-07,3.373511797207685e-05
5.723186445399418e-07,1.2831546993660378e-06,2.4198724133402353e-07,3.370019335622597e-05
5.753439919682132e-07,1.308159321109198e-06,2.416104739264119e-07,3.3645473817091025e-05
5.784205491974155e-07,1.3348062670495191e-06,2.4135556786391537e-07,3.357165247185889e-05
5.8154067797813e-07,1.3630590588837277e-06,2.412180805247476e-07,3.347981367321267e-05
5.846897383635239e-07,1.3928650432324044e-06,2.4119419711453927e-07,3.3371188945324355e-05
5.878470900552084e-07,1.4241458831103476e-06,2.412818384692421e-07,3.324700149989809e-05
5.909879566863422e-07,1.4567956956962066e-06,2.414812776352698e-07,3.3108393122083865e-05
5.940867386866734e-07,1.490681989263172e-06,2.417944757005273e-07,3.295652692880825e-05
5.971192833645469e-07,1.5256467431302039e-06,2.422235465586875e-07,3.2792846651502115e-05
6.000619332170265e-07,1.5615095244413072e-06,2.427698782051153e-07,3.2619241982945563e-05
6.028899703655263e-07,1.5980730592045112e-06,2.434337251463222e-07,3.243802782805672e-05
6.055790578493619e-07,1.6351289104867647e-06,2.442136397357989e-07,3.225187381447529e-05
6.081082233234568e-07,1.672460264978462e-06,2.451064722814961e-07,3.206373115928833e-05
6.104602155217587e-07,1.7098428063570049e-06,2.4610773066905745e-07,3.187670876362221e-05
6.12618703350571e-07,1.7470460857681462e-06,2.4721105308082966e-07,3.169388284331021e-05
6.145663229363477e-07,1.7838354626764889e-06,2.4840734358547805e-07,3.151806635720321e-05
6.162859530891708e-07,1.8199750820680347e-06,2.4968467169461196e-07,3.1351608372128166e-05
6.177625362526748e-07,1.855231975180119e-06,2.510291446130352e-07,3.1196298636053384e-05
6.189827055746116e-07,1.889380897908339e-06,2.524269107566321e-07,3.105337258811954e-05
6.199329875406538e-07,1.922209907444581e-06,2.538660757737583e-07,3.0923558967991016e-05
6.205984525024116e-07,1.953524612894578e-06,2.553369194744256e-07,3.080714589484082e-05
6.209624725772458e-07,1.983148556398517e-06,2.568312629478003e-07,3.070405503283591e-05
6.210071084393391e-07,2.010920196021104e-06,2.5834269297408926e-07,3.0613888905041635e-05
6.20713691803265e-07,2.0366909066792846e-06,2.5986694617181285e-07,3.053594278258471e-05
6.200641900578308e-07,2.060327299016605e-06,2.6140105896793147e-07,3.0469256470464165e-05
6.190437856514594e-07,2.081715583581484e-06,2.62943458019432e-07,3.0412758756916143e-05
6.176425647049982e-07,2.100767026955032e-06,2.644969957748173e-07,3.036542800293954e-05
6.158549046551203e-07,2.117423719740961e-06,2.6607158646060803e-07,3.032639497701341e-05
6.136788646461107e-07,2.131658788551764e-06,2.67683810973217e-07,3.0294988589830574e-05
6.111167713315445e-07,2.14347134966406e-06,2.693549941596499e-07,3.0270708263133916e-05
6.081759791514622e-07,2.152881267699403e-06,2.711075239401009e-07,3.0253109457303345e-05
6.048688719761459e-07,2.1599216138960467e-06,2.729596947489044e-07,3.024164844303823e-05
6.012112437928046e-07,2.1646283611023617e-06,2.7492327036593214e-07,3.023557449971496e-05
5.972199109954151e-07,2.1670337361475647e-06,2.7700445195658486e-07,3.0233971908850624e-05
5.929110486961218e-07,2.1671672570972147e-06,2.792046725311421e-07,3.0235939308723865e-05
5.882993675707134e-07,2.1650616737932947e-06,2.815204451217254e-07,3.0240704668672783e-05
5.8339820198845e-07,2.1607557521623742e-06,2.839441443216435e-07,3.024754144402364e-05
5.782199973805407e-07,2.154290512000045e-06,2.864659574881266e-07,3.025560263186892e-05
5.727768042256215e-07,2.145705485071148e-06,2.890753855524292e-07,3.026385012757465e-05
5.670822371923096e-07,2.135039272552016e-06,2.9176208902212076e-07,3.0271131812821223e-05
5.611549258176441e-07,2.122333776984312e-06,2.9451671229833787e-07,3.0276311282264392e-05
5.550211709352305e-07,2.107643627390756e-06,2.973310044282065e-07,3.0278315757369484e-05
5.48715211739728e-07,2.0910465135319253e-06,3.001969540506527e-07,3.0276100211300585e-05
5.422771738192142e-07,2.072646079013982e-06,3.0310538132208946e-07,3.0268610454525487e-05
5.357501317662169e-07,2.0525672786603267e-06,3.0604499937705564e-07,3.025478213499521e-05
5.291775227885254e-07,2.030945674452753e-06,3.0900305215067375e-07,3.0233616742889123e-05
5.22602427420935e-07,2.007913546257045e-06,3.119662289815908e-07,3.0204376963728608e-05
5.160697398617561e-07,1.98359220867575e-06,3.149202230566179e-07,3.0166818594133625e-05
5.096280612119186e-07,1.958092930971861e-06,3.178494853002523e-07,3.0121278710797248e-05
5.03327994688748e-07,1.9315210395247727e-06,3.207388954076461e-07,3.006853534076007e-05
4.972185620312813e-07,1.9039812705558128e-06,3.235752498986608e-07,3.0009521077431848e-05
4.913455153967432e-07,1.8755827810154183e-06,3.2634638784966413e-07,2.994505780980476e-05
4.857520675926172e-07,1.8464404404722301e-06,3.2903957213347675e-07,2.9875766760943493e-05
4.804785864480858e-07,1.8166723756276607e-06,3.316406658351064e-07,2.9802161483374904e-05
4.7556045687154467e-07,1.7863970609593121e-06,3.341337105470461e-07,2.972475817599588e-05
4.710283138719179e-07,1.7557334264812038e-06,3.3650141465698826e-07,2.9644093012567798e-05
4.6691159473684646e-07,1.724803711046452e-06,3.387279504707895e-07,2.9560780326623492e-05
4.6324024689407864e-07,1.6937330095345997e-06,3.408027516908902e-07,2.9475741741044672e-05
4.6004161020751116e-07,1.6626427672639581e-06,3.4272122324620577e-07,2.9390415290868434e-05
4.5733577751209137e-07,1.6316462296636957e-06,3.444821904754931e-07,2.930671086162909e-05
4.5513334177384424e-07,1.6008526217634109e-06,3.460861223417797e-07,2.9226777363587452e-05
4.5343681807137244e-07,1.5703752148480292e-06,3.475349125557042e-07,2.9152731739740803e-05
4.522454815555722e-07,1.540334927150376e-06,3.4883098975458107e-07,2.908646727070083e-05
4.5156079820259857e-07,1.5108565669052876e-06,3.4997576146933237e-07,2.902973462103877e-05
4.513888677301062e-07,1.482060978512594e-06,3.5096949697674005e-07,2.8984454327238458e-05
4.5173888333449857e-07,1.4540580113320382e-06,3.518129265996172e-07,2.8952880625080395e-05
4.5261858942244816e-07,1.4269413093104582e-06,3.525083815620781e-07,2.8937460669578277e-05
4.540292025058941e-07,1.4007848189394656e-06,3.5305983724200134e-07,2.894057367367879e-05
4.5596330622546655e-07,1.375644200208115e-06,3.5347310255005004e-07,2.8964285583464892e-05
4.584080032550067e-07,1.351562586185128e-06,3.537556101548576e-07,2.901016377065415e-05
4.613513623863655e-07,1.328573001088119e-06,3.5391497293785093e-07,2.9079190305167384e-05
4.647869251213768e-07,1.306695255029848e-06,3.5395828525213545e-07,2.9171774042895893e-05
4.687145919855708e-07,1.2859355504296541e-06,3.538946321894558e-07,2.928783902099452e-05
4.7314021976940144e-07,1.2662926618983826e-06,3.5373940095221007e-07,2.9426962267691963e-05
4.780738221213764e-07,1.2477651081620605e-06,3.5351494356664845e-07,2.9588503261711247e-05
4.83524498995171e-07,1.2303547642607628e-06,3.532459565287335e-07,2.9771644139583307e-05
4.894940537597698e-07,1.2140651009740006e-06,3.5295522155209907e-07,2.997531523503206e-05
4.959735581438402e-07,1.1988954417751291e-06,3.526638862522827e-07,3.019808225190606e-05
5.029435532025444e-07,1.1848391835041521e-06,3.523945976234077e-07,3.0438121353310168e-05
5.10375983039727e-07,1.171890339586545e-06,3.5217334849110227e-07,3.069334967654062e-05
5.18236183653967e-07,1.1600520545778165e-06,3.520278978436788e-07,3.096163923577361e-05
5.264839987835129e-07,1.1493398576804118e-06,3.519853382324028e-07,3.124096842896825e-05
5.350751773813725e-07,1.1397779755548209e-06,3.520710506495645e-07,3.1529446135870626e-05
5.439633342200203e-07,1.131390903250114e-06,3.523077084453846e-07,3.182526637171613e-05
5.531019873282232e-07,1.124196216541233e-06,3.5271430407948296e-07,3.2126672007842755e-05
5.6244859226801e-07,1.1182037010581178e-06,3.533061219298096e-07,3.243194433561054e-05
5.719692400962595e-07,1.1134174591740472e-06,3.5409469818215e-07,3.273940702672183e-05
5.816387465399448e-07,1.109834479708538e-06,3.550874731961478e-07,3.304744207936341e-05
5.914356446459065e-07,1.1074402402726602e-06,3.562873973973668e-07,3.3354494479513094e-05
6.013363539633997e-07,1.1062057055694826e-06,3.5769305107969884e-07,3.3659017019359145e-05
6.113117026449859e-07,1.106087562972286e-06,3.5930043905817533e-07,3.395935564778793e-05
6.213264734010812e-07,1.1070315932739951e-06,3.611046201087275e-07,3.4253660637344904e-05
6.313400651922689e-07,1.1089768126248772e-06,3.6309923923867727e-07,3.453989391118875e-05
6.413069840088435e-07,1.1118567100033847e-06,3.652762426661948e-07,3.481591605054904e-05
6.511795549455304e-07,1.1155963973093971e-06,3.676271554316118e-07,3.507961763854452e-05
6.609127027797261e-07,1.1201088090120263e-06,3.701440947497765e-07,3.5329068400936404e-05
6.704652800461674e-07,1.1252955791349512e-06,3.728197593037608e-07,3.5562599719268654e-05
6.797965136552814e-07,1.1310562505279332e-06,3.7564692044751403e-07,3.5778731753577744e-05
6.888628652489183e-07,1.137301308264292e-06,3.786170065096737e-07,3.5976012409023986e-05
6.976180360038218e-07,1.1439584160429368e-06,3.8171828506725005e-07,3.61529535789342e-05
7.060140647621777e-07,1.1509705853344438e-06,3.8493525909231686e-07,3.63081372900539e-05
7.14001970485438e-07,1.1582938353626127e-06,3.8824897973347495e-07,3.6440384037880717e-05
7.215329640437255e-07,1.1658931974878113e-06,3.916375500755196e-07,3.654889091687667e-05
7.285620146439169e-07,1.1737350926995396e-06,3.950777827992209e-07,3.663333765234754e-05
7.350523334792266e-07,1.181788280539752e-06,3.985477798141369e-07,3.669389377127571e-05
7.409777387185838e-07,1.1900372867516394e-06,4.0202815688672977e-07,3.673104320318204e-05
7.463232103091198e-07,1.1984894834363631e-06,4.055013308992202e-07,3.6745322281467106e-05
7.510841909916141e-07,1.2071667421910785e-06,4.08950254516505e-07,3.6737164495946504e-05
7.552636565486704e-07,1.216094062966734e-06,4.12357310882631e-07,3.6706891367193175e-05
7.588681406715528e-07,1.2252927981408754e-06,4.157037603503221e-07,3.6654732324665995e-05
7.619051026654778e-07,1.2347779461628085e-06,4.189698051767398e-07,3.658082074991661e-05
7.643826646125374e-07,1.2445585635036293e-06,4.22134722801867e-07,3.6485224571934e-05
7.663111330240852e-07,1.2546362488329777e-06,4.2517764728564745e-07,3.636809483568219e-05
7.677058749930375e-07,1.2650002715564079e-06,4.280793647309772e-07,3.6229925062583536e-05
7.685905135261287e-07,1.275625715457777e-06,4.3082293913572e-07,3.607170648032735e-05
7.689972507916977e-07,1.2864769453664732e-06,4.3339220847841475e-07,3.589480096945761e-05
7.689637796965801e-07,1.2975130599641438e-06,4.357706853146432e-07,3.5700654087195126e-05
7.685292383675602e-07,1.3086934262542684e-06,4.3794228307256233e-07,3.549055759661382e-05
7.67731949419124e-07,1.319981314115779e-06,4.3989295404147436e-07,3.52656001309296e-05
7.666113410397271e-07,1.331342785779761e-06,4.4161169780886925e-07,3.5026902789602007e-05
7.65210588949832e-07,1.3427431900736193e-06,4.4308945466294136e-07,3.477599981425453e-05
7.63573971535146e-07,1.3541466005218622e-06,4.4431739762973917e-07,3.451501179234109e-05
7.617418162721781e-07,1.3655163518679166e-06,4.452873852756792e-07,3.4246510285940195e-05
7.597492093867405e-07,1.3768123019812503e-06,4.459935649984382e-07,3.397329817528967e-05
7.576271951682316e-07,1.3879878246599394e-06,4.464328721120026e-07,3.369827314240432e-05
7.554032609349959e-07,1.3989903305293405e-06,4.4660402206141033e-07,3.3424378804373635e-05
7.531003782594974e-07,1.4097645639114832e-06,4.4650600587183704e-07,3.3154593247577787e-05
7.507350122599309e-07,1.4202565306321742e-06,4.4613808407002896e-07,3.289188222512909e-05
7.483165093622132e-07,1.4304143761248668e-06,4.4550078670437143e-07,3.263907891857202e-05
7.458487842826677e-07,1.440184750237319e-06,4.445957153034133e-07,3.2398735023619515e-05
7.433335455001774e-07,1.449509593710868e-06,4.434249011245721e-07,3.2172997585986246e-05
7.40773721758868e-07,1.4583268733070537e-06,4.4199104416954935e-07,3.196350631483768e-05
7.381730670195817e-07,1.4665730961710643e-06,4.402979885634224e-07,3.17713073696052e-05
7.355321941535406e-07,1.4741868284405775e-06,4.383510419692171e-07,3.159681855885953e-05
7.328472881247601e-07,1.4811131438757343e-06,4.3615826266599596e-07,3.1439864448262174e-05
7.301130941312899e-07,1.4873055678250697e-06,4.337331836883135e-07,3.129976888480955e-05
7.273257536814757e-07,1.492723186273388e-06,4.3109574343015023e-07,3.117547757755125e-05
7.244830932296998e-07,1.4973264212144684e-06,4.2826872012912506e-07,3.1065671716308005e-05
7.215845193960693e-07,1.5010791681735314e-06,4.252731697338242e-07,3.096886072584631e-05
7.186310021624376e-07,1.5039581029832862e-06,4.2212681923915847e-07,3.0883492696839025e-05
7.156240301696618e-07,1.505961366797182e-06,4.188443535080503e-07,3.0808104029783066e-05
7.125670761969095e-07,1.5071133932491697e-06,4.15437784849635e-07,3.0741464766418516e-05
7.094706070142189e-07,1.5074664279242187e-06,4.119170955632565e-07,3.068267253581853e-05
7.063541251161756e-07,1.5070980693670078e-06,4.082916091874543e-07,3.0631184786434044e-05
7.032415218695252e-07,1.5061074985500528e-06,4.045719667717757e-07,3.0586763157769463e-05
7.0015372121694e-07,1.5046128125156201e-06,4.0077243237465796e-07,3.0549302144768666e-05
6.9710415055215e-07,1.502748061781829e-06,3.969131464283666e-07,3.051863270359219e-05
6.940985220328024e-07,1.5006577931289669e-06,3.930209843872097e-07,3.0494452341121807e-05
6.911371830433215e-07,1.4984859223253476e-06,3.8912717641337756e-07,3.0476371587019134e-05
6.882176711699441e-07,1.4963597388155534e-06,3.8526241748807063e-07,3.0463937478241198e-05
6.853351454316544e-07,1.4943772834410152e-06,3.8145301712145563e-07,3.045658310219743e-05
6.824809009453479e-07,1.4926048639872382e-06,3.7772010377761995e-07,3.0453563245685804e-05
6.796414657098528e-07,1.4910854561004646e-06,3.740807222487481e-07,3.0453945182841108e-05
6.767992184701735e-07,1.4898541582175863e-06,3.705489423456593e-07,3.0456710028909448e-05
6.739339019577504e-07,1.4889516251462074e-06,3.6713645085248496e-07,3.046095083347747e-05
6.710239788308258e-07,1.4884263877679346e-06,3.638530332793863e-07,3.0466017875976506e-05
6.680478516431364e-07,1.4883257935477403e-06,3.6070720718807883e-07,3.0471508171257312e-05
6.649862155245966e-07,1.488684157878259e-06,3.577070399232461e-07,3.047717172501665e-05
6.61824407935312e-07,1.4895163030658994e-06,3.548601515998364e-07,3.0482801358407892e-05
6.585521706169019e-07,1.4908202538289783e-06,3.521724172963747e-07,3.0488113367705364e-05
6.551608635361393e-07,1.4925918716902278e-06,3.4964702268790643e-07,3.049266804804378e-05
6.516409635426676e-07,1.4948479355459991e-06,3.472844759368381e-07,3.049586457529328e-05
6.479827238079375e-07,1.4976429434700994e-06,3.450831045261066e-07,3.049695855743469e-05
6.441790177873927e-07,1.5010682903447946e-06,3.430409921250626e-07,3.0495051355783777e-05
6.402268529528775e-07,1.505238226882814e-06,3.411586857440287e-07,3.0489072400521863e-05
6.361272032560319e-07,1.5102723849381357e-06,3.394391468016346e-07,3.047779016385396e-05
6.318839069389732e-07,1.5162804007658112e-06,3.378844783962639e-07,3.0459864502954186e-05
6.275009991507613e-07,1.52335248280481e-06,3.3649320077541354e-07,3.043392857337337e-05
6.229804251841186e-07,1.5315574242080946e-06,3.3525990561502943e-07,3.0398693219470196e-05
6.183225700431391e-07,1.5409449633914513e-06,3.341760146746258e-07,3.035307023801893e-05
6.135293388373132e-07,1.551547395161757e-06,3.3323146429438767e-07,3.0296228816552246e-05
6.086076558251751e-07,1.5633764486007431e-06,3.324181865120778e-07,3.0227543757533443e-05
6.035707065685228e-07,1.5764165645184056e-06,3.3173312042530235e-07,3.0146510932949323e-05
5.984370980907357e-07,1.5906220221429863e-06,3.3117763689586284e-07,3.0052659288402727e-05
5.932298701155293e-07,1.605922365251289e-06,3.307545339181857e-07,2.9945488635538165e-05
5.879757194038036e-07,1.622230431193208e-06,3.3046518554221964e-07,2.98244751449908e-05
5.827036142956189e-07,1.6394457269162904e-06,3.3030793009609473e-07,2.9689105550648842e-05
5.774419622648243e-07,1.6574534045646444e-06,3.3027799720364557e-07,2.953891117479623e-05
5.722150215413594e-07,1.6761246178906039e-06,3.3036856772805145e-07,2.9373528120163112e-05
5.670410022541665e-07,1.6953213206752129e-06,3.3057199142063825e-07,2.9192782124467656e-05
5.619335626248014e-07,1.714900140424438e-06,3.308798159515452e-07,2.899674986965579e-05
5.56905666591673e-07,1.734710632616679e-06,3.3128185014207e-07,2.8785764759275932e-05
5.519736900877426e-07,1.7545921083094898e-06,3.317660102184622e-07,2.8560369429917085e-05
5.471600097613103e-07,1.774374115392548e-06,3.323190109953452e-07,2.832122143755275e-05
5.42493422910131e-07,1.7938801178526154e-06,3.3292766657085506e-07,2.8068982937052955e-05
5.38009308720584e-07,1.8129318677413403e-06,3.335812042975405e-07,2.780425341446959e-05
5.337502555699625e-07,1.8313562244467239e-06,3.34272879048059e-07,2.7527551578337813e-05
5.297638012829022e-07,1.8489984970510826e-06,3.349992480109696e-07,2.72393083028218e-05
5.260955154445975e-07,1.8657378699259049e-06,3.357582640144905e-07,2.6939882131330097e-05
5.227823896994063e-07,1.8814919198985981e-06,3.365480486306177e-07,2.662961669103725e-05
5.198520581473882e-07,1.8962054251071063e-06,3.373675223095668e-07,2.6308902962039842e-05
5.173255566207719e-07,1.9098356221787377e-06,3.382188271847077e-07,2.597821052800204e-05
5.152185154414647e-07,1.922347115366433e-06,3.39109092192086e-07,2.5638083033045555e-05
5.135401172406318e-07,1.933713937233976e-06,3.400493260318657e-07,2.528910302087241e-05
5.122913720983338e-07,1.9439174274532083e-06,3.410516539857175e-07,2.493186329413543e-05
5.114646143579687e-07,1.952938058700615e-06,3.421270673405034e-07,2.4567000682758287e-05
5.110461058342041e-07,1.960749583538325e-06,3.432845002927069e-07,2.419528842592641e-05
5.110205747601293e-07,1.96731906182949e-06,3.445314726542172e-07,2.381770521687548e-05
5.113747058049876e-07,1.97261073047284e-06,3.4587549744009063e-07,2.3435408885334545e-05
5.120986330157702e-07,1.9765931014579743e-06,3.473251085303649e-07,2.3049628046389786e-05
5.131860593136975e-07,1.9792476995992144e-06,3.4889006916622893e-07,2.266154378875461e-05
5.146346512110821e-07,1.9805747423094853e-06,3.5057979839795213e-07,2.2272256701900502e-05
5.1644830912419e-07,1.9805904300592618e-06,3.524005636931382e-07,2.188287904920455e-05
5.186395690921754e-07,1.979317770361536e-06,3.5435409166332993e-07,2.149462578953801e-05
5.212284286811435e-07,1.9767803861803554e-06,3.56437760440094e-07,2.1108770421631288e-05
5.242366406032411e-07,1.9730016453094185e-06,3.586453145619775e-07,2.0726525486681368e-05
5.276808619775786e-07,1.968002755263969e-06,3.6096883263508257e-07,2.0348953433414842e-05
5.31568945166961e-07,1.9617993988313892e-06,3.634011906419568e-07,1.997694771225784e-05
5.35899430345448e-07,1.9544039105472844e-06,3.659368179235081e-07,1.9611342044180982e-05
5.4066161119859e-07,1.945837512368244e-06,3.685709442376921e-07,1.925312904495957e-05
5.458358961210215e-07,1.936149983479098e-06,3.712985264038929e-07,1.8903614806805507e-05
5.513956263547752e-07,1.925433305290649e-06,3.741127825407381e-07,1.856439214562316e-05
5.573093825585232e-07,1.9138150705986643e-06,3.770035727025042e-07,1.8237174485110654e-05
5.635413384129203e-07,1.9014399222007046e-06,3.7995679402130144e-07,1.7923607436360364e-05
5.700496898996415e-07,1.8884579281110683e-06,3.8295585037529776e-07,1.7625221432155213e-05
5.767856090231561e-07,1.875018692485934e-06,3.859841568603893e-07,1.7343561585316065e-05
5.836936925303729e-07,1.8612625912980976e-06,3.8902574075361563e-07,1.7080301933971707e-05
5.907133443413103e-07,1.8473169447186638e-06,3.9206391826714075e-07,1.6837198407635165e-05
5.977806693025238e-07,1.8333023449522358e-06,3.950807649532061e-07,1.6615915598185986e-05
6.048307508488862e-07,1.8193356825048538e-06,3.980577041996306e-07,1.641782361167253e-05
6.118002855656894e-07,1.8055225903074589e-06,4.00976117514703e-07,1.6243877361311247e-05
6.186293992630304e-07,1.791950170957918e-06,4.0381900337987867e-07,1.609462945791755e-05
6.252627911762681e-07,1.7786865797502712e-06,4.065737992171996e-07,1.5970307920768186e-05
6.316529961471681e-07,1.765781737543417e-06,4.0923313316915725e-07,1.5870870757780495e-05
6.377638390853052e-07,1.7532684240685883e-06,4.117928186335204e-07,1.579608191445432e-05
6.435683676492522e-07,1.7411684329624291e-06,4.1425003982387647e-07,1.574576460439121e-05
6.490427805879308e-07,1.7294980772812512e-06,4.166022812870627e-07,1.5720167222910658e-05
6.541636788565952e-07,1.718265536397892e-06,4.1884643764263184e-07,1.5720122954057795e-05
6.589105019649616e-07,1.7074665731794574e-06,4.2097979039932673e-07,1.5746894427384216e-05
6.632682053728225e-07,1.6970874642635304e-06,4.230023458326704e-07,1.5801864037231598e-05
6.672268208661022e-07,1.6871113262932203e-06,4.2491665605188883e-07,1.5886279422648004e-05
6.707792120997817e-07,1.6775194024171626e-06,4.2672502637025024e-07,1.6001255767526836e-05
6.739192072546238e-07,1.6682882305584512e-06,4.2842816529717287e-07,1.6147970099626067e-05
6.766407144126011e-07,1.6593903100545097e-06,4.3002666668060476e-07,1.6327735028948468e-05
6.789379967269418e-07,1.650800430278701e-06,4.3152277357293996e-07,1.6541846291456967e-05
6.808083797811542e-07,1.642503763419374e-06,4.329200877246355e-07,1.6791342599801358e-05
6.822571858947308e-07,1.634501185850444e-06,4.34222409446178e-07,1.7076802241154208e-05
6.833019216018685e-07,1.626807651411743e-06,4.354336332713294e-07,1.739821541391479e-05
6.839731042914796e-07,1.619445015842459e-06,4.3655732245760586e-07,1.775492227046565e-05
6.843108149094321e-07,1.6124350112999884e-06,4.37594676855784e-07,1.814560458092332e-05
6.843586059861657e-07,1.605793067397034e-06,4.3854291240042e-07,1.856833289790765e-05
6.841581088801892e-07,1.5995222590659844e-06,4.393957780579611e-07,1.902068447630433e-05
6.837455509491039e-07,1.5936097787895747e-06,4.4014500072794673e-07,1.9499920474329056e-05
6.831497834539896e-07,1.5880282181921413e-06,4.40781318581211e-07,2.000314220685061e-05
6.823919165623009e-07,1.582742890930621e-06,4.41295953159589e-07,2.0527354062816933e-05
6.814864746080516e-07,1.5777216428831615e-06,4.4168226339427957e-07,2.1069443927327808e-05
6.804444068421741e-07,1.5729401505452071e-06,4.419350664528271e-07,2.162615665432404e-05
6.792771616269988e-07,1.5683819675401588e-06,4.420483257125746e-07,2.219415648262185e-05
6.779980001838296e-07,1.5640374299480381e-06,4.42015107879212e-07,2.27701836484217e-05
6.766189992144542e-07,1.5599023785064722e-06,4.418305621434817e-07,2.3351181648746314e-05
6.751474728461715e-07,1.5559759385948953e-06,4.4149508510844964e-07,2.3934315767820872e-05
6.735848966388497e-07,1.5522581449109284e-06,4.410145561401411e-07,2.451693603933245e-05
6.719275010494767e-07,1.5487474249493587e-06,4.4039727900608167e-07,2.5096546184007488e-05
6.701674284282846e-07,1.545438070640291e-06,4.396516581784473e-07,2.5670757161044715e-05
6.682942553731411e-07,1.5423186804200674e-06,4.387871234107588e-07,2.623719939829996e-05
6.662960528548289e-07,1.539370465842182e-06,4.37815621273489e-07,2.679344813328165e-05
6.641596686440061e-07,1.536567028739266e-06,4.367512363032009e-07,2.7337007725766396e-05
6.618710886069507e-07,1.5338800187602356e-06,4.356082804564732e-07,2.7865324826529296e-05
6.594167912636187e-07,1.5312894134397737e-06,4.3439929250042103e-07,2.8375811113126173e-05
6.567855548855821e-07,1.5287933059848611e-06,4.331343221075885e-07,2.886589112517327e-05
6.539686579941232e-07,1.526412763750932e-06,4.318213666521018e-07,2.9333060355882258e-05
6.509581753280722e-07,1.5241891284891762e-06,4.3046668705673534e-07,2.977492746629657e-05
6.47746031514082e-07,1.5221747141700262e-06,4.29075197515544e-07,3.018923825448403e-05
6.44325894890519e-07,1.5204216844224953e-06,4.2765197536155465e-07,3.057387603098007e-05
6.406955339268798e-07,1.5189740525686019e-06,4.262035718131169e-07,3.0926870519533216e-05
6.368556671548569e-07,1.5178621933940222e-06,4.2473752311990243e-07,3.1246466968370146e-05
6.328068313448397e-07,1.5170998740110275e-06,4.2326156041976156e-07,3.1531190877120404e-05
6.285486826897633e-07,1.5166884538661024e-06,4.217836958902417e-07,3.1779806716019156e-05
6.240821950814337e-07,1.5166253722805237e-06,4.203115627764562e-07,3.199122629855521e-05
6.194119317151963e-07,1.5169101849360416e-06,4.18850868787896e-07,3.216449911471494e-05
6.145464469813717e-07,1.5175491448986054e-06,4.174046919413431e-07,3.2298913350811874e-05
6.094982474029659e-07,1.5185561559545513e-06,4.159732870341115e-07,3.2394163714861155e-05
6.042853512444966e-07,1.5199440769475883e-06,4.1455391819141133e-07,3.245051731763266e-05
5.989333097233901e-07,1.52171277176909e-06,4.1314151252675e-07,3.2468846257413396e-05
5.934751656159075e-07,1.5238443047863925e-06,4.1172950776315493e-07,3.2450453149111573e-05
5.879483815173709e-07,1.526304174953283e-06,4.103097903014947e-07,3.239679152876465e-05
5.823900235807831e-07,1.5290439285277585e-06,4.0887230101548367e-07,3.230924322379397e-05
5.768331288935135e-07,1.5320038084708548e-06,4.0740559681212797e-07,3.218902880160364e-05
5.71305730218374e-07,1.5351137565258368e-06,4.0589828597781656e-07,3.2037217346552016e-05
5.658308330062454e-07,1.5382931929415487e-06,4.043403342434154e-07,3.185477373712316e-05
5.604261095247182e-07,1.5414524010563362e-06,4.0272450663229975e-07,3.164267899868371e-05
5.551054341631464e-07,1.5444952314806801e-06,4.010477027589999e-07,3.140221959850025e-05
5.498839817234861e-07,1.5473214786755649e-06,3.993106575024024e-07,3.113532411196879e-05
5.44783711120097e-07,1.5498292351035729e-06,3.975164022807694e-07,3.0844627330387444e-05
5.398348253063011e-07,1.551917228849344e-06,3.9566929648459346e-07,3.053320182146105e-05
5.350734624726678e-07,1.5534858598921257e-06,3.9377460444550083e-07,3.0204210359025044e-05
5.305392829542173e-07,1.5544369290723975e-06,3.91836992175904e-07,2.986067893462548e-05
5.262748805989169e-07,1.5546737876542444e-06,3.898583629499246e-07,2.9505496370188678e-05
5.223241345436499e-07,1.5541025244672726e-06,3.878374980045004e-07,2.9141698993871564e-05
5.187266701126585e-07,1.55263332721048e-06,3.857719577491085e-07,2.877283202556474e-05
5.155124596403375e-07,1.550181468803731e-06,3.8366041637652405e-07,2.840304514544424e-05
5.127016417482106e-07,1.5466683480626899e-06,3.8150523109028703e-07,2.8036902682629522e-05
5.103075526047393e-07,1.5420235140497852e-06,3.793153573811813e-07,2.767913622005266e-05
5.083385042760464e-07,1.536187846590204e-06,3.7710596814427317e-07,2.733445768241735e-05
5.067980648094723e-07,1.5291165715117919e-06,3.748938177986517e-07,2.700741695537286e-05
5.05685721916711e-07,1.5207795920758742e-06,3.726931837140886e-07,2.670227038447382e-05
5.049979769036822e-07,1.5111589482880604e-06,3.70514633124844e-07,2.642286761139081e-05
5.047286993519339e-07,1.5002470264752585e-06,3.6836570888254057e-07,2.617258870380276e-05
5.048684507380965e-07,1.488047533956516e-06,3.662527963278304e-07,2.5954327742297195e-05
5.054037902737777e-07,1.4745774004114583e-06,3.6418230437605157e-07,2.577046174732045e-05
5.063175035223907e-07,1.4598664078810619e-06,3.6216089707153525e-07,2.56227526130478e-05
5.075901277260724e-07,1.4439532985199531e-06,3.6019682466372404e-07,2.551222806555514e-05
5.09201849838318e-07,1.4268812259505518e-06,3.5830126290685687e-07,2.543912866065511e-05
5.111320973602547e-07,1.408695663485049e-06,3.564871881241672e-07,2.5402952640192888e-05
5.133570681640857e-07,1.3894445289725763e-06,3.5476677258217933e-07,2.540259372063862e-05
5.158481877511167e-07,1.3691787249593962e-06,3.531496957436763e-07,2.5436534364273183e-05
5.185718334164256e-07,1.3479523056605611e-06,3.5164402709941466e-07,2.5503019344263e-05
5.214897023244241e-07,1.325822892478922e-06,3.502591381272833e-07,2.560017081794539e-05
5.245606548279021e-07,1.302853492645158e-06,3.490085587122386e-07,2.5726067792141625e-05
5.277448060033577e-07,1.2791168042532115e-06,3.479113955892289e-07,2.5878807476004933e-05
5.31009049099682e-07,1.2547033012428857e-06,3.4699054644474093e-07,2.605654099959066e-05
5.343310976829917e-07,1.2297328582311214e-06,3.462685259480081e-07,2.625748270526348e-05
5.376987380540936e-07,1.2043630618203766e-06,3.4576465005273397e-07,2.647988986171972e-05
5.411047383332061e-07,1.178786891781077e-06,3.454935918744946e-07,2.672198341535976e-05
5.445424764024395e-07,1.1532221664836045e-06,3.454637054028883e-07,2.6981814280346802e-05
5.480054528410202e-07,1.1278960481902911e-06,3.456763640909809e-07,2.725717696377996e-05
5.514896319573923e-07,1.1030248007035782e-06,3.4612695370033605e-07,2.7545640921542816e-05
5.549968296745323e-07,1.0787962814727932e-06,3.468062134859753e-07,2.7844628760921837e-05
5.585365295798636e-07,1.0553649455847904e-06,3.477017225508573e-07,2.815146418718485e-05
5.621251072389622e-07,1.0328607456459269e-06,3.488005418527408e-07,2.8463395992088104e-05
5.657846933314641e-07,1.0114038109072238e-06,3.500915666599473e-07,2.877761706987523e-05
5.69541654039331e-07,9.91112434572419e-07,3.515651872379853e-07,2.909127813889511e-05
5.73422903523716e-07,9.72103086100963e-07,3.5321187461424494e-07,2.9401503890876648e-05
5.77452009762915e-07,9.544918056791923e-07,3.5502144619119383e-07,2.970542504792254e-05
5.816481097599667e-07,9.38395814167218e-07,3.569817908202026e-07,3.0000232167499822e-05
5.860260351901124e-07,9.239279397570105e-07,3.590780374479494e-07,3.0283258957982148e-05
5.905945043030368e-07,9.11187696939238e-07,3.612945317931609e-07,3.0552095272998226e-05
5.953535886036022e-07,9.002589709855776e-07,3.63618409674242e-07,3.080472569717125e-05
6.002942405340598e-07,8.912187072008732e-07,3.6604165423555704e-07,3.103966100266406e-05
6.054002181497177e-07,8.84148061674694e-07,3.685600231721243e-07,3.125596221434433e-05
6.106514649095507e-07,8.791320092159319e-07,3.711701242822433e-07,3.145309671125744e-05
6.160273361148203e-07,8.762472567671957e-07,3.738674303732258e-07,3.163069474294565e-05
6.215079006562539e-07,8.755490374882904e-07,3.766452844254096e-07,3.1788332919010496e-05
6.270731565780071e-07,8.770652077786066e-07,3.7949348123308567e-07,3.1925438796660096e-05
6.327025253007948e-07,8.807998809661081e-07,3.8239745198628993e-07,3.2041309827942856e-05
6.383763610492933e-07,8.867386303089222e-07,3.853390483917384e-07,3.2135157567923197e-05
6.440767970047164e-07,8.948465041361229e-07,3.882982372455358e-07,3.220617248695162e-05
6.497859618745868e-07,9.050623385021758e-07,3.9125548213340895e-07,3.2253745874083536e-05
6.554845261724432e-07,9.172974434203108e-07,3.9419443632175347e-07,3.227782475523107e-05
6.611516850364074e-07,9.314395546539272e-07,3.9710258073909286e-07,3.2279088092019336e-05
6.667644463685342e-07,9.473570233025972e-07,3.9996867986526493e-07,3.2258792245960745e-05
6.722967141262214e-07,9.649005979214795e-07,4.027800584813039e-07,3.221848699114778e-05
6.777197447552887e-07,9.839052103203856e-07,4.055217265587711e-07,3.2159780555100706e-05
6.830036652958018e-07,1.0041935144221394e-06,4.0817620281716607e-07,3.208420300098455e-05
6.881187722559532e-07,1.0255808674666386e-06,4.107239214679942e-07,3.199329481825879e-05
6.930359654028822e-07,1.0478817570894795e-06,4.1314455294853476e-07,3.188892042569461e-05
6.977272542013182e-07,1.0709161311491173e-06,4.154184761047814e-07,3.177349290713707e-05
7.02166891623993e-07,1.0945118880138568e-06,4.175283232755153e-07,3.164993022570064e-05
7.063322029990548e-07,1.1185023516295915e-06,4.1946009067649327e-07,3.152148831681588e-05
7.102037287840986e-07,1.1427239155896083e-06,4.2120290653891295e-07,3.1391588760474264e-05
7.137655965542183e-07,1.167018811040137e-06,4.2274843081099246e-07,3.126364112686231e-05
7.170058145911819e-07,1.1912389263382877e-06,4.240906708777426e-07,3.1140873418871756e-05
7.199154363900454e-07,1.215244097306292e-06,4.252257090336404e-07,3.102620084587455e-05
7.224873757348514e-07,1.2388972158576466e-06,4.261511943747545e-07,3.09221537720286e-05
7.247159835393172e-07,1.2620635694489184e-06,4.268654329460071e-07,3.083087159074265e-05
7.265975654666395e-07,1.2846172549751349e-06,4.273663220227957e-07,3.075411680887536e-05
7.281310431295658e-07,1.3064509016109983e-06,4.276512467077223e-07,3.069323459227687e-05
7.293173699403441e-07,1.3274814463395334e-06,4.277176459248485e-07,3.064906175304292e-05
7.301578152375849e-07,1.3476475706409081e-06,4.275628479201139e-07,3.0621862684430657e-05
7.30653716310477e-07,1.3669008574780908e-06,4.2718377806386045e-07,3.0611341066177446e-05
7.308083197541821e-07,1.3851975487102027e-06,4.265781675667272e-07,3.0616732039675154e-05
7.306269402111409e-07,1.4024972704222251e-06,4.257463135066805e-07,3.063696172153077e-05
7.30114694645722e-07,1.4187679230814141e-06,4.2469066584668154e-07,3.0670818913601484e-05
7.292757690771012e-07,1.4339907809641568e-06,4.2341354309097927e-07,3.071708060967683e-05
7.281163850101501e-07,1.448160683830918e-06,4.219160142067763e-07,3.0774603917241546e-05
7.266500355064644e-07,1.461279989039694e-06,4.20198391940921e-07,3.084240303915276e-05
7.249011212108755e-07,1.4733506350473056e-06,4.1826048343114855e-07,3.091967559063243e-05
7.229042903521156e-07,1.4843705789150126e-06,4.1610161375794356e-07,3.1005753101727504e-05
7.207019361123719e-07,1.49433534599677e-06,4.137213887145012e-07,3.109999471982898e-05
7.183439736614897e-07,1.5032406676685954e-06,4.1112031632376476e-07,3.120165682159122e-05
7.158885631561061e-07,1.511086327476366e-06,4.082996845582056e-07,3.1309788814186924e-05
7.133988464409822e-07,1.5178818796699655e-06,4.0526192776402257e-07,3.142323269742795e-05
7.109361053505021e-07,1.523649295684511e-06,4.0201131767535615e-07,3.1540725610337914e-05
7.085552190503155e-07,1.5284232247877381e-06,3.9855361589449317e-07,3.166098567838076e-05
7.063051652105386e-07,1.5322542139159875e-06,3.948952035109277e-07,3.178271354181682e-05
7.042325431677669e-07,1.5352125079545018e-06,3.910427209475577e-07,3.190456574200938e-05
7.023863885438207e-07,1.5373863041138956e-06,3.8700293494430326e-07,3.202517545792974e-05
7.008221580121496e-07,1.5388723274128704e-06,3.827824468519175e-07,3.2143210662878045e-05
6.996013243633026e-07,1.5397651821244075e-06,3.7838747856832406e-07,3.225736861569606e-05
6.98785698278073e-07,1.5401552818527044e-06,3.738238561612236e-07,3.236627242104357e-05
6.98429434430154e-07,1.5401307006989969e-06,3.690970415852804e-07,3.246837764404548e-05
6.985739785247512e-07,1.5397708146143188e-06,3.6421209997300405e-07,3.2561985213843364e-05
6.992485764701587e-07,1.5391363603905703e-06,3.5917357573259245e-07,3.264535491709787e-05
7.004724225663503e-07,1.5382698657646988e-06,3.539856525252055e-07,3.271688834134035e-05
7.022551657051796e-07,1.537207371661471e-06,3.4865326046829266e-07,3.277533550809704e-05
7.04597339638838e-07,1.5359891375417588e-06,3.431837544267288e-07,3.2819910095161056e-05
7.074906113562819e-07,1.5346593351554497e-06,3.3758758186832106e-07,3.2850226621100485e-05
7.109161201122401e-07,1.5332573288945288e-06,3.3187759493870265e-07,3.286610699927666e-05
7.148427592938104e-07,1.5318098362490425e-06,3.2606813086872647e-07,3.2867363294264926e-05
7.192274129605873e-07,1.5303289704572392e-06,3.201743525674759e-07,3.2853654973740085e-05
7.240165036358979e-07,1.5288164838516961e-06,3.142118650545316e-07,3.282448192496411e-05
7.291489321270265e-07,1.527272213109677e-06,3.0819680002593997e-07,3.277927449352113e-05
7.345614667858655e-07,1.5257004725044755e-06,3.021469377612773e-07,3.2717490902049085e-05
7.401963037324759e-07,1.524110283687619e-06,2.960838919142308e-07,3.2638745161345885e-05
7.46006855442772e-07,1.5225140402732619e-06,2.9003449759874696e-07,3.254304631223661e-05
7.519562440597516e-07,1.5209279302575848e-06,2.840298244771499e-07,3.243102102654618e-05
7.580098832364074e-07,1.519372127218306e-06,2.7810228453688634e-07,3.23038925922296e-05
7.64129660433182e-07,1.5178723472218475e-06,2.722826281285256e-07,3.2163246832945275e-05
7.702727247453548e-07,1.5164641562683485e-06,2.66598820527668e-07,3.20107759278421e-05
7.763931339976319e-07,1.5151955591442777e-06,2.610763242359843e-07,3.1848115815089334e-05
7.82446824652111e-07,1.5141249491813396e-06,2.557377367697958e-07,3.1676888228388105e-05
7.883995285872876e-07,1.5133156324404014e-06,2.5060195608162177e-07,3.149895292668525e-05
7.942315178308372e-07,1.5128287504068852e-06,2.456844536105327e-07,3.131660926553722e-05
7.999350969008655e-07,1.512717929336636e-06,2.409994736615317e-07,3.1132562874618185e-05
8.055083611694309e-07,1.513029048295311e-06,2.3656256457983252e-07,3.094977314400409e-05
8.109493044754195e-07,1.5138022237462559e-06,2.323906700684021e-07,3.0771305157638315e-05
8.162515572416604e-07,1.5150687272148047e-06,2.2850051189638986e-07,3.0600186087213115e-05
8.21402930565848e-07,1.5168429775961763e-06,2.2490782634296988e-07,3.0439255297764287e-05
8.263879821442208e-07,1.5191178129933912e-06,2.2162736983719439e-07,3.029102066466344e-05
8.311933398692637e-07,1.521866588022571e-06,2.186724743105762e-07,3.0157555103143626e-05
8.358103601515545e-07,1.52504753463081e-06,2.1605497583864287e-07,3.004046100033936e-05
8.402322898433185e-07,1.5286067074651138e-06,2.1378695627865352e-07,2.9940883682106488e-05
8.444517148135909e-07,1.5324831177991229e-06,2.1188309271000052e-07,2.9859530513289545e-05
8.484624677429448e-07,1.5366185899963136e-06,2.1036069992041928e-07,2.9796660182952984e-05
8.522609877929855e-07,1.5409644090193364e-06,2.092365178214478e-07,2.9752040673424785e-05
8.558435099118176e-07,1.5454776165582756e-06,2.0852333411110445e-07,2.972493371105729e-05
8.592026373419994e-07,1.5501112691211402e-06,2.0822931843145555e-07,2.9714176388562892e-05
8.623265594069887e-07,1.554806630211357e-06,2.083584836015051e-07,2.9718360681677148e-05
8.652003757407572e-07,1.5594908056986549e-06,2.089110442592396e-07,2.973603514499381e-05
8.678074033970749e-07,1.5640793554931137e-06,2.0988433744970399e-07,2.976585581240833e-05
8.701287750137762e-07,1.5684817167489862e-06,2.1127316308631933e-07,2.980667854574134e-05
8.721420346486509e-07,1.5726057974267838e-06,2.1306910779575797e-07,2.9857610246225536e-05
8.738212837840254e-07,1.5763615421585858e-06,2.1525996125837803e-07,2.9918008991423963e-05
8.751398789610656e-07,1.5796698616054652e-06,2.1782934069759225e-07,2.998742792284051e-05
8.760733082896518e-07,1.5824772043041954e-06,2.2075665860387692e-07,3.006552514893213e-05
8.765992819772444e-07,1.5847639009635431e-06,2.240182184032244e-07,3.015195512707445e-05
8.766957107399807e-07,1.5865368885758983e-06,2.2758976916185645e-07,3.0246252201561218e-05
8.763397869479741e-07,1.5878113869921812e-06,2.314491560820199e-07,3.0347757272321913e-05
8.755093220015656e-07,1.5885957736318291e-06,2.355782778431005e-07,3.045563193372121e-05
8.74184938653953e-07,1.5888877286811825e-06,2.399649699291973e-07,3.056890275715419e-05
8.723519960872868e-07,1.5886765709249878e-06,2.446021864029612e-07,3.068646394738685e-05
8.700017676396009e-07,1.5879471054508512e-06,2.4948352058567124e-07,3.080707804331745e-05
8.671310400340756e-07,1.586685727969824e-06,2.5459998058999344e-07,3.092943655476973e-05
8.637401783187056e-07,1.5848843345462962e-06,2.5993913826648004e-07,3.105223753811531e-05
8.598312502220913e-07,1.5825384960938716e-06,2.654840914362028e-07,3.1174180344295755e-05
8.55407498452347e-07,1.57964858425468e-06,2.7121341112575124e-07,3.129387160004124e-05
8.504735832240884e-07,1.5762270523701203e-06,2.771036194362025e-07,3.140975190061485e-05
8.450351574394779e-07,1.5722985671287015e-06,2.831322097203526e-07,3.152012120483973e-05
8.390977001957891e-07,1.567888488108935e-06,2.89277882004354e-07,3.162324802361037e-05
8.326659166455811e-07,1.5630138240285743e-06,2.955185313920711e-07,3.171754135138117e-05
8.257442567167752e-07,1.5576890389682419e-06,3.018311805865041e-07,3.1801766689959115e-05
8.183374902001393e-07,1.5519446303578674e-06,3.0819338051296293e-07,3.187519733188105e-05
8.104510550241588e-07,1.5458415729055391e-06,3.145821947214948e-07,3.1937571934727066e-05
8.020922337728505e-07,1.539468328303459e-06,3.2097175731731354e-07,3.198888157634365e-05
7.932709523565087e-07,1.5329306155790944e-06,3.273324304498229e-07,3.202912025528042e-05
7.839998357943962e-07,1.5263460378543426e-06,3.336323758696261e-07,3.205811683622682e-05
7.742990330725165e-07,1.5198378962553994e-06,3.398413521746197e-07,3.20755066848409e-05
7.642076314572295e-07,1.5135236467227336e-06,3.459341682926117e-07,3.2080790695336914e-05
7.537920403706752e-07,1.5075029986002982e-06,3.518907303453453e-07,3.207338391142079e-05
7.431430461639809e-07,1.5018498243907048e-06,3.5769386886207146e-07,3.205270534526482e-05
7.323659006225617e-07,1.4966102748058796e-06,3.6332790962773797e-07,3.201843673960877e-05
7.215713698283953e-07,1.4918095219555815e-06,3.687788488610561e-07,3.1970818643055845e-05
7.108688704294481e-07,1.4874640538809652e-06,3.740350096647401e-07,3.191068952462019e-05
7.003602963260019e-07,1.4835904512602181e-06,3.7908653965283644e-07,3.183926104100246e-05
6.901358465132504e-07,1.480205357731232e-06,3.8392426042254e-07,3.1757847944760056e-05
6.802738642778442e-07,1.477319369833532e-06,3.885396009588542e-07,3.1667692086652534e-05
6.708452072800445e-07,1.4749305284115554e-06,3.929246978529319e-07,3.1569999260834867e-05
6.619195996742234e-07,1.4730210275942932e-06,3.970718002999476e-07,3.146622424258881e-05
6.535682033895873e-07,1.4715568783392016e-06,4.009739082959945e-07,3.135835073468624e-05
6.458602577827249e-07,1.4704892728659675e-06,4.046262168956435e-07,3.124891010793534e-05
6.388591789400016e-07,1.4697592461527495e-06,4.080259037722237e-07,3.1140805400226915e-05
6.326214010229913e-07,1.4693077357408369e-06,4.111713233923871e-07,3.1037111272114896e-05
6.271943133816066e-07,1.469087374815342e-06,4.14062321863521e-07,3.094089382360628e-05
6.226123259145365e-07,1.469066989476681e-06,4.167008564000586e-07,3.0855045494333366e-05
6.188953794517327e-07,1.4692249727495916e-06,4.1909052373521535e-07,3.078215195655664e-05
6.160507410499171e-07,1.4695382009574659e-06,4.212348789223333e-07,3.072440219550021e-05
6.14074219703364e-07,1.4699740686902976e-06,4.231365346378529e-07,3.0683549088722635e-05
6.129494533444976e-07,1.4704869904808203e-06,4.2479751135173924e-07,3.0660930598793244e-05
6.12647294101726e-07,1.4710185223499902e-06,4.2621938673803565e-07,3.065751173392448e-05
6.131263513868483e-07,1.4715002593060758e-06,4.274043792568226e-07,3.067387146103371e-05
6.143343832603881e-07,1.47185743152375e-06,4.283576462155158e-07,3.071012798078572e-05
6.1621054544414e-07,1.4720122961481975e-06,4.290875574995058e-07,3.076587019992707e-05
6.186888773638219e-07,1.4718875646568538e-06,4.2960380432266795e-07,3.0840154688219824e-05
6.217022443413721e-07,1.4714081224540218e-06,4.299170057757447e-07,3.093158778972091e-05
6.251848048927142e-07,1.4705005499342931e-06,4.3004055263157397e-07,3.103847024987785e-05
6.290729511514984e-07,1.4690923680203115e-06,4.2999222913041887e-07,3.1158953292517356e-05
6.333066808900415e-07,1.4671119062552103e-06,4.2979369694626635e-07,3.1291178192394755e-05
6.378308479701002e-07,1.4644893141536337e-06,4.2946781570966147e-07,3.1433393658568764e-05
6.425932146087061e-07,1.4611594241961297e-06,4.2903603189222976e-07,3.158402309784015e-05
6.47540192142134e-07,1.4570689610230697e-06,4.28518398890373e-07,3.1741658257795785e-05
6.52615578498939e-07,1.4521884174143489e-06,4.279358844417589e-07,3.1904996645467576e-05
6.577638130096363e-07,1.446519126096342e-06,4.2731169907806187e-07,3.207274934970144e-05
6.629324203811324e-07,1.4400870602336325e-06,4.266693700009335e-07,3.224354205358926e-05
6.680708406305127e-07,1.4329288133927578e-06,4.2602916697172186e-07,3.2415860535628446e-05
6.731302409053874e-07,1.425080664382469e-06,4.254065110048496e-07,3.258808743373638e-05
6.7806543000425e-07,1.4165750217770382e-06,4.248138627538862e-07,3.2758577351284234e-05
6.828344544447256e-07,1.4074415160454686e-06,4.242636815637727e-07,3.29256803233442e-05
6.873960072348979e-07,1.3977077988157369e-06,4.2376895438133567e-07,3.308773035714516e-05
6.917082484079621e-07,1.3873985308350036e-06,4.2334078114650325e-07,3.324305805193771e-05
6.957302389914429e-07,1.376535339182236e-06,4.2298582854963064e-07,3.339002091870069e-05
6.994246020414885e-07,1.365139730697905e-06,4.227061670779838e-07,3.352700583313726e-05
7.027589889559792e-07,1.35323926542298e-06,4.2250090189879277e-07,3.3652384020174386e-05
7.057053693441347e-07,1.3408726784724328e-06,4.2236697862196045e-07,3.3764461621053364e-05
7.082385454193545e-07,1.3280862900322737e-06,4.22299055510499e-07,3.3861487566562204e-05
7.103350245308833e-07,1.3149252316379582e-06,4.2229103715302344e-07,3.3941738513167835e-05
7.11972398561563e-07,1.3014327041065785e-06,4.22338003140724e-07,3.400366838914049e-05
7.131302018821693e-07,1.2876648423692315e-06,4.224354144667204e-07,3.4046099697974505e-05
7.137919599543623e-07,1.2737129382646505e-06,4.225769478650626e-07,3.4068381729249704e-05
7.139471464081041e-07,1.2597113667057742e-06,4.2275338145347844e-07,3.40703983936961e-05
7.135935667041275e-07,1.2458236539551842e-06,4.229533837760983e-07,3.405240339651861e-05
7.12738368397145e-07,1.23222240443267e-06,4.2316607718723616e-07,3.40147856003468e-05
7.113951066194732e-07,1.2190743880501274e-06,4.233828985097933e-07,3.395787912255967e-05
7.095809492161894e-07,1.2065295484838623e-06,4.235966024890061e-07,3.3881883315937026e-05
7.073191441717754e-07,1.1947129845802911e-06,4.237989014319381e-07,3.378688206956121e-05
7.046443105770309e-07,1.1837201957840004e-06,4.239797398197643e-07,3.3672886624108644e-05
7.016040208864404e-07,1.1736153748743751e-06,4.241293277778182e-07,3.353990961730011e-05
6.982546853540598e-07,1.1644338812290487e-06,4.242409559252232e-07,3.3388201482959704e-05
6.946553704562653e-07,1.1561887000625686e-06,4.2431193178336967e-07,3.321857790994906e-05
6.908627367453414e-07,1.1488772979034918e-06,4.243423397955057e-07,3.3032520413331384e-05
6.869290364442225e-07,1.1424862881349922e-06,4.2433312145620314e-07,3.283198228490185e-05
6.82903071238159e-07,1.1369938363409396e-06,4.2428563671539523e-07,3.26191240554747e-05
6.788299329558124e-07,1.1323695594305877e-06,4.2420316748235477e-07,3.239609578256415e-05
6.747486493071685e-07,1.1285750011799108e-06,4.240914686477987e-07,3.216491802537082e-05
6.706914467932577e-07,1.1255700275830296e-06,4.239579656563507e-07,3.1927588451236965e-05
6.666849281108714e-07,1.1233218701212964e-06,4.238128580467701e-07,3.1686343076689746e-05
6.627513623480496e-07,1.1218072863597626e-06,4.236706507925449e-07,3.144378150003817e-05
6.589094963936848e-07,1.1210058591768864e-06,4.235476530163682e-07,3.120277842109915e-05
6.551749610418861e-07,1.1208909062141377e-06,4.234570552121161e-07,3.096633105372654e-05
6.51562288164051e-07,1.121425318484465e-06,4.234070810874561e-07,3.073740794969879e-05
6.48090449126305e-07,1.1225642615979984e-06,4.23403562316585e-07,3.051879605214632e-05
6.447905950919966e-07,1.124258896864188e-06,4.2345338520374705e-07,3.03129797183933e-05
6.417108881342971e-07,1.1264569514572546e-06,4.2356554010148884e-07,3.012208111158497e-05
6.389170218566392e-07,1.1291030918312328e-06,4.2374955543019326e-07,2.9947831009497326e-05
6.364978366835482e-07,1.1321431762878214e-06,4.240138033484576e-07,2.9791522440239094e-05
6.345760872047332e-07,1.135534292238627e-06,4.243674274421117e-07,2.9653982028357506e-05
6.333064484778993e-07,1.1392544333851023e-06,4.2482537578045614e-07,2.9535591688571837e-05
6.328559222334189e-07,1.1433001397843378e-06,4.254101904774261e-07,2.9436316594669813e-05
6.333802012453658e-07,1.1476727942066604e-06,4.261471386411967e-07,2.9355733937750282e-05
6.350064241830231e-07,1.15236608631523e-06,4.270568122444081e-07,2.9293092313755004e-05
6.378280148098475e-07,1.1573610332738501e-06,4.281513042320954e-07,2.924740822214564e-05
6.419107583181584e-07,1.1626257079074008e-06,4.2943563477847156e-07,2.9217591759635663e-05
6.473000118110704e-07,1.1681163472040977e-06,4.309108175829002e-07,2.920256060944963e-05
6.540235735015226e-07,1.173780779448864e-06,4.3257497933030264e-07,2.9201291940833186e-05
6.620941164787044e-07,1.1795651541376428e-06,4.344225619454466e-07,2.9212807296712922e-05
6.715141967609142e-07,1.1854183742280226e-06,4.3644314558021183e-07,2.9236118460361603e-05
6.82282754284105e-07,1.191289176466816e-06,4.3862105843332127e-07,2.9270160387668816e-05
6.944009741666797e-07,1.1971224122456551e-06,4.4093587881490796e-07,2.931373491446163e-05
7.078744598669655e-07,1.2028635988838349e-06,4.4336316635043137e-07,2.936546980221133e-05
7.227099508431812e-07,1.2084668609433762e-06,4.458758866630906e-07,2.942381993200827e-05
7.389187904125996e-07,1.2138958340390159e-06,4.4844914689147184e-07,2.948728685026535e-05
7.565448008585189e-07,1.2191218935785392e-06,4.510701238713108e-07,2.955497822223365e-05
7.756978920207027e-07,1.2241277788866364e-06,4.537472626070222e-07,2.96271146502676e-05
7.965541908223055e-07,1.2289110900458679e-06,4.565099721288302e-07,2.9704968161370612e-05
8.193235121512609e-07,1.233483664271127e-06,4.5940053028118107e-07,2.9790381413661835e-05
8.442106519484133e-07,1.2378725520323632e-06,4.624647076705594e-07,2.9885317729962846e-05
8.713835800638746e-07,1.2421251764035223e-06,4.657433419351739e-07,2.9991556911174028e-05
9.00954362783227e-07,1.246315715695532e-06,4.6926690194481104e-07,3.011045546888465e-05
9.329758270182172e-07,1.2505483303167415e-06,4.730548756283245e-07,3.0242749576088238e-05
9.674500509196844e-07,1.2549509942631625e-06,4.7711824637173e-07,3.0388484283957972e-05
1.0043418534865105e-06,1.2596582403189466e-06,4.814613710364469e-07,3.054713468785688e-05
1.0435918981878464e-06,1.264792912860202e-06,4.860816168685589e-07,3.071784535748831e-05
1.0851262316360514e-06,1.2704582042124178e-06,4.90968885361025e-07,3.089963582832634e-05
1.128861214607793e-06,1.2767415527765934e-06,4.961074787432948e-07,3.1091479482326176e-05
1.1747044212629379e-06,1.2837256500517386e-06,5.014788077409864e-07,3.1292342720865526e-05
1.2225520431120643e-06,1.291496754013676e-06,5.070613131672335e-07,3.1501304514903624e-05
1.2722855081150587e-06,1.3001397417410515e-06,5.128292030075738e-07,3.1717646315338794e-05
1.3237720990477863e-06,1.309721982941373e-06,5.187560549425781e-07,3.194076319929015e-05
1.3768702457272363e-06,1.3202799558109152e-06,5.248222049495298e-07,3.216997781113653e-05
1.4314339855445627e-06,1.3318178730732514e-06,5.310170661444271e-07,3.240438145292047e-05
1.4873122799383076e-06,1.3443177366359531e-06,5.373341086467097e-07,3.264271888839256e-05
1.5443462564596463e-06,1.3577586383793336e-06,5.437657265293092e-07,3.2883339901233085e-05
1.6023673948669918e-06,1.3721407000606236e-06,5.503015245229219e-07,3.312426369367445e-05
1.6611944546313812e-06,1.3875005970291756e-06,5.569273824395894e-07,3.336334792951552e-05
1.7206286785585288e-06,1.403908741762487e-06,5.636250688892882e-07,3.3598489315247005e-05
1.7804515997269555e-06,1.4214534546503856e-06,5.70373737244427e-07,3.382776734670891e-05
1.840428429947449e-06,1.4402226809785832e-06,5.771514649845496e-07,3.4049488879557136e-05
1.9003124731743358e-06,1.460288418861793e-06,5.839341478441715e-07,3.426215427228115e-05
1.9598451268125734e-06,1.4816961673079324e-06,5.906926779046483e-07,3.4464415005727694e-05
2e-07,1.5044611536928094e-06,5.973919405553916e-07,3.4655116514444976e-05
2e-07,1.5285699227161418e-06,6.039925565882748e-07,3.483339200571163e-05
2e-07,1.553981523921286e-06,6.104536794400506e-07,3.499862061926313e-05
2e-07,1.5806249924647991e-06,6.167360989436729e-07,3.515025410021566e-05
2e-07,1.6083982694795148e-06,6.228040547315144e-07,3.5287698660675825e-05
2e-07,1.6371733114203624e-06,6.286238117343462e-07,3.541029765312345e-05
2e-07,1.6668040402147016e-06,6.341613139029083e-07,3.551738044432533e-05
2e-07,1.6971320513913315e-06,6.393814518617353e-07,3.560831001907685e-05
2e-07,1.7279886549963409e-06,6.442480989135347e-07,3.56824580448233e-05
2e-07,1.7591945232367997e-06,6.487246051818166e-07,3.573918645884151e-05
2e-07,1.7905599342139199e-06,6.527751439480859e-07,3.577792544285788e-05
2e-07,1.8218877445073453e-06,6.563664613068004e-07,3.57982997749806e-05
2e-07,1.852977577493365e-06,6.594693453668284e-07,3.580022160803568e-05
2e-07,1.8836302157946567e-06,6.620595302273372e-07,3.578391897342434e-05
2e-07,1.9136520961669844e-06,6.641184966650025e-07,3.574990066813965e-05
2e-07,1.942856753788925e-06,6.65633624387278e-07,3.5698856812849616e-05
2e-07,1.9710619086575317e-06,6.665962632525696e-07,3.5631526690948265e-05
2e-07,1.998086820853596e-06,6.66998942362329e-07,3.554860875186496e-05
2e-07,2.0237563671920052e-06,6.668341605792302e-07,3.5450728851671035e-05
2e-07,2.0479125264034742e-06,6.660950627021232e-07,3.533842094943396e-05
2e-07,2.07042558923857e-06,6.647776412437047e-07,3.521211314377367e-05
2e-07,2.0911960567615263e-06,6.628831981350063e-07,3.507212597791859e-05
2e-07,2.1101457841364502e-06,6.604193513434473e-07,3.491866658921197e-05
2e-07,2.127206776845856e-06,6.574006287219231e-07,3.475180849265719e-05
2e-07,2.142317282135891e-06,6.538489065492813e-07,3.457146560840887e-05
2e-07,2.1554244955099945e-06,6.497916498079103e-07,3.437740169348913e-05
2e-07,2.1664846994289743e-06,6.452588447678278e-07,3.4169304015058195e-05
2e-07,2.175458839704781e-06,6.402808058765356e-07,3.394687286336109e-05
2e-07,2.1823113144756577e-06,6.348871950121116e-07,3.3709856291949035e-05
2e-07,2.18701277677749e-06,6.291075511210471e-07,3.3458020570091167e-05
2e-07,2.1895403539677416e-06,6.229725797294582e-07,3.319110716383357e-05
2e-07,2.189876768142558e-06,6.16514629850593e-07,3.290884529182886e-05
2e-07,2.188014655712317e-06,6.097672563642392e-07,3.261105211605625e-05
2e-07,2.183963214423374e-06,6.027637372083599e-07,3.2297785682254546e-05
2e-07,2.177748267792496e-06,5.955351747063061e-07,3.196946825162297e-05
2e-07,2.169405960394974e-06,5.881101295821485e-07,3.162687970746623e-05
2e-07,2.158980036266392e-06,5.805153179430142e-07,3.1271011143033144e-05
2e-07,2.1465251097928534e-06,5.727761417046229e-07,3.090291900730948e-05
2e-07,2.132107331395573e-06,5.649177801807364e-07,3.0523680248457944e-05
2e-07,2.115800598840321e-06,5.569664407050236e-07,3.0134391455240344e-05
2e-07,2.0976871325075105e-06,5.489495836269322e-07,2.9736161469735773e-05
2e-07,2.077868238265675e-06,5.408958426571762e-07,2.9330140823971552e-05
2e-07,2.0564820224299297e-06,5.328348514961735e-07,2.891758356263103e-05
2e-07,2.033714073085909e-06,5.247958729006832e-07,2.849986182145561e-05
2e-07,2.009786951128927e-06,5.168058494124406e-07,2.8078404326564892e-05
2e-07,1.9849372684241817e-06,5.088885248169405e-07,2.765460199364574e-05
2e-07,1.959400080922755e-06,5.01065112905346e-07,2.722978454968679e-05
2e-07,1.9334010898348298e-06,4.933555571763091e-07,2.6805320169534336e-05
1.9574649464057843e-06,1.907149969430566e-06,4.857784555942392e-07,2.638270706264799e-05
1.913677977306966e-06,1.8808411399632805e-06,4.783494463274677e-07,2.5963527873245747e-05
1.8697098333746785e-06,1.8546629749150543e-06,4.7108030996813443e-07,2.554930382677086e-05
1.825623018887548e-06,1.8288007132548226e-06,4.639797639145463e-07,2.5141354171843334e-05
1.7814753717660699e-06,1.803427673726831e-06,4.570545294165605e-07,2.4740733717632665e-05
1.7373213156650498e-06,1.7786963120574798e-06,4.5031053648945396e-07,2.434824864987193e-05
1.6932139608097563e-06,1.7547354874295482e-06,4.4375529647127217e-07,2.396449967370929e-05
1.6492103718350583e-06,1.7316496747855668e-06,4.373993491235894e-07,2.3589918509326707e-05
1.6053783701909316e-06,1.709520457893327e-06,4.3125460763153705e-07,2.322487227808983e-05
1.5617963649543996e-06,1.6884136795033188e-06,4.253319627212164e-07,2.286997491064987e-05
1.5185455026951608e-06,1.6683849503081542e-06,4.196404971914821e-07,2.252649326122529e-05
1.4757040467015374e-06,1.6494759065855142e-06,4.1418762002633073e-07,2.219650727760749e-05
1.433347980908126e-06,1.6317093790104691e-06,4.0898015112018266e-07,2.1882720528330866e-05
1.3915525588026935e-06,1.6150934096644414e-06,4.040262243006273e-07,2.1588084976405965e-05
1.3503908430873585e-06,1.5996286923029403e-06,3.99335284283296e-07,2.131547642752844e-05
1.3099302850058015e-06,1.5853097859362292e-06,3.949157019188857e-07,2.106765823755293e-05
1.270230036767705e-06,1.5721217924235114e-06,3.907732529907469e-07,2.0847464544442348e-05
1.2313401733466386e-06,1.5600403858711314e-06,3.869120066090494e-07,2.065787197201345e-05
1.193302595978356e-06,1.5490371146566804e-06,3.833354736450856e-07,2.050184637069601e-05
1.15615442180934e-06,1.5390865796935857e-06,3.800458522801994e-07,2.0382088603315893e-05
1.1199335040399728e-06,1.5301713330276966e-06,3.770428473753987e-07,2.0300793838390604e-05
1.0846824449530243e-06,1.5222799113337425e-06,3.74324023321484e-07,2.025947937916508e-05
1.0504483441720152e-06,1.5153995450027622e-06,3.718849206446928e-07,2.025889682055203e-05
1.0172798318568649e-06,1.509510379439211e-06,3.6971777457485964e-07,2.0299030966472096e-05
9.852256536921387e-07,1.504582216393977e-06,3.678109888774562e-07,2.037918555266408e-05
9.5433510790929e-07,1.5005715043782225e-06,3.661498718626346e-07,2.0498135916916925e-05
9.246559659656955e-07,1.4974191754465425e-06,3.64716918542946e-07,2.0654296679980122e-05
8.962295542436688e-07,1.4950518392753388e-06,3.6349196775590493e-07,2.084583620654306e-05
8.690865342253145e-07,1.4933889767793482e-06,3.6245426655175645e-07,2.107070054612001e-05
8.432454674836261e-07,1.4923526304545304e-06,3.615853985011922e-07,2.1326577658881868e-05
8.187153506206711e-07,1.4918719689061688e-06,3.608691665071485e-07,2.1610890722545128e-05
7.955000276209305e-07,1.4918822983922449e-06,3.6028888931590994e-07,2.19209004206015e-05
7.735992232763532e-07,1.4923233550389362e-06,3.598269423199007e-07,2.225388495111655e-05
7.53005375290919e-07,1.4931383982451924e-06,3.594678509928196e-07,2.2607266610547e-05
7.337007789237354e-07,1.494273395704521e-06,3.592018737164557e-07,2.297861922140964e-05
7.156580151527116e-07,1.4956764715219671e-06,3.590255292296978e-07,2.3365618550818564e-05
6.988422577581769e-07,1.4972969891576803e-06,3.589384808623043e-07,2.376600229572361e-05
6.832134555635978e-07,1.499083850048299e-06,3.5894093856784895e-07,2.4177519314693586e-05
6.687278378789047e-07,1.5009838997516162e-06,3.5903431905539215e-07,2.4597840030089043e-05
6.553380673698033e-07,1.502940623458126e-06,3.5922255005113956e-07,2.5024476444255345e-05
6.429928999216634e-07,1.5048954691449334e-06,3.5951152278490465e-07,2.545475155449508e-05
6.316387408016257e-07,1.5067947655396069e-06,3.599070304782433e-07,2.5885809745916072e-05
6.212228025962524e-07,1.5086000985796481e-06,3.6041259757812993e-07,2.631468341961461e-05
6.116951678341946e-07,1.5102976376368006e-06,3.610283975440776e-07,2.6738406853768788e-05
6.030081568753186e-07,1.5119021651557918e-06,3.6175137481766904e-07,2.715410169632664e-05
5.951140090744846e-07,1.513452959663775e-06,3.6257587714696666e-07,2.755899957609069e-05
5.879637043008025e-07,1.5150025560304704e-06,3.634948481427056e-07,2.79504334414922e-05
5.815087658439804e-07,1.5166034909994438e-06,3.645018591652405e-07,2.832581340262829e-05
5.757037269711733e-07,1.5182987114991394e-06,3.655923738602589e-07,2.8682613690163483e-05
5.705054248874356e-07,1.5201163511768524e-06,3.6676296394138155e-07,2.9018418081618403e-05
5.658702154649085e-07,1.5220691394160617e-06,3.680101764848881e-07,2.9330980071153962e-05
5.617528784966068e-07,1.5241609799139947e-06,3.693303176013525e-07,2.9618215412514466e-05
5.581081405115418e-07,1.5263956339074974e-06,3.70718815392375e-07,2.987817161119977e-05
5.548931069455979e-07,1.5287807574059457e-06,3.721690044077731e-07,3.010906640156564e-05
5.520684402353959e-07,1.5313303053303327e-06,3.7367166659196405e-07,3.030939403273487e-05
5.495987122522675e-07,1.5340652697266217e-06,3.752148952590207e-07,3.047807274851101e-05
5.474540262663438e-07,1.5370061133867575e-06,3.7678392038231906e-07,3.0614590017424216e-05
5.456123854416366e-07,1.540160741336752e-06,3.783616393542168e-07,3.071901576415759e-05
5.440602844386057e-07,1.5435180119090378e-06,3.7992931525841344e-07,3.079181843508561e-05
5.42790007622144e-07,1.5470479998344803e-06,3.814666838675281e-07,3.0833608121362173e-05
5.417947033903659e-07,1.5507060145152487e-06,3.829519765605951e-07,3.084496741222669e-05
5.410645240863679e-07,1.5544376994097403e-06,3.843627294544344e-07,3.0826408429807444e-05
5.40585525952614e-07,1.558180994070987e-06,3.856772533606375e-07,3.07783881316526e-05
5.403396552816589e-07,1.5618650089273746e-06,3.8687588141764666e-07,3.0701328421471106e-05
5.403046470979143e-07,1.5654099201592202e-06,3.8794227285931757e-07,3.0595716608958975e-05
5.404557777703696e-07,1.5687285629096394e-06,3.888647095356941e-07,3.046240073412346e-05
5.407710438161417e-07,1.5717288685581782e-06,3.8963596652908787e-07,3.0302937311611267e-05
5.412367279295353e-07,1.5743170527460782e-06,3.9025198412712603e-07,3.0119656119065448e-05
5.418489613479861e-07,1.5763997197684454e-06,3.907110753601762e-07,2.9915386445591335e-05
5.426114715775801e-07,1.5778838086172002e-06,3.910136890598282e-07,2.9693096815966307e-05
5.435331368004345e-07,1.57867637563017e-06,3.9116095096124954e-07,2.9455644144021168e-05
5.446270589377427e-07,1.5786855334179703e-06,3.9115228727192986e-07,2.920574867042632e-05
5.459085668920431e-07,1.577821845395174e-06,3.909848503321524e-07,2.894626854028917e-05
5.473904162894909e-07,1.5759998147281313e-06,3.906552367861594e-07,2.8680565288717084e-05
5.490792457812795e-07,1.5731391523263874e-06,3.9016134413687687e-07,2.841260428424732e-05
5.509766249467904e-07,1.5691656016730962e-06,3.8950443791493893e-07,2.8146767314053094e-05
5.530816808588894e-07,1.5640122776820552e-06,3.8869210948179657e-07,2.788761318015639e-05
5.553917211366378e-07,1.5576222948949787e-06,3.877383120953662e-07,2.763970351050158e-05
5.579015826686773e-07,1.549951650225635e-06,3.8665909955229006e-07,2.740746849960163e-05
5.606036965469932e-07,1.5409699131905263e-06,3.854688365157375e-07,2.719507190907391e-05
5.63488748911128e-07,1.5306586847146416e-06,3.8417910856521157e-07,2.7006280687932385e-05
5.665456327909353e-07,1.51901094948904e-06,3.8279940015464795e-07,2.6844380181015845e-05
5.697604666602205e-07,1.5060324542242588e-06,3.813388305402833e-07,2.671214456078921e-05
5.731160471297253e-07,1.4917432685092028e-06,3.798070832645765e-07,2.661180265341182e-05
5.765925269240744e-07,1.4761768170231475e-06,3.7821433843170364e-07,2.6544939653612412e-05
5.80168954995786e-07,1.459375356634106e-06,3.765723406671168e-07,2.6512379355721715e-05
5.83824854401398e-07,1.4413851374948318e-06,3.74895554801024e-07,2.651413861117288e-05
5.875400096348649e-07,1.4222548476812738e-06,3.7320007718534314e-07,2.6549486597237187e-05
5.912927879121623e-07,1.402036794091297e-06,3.715013062868754e-07,2.661709667655853e-05
5.950592252162076e-07,1.3807878919655985e-06,3.698124554922455e-07,2.6715247309328745e-05
5.988126950477405e-07,1.3585691274713018e-06,3.6814550821371243e-07,2.684200242390753e-05
6.025237555956176e-07,1.3354449699211171e-06,3.665143564109707e-07,2.6995337772961468e-05
6.061610495661818e-07,1.3114848605181444e-06,3.6493787054168883e-07,2.717322584680776e-05
6.096940164217181e-07,1.2867676125713482e-06,3.6344122902759426e-07,2.7373688422411386e-05
6.130975822626048e-07,1.2613893928797542e-06,3.6205391391535896e-07,2.7594817404280706e-05
6.163563895715679e-07,1.2354750238862525e-06,3.608053622915421e-07,2.783477245857124e-05
6.194645421332101e-07,1.2091859354643148e-06,3.5972199732379405e-07,2.8091754746314094e-05
6.224209592525671e-07,1.1827175350166492e-06,3.58825609149639e-07,2.836392717800123e-05
6.252254996173239e-07,1.1562884586461291e-06,3.581314830746717e-07,2.8649286008331398e-05
6.278789071905547e-07,1.1301252416033165e-06,3.5764762148771355e-07,2.894558705867573e-05
6.303853320981125e-07,1.1044429244566895e-06,3.5737576296533017e-07,2.925039038373911e-05
6.327556670450844e-07,1.0794286179366718e-06,3.5731282853670787e-07,2.9561141638612846e-05
6.350092194874236e-07,1.055236853560823e-06,3.5745248987532527e-07,2.987521452146465e-05
6.371727651121589e-07,1.0319981669763371e-06,3.5778781710423974e-07,3.0189928997326628e-05
6.392793011525092e-07,1.0098336346459423e-06,3.583135784108289e-07,3.0502566906004467e-05
6.41366605336242e-07,9.888631947182906e-07,3.590258396105085e-07,3.0810383835560556e-05
6.434736161564542e-07,9.692060307905444e-07,3.599204881548076e-07,3.1110626995168186e-05
6.456360570879408e-07,9.509818948057994e-07,3.609923720338924e-07,3.140057576538628e-05
