3.058994177656739e-07,8.431010024643939e-07,1.0146755701230488e-06,2.0108195516261805e-05
3.0783868103588917e-07,8.394102240731131e-07,1.0106500153120763e-06,2.01553099203566e-05
3.097072308713145e-07,8.353876156876388e-07,1.0069537528107859e-06,2.0211472329723802e-05
3.1149371125048665e-07,8.310426663153812e-07,1.0035532498539049e-06,2.0276514557200346e-05
3.131859159166277e-07,8.263872309430044e-07,1.0004134724192791e-06,2.034994789811481e-05
3.1477151474215845e-07,8.214370227208766e-07,9.975035317295454e-07,2.0430974736583355e-05
3.162392866073332e-07,8.162143717527648e-07,9.947958644490185e-07,2.0518549399228645e-05
3.175803799988301e-07,8.107472282549249e-07,9.922615223598323e-07,2.0611477934824464e-05
3.187882581505137e-07,8.050638008286439e-07,9.8987124844906e-07,2.0708522761983897e-05
3.1985749772011235e-07,7.991896153701344e-07,9.876034893143489e-07,2.0808461968005355e-05
3.207827557780573e-07,7.931508901024368e-07,9.854494195453782e-07,2.091011116967473e-05
3.2155858527014986e-07,7.869786324625348e-07,9.834082690577977e-07,2.101235542890888e-05
3.221805221564073e-07,7.807082970657488e-07,9.814776495200094e-07,2.111418705711188e-05
3.2264695495954053e-07,7.743780899928087e-07,9.79647609968982e-07,2.121470967601404e-05
3.229608211454014e-07,7.68029292903977e-07,9.779005917827494e-07,2.1313105910395746e-05
3.231307560898784e-07,7.617058308878252e-07,9.762149350702416e-07,2.1408592342472075e-05
3.2317070733766044e-07,7.554504685902726e-07,9.7457253520803e-07,2.150037455589102e-05
3.230977367110764e-07,7.493009232227679e-07,9.729678694430125e-07,2.1587625960052565e-05
3.2292970738144397e-07,7.432898104658206e-07,9.714087077839627e-07,2.166951239853048e-05
3.226835432807377e-07,7.374471490301484e-07,9.699086735532208e-07,2.1745229678148183e-05
3.223739689809076e-07,7.318021817538967e-07,9.684873105870724e-07,2.1814013290055645e-05
3.2201352070616826e-07,7.263845590901155e-07,9.671848723941136e-07,2.1875131815606976e-05
3.2161309068218807e-07,7.212259817462484e-07,9.66077332456127e-07,2.1927888885939387e-05
3.2118167760595717e-07,7.163598365198067e-07,9.65274932012639e-07,2.1971628178763408e-05
3.207259641392715e-07,7.118182649721782e-07,9.649030719020377e-07,2.2005717139455164e-05
3.202503725066296e-07,7.076313588318421e-07,9.65079095415614e-07,2.2029524884485128e-05
3.197578729547492e-07,7.03830490683394e-07,9.659024072314629e-07,2.2042437896528862e-05
3.1925225943345513e-07,7.004527147017171e-07,9.674584559770864e-07,2.2043915165696855e-05
3.187403723368007e-07,6.975423681477193e-07,9.698205201852863e-07,2.203355450027214e-05
3.182311774644576e-07,6.951487450980857e-07,9.730450717539154e-07,2.2011154702258548e-05
3.177332142889234e-07,6.933220746294437e-07,9.771681051571695e-07,2.1976788587142466e-05
3.172541736903349e-07,6.921087285188406e-07,9.822038956686228e-07,2.193086607056681e-05
3.168014596927848e-07,6.915448518986973e-07,9.881488027193952e-07,2.187409723754065e-05
3.1638284894218226e-07,6.916515314543196e-07,9.949930067047495e-07,2.1807337204924607e-05
3.160095317117029e-07,6.924359686541063e-07,1.0027296840584235e-06,2.173141965019856e-05
3.1569878432037807e-07,6.938967503448298e-07,1.0113524497618777e-06,2.164708121263317e-05
3.154712735940361e-07,6.960273905941577e-07,1.0208555938601264e-06,2.1554971973978632e-05
3.153460699074901e-07,6.988152982405251e-07,1.0312515593349305e-06,2.1455676468908427e-05
3.153392136266568e-07,7.022379988239847e-07,1.0425916993193255e-06,2.134970562991175e-05
3.1546410811050505e-07,7.062608357290744e-07,1.0549716476216674e-06,2.123751157111919e-05
3.157302649133737e-07,7.108377164768637e-07,1.0685202893400022e-06,2.1119614863526683e-05
3.161423994990625e-07,7.159133843989394e-07,1.0833799111709983e-06,2.0996775744932047e-05
3.1670168839704336e-07,7.214263461050908e-07,1.0996843569613433e-06,2.087000707746156e-05
3.1740734591920173e-07,7.273110327171652e-07,1.1175388166693562e-06,2.0740416901871303e-05
3.182569393602934e-07,7.334980745497097e-07,1.1370053543010141e-06,2.0609032836136183e-05
3.192466845045232e-07,7.399151743329009e-07,1.1580984397400202e-06,2.0476703961293075e-05
3.203734119546809e-07,7.464896213076818e-07,1.180789066940957e-06,2.034417611138772e-05
3.216361054448799e-07,7.53149975829867e-07,1.205012381596336e-06,2.0212370816902065e-05
3.2303420710002084e-07,7.598265517452778e-07,1.2306751914990259e-06,2.008264719957093e-05
3.2456498637729894e-07,7.664515726811085e-07,1.2576637668259949e-06,1.995681147175464e-05
3.262237239196788e-07,7.729589540098976e-07,1.285851749181796e-06,1.983692959614096e-05
3.280064183413525e-07,7.792844731100517e-07,1.315103442609904e-06,1.972511605760523e-05
3.2991164734926875e-07,7.853681517550424e-07,1.3452727438906778e-06,1.9623365091862e-05
3.319391949139833e-07,7.911604780402657e-07,1.3762029461947364e-06,1.953342818690596e-05
3.340869659186377e-07,7.966295963099409e-07,1.4077272670906798e-06,1.945673318880101e-05
3.363492002300059e-07,8.017630414513704e-07,1.4396690786939061e-06,1.9394338845906602e-05
3.387165954654605e-07,8.065625828097397e-07,1.4718449483979522e-06,1.934692070007927e-05
3.4117673142072665e-07,8.110359359338805e-07,1.5040740976383845e-06,1.93147778725345e-05
3.4371362283628787e-07,8.151891434001096e-07,1.5361936792374075e-06,1.929784209357024e-05
3.463078857956955e-07,8.190224369795367e-07,1.5680727780213639e-06,1.929567866240042e-05
3.4893970918409536e-07,8.225299662271491e-07,1.599618013539801e-06,1.9307499367775307e-05
3.515930654249268e-07,8.257014873092501e-07,1.6307668211169026e-06,1.9332213799342942e-05
3.5425762566986707e-07,8.285239500789355e-07,1.661469705228602e-06,1.936852062900481e-05
3.5692824042660214e-07,8.309822882036208e-07,1.6916720714320627e-06,1.941502874398801e-05
3.596032088420411e-07,8.33060619575618e-07,1.721304759846919e-06,1.947038542215613e-05
3.622813797370581e-07,8.347433711164501e-07,1.7502834680761563e-06,1.953336650781728e-05
3.649595514055453e-07,8.360150306399172e-07,1.7785155397981464e-06,1.9602910492626616e-05
3.6763188387696145e-07,8.36860657443584e-07,1.8059099842478882e-06,1.967813035269401e-05
3.7029058769229705e-07,8.372676800671609e-07,1.8323813903584405e-06,1.975831890205804e-05
3.7292597058448993e-07,8.37225917396463e-07,1.857845917558764e-06,1.9842921852566376e-05
3.7552576521839e-07,8.367261119907415e-07,1.8822218482090717e-06,1.993147723845524e-05
3.780753760531273e-07,8.357604930212417e-07,1.9054416421749187e-06,2.002354569507881e-05
3.805588072317118e-07,8.343251341771475e-07,1.927461788146262e-06,2.0118636591401222e-05
3.829589308672221e-07,8.32420396071092e-07,1.9482570964333614e-06,2.0216152925941463e-05
3.852574461709726e-07,8.30049052989948e-07,1.967808706946943e-06,2.0315399808326207e-05
3.8743530870101337e-07,8.272147316422769e-07,1.986102351552064e-06,2.0415629727503487e-05
3.8947345070928297e-07,8.239212069346794e-07,2.0031369734561862e-06,2.0516063265600175e-05
3.913533305571987e-07,8.201715766144896e-07,2.018933485824932e-06,2.0615893673374267e-05
3.930572064572318e-07,8.159674359563895e-07,2.0335394476244104e-06,2.0714304568311006e-05
3.94568004301264e-07,8.113089636713434e-07,2.047030416238248e-06,2.0810494267436772e-05
3.9586903335637815e-07,8.061958471613622e-07,2.0595057855498862e-06,2.0903685406323165e-05
3.9694477447186634e-07,8.00628114448099e-07,2.071076692643459e-06,2.0993132340817924e-05
3.9778281843511464e-07,7.946067480236217e-07,2.081851410659737e-06,2.107817649012081e-05
3.983747939390865e-07,7.881343708400783e-07,2.091926191091244e-06,2.1158331020940208e-05
3.9871581215844076e-07,7.812161131675741e-07,2.1013806218798337e-06,2.1233312513783977e-05
3.9880500736644e-07,7.738618477766773e-07,2.1102722263350966e-06,2.130299602064369e-05
3.9864733773735045e-07,7.660912620495541e-07,2.118631456325581e-06,2.136731897659285e-05
3.982537053187522e-07,7.5793997255174e-07,2.126462513183061e-06,2.1426163710560432e-05
3.976388681907462e-07,7.494621000449453e-07,2.133751311366223e-06,2.1479270290399653e-05
3.968187332685954e-07,7.40727269463433e-07,2.140476308284144e-06,2.1526241076579665e-05
3.9580864666744646e-07,7.318136329040662e-07,2.1466171945732654e-06,2.156665654655496e-05
3.946240065174104e-07,7.227994108843093e-07,2.152159666783732e-06,2.1600229651479145e-05
3.932809454383669e-07,7.137567992739204e-07,2.157096684854318e-06,2.162688350320274e-05
3.917945381645245e-07,7.047508615576512e-07,2.161426141507428e-06,2.1646722187723346e-05
3.9017669419916147e-07,6.958405260867055e-07,2.16514600887115e-06,2.165994473529915e-05
3.88436106980393e-07,6.870786278950046e-07,2.168250206130734e-06,2.166677013038493e-05
3.865801487746685e-07,6.785116700730255e-07,2.1707263915382403e-06,2.1667464352230164e-05
3.846174477952956e-07,6.701789314217907e-07,2.1725536890342576e-06,2.1662444278469374e-05
3.825598347213269e-07,6.621104076235529e-07,2.1736997596656312e-06,2.1652290328103388e-05
3.8042305551630494e-07,6.543258440841775e-07,2.174120498779184e-06,2.163766834427764e-05
3.7822546221264314e-07,6.46835965476279e-07,2.173766593409484e-06,2.1619284933459132e-05
3.759856721208042e-07,6.396448861614215e-07,2.172596403665988e-06,2.159784215254084e-05
3.737232262401098e-07,6.327527146215348e-07,2.1705867851472027e-06,2.157394098520338e-05
3.71462247403335e-07,6.261572129167283e-07,2.1677319674774547e-06,2.1547985977708288e-05
3.6923159371610605e-07,6.198536904432204e-07,2.164032865820247e-06,2.1520131764057182e-05
3.670602550327036e-07,6.13833821812299e-07,2.1594921221821966e-06,2.1490278755271774e-05
3.64974271988374e-07,6.080859049120008e-07,2.154121508515184e-06,2.145811225284321e-05
3.629971174991981e-07,6.025984181514622e-07,2.147950074468069e-06,2.1423163451776312e-05
3.6115108014811946e-07,5.973645356945105e-07,2.141022712678011e-06,2.1384872908245764e-05
3.5945862578693385e-07,5.923839995845216e-07,2.133392267977124e-06,2.1342650784402272e-05
3.579426431355924e-07,5.876620232420758e-07,2.125111335771637e-06,2.1295919346108107e-05
3.5662515321825596e-07,5.832062966462587e-07,2.116224827519008e-06,2.12441159296397e-05
3.555271045928133e-07,5.790237694161185e-07,2.1067636421654098e-06,2.118666942387013e-05
3.5467037817039326e-07,5.751196746209604e-07,2.0967421390319647e-06,2.112299016965492e-05
3.540780490344735e-07,5.71498197157101e-07,2.0861596964892762e-06,2.105247968043261e-05
3.53771067258284e-07,5.681615501999466e-07,2.075003374500366e-06,2.097453370382714e-05
3.537655870085279e-07,5.651073472657948e-07,2.0632525209273e-06,2.0888534851681872e-05
3.5407329688638677e-07,5.623275954481492e-07,2.0508890092621757e-06,2.0793849723376675e-05
3.5470259273315297e-07,5.598104849668667e-07,2.037909003660449e-06,2.0689840100337266e-05
3.5565913237034845e-07,5.575429581187995e-07,2.024325906319116e-06,2.0575893583860652e-05
3.5694530779391927e-07,5.555116339000361e-07,2.010162352229324e-06,2.0451456779933544e-05
3.585586988301253e-07,5.537011925468882e-07,1.9954408672935423e-06,2.031604270598328e-05
3.604918884961712e-07,5.520927440112236e-07,1.9801831067706463e-06,2.0169216298245332e-05
3.627344621538111e-07,5.506658662376065e-07,1.964418110914323e-06,2.0010587247813847e-05
3.6527415022581677e-07,5.494050116251252e-07,1.9481927554806737e-06,1.98398186336383e-05
3.680965728801679e-07,5.483074756602575e-07,1.931578306166192e-06,1.965663351689832e-05
3.711862415959392e-07,5.473886565692682e-07,1.914668907704794e-06,1.9460815986057647e-05
3.7452878262347865e-07,5.466807436068777e-07,1.8975705794145885e-06,1.9252216588437226e-05
3.7811344085303844e-07,5.462236047985415e-07,1.880387567325977e-06,1.9030762766511397e-05
3.8193648164868026e-07,5.460539609918596e-07,1.8632142135833003e-06,1.8796496503082643e-05
3.860034106244611e-07,5.462022750875598e-07,1.8461307807080262e-06,1.854963803112392e-05
3.9032610820801503e-07,5.466972247027131e-07,1.829199256242903e-06,1.829060075585979e-05
3.949164972976008e-07,5.475695494988732e-07,1.812462012704837e-06,1.8019946883396884e-05
3.9978189675152023e-07,5.48851799169499e-07,1.7959474642801513e-06,1.7738353951672566e-05
4.049225441577689e-07,5.50576032967575e-07,1.7796791784372678e-06,1.7446588756087366e-05
4.103302474020338e-07,5.527711953257017e-07,1.7636794580420609e-06,1.7145465726135235e-05
4.1599022806259366e-07,5.554611871484247e-07,1.7479686883119552e-06,1.6835825095408294e-05
4.2188566651421494e-07,5.586641600646311e-07,1.7325724014830096e-06,1.6518548977079714e-05
4.2800063131754993e-07,5.623930085351763e-07,1.7175348064568408e-06,1.6194624818691823e-05
4.3432055122033606e-07,5.666557788627754e-07,1.70292499304448e-06,1.5865249605581082e-05
4.40832961146005e-07,5.714534075850615e-07,1.6888342168076534e-06,1.5531897573677425e-05
4.47527672688225e-07,5.767765643817936e-07,1.6753723613188949e-06,1.5196292277627771e-05
4.543939056988498e-07,5.826075738261397e-07,1.6626633962028891e-06,1.4860296097383149e-05
4.614166306623646e-07,5.889267864983828e-07,1.650834460551239e-06,1.4525767989104236e-05
4.6857567148717777e-07,5.95714915993065e-07,1.6399999046414013e-06,1.4194456054463794e-05
4.758477142302336e-07,6.029486094892079e-07,1.6302487425456712e-06,1.386794661683822e-05
4.832090160307699e-07,6.105971634750543e-07,1.6216419584306381e-06,1.3547653443240344e-05
4.906366014537582e-07,6.186267724616204e-07,1.614216635962756e-06,1.323484444068568e-05
4.981085615559008e-07,6.270097537356749e-07,1.607991006352202e-06,1.293067718318688e-05
5.056049016986166e-07,6.357331227769512e-07,1.6029693616766752e-06,1.2636203645532526e-05
5.131069748531274e-07,6.448025763384938e-07,1.599144552144323e-06,1.2352357261478281e-05
5.205949461765343e-07,6.542394208523159e-07,1.59649479159732e-06,1.2079956395190815e-05
5.280468551501413e-07,6.64070540015783e-07,1.5949788101398741e-06,1.1819761223505933e-05
5.354398460146293e-07,6.743157240287246e-07,1.5945364356730253e-06,1.1572570027335093e-05
5.427505546441383e-07,6.849791020507208e-07,1.5950963300639584e-06,1.1339268857257393e-05
5.499540916452976e-07,6.960474159594675e-07,1.596587444481641e-06,1.112085196817848e-05
5.570238741658464e-07,7.07492357256613e-07,1.5989487682443757e-06,1.0918464522791504e-05
5.639339958496726e-07,7.192743607528728e-07,1.6021316601412325e-06,1.0733377602467591e-05
5.706619573269655e-07,7.313459140383107e-07,1.606092146718046e-06,1.0566867165801292e-05
5.771877476344379e-07,7.436524122402794e-07,1.6107791673124512e-06,1.0420099457912528e-05
5.834904532666873e-07,7.561320828975471e-07,1.6161289042158237e-06,1.0294065549180098e-05
5.895464700119104e-07,7.687178323205715e-07,1.6220685290461832e-06,1.018953787101722e-05
5.95329595788052e-07,7.813397030647638e-07,1.628525838213529e-06,1.0107032416788366e-05
6.008115869895336e-07,7.939255280161679e-07,1.6354378903136015e-06,1.004678112934482e-05
6.059626743114938e-07,8.064009203378909e-07,1.6427509369653112e-06,1.0008714948423323e-05
6.107519426234093e-07,8.186898228217694e-07,1.6504107273403367e-06,9.992452703064876e-06
6.151482007901401e-07,8.307156026587126e-07,1.6583513058475201e-06,9.997308648030514e-06
6.191213946769523e-07,8.424029992276918e-07,1.6664901938450462e-06,1.0022327225353957e-05
6.226436830947722e-07,8.536797323490462e-07,1.6747296934143355e-06,1.0066326418847606e-05
6.256899862056532e-07,8.644768775670471e-07,1.6829609985653485e-06,1.0127935313387551e-05
6.282386184878256e-07,8.74729160422032e-07,1.6910706299306288e-06,1.0205633975828884e-05
6.302735514793508e-07,8.843747612319048e-07,1.6989467767480525e-06,1.0297808735446474e-05
6.317884377532574e-07,8.933536084471305e-07,1.7064819616527522e-06,1.0402816984716535e-05
6.327879355882487e-07,9.016065352119171e-07,1.713573791470946e-06,1.0519036111880805e-05
6.332836037910603e-07,9.090775564394407e-07,1.7201251619388176e-06,1.0644884421222446e-05
6.332890313120811e-07,9.157166770070988e-07,1.7260428779396576e-06,1.0778828674342864e-05
6.328183743983037e-07,9.214800527327373e-07,1.7312384611077165e-06,1.0919394222269647e-05
6.318866951498316e-07,9.263291662282959e-07,1.7356340269043488e-06,1.1065162502371842e-05
6.305097947433289e-07,9.302316377987862e-07,1.7391694231240204e-06,1.1214738892768727e-05
6.287029588429132e-07,9.331624033090992e-07,1.7418068268024555e-06,1.1366729533011093e-05
6.264795893793429e-07,9.351035821277487e-07,1.74353202067537e-06,1.1519758809779359e-05
6.238519673259469e-07,9.360450050333868e-07,1.744350512084557e-06,1.1672482715371526e-05
6.208336604796252e-07,9.359871536252979e-07,1.7442774169777138e-06,1.1823569103333244e-05
6.174400751350211e-07,9.349432167287173e-07,1.743328548129297e-06,1.197168695372851e-05
6.13686486852633e-07,9.329363022646696e-07,1.7415221828241524e-06,1.2115526810126935e-05
6.095863968945291e-07,9.2999361454527e-07,1.7388872936935001e-06,1.2253839386087046e-05
6.051517221970755e-07,9.261426339003223e-07,1.735465507637676e-06,1.2385493477246683e-05
6.003940411471262e-07,9.214116895194124e-07,1.7313029302676036e-06,1.2509524647896735e-05
5.953256346390212e-07,9.158338216739288e-07,1.7264387952969555e-06,1.2625134800268224e-05
5.899595721736945e-07,9.094507379783321e-07,1.7208993275966175e-06,1.2731661121868738e-05
5.843093725077962e-07,9.023133312633369e-07,1.7146991219196251e-06,1.2828537009588605e-05
5.783889078699744e-07,8.944777204355751e-07,1.7078461223161199e-06,1.2915267673418365e-05
5.722125103210482e-07,8.85999807335804e-07,1.7003457798032189e-06,1.2991465543806935e-05
5.657952683582828e-07,8.769329444519316e-07,1.6922033462923946e-06,1.3056911643525059e-05
5.591532616765156e-07,8.673292199764262e-07,1.6834265389101038e-06,1.3111551553656832e-05
5.523033007078845e-07,8.572405973822699e-07,1.6740303187885754e-06,1.315542247984005e-05
5.452620825084777e-07,8.467183505905244e-07,1.6640413794449504e-06,1.3188592153346295e-05
5.380456174612303e-07,8.358132984300708e-07,1.6534986242902045e-06,1.3211178711282927e-05
5.306698697121355e-07,8.245769660440275e-07,1.6424506091663048e-06,1.3223443646897353e-05
5.23151424576669e-07,8.130598051976472e-07,1.6309535083981864e-06,1.3225859263724592e-05
5.155069289229261e-07,8.013074571487582e-07,1.6190687846165169e-06,1.3219072845975125e-05
5.077521045565716e-07,7.893603746617811e-07,1.6068604171428768e-06,1.3203803758955538e-05
4.999013006741305e-07,7.772572022602826e-07,1.5943972968737182e-06,1.3180744808793475e-05
4.919682741779199e-07,7.650391502510882e-07,1.5817602066403953e-06,1.3150502304558314e-05
4.83968250223101e-07,7.527542716708376e-07,1.5690433572816367e-06,1.3113578601096784e-05
4.7591938884044075e-07,7.404603607043236e-07,1.5563468606706434e-06,1.307037982455807e-05
4.6784222108353004e-07,7.282237376727813e-07,1.5437670250749131e-06,1.3021229394432919e-05
4.5975815557367446e-07,7.161132622052244e-07,1.5313910961470927e-06,1.296640241158769e-05
4.5168806322845056e-07,7.041945027527003e-07,1.5192986734353192e-06,1.2906245468785682e-05
4.4365123590380566e-07,6.925285904682662e-07,1.507567377510947e-06,1.2841367877477885e-05
4.3566586083132287e-07,6.811726784007754e-07,1.4962762335175918e-06,1.2772741504915199e-05
4.277505480918485e-07,6.701780544502396e-07,1.48550250502779e-06,1.2701623835648313e-05
4.1992415257314023e-07,6.595873144375515e-07,1.4753134853392392e-06,1.2629402747439098e-05
4.122039390877962e-07,6.49432627232387e-07,1.4657591701632255e-06,1.2557464015882562e-05
4.0460520073685935e-07,6.397355491086943e-07,1.456870823484957e-06,1.248715996122808e-05
3.9714214847683527e-07,6.305083502344962e-07,1.4486628493971875e-06,1.2419951857537034e-05
3.8982772930510546e-07,6.217558241099996e-07,1.4411336073188434e-06,1.235760030765482e-05
3.826732236933972e-07,6.134766959481715e-07,1.4342672201706048e-06,1.230218205679008e-05
3.7568906887921253e-07,6.056645141923828e-07,1.4280419075192827e-06,1.2255940774998774e-05
3.688861344591464e-07,5.983092207336092e-07,1.4224468197254003e-06,1.2221106805912215e-05
3.6227615260161315e-07,5.914021177181684e-07,1.4174997510923268e-06,1.2199744435178352e-05
3.5587062456197905e-07,5.849428408253765e-07,1.413253223490233e-06,1.2193652267318655e-05
3.496788406309234e-07,5.789407559615708e-07,1.4097837021308784e-06,1.2204317847342728e-05
3.437066688329773e-07,5.734077485050596e-07,1.4071697790365624e-06,1.2232892521281575e-05
3.3795708452612965e-07,5.68350243516975e-07,1.405471736879365e-06,1.2280175386247744e-05
3.324319630015156e-07,5.637679073209022e-07,1.404722151925965e-06,1.2346618599669247e-05
3.2713425491898196e-07,5.596573157288026e-07,1.4049262430450684e-06,1.2432342281295313e-05
3.2206900415122054e-07,5.560159993159547e-07,1.406064529814161e-06,1.2537132594089647e-05
3.172415238685204e-07,5.528452318224071e-07,1.408094783574971e-06,1.2660426931306193e-05
3.126546232525293e-07,5.5015065585711e-07,1.4109542852966815e-06,1.2801319319628466e-05
3.0830826189098075e-07,5.479392956580111e-07,1.4145635526452325e-06,1.2958617863833764e-05
3.0420092315127394e-07,5.46214232900756e-07,1.418833086162331e-06,1.3130963234759046e-05
3.003300620403589e-07,5.449704475143533e-07,1.4236729029241968e-06,1.3316970438439543e-05
2.966918661325156e-07,5.44193965279702e-07,1.4290027051009805e-06,1.351532358358346e-05
2.93281954662768e-07,5.438647343801913e-07,1.4347623033351031e-06,1.3724798826467015e-05
2.9009615038552185e-07,5.439603860202957e-07,1.4409214544499256e-06,1.3944258041816592e-05
2.871296966105856e-07,5.444565198917821e-07,1.4474825853942281e-06,1.4172643133025323e-05
2.8437580367623503e-07,5.453244554197981e-07,1.4544698678454162e-06,1.4408950621051638e-05
2.818249056492675e-07,5.465307000585002e-07,1.4619097345178273e-06,1.4652177702521436e-05
2.794648229424745e-07,5.48039226703201e-07,1.4698176041216826e-06,1.4901278180665655e-05
2.7728218238539605e-07,5.498147836733555e-07,1.4781993834150441e-06,1.5155150808943551e-05
2.7526453267880894e-07,5.518251038060901e-07,1.4870612730046847e-06,1.541263070286932e-05
2.734014981825677e-07,5.540406618242481e-07,1.496415818033818e-06,1.5672469834700213e-05
2.716854538307827e-07,5.564321646815535e-07,1.5062782091337303e-06,1.5933329339551793e-05
2.701129516503758e-07,5.589678267632866e-07,1.5166550780234225e-06,1.61937890915114e-05
2.686851175984007e-07,5.616129580502121e-07,1.5275342159296338e-06,1.6452371377220952e-05
2.674057976290191e-07,5.643327170003646e-07,1.5388810265155462e-06,1.6707585194466118e-05
2.6628027017696345e-07,5.670957219853626e-07,1.5506406475459485e-06,1.695797364967414e-05
2.6531581635626477e-07,5.698747716036897e-07,1.562748223569587e-06,1.7202132655323818e-05
2.645211863321488e-07,5.726453050758325e-07,1.5751505929672785e-06,1.7438705909859624e-05
2.639042184622471e-07,5.75385016936229e-07,1.5878292631543404e-06,1.7666406416038816e-05
2.6347040450376586e-07,5.780745347896482e-07,1.600809193507283e-06,1.7884086299969683e-05
2.6322323230055966e-07,5.806974473725074e-07,1.614146955441708e-06,1.8090796256938644e-05
2.631647186272913e-07,5.832394805526903e-07,1.6279055738710172e-06,1.828577621735796e-05
2.6329547691361406e-07,5.856879127042589e-07,1.6421387583459237e-06,1.8468382366861965e-05
2.636150871690425e-07,5.880315904202211e-07,1.6568995069055628e-06,1.8637997688789546e-05
2.64122228600603e-07,5.902606860118743e-07,1.6722587390208362e-06,1.879399339046536e-05
2.6481346972097156e-07,5.92367046112565e-07,1.6883130901759614e-06,1.893577022817325e-05
2.656827302855396e-07,5.943457294281694e-07,1.7051760052562028e-06,1.906283940487593e-05
2.667231669725357e-07,5.961948877499796e-07,1.7229569668075576e-06,1.9174887709211254e-05
2.679291750677594e-07,5.979125952657722e-07,1.7417391493008807e-06,1.927179602289444e-05
2.6929600777922746e-07,5.994941674706039e-07,1.7615653019946712e-06,1.935360662211359e-05
2.708182412154168e-07,6.009328427879958e-07,1.7824358120061352e-06,1.9420452369053682e-05
2.724903112402459e-07,6.022229925537664e-07,1.804316686090488e-06,1.947249276763452e-05
2.7430833508682344e-07,6.033643005735061e-07,1.827152853154068e-06,1.9509962760422206e-05
2.762694499834777e-07,6.043647186079013e-07,1.8508836214645043e-06,1.9533364990685127e-05
2.7836969349843804e-07,6.052400934786688e-07,1.8754562977571728e-06,1.954359884789161e-05
2.806038899264822e-07,6.060109261146742e-07,1.900833607558297e-06,1.9541861756346297e-05
2.8296687416910646e-07,6.066976161410229e-07,1.9269921121789545e-06,1.9529469528179278e-05
2.854533728940518e-07,6.073156601915789e-07,1.953910822176923e-06,1.950773954957973e-05
2.880560226909715e-07,6.0787318979105e-07,1.9815610300149587e-06,1.9477893563474448e-05
2.9076363892175656e-07,6.083723529570403e-07,2.0099149532185107e-06,1.9440968956511947e-05
2.935615662947801e-07,6.088132220993267e-07,2.0389700053048025e-06,1.939778155359885e-05
2.964327728915929e-07,6.091965703616304e-07,2.0687690594746752e-06,1.934892524570223e-05
2.993579422264938e-07,6.09523244530829e-07,2.099407377142424e-06,1.929477384652872e-05
3.0231534633044357e-07,6.097920412569582e-07,2.13102517265822e-06,1.9235487888809063e-05
3.0528142748135965e-07,6.099996297582129e-07,2.163785000290349e-06,1.9171039224541627e-05
3.0823198468677987e-07,6.101435447155479e-07,2.197840352879731e-06,1.910124589157597e-05
3.1114371883843086e-07,6.102268290546004e-07,2.2333078094639773e-06,1.902580449832758e-05
3.1399584611311e-07,6.102618559029148e-07,2.270249717561093e-06,1.894431624527414e-05
3.167712359117797e-07,6.102700299186339e-07,2.3086667209213283e-06,1.8856315764412868e-05
3.1945583998258445e-07,6.102770134859182e-07,2.3484997301691484e-06,1.8761324789351103e-05
3.2203668792488453e-07,6.103077431980428e-07,2.389641798422244e-06,1.865891828232621e-05
3.245007654007791e-07,6.103844975505491e-07,2.431954576832301e-06,1.8548749833631448e-05
3.268350064845035e-07,6.105266550267053e-07,2.475280749644641e-06,1.8430541147922322e-05
3.2902636582381093e-07,6.107496009711892e-07,2.519449537122414e-06,1.830407716382408e-05
3.3106249455771343e-07,6.110629801674889e-07,2.564279242956361e-06,1.816918947457321e-05
3.3293282370552844e-07,6.114700916070905e-07,2.609580930602409e-06,1.802572106622604e-05
3.346291631942568e-07,6.119700704046303e-07,2.6551631542459872e-06,1.7873509499105184e-05
3.3614558885899293e-07,6.12563492818656e-07,2.700836341819357e-06,1.7712400035062014e-05
3.374773004961457e-07,6.13258077795463e-07,2.7464190663713613e-06,1.754227421189579e-05
3.386191067306404e-07,6.14070128797047e-07,2.7917483481387117e-06,1.736307798352623e-05
3.395647628530745e-07,6.15023061526988e-07,2.836686943299117e-06,1.7174844828422557e-05
3.4030747661560037e-07,6.161465277597441e-07,2.88111609140316e-06,1.6977709613654438e-05
3.408412883582526e-07,6.174762598497021e-07,2.92491491432248e-06,1.6771891229140745e-05
3.411620590819757e-07,6.1905287047543e-07,2.9679436282882617e-06,1.6557644312917175e-05
3.4126699750760307e-07,6.209178005057893e-07,3e-07,1.633522493135582e-05
3.411536283947317e-07,6.231081415234297e-07,3e-07,1.6104916561901758e-05
3.408194087801484e-07,6.256551485456771e-07,3e-07,1.5867118301840257e-05
3.402618807409078e-07,6.285861472270415e-07,3e-07,1.5622415787428264e-05
3.3947897436066536e-07,6.319263665592862e-07,3e-07,1.537153832080893e-05
3.384696400015125e-07,6.357005355030388e-07,3e-07,1.5115240378939649e-05
3.3723443723075624e-07,6.399334227897589e-07,3e-07,1.4854220018127105e-05
3.357752794790293e-07,6.446478803420335e-07,3e-07,1.4589105045826242e-05
3.3409501527448397e-07,6.498622219309475e-07,3e-07,1.4320505385696386e-05
3.3219762160924647e-07,6.555885357239971e-07,3e-07,1.4049114157578271e-05
3.3008838602816896e-07,6.618315865203332e-07,3e-07,1.3775771227275338e-05
3.277739000150135e-07,6.685880032673714e-07,3e-07,1.3501434148475869e-05
3.2526209390736786e-07,6.758456783107115e-07,3e-07,1.3227092276632996e-05
3.225618884024221e-07,6.835833404836207e-07,3e-07,1.2953680974137186e-05
3.19682308041856e-07,6.917703145974114e-07,3e-07,1.2682058631879942e-05
3.1663162599908364e-07,7.003668493113814e-07,3e-07,1.2413090355983922e-05
3.134169466235607e-07,7.093252595595098e-07,3e-07,1.2147765127401912e-05
3.1004449676356356e-07,7.185910927567527e-07,3e-07,1.1887209921393089e-05
3.065208438893828e-07,7.281036669940129e-07,3e-07,1.1632585983619107e-05
3.028538632324364e-07,7.37796549806857e-07,3e-07,1.1384962540553653e-05
2.990526810549618e-07,7.47598837485286e-07,3e-07,1.1145238246931512e-05
2.9512782954440076e-07,7.574381926143207e-07,3e-07,1.0914133996840603e-05
2.91091403249835e-07,7.672464256796162e-07,3e-07,1.069223875692428e-05
2.869561331830696e-07,7.769656654117785e-07,3e-07,1.0480068168301214e-05
2.827343097609723e-07,7.865515061461867e-07,3e-07,1.0278160580787456e-05
2.7843758580452536e-07,7.959720469775078e-07,3e-07,1.008725984853116e-05
2.7407745122035763e-07,8.052035542919814e-07,3e-07,9.908482329030949e-06
2.696656237306375e-07,8.142246776657188e-07,3e-07,9.743289776073011e-06
2.652139227624516e-07,8.230122904802109e-07,3e-07,9.593284231589143e-06
2.607340736968745e-07,8.315391236195215e-07,3e-07,9.459986953788016e-06
2.56238028184698e-07,8.397718401454432e-07,3e-07,9.34470250289392e-06
2.517382423000515e-07,8.476707912564742e-07,3e-07,9.248530139229536e-06
2.472468912471161e-07,8.5519216915402e-07,3e-07,9.172539749517928e-06
2.427747486874209e-07,8.622912652486845e-07,3e-07,9.117952892039733e-06
2.3833131709692672e-07,8.689264375219567e-07,3e-07,9.086144978173993e-06
2.3392598500871292e-07,8.750617423395595e-07,3e-07,9.078518857253578e-06
2.2956875381258183e-07,8.806649738694112e-07,3e-07,9.096386724252569e-06
2.2527048242914128e-07,8.857038203486391e-07,3e-07,9.140882999155402e-06
2.210430761498836e-07,8.90144765835728e-07,3e-07,9.21289297619364e-06
2.1689868932946172e-07,8.939539761781523e-07,3e-07,9.312997240253352e-06
2.1284832644616766e-07,8.970985394952295e-07,3e-07,9.44143535599597e-06
2.0890195077670365e-07,8.995483219087736e-07,3e-07,9.598104037526256e-06
2.050702977102459e-07,9.012778797313142e-07,3e-07,9.782583033825658e-06
2.0136618320919359e-07,9.022685860008209e-07,2.990350172847153e-06,9.994143806226953e-06
1.9780379433267665e-07,9.025118618967674e-07,2.945021515496025e-06,1.0231721543548216e-05
1.943971060029796e-07,9.020114236146316e-07,2.899414638449395e-06,1.0493897796765756e-05
1.911590013859845e-07,9.007825804114362e-07,2.853832732896475e-06,1.0778937099439571e-05
1.8810097663393184e-07,8.988499676080698e-07,2.8085488073405483e-06,1.1084862177488416e-05
1.852331486248002e-07,8.962439125429625e-07,2.763792674221563e-06,1.1409542509572285e-05
1.825645611254873e-07,8.929949963155905e-07,2.7197504720843803e-06,1.1750780604906785e-05
1.8010306132302588e-07,8.891299868718364e-07,2.6765745443290904e-06,1.2106365051110962e-05
1.7785464725298512e-07,8.846716076680138e-07,2.634400355971695e-06,1.2474086059018476e-05
1.758229439297457e-07,8.796398336198731e-07,2.593363124659878e-06,1.2851757861081844e-05
1.740090764862452e-07,8.740520252638361e-07,2.5536059073484663e-06,1.3237252290670662e-05
1.724122410524898e-07,8.67922626955303e-07,2.5152747551356357e-06,1.3628483663620724e-05
1.710304946986353e-07,8.612639311641605e-07,2.4785039513034907e-06,1.4023334972991845e-05
1.6986135741789208e-07,8.540871500062166e-07,2.44340137483427e-06,1.4419596863327775e-05
1.6890277074149674e-07,8.464024058411938e-07,2.41004673345039e-06,1.4814976291623541e-05
1.6815386852671744e-07,8.382182008307116e-07,2.3785060551187212e-06,1.5207177865054953e-05
1.6761554711386149e-07,8.295421788596773e-07,2.3488483021388303e-06,1.559401935680459e-05
1.672909810687465e-07,8.203835358300647e-07,2.3211496929721253e-06,1.597351058897368e-05
1.671844258709259e-07,8.107553690742233e-07,2.295486465584425e-06,1.6343855059478526e-05
1.6729954178695245e-07,8.006756459494084e-07,2.27192368558557e-06,1.670340310092391e-05
1.6763981410646018e-07,7.90166806087562e-07,2.250507253527067e-06,1.705061082630422e-05
1.6820962054043595e-07,7.792544543459186e-07,2.2312631331971483e-06,1.7384027974741516e-05
1.690149482537133e-07,7.679671236894057e-07,2.2142014305153948e-06,1.770229387295909e-05
1.7006381333285818e-07,7.563396905105272e-07,2.1993206238602e-06,1.8004137207015598e-05
1.7136431742264097e-07,7.444189025617491e-07,2.186609461324498e-06,1.8288406287622725e-05
1.7292111550417496e-07,7.322644881468231e-07,2.1760468691817314e-06,1.855412760363621e-05
1.747337338229889e-07,7.199421902133351e-07,2.1676020192282267e-06,1.88005615770349e-05
1.767970608281047e-07,7.075149106959621e-07,2.161235663220359e-06,1.9027237740822972e-05
1.791023869613717e-07,6.950391747941585e-07,2.1569005167538083e-06,1.9233991883324123e-05
1.816381286188939e-07,6.825649863716204e-07,2.154537051141917e-06,1.9421002745157386e-05
1.8439015284182165e-07,6.701352753511931e-07,2.1540686626989414e-06,1.958874543429226e-05
1.8734199369425469e-07,6.577858544042464e-07,2.1554061886866004e-06,1.9737836117433567e-05
1.9047514576535003e-07,6.455468683098507e-07,2.15845968471298e-06,1.986886282113452e-05
1.937694742317561e-07,6.334447111827361e-07,2.1631435254321917e-06,1.9982282633804947e-05
1.9720381934288249e-07,6.21503528447166e-07,2.169370285188144e-06,2.0078393060035146e-05
2.0075686250254518e-07,6.097460077751649e-07,2.177042147090216e-06,2.015735081924109e-05
2.0440792505390762e-07,5.981937256753204e-07,2.186047501329373e-06,2.0219204485387367e-05
2.0813770717411768e-07,5.868683843926722e-07,2.196264465290336e-06,2.0263956437096906e-05
2.1192987333091066e-07,5.757947768619816e-07,2.207569928996337e-06,2.0291729443282252e-05
2.157736014478543e-07,5.650034901206005e-07,2.2198491172142812e-06,2.0302988754166626e-05
2.196654281239481e-07,5.5453049330671e-07,2.232997356851267e-06,2.0298600668491835e-05
2.2360810294085032e-07,5.444133111450626e-07,2.2469099106310037e-06,2.027965938135585e-05
2.276063274793493e-07,5.346856558002084e-07,2.261468031863861e-06,2.024725363828907e-05
2.3166266544529854e-07,5.25373300735168e-07,2.27653287940835e-06,2.0202342490790906e-05
2.35776538659305e-07,5.164935088685218e-07,2.291948376560667e-06,2.014584415946799e-05
2.399453667884163e-07,5.080572264898161e-07,2.307545844216961e-06,2.007893528646264e-05
2.4416511813080075e-07,5.000716597020132e-07,2.323145938136816e-06,2.00033290579726e-05
2.4843001135331485e-07,4.925421677568656e-07,2.3385608907299566e-06,1.992128778331765e-05
2.5273307497092385e-07,4.854725817128215e-07,2.3536008063795465e-06,1.9835418537826266e-05
2.570666812598065e-07,4.788648194341337e-07,2.368081061593861e-06,1.974843800306947e-05
2.6142172974452517e-07,4.727200724332465e-07,2.3818250330215755e-06,1.9662976961419047e-05
2.6578788418684785e-07,4.670399483763517e-07,2.394661406019877e-06,1.958143034071206e-05
2.701566172962333e-07,4.6182518290302076e-07,2.4064207231235963e-06,1.9505869322322502e-05
2.745253988218442e-07,4.5707332292661565e-07,2.4169350956527105e-06,1.9438003286939107e-05
2.7889980045175163e-07,4.527774583626997e-07,2.426041777261063e-06,1.937916124178358e-05
2.8329106642174437e-07,4.4892640482615784e-07,2.4335911565547998e-06,1.933029176918468e-05
2.87711722886064e-07,4.4550587624073374e-07,2.439458406193392e-06,1.9291974535966186e-05
2.921733454277826e-07,4.425006838105499e-07,2.443553047595331e-06,1.92644270064272e-05
2.966855585635837e-07,4.398973358289858e-07,2.4458202099107644e-06,1.9247539664548818e-05
3.012548774035421e-07,4.3768443248329256e-07,2.4462327678719115e-06,1.9240960096752882e-05
3.058842139797028e-07,4.3585001685534936e-07,2.4447778397431258e-06,1.9244187231356823e-05
3.105721650562824e-07,4.3437878935168094e-07,2.4414441790382998e-06,1.925666349367745e-05
3.153121525097949e-07,4.332519179939312e-07,2.436216890225798e-06,1.927787069099495e-05
3.2009368318818533e-07,4.3244949293043096e-07,2.4290790707302896e-06,1.9307396189160783e-05
3.249047826918916e-07,4.319533261165714e-07,2.420014665700115e-06,1.9344948600519288e-05
3.2973285224047736e-07,4.3174812329444073e-07,2.4090095466267458e-06,1.9390340947786865e-05
3.3456497540215176e-07,4.318222449797332e-07,2.396053340298378e-06,1.9443452752442504e-05
3.3938928790848204e-07,4.32168569732998e-07,2.3811455609175074e-06,1.9504170107335744e-05
3.441957558449744e-07,4.327831641287792e-07,2.3643045330929197e-06,1.9572315137998804e-05
3.4897597518234465e-07,4.3366197894239357e-07,2.345571162358986e-06,1.9647581560891136e-05
3.537236146930815e-07,4.347981727421697e-07,2.3250018546808497e-06,1.972948562143445e-05
3.5843458688738324e-07,4.3618178746362116e-07,2.302658101104236e-06,1.9817365362167607e-05
3.6310531133289645e-07,4.3780285832239287e-07,2.2786056407183566e-06,1.991047192638389e-05
3.677305005678029e-07,4.3965537900505544e-07,2.2529250727915484e-06,2.0008108238468968e-05
3.7230298630881143e-07,4.417370334604881e-07,2.2257250299925216e-06,2.0109705705914272e-05
3.7681593543346756e-07,4.4404492109901006e-07,2.19714763228822e-06,2.021480665857152e-05
3.8126520496831593e-07,4.465716011653168e-07,2.1673615476443025e-06,2.0323003158677328e-05
3.85648514906049e-07,4.4930348255055676e-07,2.1365470906145056e-06,2.043387893389252e-05
3.899616154451189e-07,4.522216505900522e-07,2.1048814258091124e-06,2.0546952103476032e-05
3.9419576889831965e-07,4.5530605283985216e-07,2.0725276146364843e-06,2.066159444944321e-05
3.9833819035184897e-07,4.5854152088275787e-07,2.039628968339636e-06,2.077696255559481e-05
4.0237375256052953e-07,4.619190288682615e-07,2.006309783482097e-06,2.0892004951986465e-05
4.062871048640215e-07,4.6543077091793966e-07,1.97267864429703e-06,2.1005537321180408e-05
4.1006444597654453e-07,4.6906681067346105e-07,1.938829884033213e-06,2.1116348764208613e-05
4.1369401023505687e-07,4.728157867882058e-07,1.9048450050960729e-06,2.1223343407844946e-05
4.171654777346596e-07,4.76664749149514e-07,1.8707958116574544e-06,2.1325686540065923e-05
4.204692113233854e-07,4.80597498349038e-07,1.8367456915040932e-06,2.1422851247989543e-05
4.2359614123045775e-07,4.845934888409539e-07,1.8027482575558446e-06,2.151451648189313e-05
4.2653793669394454e-07,4.886276480617332e-07,1.7688481798192874e-06,2.1600390742460008e-05
4.2928653545995046e-07,4.926727236932001e-07,1.7350844060496606e-06,2.1680070353852785e-05
4.3183407584155644e-07,4.967040819344206e-07,1.7014918667047755e-06,2.175298214945916e-05
4.341748062359069e-07,5.007025369021198e-07,1.6681034803929643e-06,2.1818393750436966e-05
4.363071797856064e-07,5.046527206048632e-07,1.6349563213112703e-06,2.187545569890277e-05
4.3823293353103923e-07,5.08539505847751e-07,1.602100060329005e-06,2.1923271872995776e-05
4.399539966901146e-07,5.123454967082998e-07,1.569601827147113e-06,2.196105516622891e-05
4.41470493565868e-07,5.160508539123178e-07,1.537543433687674e-06,2.1988362568682753e-05
4.427805032524024e-07,5.196352656516107e-07,1.5060131104829932e-06,2.200522637710096e-05
4.438808454679305e-07,5.230797281671078e-07,1.475097663152541e-06,2.201205245439768e-05
4.447684468127805e-07,5.263667034501832e-07,1.4448772000148932e-06,2.200940493139885e-05
4.454416847901498e-07,5.294804188504612e-07,1.4154205686500363e-06,2.199784333832473e-05
4.459019217868534e-07,5.324085121359355e-07,1.3867816230356331e-06,2.197789028001426e-05
4.4615460989265816e-07,5.351443408101932e-07,1.358999547820652e-06,2.1950188562753304e-05
4.46208521176171e-07,5.376889462515659e-07,1.3321033542683985e-06,2.1915755814136645e-05
4.460743395648685e-07,5.400519844724224e-07,1.3061158531638345e-06,2.187607638058696e-05
4.4576466572159883e-07,5.422513756937013e-07,1.2810570535298041e-06,2.1832966588554626e-05
4.452955631149142e-07,5.443099956836487e-07,1.2569505356136834e-06,2.1788383846361467e-05
4.4468800526106493e-07,5.462493209748779e-07,1.2338278713966676e-06,2.174427297696473e-05
4.4396717803116256e-07,5.480844806952857e-07,1.2117241386479015e-06,2.170244046112864e-05
4.431605605345952e-07,5.498234087663241e-07,1.1906703953241785e-06,2.166445865528433e-05
4.422962121927018e-07,5.514690002541293e-07,1.170695003790473e-06,2.163160480838255e-05
4.4139999262163906e-07,5.530224194285981e-07,1.151833510600975e-06,2.1604837763424115e-05
4.4049238316877434e-07,5.544849424845201e-07,1.1341361391675395e-06,2.158482149262785e-05
4.3958762961188004e-07,5.558572575608639e-07,1.1176671788643699e-06,2.157197260908788e-05
4.3869509192382343e-07,5.571384537295823e-07,1.1024983537585359e-06,2.1566484805397053e-05
4.378212501187811e-07,5.583272213831574e-07,1.0887002571250551e-06,2.1568314692552887e-05
4.3697128831812666e-07,5.594250413555069e-07,1.0763349088280759e-06,2.1577146879164112e-05
4.361489949270352e-07,5.604384346871648e-07,1.0654489020090577e-06,2.1592376628487067e-05
4.3535555161485117e-07,5.613781964190182e-07,1.0560667313466292e-06,2.1613156227140285e-05
4.345888799063363e-07,5.622577402868495e-07,1.0481885567695576e-06,2.163850753777325e-05
4.338436259570717e-07,5.630939963990265e-07,1.0417956277197112e-06,2.1667441808538336e-05
4.331120257048004e-07,5.639097956298653e-07,1.0368591964683709e-06,2.169903527802194e-05
4.323865440014881e-07,5.647331916084341e-07,1.0333460334119608e-06,2.173247061330176e-05
4.3166317444878867e-07,5.6559273985106e-07,1.0312188636573618e-06,2.176706226258232e-05
4.3094246007519704e-07,5.665132190355021e-07,1.0304343540816574e-06,2.1802249982338143e-05
4.302272983580984e-07,5.675154634031235e-07,1.0309403519112775e-06,2.183756402950261e-05
4.2952039501476347e-07,5.686190159299156e-07,1.0326727630992927e-06,2.1872594721836685e-05
4.2882359647182437e-07,5.698438185832504e-07,1.035554306944688e-06,2.190696372845318e-05
4.28137629185994e-07,5.712085441867186e-07,1.0394970206506934e-06,2.19402681466308e-05
4.274616076883415e-07,5.727268474465123e-07,1.044405719059853e-06,2.1972020118482698e-05
4.2679381486047133e-07,5.74405216690207e-07,1.0501789089271342e-06,2.2001621647915725e-05
4.2613319631796173e-07,5.762445287664413e-07,1.0567083172759671e-06,2.2028357185095367e-05
4.254801114145774e-07,5.7824300887241e-07,1.0638813811683715e-06,2.205139329628408e-05
4.2483599788582655e-07,5.803973330597483e-07,1.07158678214902e-06,2.2069810982113642e-05
4.2420161855987813e-07,5.827020492645128e-07,1.0797170677528594e-06,2.2082665653527832e-05
4.235749886760211e-07,5.851479093234571e-07,1.0881665002274131e-06,2.2089035557814026e-05
4.2295121325960863e-07,5.8771972715657e-07,1.0968282589782928e-06,2.2088043112520795e-05
4.223241691304038e-07,5.903960835214655e-07,1.10559323148097e-06,2.207889943637988e-05
4.2168768798629595e-07,5.93150868797714e-07,1.114350948872703e-06,2.2061011662907684e-05
4.210350925710311e-07,5.959548102456375e-07,1.122993174050857e-06,2.2034084931916283e-05
4.20358255748289e-07,5.987764485231972e-07,1.1314174951561509e-06,2.1998133882169872e-05
4.1964729540085676e-07,6.01582324379933e-07,1.139527700544393e-06,2.195341039993025e-05
4.188909827901214e-07,6.04337045527353e-07,1.1472340279952623e-06,2.1900291735990705e-05
4.1807746341473603e-07,6.070048794631322e-07,1.1544590373156306e-06,2.183915243221001e-05
4.1719457589320325e-07,6.095535146361123e-07,1.1611467945830758e-06,2.1770256930484595e-05
4.1622949933344505e-07,6.119587983070946e-07,1.1672667585966364e-06,2.1693737841633336e-05
4.151683266379977e-07,6.142066483849611e-07,1.1728087616198665e-06,2.1609682172138496e-05
4.139962823147424e-07,6.162897199518518e-07,1.177772909720717e-06,2.151824914167114e-05
4.126985606782528e-07,6.182029272724187e-07,1.182161012793643e-06,2.141972331490291e-05
4.112611871554276e-07,6.199426868161231e-07,1.1859762086117541e-06,2.1314490197319395e-05
4.096718054153077e-07,6.215098960314386e-07,1.1892308562321549e-06,2.1202983340162228e-05
4.0792079322744776e-07,6.229142329715923e-07,1.1919537160541159e-06,2.108568076938745e-05
4.060018847197207e-07,6.24175743757169e-07,1.194190369809065e-06,2.096319816070803e-05
4.0391101079084383e-07,6.253212018252408e-07,1.1960000735048151e-06,2.0836366415164386e-05
4.016445785784451e-07,6.263783310626218e-07,1.19745427499837e-06,2.070618533714219e-05
3.9919898191911274e-07,6.273720491893207e-07,1.198637377285245e-06,2.057375730604363e-05
3.965709200034621e-07,6.283224891468943e-07,1.199645293596572e-06,2.0440265249173097e-05
3.937579522066929e-07,6.292433373939053e-07,1.2005781992613486e-06,2.030691729607175e-05
3.907593644444736e-07,6.301413064051506e-07,1.2015297096015416e-06,2.0174865158134814e-05
3.875770537890539e-07,6.310168773712608e-07,1.2025791068331212e-06,2.0045151116820224e-05
3.8421588311017975e-07,6.318651822788439e-07,1.2037922527708206e-06,1.9918677846451398e-05
3.8068327171827467e-07,6.326766164060569e-07,1.2052293948283345e-06,1.979619549131468e-05
3.7698885088048397e-07,6.334378919171406e-07,1.2069523111716431e-06,1.967830756448071e-05
3.731444745013022e-07,6.34136248212483e-07,1.20902598348472e-06,1.9565469945539748e-05
3.6916370316685405e-07,6.347678522119042e-07,1.2115148838447712e-06,1.9457958566833053e-05
3.6506125721973297e-07,6.353456916557975e-07,1.214477725687172e-06,1.9355822196856104e-05
3.608529605795836e-07,6.359023388596051e-07,1.2179657583193337e-06,1.925886511827671e-05
3.5655500318080526e-07,6.364872605373701e-07,1.2220247777321364e-06,1.916667413102193e-05
3.521826287215365e-07,6.371593590484593e-07,1.2266968823367438e-06,1.9078656534663924e-05
3.477494940195688e-07,6.379771826633114e-07,1.2320190392413573e-06,1.899407187285332e-05
3.4326749486270045e-07,6.389914621890212e-07,1.2380174236844238e-06,1.8912083650180483e-05
3.3874656481354536e-07,6.402422185471422e-07,1.244700189859923e-06,1.8831840296180097e-05
3.341947803001769e-07,6.417591948130429e-07,1.2520547727145742e-06,1.8752544860485112e-05
3.296189982854795e-07,6.435627337403468e-07,1.2600514963616005e-06,1.8673474353111355e-05
3.250259890753502e-07,6.456634385564456e-07,1.26864924019746e-06,1.859396144305536e-05
3.204236294080096e-07,6.480623381375863e-07,1.27780104149537e-06,1.8513376866900338e-05
3.1582114503196226e-07,6.507525195351315e-07,1.2874605011003244e-06,1.8431125002620776e-05
3.1122796954083827e-07,6.537204268093632e-07,1.2975874986988831e-06,1.834664230233338e-05
3.066522828187304e-07,6.569477611453685e-07,1.3081493901743105e-06,1.8259404120028286e-05
3.021006985326224e-07,6.604179445805483e-07,1.3191146696143326e-06,1.816894756377698e-05
2.9757886507019813e-07,6.641269438199155e-07,1.3304416878737502e-06,1.8074882338896747e-05
2.930919283919693e-07,6.680921381900571e-07,1.3420707732618655e-06,1.797686666215898e-05
2.886451624844313e-07,6.723538502021314e-07,1.3539243507320557e-06,1.7874568345462776e-05
2.842451323679103e-07,6.769698448119115e-07,1.3659115029773792e-06,1.7767649205707738e-05
2.7990113646897525e-07,6.8200461519208e-07,1.377932424390052e-06,1.7655818160754064e-05
2.756262941072073e-07,6.875154540407278e-07,1.389882005978293e-06,1.7538963259446068e-05
2.714364143678805e-07,6.935412092062271e-07,1.4016532577502821e-06,1.7417264294894143e-05
2.6734681561678177e-07,7.000990151691557e-07,1.413142289736307e-06,1.729115056360723e-05
2.633709195176942e-07,7.071878292038592e-07,1.4242567013578172e-06,1.716111905000301e-05
2.5952193008440826e-07,7.147947549696399e-07,1.434924758030706e-06,1.7027582875450798e-05
2.558147933045981e-07,7.229007156052203e-07,1.4450999536943183e-06,1.689085835623627e-05
2.5226734176165617e-07,7.314824130953231e-07,1.4547585298955436e-06,1.675122094398362e-05
2.489014199755599e-07,7.405104972968657e-07,1.4638907290486288e-06,1.6608919607021227e-05
2.457426171589085e-07,7.499477673683501e-07,1.472489103933951e-06,1.6464166897277272e-05
2.428171810820533e-07,7.597497650096912e-07,1.4805401531204245e-06,1.6317175002034273e-05
2.401482124394842e-07,7.69865925492107e-07,1.4880230805236343e-06,1.6168219787165367e-05
2.377536986438932e-07,7.802398274209503e-07,1.4949127218593788e-06,1.6017676339077347e-05
2.3564615099536015e-07,7.908098990048194e-07,1.501182257271553e-06,1.5866002929827632e-05
2.338326332883009e-07,8.015107559007729e-07,1.506804731397134e-06,1.5713684150021327e-05
2.3231483452804733e-07,8.122730955576439e-07,1.5117536059643318e-06,1.5561169567352434e-05
2.310894245563105e-07,8.230227580526741e-07,1.5160013438488755e-06,1.5408833407297918e-05
2.301489589496973e-07,8.336817907072465e-07,1.519516666847834e-06,1.5256961232882056e-05
2.2948333892213568e-07,8.441707183077104e-07,1.522263520490045e-06,1.5105770863854371e-05
2.290807646095794e-07,8.544100634255892e-07,1.524203548489971e-06,1.4955441629150567e-05
2.2892718480476627e-07,8.643222887945168e-07,1.5253039777477225e-06,1.4806099791953274e-05
2.2900552727962142e-07,8.738343657465595e-07,1.525550196884431e-06,1.4657778599445276e-05
2.2929638753530179e-07,8.82880169315472e-07,1.5249556691983682e-06,1.4510434749232542e-05
2.2978034613991613e-07,8.914039065497385e-07,1.5235640024214046e-06,1.4364042647364927e-05
2.304406297919735e-07,8.993639699927429e-07,1.521442810136556e-06,1.4218690085113439e-05
2.3126371332114353e-07,9.067343079975855e-07,1.5186700357467678e-06,1.4074610606041946e-05
2.32237610380826e-07,9.135031785649681e-07,1.515320726485691e-06,1.393216552458514e-05
2.3335033468673638e-07,9.196704683248207e-07,1.5114643896165158e-06,1.3791793332000727e-05
2.3458963712207173e-07,9.252429561731905e-07,1.5071684802047975e-06,1.365393253600609e-05
2.3594295617825261e-07,9.30230104724618e-07,1.502496360478169e-06,1.3518943924620895e-05
2.3739698108766842e-07,9.346436011181336e-07,1.4975009893950644e-06,1.3387054545949658e-05
2.389377162054131e-07,9.384972435005724e-07,1.4922242788649196e-06,1.3258335862655867e-05
2.4055142874028976e-07,9.418056585404608e-07,1.486703651668118e-06,1.3132722665432296e-05
2.42225178328258e-07,9.445848190175907e-07,1.4809782315184583e-06,1.3010077372407867e-05
2.4394632876791894e-07,9.468530407864763e-07,1.4750892507566726e-06,1.289027363700862e-05
2.4570268701453354e-07,9.486309417455416e-07,1.4690764349664346e-06,1.277322537264082e-05
2.4748459158822015e-07,9.499420829647491e-07,1.4629782045931888e-06,1.265884147838279e-05
2.492871944778229e-07,9.508127229098513e-07,1.4568420793321126e-06,1.2546969690997842e-05
2.5111007021057093e-07,9.512681581907044e-07,1.4507368310026288e-06,1.243737251038347e-05
2.5295419083597817e-07,9.513283175873566e-07,1.4447506366277969e-06,1.2329751744926994e-05
2.548188681391591e-07,9.51005985594214e-07,1.438975450648378e-06,1.2223843612272722e-05
2.567004013109747e-07,9.503073269523424e-07,1.4334925772945468e-06,1.2119544719461522e-05
2.585924707158837e-07,9.492329151362324e-07,1.4283703079259325e-06,1.2016974160768338e-05
2.6048730836531864e-07,9.477779997259178e-07,1.4236716246687444e-06,1.191643724741209e-05
2.6237625385808896e-07,9.459330796614412e-07,1.419462480806101e-06,1.1818335690505627e-05
2.642494943927936e-07,9.436872210282835e-07,1.4158147546437408e-06,1.1723080107948167e-05
2.660960624584012e-07,9.410324654369881e-07,1.412804993876464e-06,1.1631029084753426e-05
2.67904784363265e-07,9.379652718452309e-07,1.410513328593276e-06,1.1542448173995458e-05
2.696656505689856e-07,9.344866077482309e-07,1.409025733946313e-06,1.1457496659946545e-05
2.713707465793729e-07,9.306033008811916e-07,1.4084379129591215e-06,1.1376307437180205e-05
2.730149219466724e-07,9.263269135405592e-07,1.4088554104756581e-06,1.1299202535919225e-05
2.7459599724257136e-07,9.216688814366852e-07,1.4103860327063112e-06,1.1226894433613958e-05
2.761140956573174e-07,9.166368869797237e-07,1.4131260665339772e-06,1.1160444826555083e-05
2.7757174900503784e-07,9.112346273352604e-07,1.417146713073177e-06,1.110101227920184e-05
2.7897469756437684e-07,9.054632149070484e-07,1.4224888344089031e-06,1.1049633967307311e-05
2.8033055104152924e-07,8.993231430988371e-07,1.429171006766581e-06,1.100719345278564e-05
2.816457022455453e-07,8.928157030659534e-07,1.4372062588344088e-06,1.0974595022431827e-05
2.829235336990915e-07,8.859427446058434e-07,1.446615837525119e-06,1.0953049559401994e-05
2.841647331799218e-07,8.787060129401882e-07,1.457433000759212e-06,1.0944209659482033e-05
2.85368413641812e-07,8.711069883176319e-07,1.469697248808065e-06,1.0950009674868893e-05
2.865331112152832e-07,8.631466209951937e-07,1.4834415939618754e-06,1.0972406461282422e-05
2.876570398897847e-07,8.548251774395576e-07,1.498678389621485e-06,1.101321800688475e-05
2.8873727675544893e-07,8.461426194158012e-07,1.51539124703978e-06,1.1074038324020912e-05
2.897696274962003e-07,8.370993431157088e-07,1.533535753716499e-06,1.115616935628694e-05
2.907503746444665e-07,8.276967396316973e-07,1.5530464672354263e-06,1.1260562378701398e-05
2.9167770629813947e-07,8.179380300266604e-07,1.5738449736582181e-06,1.1387776601927776e-05
2.925510780032135e-07,8.078312111635587e-07,1.5958436838289585e-06,1.1537966956908729e-05
2.933703325590668e-07,7.973941425906531e-07,1.6189449706750162e-06,1.1710899491932267e-05
2.941371266901951e-07,7.866585716009396e-07,1.6430386917473844e-06,1.1905965843313854e-05
2.948573211173373e-07,7.756692900768489e-07,1.6680002552195557e-06,1.2122194126295302e-05
2.955409055857897e-07,7.644780273110619e-07,1.6936924051393569e-06,1.2358295185288362e-05
2.961997388420102e-07,7.531361920847346e-07,1.7199735897701046e-06,1.2612745049313682e-05
2.9684531545280556e-07,7.416911304405934e-07,1.7467088604937009e-06,1.288386819214024e-05
2.9748756240341807e-07,7.301861172261677e-07,1.773775910627017e-06,1.3169913368700975e-05
2.981348009736197e-07,7.186608832416774e-07,1.8010647587458255e-06,1.3469127020971973e-05
2.987939656127899e-07,7.071518002212296e-07,1.8284742978188888e-06,1.3779809333399925e-05
2.9947094580144146e-07,6.956931419161169e-07,1.8559082162162446e-06,1.4100334428739493e-05
3.001713103056188e-07,6.84319260970129e-07,1.8832717796524486e-06,1.4429134215605649e-05
3.009007237532097e-07,6.73065592762157e-07,1.910470561399273e-06,1.4764656540955981e-05
3.0166491925852554e-07,6.619671494508475e-07,1.9374086513915118e-06,1.5105316142419086e-05
3.024691206339532e-07,6.510564307286128e-07,1.9639828346615767e-06,1.5449468660137812e-05
3.033176210175519e-07,6.403629424422393e-07,1.99007694029114e-06,1.579542038133863e-05
3.042148660146201e-07,6.299133664347806e-07,2.01556273490618e-06,1.6141443060572307e-05
3.0516587225980637e-07,6.197310631774008e-07,2.040304578630166e-06,1.6485773279756768e-05
3.0617431171079216e-07,6.09835067843064e-07,2.064161474771228e-06,1.6826613922418468e-05
3.072418334865573e-07,6.002393360254322e-07,2.086986598706105e-06,1.7162137175129124e-05
3.083705202036782e-07,5.90953235834091e-07,2.1086297243981684e-06,1.7490481241034714e-05
3.095650774615827e-07,5.819830954314466e-07,2.128945362524429e-06,1.780975887869969e-05
3.108318854398545e-07,5.733335386455115e-07,2.1478017983725627e-06,1.8118089868752426e-05
3.121765635524003e-07,5.650090203685843e-07,2.16508335739922e-06,1.8413647317505717e-05
3.136031105802048e-07,5.570170625425749e-07,2.1806852065498693e-06,1.8694707479856347e-05
3.1511486291211465e-07,5.493724712106626e-07,2.194508226132486e-06,1.895972896198205e-05
3.167155511606501e-07,5.421001325257842e-07,2.206459018801186e-06,1.92074531762116e-05
3.184090895268357e-07,5.352353673171053e-07,2.2164521832094045e-06,1.9436933394413252e-05
3.201985000984508e-07,5.288219362213997e-07,2.2244130180899607e-06,1.9647467313173723e-05
3.22085739377774e-07,5.229068868402086e-07,2.2302832526555517e-06,1.983850615109343e-05
3.240728847468202e-07,5.175329990817496e-07,2.234027532114735e-06,2.000958461881997e-05
3.2616352599357164e-07,5.127337436128498e-07,2.2356343140358058e-06,2.016027276406638e-05
3.283631027508247e-07,5.085345723385375e-07,2.2351116239453132e-06,2.029014844652928e-05
3.306773090112607e-07,5.049576216021979e-07,2.232482397619435e-06,2.0398808586448418e-05
3.331095651503839e-07,5.020238619473665e-07,2.227779859004106e-06,2.0485929863085298e-05
3.3565980003376193e-07,4.997507498311453e-07,2.2210422221611807e-06,2.055133357316915e-05
3.383247371484041e-07,4.981480766873617e-07,2.212308196438599e-06,2.0594998975480106e-05
3.4109865280655174e-07,4.97215233989288e-07,2.201614089051043e-06,2.0617029625101972e-05
3.43973772560624e-07,4.969408973409107e-07,2.1889926695331942e-06,2.061761018815405e-05
3.4693992030741725e-07,4.973046010197679e-07,2.174474342633419e-06,2.05970146551601e-05
3.499843380729599e-07,4.982811521967521e-07,2.1580901953194685e-06,2.0555722871539112e-05
3.53092004097795e-07,4.998490332300131e-07,2.1398752564796685e-06,2.0494552354463306e-05
3.5624577368907845e-07,5.020001712177394e-07,2.119870251581191e-06,2.0414658019713284e-05
3.5942620676981296e-07,5.047474938698958e-07,2.098121435700645e-06,2.0317431900313266e-05
3.626116108474311e-07,5.081282563558621e-07,2.074680192205037e-06,2.020440573543022e-05
3.6577902933060507e-07,5.122003682919855e-07,2.049603516866526e-06,2.0077178432584068e-05
3.6890573942006295e-07,5.170309639435073e-07,2.022954524995441e-06,1.9937360160018826e-05
3.7197050679142094e-07,5.226817271432796e-07,1.9948057546978216e-06,1.9786539830943425e-05
3.749541516205343e-07,5.291980364991843e-07,1.9652486854178157e-06,1.9626294427196963e-05
3.7783838341506797e-07,5.366074226701132e-07,1.9344023478243263e-06,1.9458249425873777e-05
3.8060365883950255e-07,5.449266137144007e-07,1.9024101615781185e-06,1.928415400335023e-05
3.832288218839002e-07,5.541706541560034e-07,1.86942586825848e-06,1.910588684496133e-05
3.856935213076888e-07,5.643576525843942e-07,1.8356004234989213e-06,1.8925356414613347e-05
3.879807858286113e-07,5.755072683163099e-07,1.801080003081731e-06,1.8744359497499968e-05
3.900765808971407e-07,5.876363827411659e-07,1.766013043828178e-06,1.8564466804452688e-05
3.919673574328706e-07,6.007546670630771e-07,1.7305555502714454e-06,1.838697119573996e-05
3.9363890033742315e-07,6.148603795740596e-07,1.6948688903204392e-06,1.821294341616021e-05
3.950770912093442e-07,6.299392190507314e-07,1.6591120156946968e-06,1.804338092817702e-05
3.9626887995908884e-07,6.4596698559567e-07,1.6234321678864931e-06,1.7879328096967034e-05
3.972030173770475e-07,6.629114912438426e-07,1.5879603274669187e-06,1.7721873229130425e-05
3.978713475370665e-07,6.807309597388035e-07,1.5528156617259375e-06,1.7572047137145357e-05
3.9826946438989757e-07,6.993707791583537e-07,1.5181141920357015e-06,1.743071577436574e-05
3.983954666664354e-07,7.187626017196514e-07,1.48397310641612e-06,1.7298536819955983e-05
3.982486193458074e-07,7.388279553031317e-07,1.4505088330131363e-06,1.7175973999553436e-05
3.97829091258366e-07,7.594820292567123e-07,1.4178348833449097e-06,1.7063345399843745e-05
3.9713803962928963e-07,7.806325726959342e-07,1.386063244552077e-06,1.696093131755723e-05
3.961784265572934e-07,8.021773190628266e-07,1.355303816608051e-06,1.6869175797693447e-05
3.9495684426469655e-07,8.240061636557031e-07,1.3256585196841856e-06,1.6788900343731812e-05
3.93484683422697e-07,8.460072893724855e-07,1.297220234472028e-06,1.6721335041778993e-05
3.917769830651392e-07,8.680720190651732e-07,1.2700846788299729e-06,1.666790947659494e-05
3.898504051728101e-07,8.900974378582175e-07,1.2443657358871044e-06,1.6629970093694302e-05
3.8772281934011633e-07,9.119884642692188e-07,1.2202013021281229e-06,1.6608593285783427e-05
3.8541386309877033e-07,9.336575322210291e-07,1.1977473771893542e-06,1.660458746928625e-05
3.829452561077184e-07,9.550216285912735e-07,1.1771649171754187e-06,1.6618742101994194e-05
3.803407588999892e-07,9.75999907698304e-07,1.158604490402588e-06,1.6652158095833428e-05
3.776249902346346e-07,9.965118224227237e-07,1.1421922117065994e-06,1.6706305610412542e-05
3.748212086228894e-07,1.016475262235381e-06,1.12802016980297e-06,1.6782754103806868e-05
3.7194960751962427e-07,1.0358077210806247e-06,1.1161435426135923e-06,1.6882859844625258e-05
3.690270010110556e-07,1.0544300483895305e-06,1.1065828858147946e-06,1.7007585702395927e-05
3.6606794908661327e-07,1.0722673721410953e-06,1.0993272139304675e-06,1.7157422613285613e-05
3.630864177647061e-07,1.0892463753184972e-06,1.0943350700985472e-06,1.7332355362895942e-05
3.6009637267997277e-07,1.1052935103388924e-06,1.0915350975419696e-06,1.7531850844078477e-05
3.5711133068711536e-07,1.1203357507515232e-06,1.0908286385746677e-06,1.775487006980227e-05
3.541437728281885e-07,1.134302058502272e-06,1.0920956796373144e-06,1.799991040919543e-05
3.512050571072257e-07,1.147124936695829e-06,1.0952048817597034e-06,1.826507576216921e-05
3.4830697388493466e-07,1.1587427975430486e-06,1.1000257578090486e-06,1.8548160982996786e-05
3.4546410703553684e-07,1.1691032762864352e-06,1.106438380148167e-06,1.884673580528605e-05
3.426934986034234e-07,1.1781665402290538e-06,1.114337622754659e-06,1.9158212443759648e-05
3.400108340889579e-07,1.185906712369808e-06,1.123632770130717e-06,1.947988836566328e-05
3.374269666876215e-07,1.1923099990570768e-06,1.1342445202172868e-06,1.9808981818758013e-05
3.349475298553419e-07,1.1973702254249423e-06,1.1460998413926323e-06,2.0142668169162046e-05
3.325745318054864e-07,1.201084016887204e-06,1.1591243843103016e-06,2.0478107865381618e-05
3.3030786049196967e-07,1.2034482725984914e-06,1.173234463834907e-06,2.0812488757682225e-05
3.281456333258245e-07,1.2044607568607195e-06,1.1883350997396494e-06,2.114309733097882e-05
3.260837888293311e-07,1.2041215949284748e-06,1.204328103866739e-06,2.1467383004996123e-05
3.2411608350250865e-07,1.2024339282938007e-06,1.221121770979332e-06,2.17829867113583e-05
3.222346613878153e-07,1.1994044629882e-06,1.2386295019322248e-06,2.208773069011959e-05
3.2043067491522606e-07,1.19504429566445e-06,1.2567589067287916e-06,2.237956972221024e-05
3.186949478500518e-07,1.1893696378976407e-06,1.2754051600808762e-06,2.26565393292826e-05
3.170186186276413e-07,1.1824032438470856e-06,1.294453663430159e-06,2.2916778701008872e-05
3.153935961552909e-07,1.1741764489679582e-06,1.3137848585349173e-06,2.3158641826565868e-05
3.1381252819127263e-07,1.1647297139616904e-06,1.3332785273268996e-06,2.3380792859898073e-05
3.1226807759847805e-07,1.1541118748966369e-06,1.3528193594195128e-06,2.358220015524592e-05
3.10752830575595e-07,1.1423813566664377e-06,1.3723000777951837e-06,2.3762060189716628e-05
3.0926039673543076e-07,1.1296093249920449e-06,1.3916202322837915e-06,2.391972924863081e-05
3.0778618365389096e-07,1.115879928153071e-06,1.4106839168293543e-06,2.4054706102940766e-05
3.063276341086515e-07,1.1012855815287722e-06,1.4293968877905702e-06,2.416663767791365e-05
3.048841767781218e-07,1.0859207035666662e-06,1.4476629024808488e-06,2.425528202144317e-05
3.034561420815864e-07,1.0698770075045143e-06,1.4653819415806862e-06,2.432043134695845e-05
3.020437579887055e-07,1.0532410090250895e-06,1.482452373383411e-06,2.4361867664707816e-05
3.006483447803857e-07,1.0360943263865165e-06,1.4987768191436085e-06,2.4379377625763445e-05
2.9927495722555946e-07,1.0185164984791936e-06,1.514269377618416e-06,2.4372794443969448e-05
2.9793363159943856e-07,1.000586367180675e-06,1.5288588025781457e-06,2.4342073048820832e-05
2.966379498822958e-07,9.823793983345786e-07,1.5424840638334482e-06,2.428741143817912e-05
2.954018379504041e-07,9.639647524533022e-07,1.5550905791181837e-06,2.420932895413679e-05
2.9423664637853323e-07,9.454045075760552e-07,1.5666377338325181e-06,2.4108606397389967e-05
2.9315075020363537e-07,9.267531554150644e-07,1.577113080892154e-06,2.3986132282918482e-05
2.921513948174788e-07,9.080576901856945e-07,1.5865420911085501e-06,2.384277319632401e-05
2.9124546844411514e-07,8.893593479808105e-07,1.5949883662334073e-06,2.3679325959299304e-05
2.9043807914395623e-07,8.706964407564659e-07,1.6025424815914375e-06,2.3496521882720192e-05
2.8973181594510195e-07,8.521080366821387e-07,1.609302339072223e-06,2.329504021794454e-05
2.8912800093940374e-07,8.336377438042612e-07,1.6153545910574334e-06,2.307555832871885e-05
2.8862830253776623e-07,8.153356444639502e-07,1.6207657830005763e-06,2.283892546545277e-05
2.882355227901375e-07,7.972569250266585e-07,1.6255861074353172e-06,2.2586431073714075e-05
2.879530808168488e-07,7.794580253104542e-07,1.6298611928239338e-06,2.231992896240572e-05
2.8778359478682925e-07,7.61993776450768e-07,1.633640088376436e-06,2.2041665699688903e-05
2.877279390306989e-07,7.449191951950398e-07,1.6369720566813012e-06,2.1753969280219967e-05
2.877847598893241e-07,7.282954970506682e-07,1.6398980324214781e-06,2.1459014276559328e-05
2.8795042942956445e-07,7.121947872572015e-07,1.6424481889315916e-06,2.115877747579108e-05
2.882205394438962e-07,6.966982472189412e-07,1.6446508167072789e-06,2.08552445657018e-05
2.885911310238361e-07,6.818893722679754e-07,1.6465461700516629e-06,2.0550731281333748e-05
2.8905807850306566e-07,6.678471329945991e-07,1.6481927440865239e-06,2.0248011392977595e-05
2.896171260089417e-07,6.546406936456587e-07,1.6496593507317232e-06,1.995015074913943e-05
2.902648360540155e-07,6.423276389861089e-07,1.6510102109975926e-06,1.9660223465362962e-05
2.90998927290451e-07,6.309570525195334e-07,1.6522977457833043e-06,1.938107971012964e-05
2.918193484835841e-07,6.205715352561015e-07,1.6535667389054015e-06,1.9115199509098253e-05
2.9272928073388664e-07,6.11204031009613e-07,1.654858914971574e-06,1.8864604491786374e-05
2.9373315773928473e-07,6.028747364677632e-07,1.6562099124898056e-06,1.863081957202698e-05
2.9483377496021903e-07,5.955916661558378e-07,1.6576421169649388e-06,1.841488412878868e-05
2.960321813715933e-07,5.893517329695233e-07,1.6591594872167424e-06,1.821738905462073e-05
2.9732890332542786e-07,5.841404504239681e-07,1.6607459792449997e-06,1.803852398097749e-05
2.9872397370642106e-07,5.799317541860561e-07,1.662366371337546e-06,1.787813321612966e-05
3.00216571594728e-07,5.766902855422929e-07,1.663968355092799e-06,1.773577011229978e-05
3.018052617913056e-07,5.743776340676122e-07,1.6654860685043463e-06,1.7610741747409888e-05
3.034885546759613e-07,5.729588395906577e-07,1.6668465934495373e-06,1.7502156680417717e-05
3.05264915356094e-07,5.724032204264387e-07,1.6679801009011566e-06,1.740899242115219e-05
3.071319495508964e-07,5.726811524374584e-07,1.668832704744779e-06,1.7330175882821082e-05
3.0908666558659313e-07,5.73762183301128e-07,1.6693788035318513e-06,1.7264644672159554e-05
3.111275094531448e-07,5.756151719114514e-07,1.6696257700647395e-06,1.721136300573059e-05
3.13255695927455e-07,5.782085044791499e-07,1.6696052507931397e-06,1.7169309146387632e-05
3.15474159700715e-07,5.815081510830303e-07,1.6693553379979534e-06,1.713747097393659e-05
3.177864678762824e-07,5.854735612974535e-07,1.6689056439532041e-06,1.71148474242163e-05
3.201980213688556e-07,5.90054990610283e-07,1.6682737689792153e-06,1.7100423145660827e-05
3.227167182799061e-07,5.951944803452557e-07,1.6674701362302763e-06,1.7093120426415812e-05
3.2535098186906226e-07,6.00829960952049e-07,1.6665022204181895e-06,1.7091774045875962e-05
3.281071356663465e-07,6.069004042198905e-07,1.6653761835776674e-06,1.7095158480642128e-05
3.309874698704742e-07,6.133481649725164e-07,1.6640996758968883e-06,1.710206208958607e-05
3.339905704747283e-07,6.201169465098424e-07,1.662685969049934e-06,1.7111359972206587e-05
3.3711459043753255e-07,6.271492290402708e-07,1.6611569833829804e-06,1.7122026338979595e-05
3.403600199506418e-07,6.34386800045435e-07,1.6595433138360584e-06,1.713309911603303e-05
3.437288767107089e-07,6.417725812317847e-07,1.6578793626427592e-06,1.7143646461108967e-05
3.472213892279604e-07,6.492508268597587e-07,1.6561940001131608e-06,1.7152747970230123e-05
3.5083293404544266e-07,6.567662876347173e-07,1.6545022022539885e-06,1.7159515897794685e-05
3.545527280496518e-07,6.642642950115881e-07,1.6528034774333246e-06,1.7163215367972257e-05
3.58364476650001e-07,6.716919099111214e-07,1.6510862972223022e-06,1.716343391625813e-05
3.622489190645551e-07,6.789994716194759e-07,1.6493339599817619e-06,1.716013834325822e-05
3.661871248491586e-07,6.861438579954009e-07,1.6475292168487738e-06,1.7153589158082285e-05
3.701614798959539e-07,6.930933373630827e-07,1.6456557363610003e-06,1.7144221029662994e-05
3.741534446547575e-07,6.998291774932091e-07,1.6436953148851441e-06,1.7132539334589943e-05
3.7814143898001865e-07,7.063414287426303e-07,1.6416234375800345e-06,1.7119026748232403e-05
3.8210106201297385e-07,7.126234866844447e-07,1.6394069961034088e-06,1.7104061320556987e-05
3.860066176364463e-07,7.186701986942378e-07,1.6370052385307791e-06,1.7087863951437725e-05
3.898329221437857e-07,7.244775352031747e-07,1.6343732489195018e-06,1.7070519679460988e-05
3.9355674141687703e-07,7.300404353799288e-07,1.631465443597884e-06,1.7052078850974258e-05
3.9715654563750527e-07,7.353510133339743e-07,1.6282352106211381e-06,1.703264872495854e-05
4.0061089109827476e-07,7.403993696750525e-07,1.62463179919762e-06,1.7012400779416625e-05
4.0389779400931885e-07,7.451742085512213e-07,1.6206005851079138e-06,1.6991527458269275e-05
4.069953990495597e-07,7.496616200424653e-07,1.6160898511183216e-06,1.6970195701996568e-05
4.098823567056741e-07,7.538447855315666e-07,1.6110615892798769e-06,1.6948502892560088e-05
4.1253813066673066e-07,7.577065445452862e-07,1.6055011974467628e-06,1.6926467693732646e-05
4.1494443468737007e-07,7.612332089068242e-07,1.5994216152592019e-06,1.6904086225319547e-05
4.170869536696996e-07,7.644161468791308e-07,1.5928593820272682e-06,1.6881396239254102e-05
4.18955850690018e-07,7.67248996678377e-07,1.5858630739739159e-06,1.685847824981887e-05
4.2054551400747927e-07,7.697233322099071e-07,1.5784793843785737e-06,1.6835416205721123e-05
4.2185386167526775e-07,7.718268122043071e-07,1.5707440382691391e-06,1.6812265575091938e-05
4.2288068329076145e-07,7.735433440464484e-07,1.5626802378192385e-06,1.6789031573615587e-05
4.2362562380734744e-07,7.748542140387509e-07,1.5543007864009172e-06,1.6765652640108934e-05
4.240871785876264e-07,7.757415348613201e-07,1.5456088211822256e-06,1.6741988225128103e-05
4.2426339889759156e-07,7.761927727415247e-07,1.536597185616007e-06,1.6717809715637855e-05
4.2415307516658256e-07,7.762015254788404e-07,1.5272496463636214e-06,1.669279554192726e-05
4.237561136186903e-07,7.757639097338998e-07,1.5175439294389152e-06,1.6666532923556094e-05
4.230736311749807e-07,7.748755810910403e-07,1.5074539619666526e-06,1.663853010726347e-05
4.22107730851661e-07,7.735313835343588e-07,1.4969519964204578e-06,1.660822941201146e-05
4.208607981877007e-07,7.717253609790813e-07,1.486013036821287e-06,1.657501047997189e-05
4.193360513968685e-07,7.694504360906509e-07,1.474620216793259e-06,1.6538191656262082e-05
4.175398687787386e-07,7.666987049486367e-07,1.4627685935549318e-06,1.6497039547459452e-05
4.15483070772031e-07,7.634625806399509e-07,1.4504664210619469e-06,1.6450791785909878e-05
4.1317992985267033e-07,7.597365328485161e-07,1.4377334710094982e-06,1.6398700022965685e-05
4.1064692571472063e-07,7.555191288777822e-07,1.4245975502004147e-06,1.6340080609093364e-05
4.0790149485306537e-07,7.50816431891008e-07,1.4110909283753549e-06,1.6274345388244433e-05
4.0496077284063524e-07,7.456477373498732e-07,1.3972476985851246e-06,1.6201012288683268e-05
4.0184226788490365e-07,7.400494278973269e-07,1.383102586311921e-06,1.6119707824444903e-05
3.985654924225782e-07,7.340718554266787e-07,1.3686895604151429e-06,1.6030165687969266e-05
3.951513668686965e-07,7.277715781531119e-07,1.3540388290336806e-06,1.593222832199854e-05
3.916198436986385e-07,7.212044752684556e-07,1.3391751294631014e-06,1.582585271797034e-05
3.87988901857421e-07,7.144217356150609e-07,1.3241205062221382e-06,1.571111856733655e-05
3.8427536955595524e-07,7.074685366172257e-07,1.3088986937376805e-06,1.5588224155774692e-05
3.8049552387492215e-07,7.003846550894642e-07,1.2935361245765357e-06,1.5457444999788054e-05
3.7666491407010243e-07,6.93205837467715e-07,1.2780598771350741e-06,1.531907455476099e-05
3.727978057523387e-07,6.859652002747729e-07,1.2624950228057942e-06,1.5173389335932251e-05
3.689064164005348e-07,6.786944178868905e-07,1.246861595825902e-06,1.5020638626596726e-05
3.650008802013844e-07,6.714253755346565e-07,1.2311721543580611e-06,1.4861061161061395e-05
3.610898322886583e-07,6.641923896741755e-07,1.2154316780546001e-06,1.4694944136612246e-05
3.5718051705182364e-07,6.570335260359754e-07,1.1996396344336755e-06,1.4522671285958853e-05
3.5327988590125397e-07,6.499909075754929e-07,1.1837931392890673e-06,1.4344702889231311e-05
3.4939829797934125e-07,6.431109111352493e-07,1.1678903049010557e-06,1.4161533706418078e-05
3.455522684513419e-07,6.364433558940315e-07,1.1519330961753565e-06,1.3973689574752234e-05
3.4176262615917306e-07,6.300383965076235e-07,1.1359297145230977e-06,1.3781763262543369e-05
3.380511836096679e-07,6.239424353114504e-07,1.1198962171687165e-06,1.3586479379756065e-05
3.3443932591423057e-07,6.181957492573673e-07,1.1038553577774245e-06,1.3388755781900467e-05
3.309468323890221e-07,6.128312959484062e-07,1.0878325631037711e-06,1.318968845856825e-05
3.275901482545735e-07,6.078726221859192e-07,1.0718547433070352e-06,1.2990437976773465e-05
3.2438244955009786e-07,6.033322710503922e-07,1.0559558426528083e-06,1.279209455684552e-05
3.2133561793343176e-07,5.992125772100165e-07,1.0401832545196342e-06,1.2595618601623385e-05
3.184613481569833e-07,5.955092792383907e-07,1.024597937173606e-06,1.24019006288598e-05
3.157704288270267e-07,5.922171806896344e-07,1.0092690513642664e-06,1.2211909133981715e-05
3.132716558448997e-07,5.893337364429558e-07,9.942672047430444e-07,1.2026816723431242e-05
3.1097098332065486e-07,5.868594814600397e-07,9.796582914920843e-07,1.1848000392878786e-05
3.0887103731051194e-07,5.847987375148139e-07,9.654985022089323e-07,1.1676923059214685e-05
3.069721360811207e-07,5.831588187093002e-07,9.518315060863509e-07,1.151497865623774e-05
3.0527421667078236e-07,5.819447799766979e-07,9.386888203699423e-07,1.1363369601693207e-05
3.0377737520262663e-07,5.811535520772998e-07,9.260925904073556e-07,1.1223043767687483e-05
3.0248152400371627e-07,5.807718771578528e-07,9.140597698808355e-07,1.1094680678139805e-05
3.013871511757344e-07,5.807784224611392e-07,9.02607035744672e-07,1.09787152916856e-05
3.00496044717375e-07,5.811482619141267e-07,8.917539635160322e-07,1.0875427300510986e-05
2.998098291001475e-07,5.818559908058248e-07,8.815226278945734e-07,1.0785120774953062e-05
2.993274100596747e-07,5.828755436541327e-07,8.719351992442057e-07,1.070828713235941e-05
2.9904349063929967e-07,5.841809110793236e-07,8.630114440826201e-07,1.0645586096696367e-05
2.989482013440519e-07,5.857511709443697e-07,8.547666752485907e-07,1.059766699018194e-05
2.990273486654613e-07,5.875745996553934e-07,8.472105342947354e-07,1.0564984696343061e-05
2.992632081182642e-07,5.896453172906654e-07,8.403459108881126e-07,1.0547725282770027e-05
2.996357105896657e-07,5.919550586673078e-07,8.341669256938443e-07,1.0545939665177276e-05
3.0012386428547647e-07,5.94487958378455e-07,8.286567160555126e-07,1.055985918114058e-05
3.007065154172267e-07,5.972228136011574e-07,8.237875245268836e-07,1.0590131318965103e-05
3.013625746570636e-07,6.001418372529334e-07,8.195264928234535e-07,1.0637781829967664e-05
3.0207300401110746e-07,6.032391157181764e-07,8.158464839364596e-07,1.0704018793772851e-05
3.028237042021452e-07,6.06520526647385e-07,8.127346259267584e-07,1.0790055111775498e-05
3.036048901817992e-07,6.099957886501046e-07,8.101938787851366e-07,1.0896977297370148e-05
3.044072495774118e-07,6.136719862648444e-07,8.08239400928673e-07,1.102563608975521e-05
3.0521974086334266e-07,6.175536248010757e-07,8.06891451479546e-07,1.117655722633658e-05
3.060302735331527e-07,6.216447847030279e-07,8.061666276935944e-07,1.1349877475957005e-05
3.0682659003139e-07,6.259497172564451e-07,8.060715096570361e-07,1.1545318879200904e-05
3.07596860029401e-07,6.304733913670992e-07,8.06600722989671e-07,1.1762208381120953e-05
3.083316425834411e-07,6.352202979879861e-07,8.077377949784076e-07,1.1999510558468656e-05
3.090256625503523e-07,6.401893701533172e-07,8.09458710577719e-07,1.225584947900922e-05
3.0967731864727586e-07,6.453695320131185e-07,8.117394348868477e-07,1.2529557627306587e-05
3.1028795152436966e-07,6.50739531272447e-07,8.14563340069392e-07,1.2818775366149624e-05
3.108619080847561e-07,6.562700804497202e-07,8.179219095627132e-07,1.3121566604506666e-05
3.114059204646293e-07,6.619259197958946e-07,8.218090418211194e-07,1.3436020522836433e-05
3.119277437955956e-07,6.676678986714752e-07,8.262152448731109e-07,1.3760315815455185e-05
3.124343296117439e-07,6.734555918909529e-07,8.311248529196345e-07,1.4092722064271725e-05
3.129299227438093e-07,6.792484635170656e-07,8.365148668282139e-07,1.4431571820864618e-05
3.1341554206113104e-07,6.850044538506593e-07,8.423552377440912e-07,1.477526528379797e-05
3.1389028296708396e-07,6.906790310716566e-07,8.486108913685229e-07,1.5122294534968326e-05
3.143531976134422e-07,6.962262114591144e-07,8.552435950640762e-07,1.5471235443040198e-05
3.148041260810324e-07,7.015995843474234e-07,8.622125130880429e-07,1.582070644677542e-05
3.152428258259577e-07,7.067528070291333e-07,8.694732475260599e-07,1.6169319088962163e-05
3.1566810217676356e-07,7.116405384563747e-07,8.769752369459976e-07,1.651563285239719e-05
3.1607872350496307e-07,7.162199203115662e-07,8.846600594305813e-07,1.685813412714794e-05
3.164756539720254e-07,7.204522044386219e-07,8.924643169879274e-07,1.719525463717913e-05
3.168652667244857e-07,7.243047921412491e-07,9.003269405371315e-07,1.7525410963211926e-05
3.172610962967525e-07,7.277536896328354e-07,9.081978105249292e-07,1.7847041969526233e-05
3.176810949357339e-07,7.307839745834768e-07,9.160453761571524e-07,1.815864508782908e-05
3.181439544739086e-07,7.333868459870137e-07,9.23860247792037e-07,1.8458816837475028e-05
3.1866775152721075e-07,7.355563524023761e-07,9.316509843353216e-07,1.8746280298206666e-05
3.19269218177775e-07,7.372884849568932e-07,9.394331754259268e-07,1.901988428003312e-05
3.1996309836751836e-07,7.385827275799288e-07,9.472187845918921e-07,1.9278622581779026e-05
3.207617939712284e-07,7.394461404837712e-07,9.550118745269494e-07,1.952169605706823e-05
3.216752994171553e-07,7.398981760219069e-07,9.628100937540467e-07,1.9748535906257384e-05
3.2271159514607874e-07,7.399718154847159e-07,9.706064879580813e-07,1.995875734625739e-05
3.238763236067143e-07,7.397083095397299e-07,9.783888959791193e-07,2.0152091698619604e-05
3.251719630492476e-07,7.391489771434031e-07,9.861387045129494e-07,2.032831451206709e-05
3.265985552216381e-07,7.383310032322809e-07,9.93830085215806e-07,2.0487180403404958e-05
3.281553130353613e-07,7.372888887297355e-07,1.0014293728435272e-06,2.0628392798884388e-05
3.298410098002909e-07,7.360570787626251e-07,1.0088953307544349e-06,2.0751636488606048e-05
3.31653077495178e-07,7.346701284532055e-07,1.0161804608415899e-06,2.085667141096028e-05
3.3358657679498413e-07,7.331601398642825e-07,1.0232323418739882e-06,2.09434206533519e-05
3.3563434162376853e-07,7.315532373174321e-07,1.0299958820469491e-06,2.101197931146616e-05
3.3778772184612625e-07,7.298674629760722e-07,1.0364172941803655e-06,2.1062550462210572e-05
3.400365211309255e-07,7.281126513407168e-07,1.0424477756664874e-06,2.10953686148072e-05
3.423685645777021e-07,7.262915509238387e-07,1.0480457249130249e-06,2.111069053087414e-05
3.447690121714493e-07,7.244022772355188e-07,1.0531771970918073e-06,2.1108912141066127e-05
3.472197914978073e-07,7.224410083849253e-07,1.0578128701571629e-06,2.109069999829024e-05
3.497009596195479e-07,7.204032935068198e-07,1.0619227673001366e-06,2.1056949915561263e-05
3.521932475282868e-07,7.182841989807348e-07,1.0654729983489313e-06,2.1008612566967927e-05
3.5467865262085967e-07,7.160777260506942e-07,1.068425610020912e-06,2.0946567810406667e-05
3.571388671522018e-07,7.137777091224898e-07,1.0707399017204352e-06,2.0871611026676115e-05
3.595543065475936e-07,7.11382876943515e-07,1.0723743993448552e-06,2.0784500304995345e-05
3.6190473621485383e-07,7.089017145797937e-07,1.0732901514829959e-06,2.068600176730242e-05
3.6417073035415137e-07,7.063505624528355e-07,1.0734551588972865e-06,2.0576905815348223e-05
3.663354579826625e-07,7.037469845817269e-07,1.0728460827869353e-06,2.0458031257367066e-05
3.68385128623023e-07,7.01105056311237e-07,1.0714452368994906e-06,2.033024403683496e-05
3.703074638590087e-07,6.984351272098775e-07,1.0692372792795565e-06,2.0194466223289565e-05
3.7209124454302896e-07,6.957462231435369e-07,1.0662085900765706e-06,2.005163055276875e-05
3.737279324689842e-07,6.930478983279916e-07,1.0623478119858857e-06,1.9902599675774946e-05
3.752119045751105e-07,6.903495449711743e-07,1.0576470304912621e-06,1.9748099433859768e-05
3.765385225491944e-07,6.876578089476562e-07,1.0521037759501184e-06,1.958869190544152e-05
3.777028593962415e-07,6.849750863394264e-07,1.0457226477013205e-06,1.942480296958737e-05
3.786996531037882e-07,6.823016045627648e-07,1.0385154150987316e-06,1.9256791059996123e-05
3.795234599893485e-07,6.796385780042292e-07,1.0304995439506463e-06,1.9085013026236026e-05
3.8016859493075975e-07,6.769874794832696e-07,1.0216968448184095e-06,1.890985498498332e-05
3.806288255068139e-07,6.743463390176143e-07,1.012134598002782e-06,1.8731718153868988e-05
3.808979018431002e-07,6.71707958206514e-07,1.0018490999279591e-06,1.8550974087696805e-05
3.8097145051070954e-07,6.69061116277137e-07,9.908896143179613e-07,1.8367928569602583e-05
3.8084863521620823e-07,6.663928360333669e-07,9.793201557445977e-07,1.818282019847321e-05
3.805315899500336e-07,6.636900758028828e-07,9.672159053903204e-07,1.7995851594193898e-05
3.800231313111394e-07,6.609397336868165e-07,9.546547795949578e-07,1.7807267158642418e-05
3.793263744046213e-07,6.581280772235337e-07,9.417106069122288e-07,1.761751867007209e-05
3.7844766684206574e-07,6.552423532019161e-07,9.284529557167809e-07,1.742746692041391e-05
3.7739896291848147e-07,6.522740807384582e-07,9.149521733181179e-07,1.723843791795922e-05
3.761968626554729e-07,6.49220358717465e-07,9.012849627866457e-07,1.705205994675253e-05
3.7486060198785384e-07,6.460816013209161e-07,8.875351691990676e-07,1.6870016740018635e-05
3.734115910334524e-07,6.428579280501444e-07,8.737873061612046e-07,1.6693853617894798e-05
3.7187371714439576e-07,6.395474584951285e-07,8.601182456708519e-07,1.652493225544906e-05
3.7027188219720297e-07,6.361468939330831e-07,8.465945247852852e-07,1.6364644681289727e-05
3.68628553596381e-07,6.326521882827919e-07,8.332756267256e-07,1.621475827734556e-05
3.669616462583037e-07,6.290587137470571e-07,8.202177191531744e-07,1.6077520819340395e-05
3.6528641292657783e-07,6.253617137779461e-07,8.07474025402086e-07,1.5955434874877898e-05
3.636194415926644e-07,6.215569685817429e-07,7.950945388524566e-07,1.585095945858467e-05
3.619801927613974e-07,6.176421391488959e-07,7.831279196808663e-07,1.5766301084247823e-05
3.6038908780339633e-07,6.136190517268771e-07,7.716240350791087e-07,1.5703266167177873e-05
3.588655055243299e-07,6.094953997293329e-07,7.606360114814499e-07,1.5663142897570498e-05
3.574265514257099e-07,6.052848346645141e-07,7.502196108488737e-07,1.5646636194893674e-05
3.5608489559695e-07,6.010049438092869e-07,7.404273633207512e-07,1.5653878343162093e-05
3.548469537265587e-07,5.96673136227395e-07,7.31302395464843e-07,1.5684497044681998e-05
3.537132739399867e-07,5.923031462142992e-07,7.228809356947419e-07,1.5737705703694787e-05
3.52680642097099e-07,5.879044676215689e-07,7.152044364269685e-07,1.5812396002145725e-05
3.517445967936439e-07,5.834832623527798e-07,7.083307439045795e-07,1.5907221379018773e-05
3.509010195799416e-07,5.790433767136242e-07,7.02332813868571e-07,1.6020654766146788e-05
3.5014702137928837e-07,5.745885246798539e-07,6.97285902962243e-07,1.615102111932777e-05
3.494812829934997e-07,5.701245223089561e-07,6.932541709816656e-07,1.6296524706051348e-05
3.489028097312848e-07,5.656583587889644e-07,6.902848232217724e-07,1.6455279953032013e-05
3.484097380100677e-07,5.611947406338352e-07,6.884096897036821e-07,1.6625354467549203e-05
3.479999787815181e-07,5.567343564205969e-07,6.876481258053413e-07,1.6804832188106234e-05
3.476726711617593e-07,5.52277094446093e-07,6.880063672456112e-07,1.699186805777727e-05
3.4742964486313283e-07,5.478301569551228e-07,6.894747925372128e-07,1.7184705899885288e-05
3.472758607936225e-07,5.434179307239838e-07,6.920266587716422e-07,1.738167731411429e-05
3.472186205753038e-07,5.390887190050861e-07,6.956194071208232e-07,1.7581201664503337e-05
3.472669079415287e-07,5.349132844550101e-07,7.001968830704767e-07,1.778178057358904e-05
3.474298529406188e-07,5.309740463025904e-07,7.056911298569158e-07,1.798197085343469e-05
3.4771455380688605e-07,5.27351230354813e-07,7.120248276408847e-07,1.8180340213321398e-05
3.481267678862124e-07,5.241163672996104e-07,7.191145508345473e-07,1.8375463930576186e-05
3.486731626178565e-07,5.21337119191148e-07,7.268729351026434e-07,1.8566014371657e-05
3.4936063652467664e-07,5.190856635932745e-07,7.352088322559279e-07,1.875090993649371e-05
3.5019357637358085e-07,5.17442600123681e-07,7.440268658657789e-07,1.892942570617764e-05
3.5117244584044945e-07,5.16497403587794e-07,7.53227875819798e-07,1.9101177269309616e-05
3.5229396718011433e-07,5.163474880596488e-07,7.627097112665681e-07,1.92659863023004e-05
3.5355142902506157e-07,5.170934942383876e-07,7.723681268725623e-07,1.9423727138622494e-05
3.5493454950292687e-07,5.188304393970636e-07,7.820988398395255e-07,1.9574254187688533e-05
3.564293654039259e-07,5.216386752468472e-07,7.918002778410499e-07,1.971745457065376e-05
3.58018378897082e-07,5.255774996954359e-07,8.013753036433716e-07,1.985337727669218e-05
3.596809537027673e-07,5.306823259029681e-07,8.107318597946576e-07,1.99823038901821e-05
3.61394602153621e-07,5.369649925731803e-07,8.197847410942892e-07,2.0104669823128867e-05
3.6313690244924435e-07,5.444148830851981e-07,8.284590824730576e-07,2.0220899524077698e-05
3.648865982942226e-07,5.530004286772104e-07,8.366919110462937e-07,2.0331265966612834e-05
3.6662330634027093e-07,5.626719671935953e-07,8.444294103733543e-07,2.04358302172428e-05
3.6832642396779095e-07,5.733658592171004e-07,8.516226834347054e-07,2.053448284309852e-05
3.699744220877149e-07,5.850113580308538e-07,8.582250770261121e-07,2.062703686385781e-05
3.715453399021837e-07,5.975403446453938e-07,8.641917009718359e-07,2.0713283334738985e-05
3.730178211334919e-07,6.108950238110189e-07,8.694819963795969e-07,2.0793038142436128e-05
3.743718762270822e-07,6.250292234895864e-07,8.740639203571013e-07,2.0866274995475972e-05
3.755900484604997e-07,6.39903563350029e-07,8.779142725196257e-07,2.093325937658553e-05
3.766591730886349e-07,6.554780092868538e-07,8.810142697374609e-07,2.099451908166864e-05
3.7757138347600456e-07,6.717060209088513e-07,8.833459319643593e-07,2.1050705701620706e-05
3.783235840472239e-07,6.885315428297673e-07,8.848919668365223e-07,2.110248385930612e-05
3.78915320172656e-07,7.058874427130653e-07,8.856377352717106e-07,2.1150478126144653e-05
3.793462929410436e-07,7.236951384934893e-07,8.855742492719532e-07,2.119533222743422e-05
3.7961614728051545e-07,7.418666461801509e-07,8.847001528063807e-07,2.123790753631952e-05
3.7972591704569064e-07,7.603093338742026e-07,8.830210131152469e-07,2.1279441036185322e-05
3.796777274346545e-07,7.789317995603799e-07,8.805491599083445e-07,2.1321499710288192e-05
3.79472896166545e-07,7.976489373341927e-07,8.773076741848879e-07,2.136581700518961e-05
3.791112631427987e-07,8.163839034470819e-07,8.733363766218595e-07,2.141414196176884e-05
3.785921827845811e-07,8.350660304464066e-07,8.686949545731522e-07,2.1468108826437525e-05
3.779158020934611e-07,8.536284628452229e-07,8.634615788377027e-07,2.152910699567023e-05
3.770840968832678e-07,8.720075208988688e-07,8.577277578030911e-07,2.1598172886730372e-05
3.7610211012183385e-07,8.90140127393972e-07,8.515892242409869e-07,2.1675935231271795e-05
3.7497914779875886e-07,9.079595281223452e-07,8.45136219035977e-07,2.1762608430829376e-05
3.737284526061194e-07,9.253939786634243e-07,8.384502349871346e-07,2.185800602713929e-05
3.723658179574011e-07,9.423688702764828e-07,8.316086010113656e-07,2.1961574682684848e-05
3.7090934750974077e-07,9.588098872195944e-07,8.2469062506833e-07,2.207246270255146e-05
3.6937988432036665e-07,9.746457359677222e-07,8.177776481735393e-07,2.218961553814493e-05
3.6779991727461064e-07,9.89809693536889e-07,8.109460511785086e-07,2.2311880013424663e-05
3.661906805138449e-07,1.0042397504962328e-06,8.042602975588779e-07,2.2438089439462493e-05
3.645696901759385e-07,1.0178774351611953e-06,7.977714099085542e-07,2.2567109605884386e-05
3.6295091207671655e-07,1.0306674609989289e-06,7.915186744603855e-07,2.269786313206884e-05
3.6134696202427595e-07,1.0425595639847782e-06,7.855309776999021e-07,2.282934795379257e-05
3.5977154611426273e-07,1.05350897684863e-06,7.79828226918529e-07,2.2960636568439152e-05
3.582402357613707e-07,1.0634742415670349e-06,7.744231436264509e-07,2.309084845810861e-05
3.567687048214599e-07,1.0724161287174972e-06,7.69321992971898e-07,2.321910698314435e-05
3.5537133122783296e-07,1.0802993790420349e-06,7.645254369477493e-07,2.334449908748945e-05
3.5406209213925116e-07,1.0870961164774043e-06,7.600313225245474e-07,2.3466057609353853e-05
3.5285557583111306e-07,1.0927880005914757e-06,7.558369261633796e-07,2.358276221590436e-05
3.5176695069545585e-07,1.0973643699651323e-06,7.519373731774289e-07,2.369354152627942e-05
3.508107107855119e-07,1.1008192620362002e-06,7.48322300202108e-07,2.3797299667940947e-05
3.499979885540741e-07,1.1031511877083497e-06,7.449751396946446e-07,2.3892973800237117e-05
3.4933464840184746e-07,1.1043635296242206e-06,7.418767900465918e-07,2.397956443583311e-05
3.48821733786156e-07,1.1044631353999808e-06,7.390119520949469e-07,2.405613135923145e-05
3.484570443684799e-07,1.1034584391838271e-06,7.363725408949251e-07,2.4121811269862576e-05
3.4823703931757113e-07,1.1013581841798436e-06,7.339550567933266e-07,2.4175862469976755e-05
3.481586131761918e-07,1.098171228507398e-06,7.317558213673486e-07,2.4217691080567442e-05
3.4821979829597733e-07,1.0939083666816715e-06,7.297685511836053e-07,2.424681826739568e-05
3.4842044214999827e-07,1.0885857416624629e-06,7.279853069797413e-07,2.42627942029713e-05
3.4876368662401704e-07,1.0822271371600277e-06,7.263985898211471e-07,2.426512222729408e-05
3.492557841285109e-07,1.0748630826194892e-06,7.250013857496442e-07,2.4253245051636795e-05
