3.805347042802794e-07,1.0494038444129258e-06,7.723053933262438e-07,3.105635621056169e-05
3.8295053888640216e-07,1.047018998475282e-06,7.653032967260659e-07,3.1196143270209055e-05
3.852448329275945e-07,1.0450666779382947e-06,7.594483189891247e-07,3.1339858497593536e-05
3.874007203109061e-07,1.043499826704703e-06,7.547599334348545e-07,3.148646716315281e-05
3.8940335065450454e-07,1.0422730691546638e-06,7.512555245402231e-07,3.1634798770164245e-05
3.912394480297585e-07,1.0413416000430678e-06,7.489434101726995e-07,3.1783655669250803e-05
3.9289791521093824e-07,1.0406617139357001e-06,7.478195492181846e-07,3.1931890749267135e-05
3.9437106629982955e-07,1.040190142000106e-06,7.478667042197444e-07,3.207839298452263e-05
3.9565483513626144e-07,1.0398817713983473e-06,7.490574321840806e-07,3.2222069747457746e-05
3.967477262960361e-07,1.0396889525109512e-06,7.513593072488374e-07,3.236187204835817e-05
3.976495896373933e-07,1.0395620294842396e-06,7.547350173130595e-07,3.2496806221724684e-05
3.9836046164142793e-07,1.0394485895084228e-06,7.59137421537314e-07,3.262588152385846e-05
3.98879740918961e-07,1.0392934425694072e-06,7.645093576066793e-07,3.274810165100213e-05
3.992057015380053e-07,1.0390429745406424e-06,7.707921840105402e-07,3.2862601247423876e-05
3.9933491649241277e-07,1.0386522345434623e-06,7.77937080367226e-07,3.296879176089458e-05
3.9926257303284826e-07,1.0380884473563376e-06,7.859102988218096e-07,3.3066379116189544e-05
3.9898417755789386e-07,1.037327791403288e-06,7.946886990490492e-07,3.3155297703267505e-05
3.9849666713768955e-07,1.0363490863358377e-06,8.042504439737185e-07,3.323563582426419e-05
3.977984526948803e-07,1.0351292360123864e-06,8.145662690850267e-07,3.3307567378381424e-05
3.968907473440929e-07,1.0336421000334885e-06,8.255936903168355e-07,3.3371256797488957e-05
3.9577963621905407e-07,1.0318592141248585e-06,8.372762456242626e-07,3.342672414789065e-05
3.944755577230182e-07,1.0297511580696673e-06,8.495460005025737e-07,3.347374750034439e-05
3.92990335763469e-07,1.027290688897623e-06,8.623258527520655e-07,3.351187678308901e-05
3.9133505112021277e-07,1.0244570959028569e-06,8.755307525204706e-07,3.354051743815636e-05
3.8952101496691864e-07,1.021241293253342e-06,8.890676175123682e-07,3.355899451333527e-05
3.8756296249301993e-07,1.0176523737087154e-06,9.028353451235556e-07,3.3566591903854825e-05
3.8548123940744024e-07,1.0137211194368714e-06,9.167269037124573e-07,3.3562688586171564e-05
3.8330178447587593e-07,1.0094948840914987e-06,9.306333178996788e-07,3.3547021174405026e-05
3.8105559743678267e-07,1.005026402105677e-06,9.444470341369455e-07,3.3519815251223546e-05
3.787776781437346e-07,1.0003639926637708e-06,9.580630650498658e-07,3.348164597654764e-05
3.7650346684106924e-07,9.955484993120591e-07,9.71380149840335e-07,3.343325702720975e-05
3.7426392669549867e-07,9.906155288311467e-07,9.843025009366664e-07,3.3375480990445286e-05
3.720828680814321e-07,9.855971673553315e-07,9.967399295061842e-07,3.3309185949586365e-05
3.699769066541657e-07,9.805217503962186e-07,1.008606380581512e-06,3.3235220004532126e-05
3.6795613709403393e-07,9.754141169456155e-07,1.0198190179502092e-06,3.315437159395113e-05
3.6602558051588437e-07,9.702978263514094e-07,1.0303005833311363e-06,3.3067337860863907e-05
3.641879603313425e-07,9.651987669093357e-07,1.0399842178610037e-06,3.2974694961795745e-05
3.624458208062165e-07,9.601481831923e-07,1.048815879284424e-06,3.287688354335174e-05
3.608011706252128e-07,9.55183018904621e-07,1.0567543100773035e-06,3.277421523455315e-05
3.5925426482325133e-07,9.503414161149672e-07,1.0637738884750009e-06,3.2666878170085446e-05
3.578046316240757e-07,9.456584946173824e-07,1.0698692997618136e-06,3.255493217124657e-05
3.564556255978497e-07,9.411742888087258e-07,1.0750537532133328e-06,3.2438314487162044e-05
3.5521871817511674e-07,9.369510641690788e-07,1.0793506031698558e-06,3.231687254620173e-05
3.541120212900032e-07,9.330806243830587e-07,1.082788237593945e-06,3.2190424718646945e-05
3.531546618116506e-07,9.296734908295693e-07,1.0854019814067193e-06,3.205882024148781e-05
3.523627815952465e-07,9.268409870904886e-07,1.0872370638849695e-06,3.192192710895068e-05
3.517485976927578e-07,9.246812874185257e-07,1.0883465852052879e-06,3.177952961294076e-05
3.513211752259817e-07,9.232717546686941e-07,1.0887841735164236e-06,3.163123504531076e-05
3.510880732131675e-07,9.226657645059763e-07,1.088596826827684e-06,3.147647648500205e-05
3.5105676069145213e-07,9.22892353845278e-07,1.087823307654057e-06,3.1314581239084165e-05
3.512349834907273e-07,9.23959024283647e-07,1.0864975002137106e-06,3.1144836068285965e-05
3.516304979688079e-07,9.258568196753284e-07,1.0846525096046256e-06,3.0966522615379854e-05
3.5225105804858705e-07,9.285642913488384e-07,1.0823234332452251e-06,3.077893404589326e-05
3.5310509344716956e-07,9.320501347126116e-07,1.0795486513498432e-06,3.0581412099836424e-05
3.5420325424211985e-07,9.362770163788048e-07,1.0763683058512716e-06,3.0373430984191967e-05
3.55559674895516e-07,9.412052295661443e-07,1.0728196323320447e-06,3.0154684987752947e-05
3.5719011059313155e-07,9.467924017889263e-07,1.0689319985210414e-06,2.992512246548081e-05
3.591073849549686e-07,9.529891375903522e-07,1.0647248305505899e-06,2.9684928214112183e-05
3.6131796908810477e-07,9.597345959684322e-07,1.060209196972545e-06,2.9434464087504493e-05
3.638206323023083e-07,9.669557648963977e-07,1.0553909609124249e-06,2.917417176183849e-05
3.6660656083831575e-07,9.745703134757616e-07,1.0502723312033244e-06,2.8904505097037688e-05
3.6966168730847825e-07,9.824896991335779e-07,1.0448517031441588e-06,2.862592857933633e-05
3.729701661582625e-07,9.906203208011902e-07,1.0391239240194344e-06,2.833890703057749e-05
3.765163157568692e-07,9.988646598565323e-07,1.0330820782700886e-06,2.804385507900354e-05
3.802841502612964e-07,1.0071243005354437e-06,1.026721795433657e-06,2.77411001706976e-05
3.842558423949178e-07,1.0153022620101936e-06,1.020046509708327e-06,2.7430918079392528e-05
3.884114555564853e-07,1.0233034596578735e-06,1.0130698196211979e-06,2.711367525208649e-05
3.9273028870554343e-07,1.03103686947031e-06,1.005813916789332e-06,2.6789992991815812e-05
3.971911316642659e-07,1.0384200222210185e-06,9.98304581457977e-07,2.6460768453300688e-05
4.0177047768090847e-07,1.04538153844444e-06,9.905651296123224e-07,2.6127024432827742e-05
4.064410610593872e-07,1.0518614588916042e-06,9.826136972115987e-07,2.5789725360899546e-05
4.111722120724892e-07,1.057813742352132e-06,9.744652150449208e-07,2.544969833243729e-05
4.1593133710812076e-07,1.0632087247810448e-06,9.661350856626115e-07,2.5107708618948725e-05
4.206853580604126e-07,1.0680292475042166e-06,9.576401301191526e-07,2.476463747986084e-05
4.2540152737465476e-07,1.0722648260674691e-06,9.48996829695837e-07,2.442161232024462e-05
4.300477455898362e-07,1.0759134850952923e-06,9.402216127336351e-07,2.407996527599953e-05
4.3459251341834543e-07,1.0789875094753664e-06,9.313359942979048e-07,2.374105781980434e-05
4.390047486762498e-07,1.0815118636963029e-06,9.223736521941505e-07,2.3406095822810172e-05
4.432537368862069e-07,1.0835163459550512e-06,9.133820906269457e-07,2.3076021712100146e-05
4.473090472203962e-07,1.0850315123931575e-06,9.044161288525608e-07,2.2751509589017606e-05
4.511407733429519e-07,1.0860922452458087e-06,8.955305120089388e-07,2.2433015719326065e-05
4.547204747479638e-07,1.0867437660494113e-06,8.867797671091945e-07,2.2120842808302333e-05
4.580222055449149e-07,1.087042394904102e-06,8.782224269741941e-07,2.1815304698101104e-05
4.610230183300991e-07,1.0870486933540994e-06,8.699193286622115e-07,2.1517031156658397e-05
4.6370268483498745e-07,1.0868186777566084e-06,8.619249905133144e-07,2.122719000629633e-05
4.660431080646738e-07,1.0864018656143305e-06,8.542814929657242e-07,2.0947419312128186e-05
4.680282802216141e-07,1.0858478071429262e-06,8.470185715700406e-07,2.067957297667704e-05
4.6964469326522035e-07,1.0852126757078505e-06,8.401572590586146e-07,2.0425467150147675e-05
4.7088234251284363e-07,1.0845577507167332e-06,8.337175142573502e-07,2.018672006549453e-05
4.717360135811279e-07,1.083941108363378e-06,8.277281842587133e-07,1.9964810578310447e-05
4.722047669045296e-07,1.0834103574354995e-06,8.222319901942877e-07,1.9761372478786244e-05
4.722893950221604e-07,1.0830016588920643e-06,8.172825723959231e-07,1.9578438391099706e-05
4.719903924507777e-07,1.0827452775592275e-06,8.129386641258145e-07,1.941839692407997e-05
4.7130782520888653e-07,1.082674877655666e-06,8.092591061266413e-07,1.928377915824672e-05
4.70242665838054e-07,1.0828333860534942e-06,8.062965833908871e-07,1.917706879344007e-05
4.6880021642494976e-07,1.0832685011359277e-06,8.040910656943712e-07,1.910056459617057e-05
4.669950956731875e-07,1.0840223627188694e-06,8.026680051774197e-07,1.905624905728937e-05
4.648525493211917e-07,1.0851295364101937e-06,8.020404230717652e-07,1.9045666855702668e-05
4.6240351464526425e-07,1.0866267622101338e-06,8.02210086856086e-07,1.9069864166076595e-05
4.596789094520194e-07,1.0885595163260092e-06,8.031663004255107e-07,1.9129399366058035e-05
4.5670783188470573e-07,1.0909746033379514e-06,8.048841842009914e-07,1.922436783877525e-05
4.535179054117484e-07,1.0939061973931835e-06,8.073258910372166e-07,1.935439446961756e-05
4.501353901118474e-07,1.097366510205681e-06,8.104450614143428e-07,1.9518614514026147e-05
4.46585739460816e-07,1.1013444624831458e-06,8.141905557277384e-07,1.971567470907141e-05
4.428948186430993e-07,1.1058103845003185e-06,8.185088398928955e-07,1.9943751481709768e-05
4.3908879583651006e-07,1.1107225963706652e-06,8.233469227981064e-07,2.0200608221126448e-05
4.351923220734681e-07,1.1160330095490105e-06,8.286537807804384e-07,2.048372904140622e-05
4.312275335428482e-07,1.1216912524617514e-06,8.343790212324014e-07,2.079049467710501e-05
4.272149089225308e-07,1.127645888801901e-06,8.404711615216307e-07,2.1118326596349147e-05
4.2317443090784396e-07,1.1338439093806551e-06,8.468766844039701e-07,2.1464767503731698e-05
4.1912574360355977e-07,1.1402341012936236e-06,8.535393485434598e-07,2.1827501638467323e-05
4.150872352245291e-07,1.1467731687628913e-06,8.603992242634623e-07,2.220431485994672e-05
4.110763146559436e-07,1.1534259567179387e-06,8.673925647336788e-07,2.259300055796727e-05
4.071128286564571e-07,1.160158384794263e-06,8.744537893584455e-07,2.299125422253732e-05
4.0322166049540963e-07,1.1669304918671264e-06,8.815175678406651e-07,2.3396614290038715e-05
3.994301868345773e-07,1.1736937376672298e-06,8.885192287404812e-07,2.380646652240285e-05
3.95763840010146e-07,1.180390940297783e-06,8.953942395806885e-07,2.4218093456437804e-05
3.922441474908436e-07,1.1869573496462612e-06,9.020780340840383e-07,2.462874406770287e-05
3.888881663675976e-07,1.1933226535036036e-06,9.085081782679622e-07,2.503568760437396e-05
3.8570756941540476e-07,1.199413387819776e-06,9.14627879777988e-07,2.5436238428747786e-05
3.8270825449092884e-07,1.205154741403804e-06,9.203864481178291e-07,2.5827784878212382e-05
3.7989150176769046e-07,1.2104725132454638e-06,9.257369197450122e-07,2.620784417847888e-05
3.772562792773873e-07,1.215298063849135e-06,9.306352857397287e-07,2.6574113462052325e-05
3.748004048134925e-07,1.21957468478399e-06,9.350436036500166e-07,2.6924458877401296e-05
3.725192962469652e-07,1.2232601315067907e-06,9.389342762269205e-07,2.725683769017221e-05
3.704052923143171e-07,1.2263251903267905e-06,9.42289600642312e-07,2.7569238413374078e-05
3.6845039912946746e-07,1.2287504152845199e-06,9.45096606163483e-07,2.785971917996655e-05
3.666500313021888e-07,1.2305207263296935e-06,9.473435154192991e-07,2.8126526302609968e-05
3.650032786143522e-07,1.2316198548972472e-06,9.490205451903087e-07,2.8368223669690723e-05
3.6351013916182033e-07,1.2320279508820817e-06,9.501228490800119e-07,2.858381346826619e-05
3.621694590243837e-07,1.2317234893218405e-06,9.50651692631947e-07,2.8772836784833368e-05
3.609781514922448e-07,1.2306891461301321e-06,9.506118813592052e-07,2.8935367374743433e-05
3.5993103773221633e-07,1.2289173450449295e-06,9.500088727667672e-07,2.9071833336275982e-05
3.590217949290017e-07,1.2264111198880192e-06,9.48849544236516e-07,2.918274617790568e-05
3.58243556175001e-07,1.2231838390551958e-06,9.471480501333996e-07,2.9268502892234008e-05
3.575877259608865e-07,1.2192610060732952e-06,9.449359565279755e-07,2.9329341351160066e-05
3.5704256331825225e-07,1.2146805810206271e-06,9.422695819539431e-07,2.936538262464168e-05
3.5659314471567827e-07,1.2094915084259599e-06,9.392278936557486e-07,2.937668123688257e-05
3.562231095497849e-07,1.2037546092366904e-06,9.359034643738757e-07,2.936334184759324e-05
3.559173289804864e-07,1.1975447261973885e-06,9.323909357812773e-07,2.9325804670710785e-05
3.556629552992314e-07,1.1909476529755418e-06,9.287756475125572e-07,2.926514866601793e-05
3.554486123819401e-07,1.1840522647347474e-06,9.251270877479547e-07,2.918311320650718e-05
3.552643308731203e-07,1.1769463925832864e-06,9.214992919709065e-07,2.908184826724864e-05
3.551023463212455e-07,1.1697171371379578e-06,9.179338681551626e-07,2.8963638184540638e-05
3.5495669326157533e-07,1.162448691271372e-06,9.144617745964464e-07,2.8830721889939424e-05
3.548223751531449e-07,1.1552167783495807e-06,9.111042303251e-07,2.868527629393263e-05
3.5469624666482505e-07,1.148083596697845e-06,9.078731134655115e-07,2.8529642273376923e-05
3.545778272027464e-07,1.1410956445684445e-06,9.047711068899677e-07,2.8366634439354072e-05
3.544680895416429e-07,1.1342862297985829e-06,9.017931587120079e-07,2.8199619564726094e-05
3.5436836094426634e-07,1.1276815315366712e-06,8.989304766307163e-07,2.803233229575425e-05
3.542802025400361e-07,1.121305073637703e-06,8.961766614935993e-07,2.786863229949635e-05
3.5420494986128993e-07,1.1151807869380736e-06,8.93533195478835e-07,2.771231344791723e-05
3.5414311220163887e-07,1.1093358152649054e-06,8.910113924432781e-07,2.7566964167297285e-05
3.540944958564704e-07,1.1037978852356145e-06,8.886301944127372e-07,2.743585521362292e-05
3.540593921218002e-07,1.0985892259598498e-06,8.864106090491184e-07,2.7321849642504032e-05
3.540399398452785e-07,1.0937250263145477e-06,8.843688880066258e-07,2.7227354839472115e-05
3.5404047801987775e-07,1.0892155245330464e-06,8.825113599495959e-07,2.7154308470650368e-05
3.5406696216882e-07,1.0850654264252763e-06,8.808326752631859e-07,2.7104147506523763e-05
3.5412609381863434e-07,1.0812703065659559e-06,8.793175202252119e-07,2.7077748746441576e-05
3.542241369631629e-07,1.0778152499182509e-06,8.779454773052694e-07,2.7075391427448035e-05
3.5436487227265037e-07,1.0746763012234305e-06,8.766981593610295e-07,2.70967692112548e-05
3.545478573795772e-07,1.071821308936765e-06,8.75564977310457e-07,2.7141058272570762e-05
3.5476877951988676e-07,1.069210642708425e-06,8.74543816202655e-07,2.7207062599212688e-05
3.550212694554079e-07,1.066798860003408e-06,8.736370609152626e-07,2.729340317097384e-05
3.5529839990738524e-07,1.0645357012938022e-06,8.728466111537178e-07,2.739866196806506e-05
3.555930890748136e-07,1.0623663628681365e-06,8.721729325639601e-07,2.7521453454666136e-05
3.558980384059285e-07,1.0602330608698352e-06,8.716192834540735e-07,2.7660469774758088e-05
3.562067583957285e-07,1.0580775829216058e-06,8.711948802789961e-07,2.781451184736939e-05
3.565153136161956e-07,1.0558430991121322e-06,8.709123614654676e-07,2.7982484432493188e-05
3.5682270225512277e-07,1.0534749775850102e-06,8.707822762567131e-07,2.8163359895859308e-05
3.571301174280604e-07,1.050920782854896e-06,8.708098130042631e-07,2.835611211119735e-05
3.574395553645196e-07,1.048130106049578e-06,8.709960128128708e-07,2.8559611810385976e-05
3.577512709053769e-07,1.0450545717247045e-06,8.713397047383144e-07,2.877252951989751e-05
3.5806234340955313e-07,1.0416473202109618e-06,8.718364031398851e-07,2.8993334679499665e-05
3.583689581971213e-07,1.0378626369295846e-06,8.724778469392661e-07,2.922038556205202e-05
3.586708575770394e-07,1.0336565044415118e-06,8.732564912490679e-07,2.945199840730914e-05
3.5897352957891603e-07,1.0289884371158058e-06,8.741725089554165e-07,2.9686458424139734e-05
3.5928626062886026e-07,1.023826642806728e-06,8.752380481222445e-07,2.9922039372194316e-05
3.5961861090124774e-07,1.0181533879625118e-06,8.764764182292246e-07,3.0157050054077968e-05
3.599781162408386e-07,1.0119626402560132e-06,8.779178106158676e-07,3.0389833251986076e-05
3.603700635687397e-07,1.0052534438663308e-06,8.795940888484856e-07,3.0618683304974435e-05
3.607984676476261e-07,9.980311777021172e-07,8.81533912089179e-07,3.084176641150131e-05
3.612664168566169e-07,9.903158724126101e-07,8.837583686663134e-07,3.105714427021077e-05
3.617754738110184e-07,9.821448766497749e-07,8.862774679442249e-07,3.1262947184305395e-05
3.6232539624729536e-07,9.73566654327284e-07,8.890884628594114e-07,3.145763049100615e-05
3.6291422318707133e-07,9.646330124711595e-07,8.921761572509912e-07,3.164012354066661e-05
3.635382383211645e-07,9.55393826353666e-07,8.955144271286308e-07,3.1809779236087684e-05
3.641928663920408e-07,9.45896264868568e-07,8.990678353927244e-07,3.1966213409798166e-05
3.6487441865329687e-07,9.361895881468115e-07,9.0279282435449e-07,3.210912078769965e-05
3.655812343801622e-07,9.263287837270872e-07,9.066391963745527e-07,3.223812799367988e-05
3.6631421149143357e-07,9.163705781167345e-07,9.105524059363475e-07,3.2352754245960215e-05
3.670766378071166e-07,9.063672248284622e-07,9.144766685613592e-07,3.245246042107046e-05
3.678726922076563e-07,8.963645532078802e-07,9.183578927833559e-07,3.2536697633490515e-05
3.687053344944701e-07,8.864013588641106e-07,9.221450865156664e-07,3.260491585521789e-05
3.695751749753479e-07,8.76508037489298e-07,9.257917116346502e-07,3.265657847733069e-05
3.704806197696825e-07,8.66708684526238e-07,9.292597445375624e-07,3.269131141569867e-05
3.714181321044332e-07,8.570278063623904e-07,9.325257655212673e-07,3.270920143952539e-05
3.723823072057949e-07,8.474961148656355e-07,9.355853321848119e-07,3.2710998167967244e-05
3.733661752873365e-07,8.381510768565756e-07,9.384533234575528e-07,3.2698017239064496e-05
3.7436174565238425e-07,8.290339370764217e-07,9.411602386609842e-07,3.267184860505994e-05
3.753613089594186e-07,8.201866994021037e-07,9.437455152110859e-07,3.263417129706658e-05
3.763590336219386e-07,8.116492808663323e-07,9.462501859556812e-07,3.258681213864279e-05
3.773503848906955e-07,8.034564348357748e-07,9.487098715515156e-07,3.2531833164925205e-05
3.783294548181981e-07,7.956382457722558e-07,9.511494076558432e-07,3.2471462750536716e-05
3.7928729803121094e-07,7.88227614064283e-07,9.535824023245444e-07,3.2407942512627904e-05
3.802121634119877e-07,7.812703081039011e-07,9.560143282421732e-07,3.234339232256053e-05
3.810901696370542e-07,7.748273648960291e-07,9.584449248552402e-07,3.227973052170534e-05
3.819058538684189e-07,7.689649350732882e-07,9.608696248557395e-07,3.22186413715711e-05
3.8264343934126573e-07,7.637396231567861e-07,9.632813186857271e-07,3.2161556144450634e-05
3.832884878661249e-07,7.591909227103584e-07,9.65673001940615e-07,3.2109632468436876e-05
3.8382784174470953e-07,7.553427042590769e-07,9.68039677897513e-07,3.2063732906085086e-05
3.842485752276306e-07,7.522102353321531e-07,9.703784389359282e-07,3.2024410049365756e-05
3.8453942185033113e-07,7.498115340931393e-07,9.726930039659887e-07,3.199191534229541e-05
3.846942253439115e-07,7.4817879919922e-07,9.750062562288857e-07,3.196623326217203e-05
3.8471345030931005e-07,7.473607864809459e-07,9.77370820998033e-07,3.1947106448280906e-05
3.8460235264850505e-07,7.474127751960925e-07,9.79868710924997e-07,3.1934027297612626e-05
3.8436807211581306e-07,7.483817744168044e-07,9.826024177926514e-07,3.1926227921894315e-05
3.8401811391138633e-07,7.502985627808513e-07,9.856818475800668e-07,3.192271663710129e-05
3.835596423153413e-07,7.53179770147516e-07,9.892095365356779e-07,3.192235761965703e-05
3.8299806532646344e-07,7.570322395741083e-07,9.932691833965304e-07,3.192395732709188e-05
3.8233575509285607e-07,7.61854350759409e-07,9.979216171509529e-07,3.19263335309278e-05
3.8157237156824287e-07,7.676365366980848e-07,1.003205550913557e-06,3.192835586221804e-05
3.8070660709701815e-07,7.743623982330813e-07,1.0091390265590306e-06,3.192897621423056e-05
3.797380601543996e-07,7.820084736501907e-07,1.0157206899958628e-06,3.192727742079316e-05
3.786686061592673e-07,7.905409957074285e-07,1.022931333703944e-06,3.1922527108383726e-05
3.775039353782003e-07,7.999124572968804e-07,1.0307375901158708e-06,3.191420003436121e-05
3.7625561327020285e-07,8.100630067394987e-07,1.0390976774348145e-06,3.1901944035651475e-05
3.749435326342481e-07,8.20925254405848e-07,1.0479642913746064e-06,3.1885483870192216e-05
3.7359971545443406e-07,8.324274794886185e-07,1.0572839157868648e-06,3.186451219680425e-05
3.72271789132001e-07,8.444961324929149e-07,1.0669992352905276e-06,3.183867941337469e-05
3.710204096495686e-07,8.57058518336281e-07,1.0770562918603188e-06,3.1807701150065615e-05
3.6991019813445524e-07,8.700409613381933e-07,1.0874100540416916e-06,3.177143866329015e-05
3.6900088262578223e-07,8.833630169261471e-07,1.0980254082287495e-06,3.172984584179718e-05
3.6834277462895143e-07,8.969344935307407e-07,1.1088752758809076e-06,3.1682824443612927e-05
3.679762013636036e-07,9.106571858807708e-07,1.1199362272582723e-06,3.16301091114713e-05
3.679333750346899e-07,9.244292917032324e-07,1.1311817372660194e-06,3.1571266773181656e-05
3.682399668778768e-07,9.38150342660102e-07,1.1425759581275135e-06,3.150575890714433e-05
3.689145423207981e-07,9.517235394294129e-07,1.1540714109386569e-06,3.143300286485524e-05
3.699670856448352e-07,9.650554440635252e-07,1.1656098346686038e-06,3.135245205039831e-05
3.713987854219777e-07,9.780556003723871e-07,1.1771237301290199e-06,3.12636839008153e-05
3.7320406455876175e-07,9.90636447671878e-07,1.1885386056298108e-06,3.1166439970620753e-05
3.7537339077262546e-07,1.0027129382325786e-06,1.199774991515217e-06,3.1060601086136354e-05
3.7789413122689673e-07,1.014202711778702e-06,1.2107493432525798e-06,3.094613449532985e-05
3.807502932906145e-07,1.0250294769131228e-06,1.2213757077031662e-06,3.082304302345758e-05
3.839248237199303e-07,1.0351285837885666e-06,1.2315683598137586e-06,3.0691311785798807e-05
3.874035335876921e-07,1.0444475115696078e-06,1.2412433088197922e-06,3.055087630769895e-05
3.911756563779232e-07,1.052939995328482e-06,1.2503180604298516e-06,3.0401643832413868e-05
3.9523088677614424e-07,1.0605625657989351e-06,1.2587110026991495e-06,3.0243528147487304e-05
3.9955678046118777e-07,1.0672782610259569e-06,1.2663413110807685e-06,3.007644327314105e-05
4.041374583563401e-07,1.0730626769004416e-06,1.2731292483749187e-06,2.990027352582224e-05
4.089539253929981e-07,1.077906715850983e-06,1.2789972501077351e-06,2.971491603958843e-05
4.1398692162930897e-07,1.0818163905822514e-06,1.2838722142926144e-06,2.9520477200273463e-05
4.192221976313136e-07,1.0848122076679692e-06,1.2876889029610878e-06,2.931747651860969e-05
4.246604481789465e-07,1.0869273025722852e-06,1.2903924494834879e-06,2.9106814663830785e-05
4.3033049254233243e-07,1.0882046105526464e-06,1.2919376716275528e-06,2.888957484166665e-05
4.3629460211779043e-07,1.0886941452941848e-06,1.2922879770173036e-06,2.866687523959665e-05
4.4263984003731307e-07,1.0884480301639506e-06,1.2914166070400793e-06,2.8439779423201344e-05
4.494626218692193e-07,1.0875156519667436e-06,1.2893077619574189e-06,2.820920448608988e-05
4.568546038762395e-07,1.0859439440939351e-06,1.2859562113325175e-06,2.7975870191459325e-05
4.648928101069001e-07,1.0837789297073937e-06,1.28136655969466e-06,2.7740333320939282e-05
4.736350858955882e-07,1.0810653445784064e-06,1.2755524157272544e-06,2.7503068352953882e-05
4.831202375593839e-07,1.0778504565561323e-06,1.268535077277294e-06,2.726452262211112e-05
4.933700456555871e-07,1.0741905673525834e-06,1.2603415354606934e-06,2.702511293216359e-05
5.043912987568033e-07,1.0701484992786516e-06,1.251002230413947e-06,2.6785183453672008e-05
5.161799945714828e-07,1.0657837039216857e-06,1.2405500866945357e-06,2.6544965122159507e-05
5.28730054999715e-07,1.0611463875407523e-06,1.2290210663420251e-06,2.63045687247912e-05
5.420441291793477e-07,1.0562769018549029e-06,1.216454064642901e-06,2.606402270160249e-05
5.561422762495257e-07,1.051210599829123e-06,1.2028896417541521e-06,2.582334214404132e-05
5.710689793695155e-07,1.045993778059301e-06,1.1883694004851048e-06,2.5582591747514152e-05
5.869064164526092e-07,1.040704259870729e-06,1.172936400869943e-06,2.534188043037759e-05
6.037997385976932e-07,1.0354586096319143e-06,1.15663593285199e-06,2.510127683663001e-05
6.219792565738892e-07,1.0304006871156706e-06,1.1395167886226056e-06,2.486073718636941e-05
6.417538687256198e-07,1.0256831740076277e-06,1.1216320479049678e-06,2.462010735843704e-05
6.634757325094504e-07,1.021452349578445e-06,1.103037576283408e-06,2.43791484359364e-05
6.87498602283883e-07,1.0178369936107644e-06,1.0837903266001637e-06,2.413753125355445e-05
7.141423306774994e-07,1.0149398227003072e-06,1.063949982026817e-06,2.3894817742961536e-05
7.436654222428844e-07,1.012833509252747e-06,1.043582577886277e-06,2.3650476666991284e-05
7.762505599003005e-07,1.0115626061160652e-06,1.0227634955079422e-06,2.3403966514623732e-05
8.120072318571956e-07,1.011148171583054e-06,1.0015803868797431e-06,2.315487456450591e-05
8.509868387241563e-07,1.011593465400245e-06,9.801356208312944e-07,2.290303698463688e-05
8.932009829422294e-07,1.0128904477164199e-06,9.585442446470872e-07,2.2648557215936496e-05
9.386373013412752e-07,1.0150230480016693e-06,9.369254940616577e-07,2.2391717995750467e-05
9.872702151444269e-07,1.0179657451779775e-06,9.153942724346828e-07,2.213285611714045e-05
1.0390662176678966e-06,1.0216813759385195e-06,8.940587469356132e-07,2.187229748022613e-05
1.0939861310538677e-06,1.0261212625520815e-06,8.730196489849201e-07,2.1610416343675232e-05
1.1519863264780045e-06,1.0312309762454751e-06,8.523667911660355e-07,2.1347729252096038e-05
1.2130216353415706e-06,1.036961820429952e-06,8.321768658804019e-07,2.1084857205504035e-05
1.2770512560754209e-06,1.04327795474223e-06,8.125168696557875e-07,2.082238268023536e-05
1.344040751801613e-06,1.0501515502791824e-06,7.934512199459417e-07,2.0560752916416208e-05
1.4139539128670581e-06,1.0575521073553393e-06,7.750462212106772e-07,2.030027636797693e-05
1.4867402765256874e-06,1.0654391237412935e-06,7.573672345104465e-07,2.0041229120296845e-05
1.5623249570727803e-06,1.0737601206555431e-06,7.404717929912203e-07,1.9784066016137166e-05
1.64059967431145e-06,1.0824520395951037e-06,7.244066632104499e-07,1.952956194336864e-05
1.7214145931450695e-06,1.0914451030012814e-06,7.09211448249881e-07,1.9278721773712626e-05
1.804572200315635e-06,1.1006676742178884e-06,6.949241047202222e-07,1.9032613646891903e-05
1.889823583910584e-06,1.11004992990801e-06,6.815833446902773e-07,1.879235575678866e-05
1.976868569259716e-06,1.1195263066866131e-06,6.692265682949486e-07,1.855918590485981e-05
2e-07,1.129037329595943e-06,6.578853200402804e-07,1.8334453779421893e-05
2e-07,1.1385306075961769e-06,6.475823124130675e-07,1.8119544552528853e-05
2e-07,1.1479591127017865e-06,6.383319488411191e-07,1.7915783663409837e-05
2e-07,1.1572751894444128e-06,6.301418898738284e-07,1.7724324359442627e-05
2e-07,1.1664244238154078e-06,6.230131422156764e-07,1.754604086372382e-05
2e-07,1.1753451077158043e-06,6.169382432269454e-07,1.7381475239422324e-05
2e-07,1.1839722219497528e-06,6.118991953415859e-07,1.7230834934623192e-05
2e-07,1.192240385315954e-06,6.078687650168372e-07,1.7094005911298665e-05
2e-07,1.2000849354678828e-06,6.048163816607025e-07,1.6970586124942972e-05
2e-07,1.2074475947840937e-06,6.027154073380215e-07,1.685998648763746e-05
2e-07,1.2142882103538052e-06,6.015463449669047e-07,1.676167527606997e-05
2e-07,1.2205909021389264e-06,6.012927443956546e-07,1.6675537612804666e-05
2e-07,1.2263570204388192e-06,6.019334202797754e-07,1.6602051587675885e-05
2e-07,1.2315948710899715e-06,6.034375896695673e-07,1.6542068228932017e-05
2e-07,1.2363168568906542e-06,6.057658006365211e-07,1.6496507756101968e-05
2e-07,1.2405388252313244e-06,6.088749762096869e-07,1.646630090419422e-05
2e-07,1.2442738623000787e-06,6.127224922465433e-07,1.6452421942772234e-05
2e-07,1.2475254921249162e-06,6.172652249922958e-07,1.6455829141586536e-05
2e-07,1.250287149957259e-06,6.224551606474431e-07,1.647735299103586e-05
2e-07,1.2525478918332935e-06,6.282361990798018e-07,1.651758024003317e-05
2e-07,1.2543045053817446e-06,6.345441335485375e-07,1.6576757244537635e-05
2e-07,1.255577954450862e-06,6.413089339999454e-07,1.66547409010738e-05
2e-07,1.2564217512408241e-06,6.484588597378063e-07,1.6751007949627403e-05
2e-07,1.256912487081807e-06,6.559247041903139e-07,1.6864709876187045e-05
2e-07,1.2571309956763936e-06,6.636421268792364e-07,1.6994746997119773e-05
2e-07,1.2571498935953604e-06,6.715544547924715e-07,1.7139837461163442e-05
2e-07,1.2570364685560315e-06,6.796176116182406e-07,1.7298558371104795e-05
2e-07,1.2568671353985742e-06,6.878025911044695e-07,1.7469360949917973e-05
2e-07,1.2567360457060987e-06,6.960919567668606e-07,1.7650586801575862e-05
2e-07,1.2567478057097612e-06,7.044737592747077e-07,1.784048057972149e-05
2e-07,1.2570035705390156e-06,7.129365828181867e-07,1.803718113261009e-05
2e-07,1.257592148856283e-06,7.21465238739297e-07,1.8238714292821808e-05
2e-07,1.258589760355738e-06,7.300370801248805e-07,1.844300816421412e-05
2e-07,1.2600628762611e-06,7.386202821424842e-07,1.864792325970809e-05
2e-07,1.2620652766718883e-06,7.471742226748299e-07,1.885128866745722e-05
2e-07,1.264631999713538e-06,7.556519534648518e-07,1.905093130917846e-05
2e-07,1.2677789460471042e-06,7.640039024562378e-07,1.9244699863278798e-05
2e-07,1.2715065245421123e-06,7.721801593375115e-07,1.94305132167629e-05
2e-07,1.2758003513623527e-06,7.801319692335801e-07,1.9606425430722272e-05
2e-07,1.2806291084068386e-06,7.878161488597431e-07,1.9770644250132574e-05
2e-07,1.2859452488010182e-06,7.952021209528269e-07,1.992149518785732e-05
2e-07,1.291690620818585e-06,8.022780382442351e-07,2.0057393429194786e-05
2e-07,1.297802586232833e-06,8.090524703368002e-07,2.017685533662561e-05
2e-07,1.3042165585257306e-06,8.155481275745471e-07,2.027855526396133e-05
2e-07,1.31086508730143e-06,8.217893143333461e-07,2.036142121872272e-05
2e-07,1.3176751908672657e-06,8.277929043963639e-07,2.0424696608796007e-05
2e-07,1.3245680602560455e-06,8.335718666169393e-07,2.046789570358204e-05
2e-07,1.3314645937149029e-06,8.391488701396374e-07,2.049070239110293e-05
2e-07,1.3382915878508008e-06,8.44567558422155e-07,2.0492901999596592e-05
2e-07,1.3449808872001345e-06,8.498919776403084e-07,2.047436846167626e-05
2e-07,1.3514631636494062e-06,8.551945734053156e-07,2.043512611122572e-05
2e-07,1.3576638622000613e-06,8.605407071843749e-07,2.037545358294656e-05
2e-07,1.3635048186764308e-06,8.659796890762594e-07,2.0295889349437232e-05
2e-07,1.3689099750612316e-06,8.71544206495395e-07,2.0197106387737727e-05
2e-07,1.3738134206208778e-06,8.77251182503019e-07,2.007979756407354e-05
2e-07,1.3781665939695982e-06,8.831017059647025e-07,1.994466574293797e-05
2e-07,1.3819380470149113e-06,8.890850700480795e-07,1.9792513079851093e-05
2e-07,1.385105136606414e-06,8.951892574603821e-07,1.962439686858852e-05
2e-07,1.3876455641193249e-06,9.014130070485943e-07,1.9441747718703447e-05
1.9337324193204086e-06,1.389534425216919e-06,9.077700580231672e-07,1.9246327385688456e-05
1.8550615961231548e-06,1.390745568664696e-06,9.142813736099123e-07,1.90400376190572e-05
1.7769219611563663e-06,1.3912539436681322e-06,9.209662685631977e-07,1.8824703441543897e-05
1.699490438158985e-06,1.3910399795458799e-06,9.27845353273999e-07,1.8601941764673628e-05
1.6229370266681796e-06,1.390098216755069e-06,9.349526522635851e-07,1.8373155512346227e-05
1.5474239817254205e-06,1.3884454436984351e-06,9.423474450172377e-07,1.8139622813827025e-05
1.4731042035147002e-06,1.3861212854212564e-06,9.50120856738496e-07,1.7902629792757048e-05
1.4001198403124615e-06,1.3831805557322482e-06,9.583951853293707e-07,1.766366258584201e-05
1.3286019287393525e-06,1.3796819157503634e-06,9.673143265826038e-07,1.7424677403899773e-05
1.2586718568862327e-06,1.3756780071856186e-06,9.770254838597394e-07,1.7188273508968832e-05
1.1904441944814528e-06,1.3712117743598918e-06,9.876585181088052e-07,1.6957562237790925e-05
1.124027739211804e-06,1.3663207835510344e-06,9.99311688306549e-07,1.6735828904406978e-05
1.0595243148803043e-06,1.3610440225905994e-06,1.0120460906874864e-06,1.652622125514255e-05
9.970280881700442e-07,1.3554235477290192e-06,1.0258855237943425e-06,1.6331568551989187e-05
9.366247480570043e-07,1.3495006510280951e-06,1.0408189377064628e-06,1.615441293419037e-05
8.783887975250954e-07,1.3433115256662277e-06,1.0568053030058088e-06,1.5997265346470205e-05
8.223812593510933e-07,1.3368851174470114e-06,1.0737811746176364e-06,1.5862846048584813e-05
7.686500573669094e-07,1.3302444025338655e-06,1.0916701882750722e-06,1.5754093972478127e-05
7.172315726964621e-07,1.3234142753469706e-06,1.1103954119008178e-06,1.5674032807667728e-05
6.681518177132059e-07,1.316430598877316e-06,1.129892727958972e-06,1.5625649931633387e-05
6.214280101101174e-07,1.309338389065505e-06,1.1501155649236021e-06,1.561180406792205e-05
5.770703296598821e-07,1.3021843126806222e-06,1.1710258751377856e-06,1.5635123888297636e-05
5.350828548529194e-07,1.2950149952769435e-06,1.1925805262545771e-06,1.5697884707991737e-05
4.954647882601212e-07,1.2878751814239443e-06,1.2147250435892386e-06,1.5801888544052168e-05
4.58212049496195e-07,1.2808000445015494e-06,1.237396185026493e-06,1.5948401279989838e-05
4.233169529236973e-07,1.2738090350535814e-06,1.2605253819784091e-06,1.6138157870964237e-05
3.907653136002732e-07,1.2669067825308122e-06,1.2840366626511086e-06,1.6371367541490542e-05
3.605333617287725e-07,1.2600886563745895e-06,1.307841695783026e-06,1.66476708025617e-05
3.325873583079317e-07,1.2533452437809352e-06,1.3318375578210088e-06,1.6966092020792573e-05
3.068867024996019e-07,1.2466627131043068e-06,1.3559076240745894e-06,1.7325035879620033e-05
2.833890414275033e-07,1.2400214288342294e-06,1.379923445291846e-06,1.7722324746844085e-05
2.6205327295019606e-07,1.2333952254253586e-06,1.403747579979022e-06,1.8155297961791665e-05
2.428375097823782e-07,1.2267521173127478e-06,1.4272385220750588e-06,1.8620996964554458e-05
2.256954462117485e-07,1.2200573673333278e-06,1.4502571260549362e-06,1.9116372626006038e-05
2.105743620340291e-07,1.2132781470733722e-06,1.4726714356243308e-06,1.9638439061064745e-05
1.974138220514127e-07,1.2063864645822623e-06,1.4943584415922968e-06,2.018436138402025e-05
1.861455863707279e-07,1.1993583572580985e-06,1.5152049035135557e-06,2.075147532630657e-05
1.7669490445033052e-07,1.1921731099413278e-06,1.535107307774616e-06,2.1337232121576645e-05
1.689813310780296e-07,1.1848150574215219e-06,1.5539689582793529e-06,2.193908988175677e-05
1.6291971931265507e-07,1.1772727704329478e-06,1.5716979122782674e-06,2.255439830400996e-05
1.58423085610413e-07,1.1695348676484308e-06,1.588210554383305e-06,2.318031546960473e-05
1.5540556052275406e-07,1.1615891245137394e-06,1.6034372461164626e-06,2.381377298496043e-05
1.5378238576548246e-07,1.153424307246286e-06,1.6173241751225624e-06,2.445148314949581e-05
1.534682922065804e-07,1.1450299321419631e-06,1.6298300649013833e-06,2.508996120358455e-05
1.543782701702833e-07,1.1363961438551684e-06,1.6409195446461252e-06,2.572555776669118e-05
1.564298740043317e-07,1.1275175173697823e-06,1.650557251826739e-06,2.635452357504232e-05
1.595426162098894e-07,1.1183974704834871e-06,1.6587058542001748e-06,2.6973102847598616e-05
1.6363500671878267e-07,1.109047003429635e-06,1.6653280282596673e-06,2.757762671668624e-05
1.6862361629000777e-07,1.099479774595993e-06,1.67039194176787e-06,2.8164605477733807e-05
1.7442492982003458e-07,1.0897091300852858e-06,1.6738790367296689e-06,2.8730833862582893e-05
1.8095806491033333e-07,1.079747190907501e-06,1.6757903109936242e-06,2.927347167078331e-05
1.8814723524574218e-07,1.069607002549134e-06,1.6761477196453194e-06,2.9790081884411047e-05
1.9592248352976988e-07,1.0593075876491185e-06,1.67499113057735e-06,3.0278676975167717e-05
2.0421768862031128e-07,1.048876552369227e-06,1.6723722047255085e-06,3.073774516524566e-05
2.1296754186030935e-07,1.0383492404657656e-06,1.6683460714173652e-06,3.116616474773287e-05
2.221058798752428e-07,1.02776553921646e-06,1.662964939117983e-06,3.156302043801659e-05
2.3156589294957513e-07,1.0171633049512545e-06,1.6562779572792402e-06,3.192744590268572e-05
2.412810436468336e-07,1.006572186137761e-06,1.6483353280810492e-06,3.225860575333307e-05
2.511856087879625e-07,9.960122314326613e-07,1.639190108848096e-06,3.255581200491823e-05
2.61215042325705e-07,9.854962950716538e-07,1.6288943437587362e-06,3.2818657494712676e-05
2.713065462893324e-07,9.750340264668422e-07,1.617494223681924e-06,3.304704643911267e-05
2.8139999636072693e-07,9.646372008380232e-07,1.6050308194283187e-06,3.324110341424485e-05
2.914397627493751e-07,9.543273942037705e-07,1.5915450349945514e-06,3.340105041266292e-05
3.0137657153388626e-07,9.441429390560436e-07,1.5770802316079832e-06,3.352718219160934e-05
3.1116722022839786e-07,9.34139839109206e-07,1.561680659958961e-06,3.361997435848447e-05
3.207722437233025e-07,9.243861841530176e-07,1.5453883578285298e-06,3.3680147897874065e-05
3.3015376777779513e-07,9.149519853844999e-07,1.5282407007323386e-06,3.370855359210712e-05
3.3927450989990987e-07,9.058989655790851e-07,1.5102713624971927e-06,3.370602642704317e-05
3.4809736368914353e-07,8.97278071051182e-07,1.4915159040118662e-06,3.3673368578477005e-05
3.565860246513304e-07,8.8913550628034e-07,1.4720171011433374e-06,3.3611403574810825e-05
3.647078202957468e-07,8.815175866731233e-07,1.4518247129322981e-06,3.3520996837132164e-05
3.724368088889685e-07,8.744666177584658e-07,1.4309911304851112e-06,3.340302645027933e-05
3.7975359256603337e-07,8.680132354131823e-07,1.4095671085795098e-06,3.325835002864518e-05
3.86642952784783e-07,8.621758609658987e-07,1.3875993331018778e-06,3.3087846694069515e-05
3.9309279070265824e-07,8.569681124065987e-07,1.3651297313090228e-06,3.289256740935855e-05
3.990946122333314e-07,8.524051182869998e-07,1.3421960727446122e-06,3.267389590949819e-05
4.0464420912067204e-07,8.485016591791836e-07,1.3188337315817186e-06,3.2433613845175766e-05
4.097414659811958e-07,8.45265927587118e-07,1.2950777089958244e-06,3.217387666243782e-05
4.1438946233179324e-07,8.426993070357532e-07,1.2709634593572572e-06,3.189711747757519e-05
4.1859414802283956e-07,8.408076578183661e-07,1.2465275387780205e-06,3.1605859353826726e-05
4.2236467000566065e-07,8.396159186262099e-07,1.2218091489380397e-06,3.130250373227969e-05
4.2571350491985615e-07,8.391703686784733e-07,1.1968507044312262e-06,3.098923676940735e-05
4.286563184125154e-07,8.395260014025894e-07,1.1716971471767411e-06,3.0668073497687345e-05
4.312126122762826e-07,8.407313049568621e-07,1.1463954862210742e-06,3.034092203665725e-05
4.334060752490984e-07,8.428188547821468e-07,1.120994537295387e-06,3.0009590261303583e-05
4.3526181437807205e-07,8.458005992324245e-07,1.0955456198421095e-06,2.9675743396780548e-05
4.368020027787129e-07,8.496660493560635e-07,1.0701050103307379e-06,2.934084787449228e-05
4.380437009542473e-07,8.543839938363912e-07,1.044735480594892e-06,2.9006144358707252e-05
4.389993534308456e-07,8.599065038443323e-07,1.0195033701091015e-06,2.8672681911238453e-05
4.396788272721673e-07,8.66172944972547e-07,9.944730817354849e-07,2.8341462003379688e-05
4.4009179062117204e-07,8.731132290792574e-07,9.69705485851529e-07,2.8013762079621333e-05
4.4024907983923255e-07,8.806494510356729e-07,9.452611300026163e-07,2.769153549085945e-05
4.4016312793026855e-07,8.88696201324011e-07,9.212021115341482e-07,2.7377590649554025e-05
4.3984782377838924e-07,8.971619344971727e-07,8.97590122703406e-07,2.7075430450500088e-05
4.393178026854845e-07,9.059516927403852e-07,8.744837610276845e-07,2.6788911735076253e-05
4.385885775059043e-07,9.149689774897914e-07,8.519367966097934e-07,2.652185918882992e-05
4.3767751244068595e-07,9.241174570497429e-07,8.299963847294795e-07,2.6277757169706422e-05
4.366033395110797e-07,9.333049268102413e-07,8.087012511357048e-07,2.605978226489632e-05
4.3538405812964107e-07,9.424464460946423e-07,7.880815223077945e-07,2.587114329842325e-05
4.3403519652769356e-07,9.514627984882292e-07,7.681612385476645e-07,2.5715261684636525e-05
4.3256979114609783e-07,9.602794512941329e-07,7.489645046048449e-07,2.559561674716876e-05
4.3100054593274077e-07,9.688307699477768e-07,7.305246310073514e-07,2.5515496397973967e-05
4.293429680663573e-07,9.77062805745085e-07,7.128898651123713e-07,2.547778766668776e-05
4.2761634450944096e-07,9.84928974736051e-07,6.961190094274288e-07,2.5484803068921108e-05
4.2584105871116297e-07,9.92383578985393e-07,6.802696243577079e-07,2.5538156612682223e-05
4.2403459053160756e-07,9.993788910630988e-07,6.653885449101975e-07,2.5638707987334768e-05
4.222091527742874e-07,1.0058670085685678e-06,6.515108350858079e-07,2.5786574929833013e-05
4.203713065372784e-07,1.0118058151608914e-06,6.386644990041461e-07,2.5981179451431038e-05
4.1852245743738323e-07,1.017163730320925e-06,6.268738537966033e-07,2.6221268507840093e-05
4.1665954342962327e-07,1.021917133493959e-06,6.161577089292047e-07,2.6504898513426848e-05
4.147761489053863e-07,1.0260451040254723e-06,6.065243670072185e-07,2.682946146740245e-05
4.1286503966884953e-07,1.0295298044787222e-06,5.979681426445386e-07,2.7191798391078955e-05
4.109212369408821e-07,1.032359600091382e-06,5.904694662716078e-07,2.758834736413771e-05
4.089428008130266e-07,1.0345281585512311e-06,5.839966881676869e-07,2.8015264922215772e-05
4.0692910273400617e-07,1.0360319852930956e-06,5.785078358499047e-07,2.8468499070534125e-05
4.0487941388154726e-07,1.0368740793406657e-06,5.739522213487275e-07,2.8943838416171003e-05
4.027935552477201e-07,1.037072572016333e-06,5.702720173683954e-07,2.943697549553429e-05
4.006735979410864e-07,1.0366626783546869e-06,5.674046870669932e-07,2.994357287051693e-05
3.9852461970897115e-07,1.0356889410912349e-06,5.652870647725597e-07,3.0459308594025812e-05
3.963538004175549e-07,1.034197927279715e-06,5.638587040838117e-07,3.097990947761496e-05
3.941691897204284e-07,1.0322353737408116e-06,5.630611580430822e-07,3.1501175957725904e-05
3.919795408014947e-07,1.0298431247164362e-06,5.62834878744089e-07,3.201899356145928e-05
3.897946012235843e-07,1.027055941150147e-06,5.631179038476011e-07,3.252933608216439e-05
3.8762484275707224e-07,1.0239023240387302e-06,5.638476032341054e-07,3.3028278572746233e-05
3.854803216168115e-07,1.0204104964560042e-06,5.649652096506671e-07,3.351204842391415e-05
3.8336880168698895e-07,1.0166166123070423e-06,5.664208024913311e-07,3.397709572413389e-05
3.8129455847617314e-07,1.0125675768870669e-06,5.681751579161106e-07,3.4420117878245345e-05
3.792590331539656e-07,1.0083143411247044e-06,5.701987205529955e-07,3.483803424733081e-05
3.7726218189949e-07,1.0039051052175551e-06,5.72469114115216e-07,3.522797222422388e-05
3.75303166178665e-07,9.993896398355666e-07,5.749666116209028e-07,3.558729308237554e-05
3.733812565064989e-07,9.94829289671121e-07,5.776695324943239e-07,3.59136241821016e-05
3.7149702228047e-07,9.902983602750037e-07,5.805525870758216e-07,3.620489897010029e-05
3.696515938592393e-07,9.858772340671216e-07,5.835868168593163e-07,3.6459476278891635e-05
3.67844827454809e-07,9.816475258427478e-07,5.867391860537253e-07,3.667630931709013e-05
3.6607557775846327e-07,9.7768814877479e-07,5.899730050047526e-07,3.685499809541543e-05
3.6434328529833204e-07,9.740673558753723e-07,5.932504111750857e-07,3.699565409662887e-05
3.62648192645361e-07,9.708358783094296e-07,5.96535497761671e-07,3.709867641816133e-05
3.609906950187878e-07,9.680264124511551e-07,5.997953168182838e-07,3.716455416696447e-05
3.5937144127581765e-07,9.65656743481548e-07,6.029999897189456e-07,3.719374020426562e-05
3.577914976276436e-07,9.637338656044051e-07,6.061264160866678e-07,3.718660715966069e-05
3.5625124003235796e-07,9.622582924893009e-07,6.091660939910011e-07,3.7143489666184255e-05
3.5474890003171e-07,9.612249127074535e-07,6.121322577085032e-07,3.7064778922878416e-05
3.532807043575661e-07,9.60620586291168e-07,6.150593718409437e-07,3.695100202169539e-05
3.518424730172997e-07,9.604229817603444e-07,6.179934695853036e-07,3.6802855929264833e-05
3.504314386495512e-07,9.606009667265868e-07,6.209804682995462e-07,3.662119515503031e-05
3.4904832211467706e-07,9.611153431464129e-07,6.240581026864125e-07,3.6407001660451235e-05
3.4769961423396485e-07,9.619204804491649e-07,6.272522306980909e-07,3.616148046598404e-05
3.4639892430660527e-07,9.629660246955048e-07,6.305781532124161e-07,3.588630589105757e-05
3.4516731259119374e-07,9.641970670800426e-07,6.340443833552419e-07,3.5583715421898435e-05
3.440342688228037e-07,9.65553543888266e-07,6.376545685542387e-07,3.525632597721923e-05
3.4304011260059624e-07,9.669711591262129e-07,6.41408762394584e-07,3.49069430022759e-05
3.422382453205626e-07,9.683846865543592e-07,6.453057517257182e-07,3.453848919592677e-05
3.416974570803463e-07,9.697322775703163e-07,6.493441634331878e-07,3.4153945934236285e-05
3.4151112131461465e-07,9.70958126797485e-07,6.535222272939884e-07,3.3756260140279645e-05
3.418189580156187e-07,9.72011547103577e-07,6.57839443352471e-07,3.334825284679569e-05
3.4282904170754226e-07,9.728445895827586e-07,6.623009732357238e-07,3.2932605887518524e-05
3.448164333610873e-07,9.73414040833582e-07,6.66920425082531e-07,3.2511964523123386e-05
3.480941775995404e-07,9.73688362769683e-07,6.717165176720333e-07,3.208905899158874e-05
3.529739628925841e-07,9.736517792990295e-07,6.767055147179583e-07,3.1666712023755384e-05
3.5973206270216604e-07,9.733009634297043e-07,6.818964972427244e-07,3.124772590152297e-05
3.68592588955699e-07,9.72639080764179e-07,6.872934710715195e-07,3.0834723790065036e-05
3.797356549839393e-07,9.716721692833252e-07,6.929020091271399e-07,3.043000658253067e-05
3.9332071212969326e-07,9.704081874056574e-07,6.987362398455496e-07,3.0035492648903395e-05
4.095075017012717e-07,9.688600380271085e-07,7.048219418159813e-07,2.9652741914982374e-05
4.284674967473979e-07,9.670521921258418e-07,7.111928970530294e-07,2.9282991542132704e-05
4.503877626968404e-07,9.650224456316266e-07,7.178822493471491e-07,2.892720488737356e-05
4.754711160679825e-07,9.628136731776858e-07,7.249137690819174e-07,2.858615759367651e-05
5.039347610485912e-07,9.6046307069165e-07,7.322969775891302e-07,2.826051058644699e-05
5.360085299102265e-07,9.579971271382045e-07,7.400281899682781e-07,2.795084175749871e-05
5.719419835206325e-07,9.554325642433343e-07,7.480971128808811e-07,2.7657652178478712e-05
6.120352243868954e-07,9.52779026305307e-07,7.564939887777867e-07,2.738134134984291e-05
6.566870262960603e-07,9.500412462561401e-07,7.652116095238649e-07,2.7122201917182544e-05
7.064203182726992e-07,9.472225566910116e-07,7.742420824518924e-07,2.688057636709408e-05
7.61851343736964e-07,9.443292218445305e-07,7.83571863538698e-07,2.665717575620949e-05
8.236161054797957e-07,9.413723061445515e-07,7.931779621878174e-07,2.6453296706099545e-05
8.922909346007887e-07,9.383670447406632e-07,8.030267968057632e-07,2.627073379639161e-05
9.683281189586012e-07,9.35332887778574e-07,8.130760171513324e-07,2.611147751371676e-05
1.0520171635654444e-06,9.322963189911957e-07,8.232790192910555e-07,2.597739253964398e-05
1.1434833481444849e-06,9.292914912638986e-07,8.335905217953527e-07,2.587007958356699e-05
1.2427204875852973e-06,9.263537089698551e-07,8.439698243535795e-07,2.5791039885693324e-05
1.3496346475498637e-06,9.235119820216385e-07,8.543797481188769e-07,2.5741947026708802e-05
1.4640797200816131e-06,9.207874597204685e-07,8.647821758359491e-07,2.572470891716776e-05
1.5858814374626924e-06,9.181946248834629e-07,8.751332011904785e-07,2.5741246167371016e-05
1.7148518650854422e-06,9.157403591805023e-07,8.853812191725457e-07,2.579317124537431e-05
1.8507974134315442e-06,9.134221631969404e-07,8.954680017480381e-07,2.588158299252282e-05
1.9935236398410253e-06,9.112307847589165e-07,9.053307922130428e-07,2.600700216837132e-05
2e-07,9.0916006415647e-07,9.149053114093864e-07,2.616935226768321e-05
2e-07,9.072178419228258e-07,9.241302636838189e-07,2.6367951951875502e-05
2e-07,9.054259286067377e-07,9.329530730236384e-07,2.660154043243061e-05
2e-07,9.038081228762038e-07,9.41335056814008e-07,2.6868330616285574e-05
2e-07,9.023789744464687e-07,9.492523296221049e-07,2.7166047743466502e-05
2e-07,9.011415294271332e-07,9.566909957171205e-07,2.7491941072682307e-05
2e-07,9.000934086971567e-07,9.636403189427215e-07,2.7842817016898467e-05
2e-07,8.992419136152962e-07,9.700878234349963e-07,2.821514172218456e-05
2e-07,8.986237131885923e-07,9.760173597304389e-07,2.860520733819175e-05
2e-07,8.983121693665558e-07,9.814104856303683e-07,2.9009289773390693e-05
2e-07,8.984052698227346e-07,9.862494011518122e-07,2.942370486407157e-05
2e-07,8.990068177991671e-07,9.905175838640893e-07,2.9844764212089092e-05
2e-07,9.002105958251232e-07,9.941982810180657e-07,3.026874096870708e-05
2e-07,9.020893266711123e-07,9.972739389974138e-07,3.069191949965723e-05
2e-07,9.046905256339213e-07,9.997265550222977e-07,3.111069187878707e-05
2e-07,9.080379392302056e-07,1.0015374547009244e-06,3.152162581188147e-05
2e-07,9.121350740538416e-07,1.0026870736723923e-06,3.192147276693526e-05
2e-07,9.169694805943487e-07,1.00315673725698e-06,3.230714560033747e-05
2e-07,9.225162041659876e-07,1.002932959581829e-06,3.2675693255099934e-05
2e-07,9.287386735873577e-07,1.0020109761584323e-06,3.302428115367143e-05
2e-07,9.355879413748093e-07,1.0003938043380402e-06,3.335022387593927e-05
2e-07,9.430020238012071e-07,9.98087843739267e-07,3.3651075405219504e-05
2e-07,9.509060982913342e-07,9.95099035820668e-07,3.392468761967723e-05
2e-07,9.592152724271051e-07,9.914319010047486e-07,3.416920890394327e-05
2e-07,9.678416442699995e-07,9.87090571809082e-07,3.4383058707235165e-05
2e-07,9.767032534608521e-07,9.820796832492676e-07,3.456486767600005e-05
2e-07,9.857310009274358e-07,9.764046900465556e-07,3.4713422476723986e-05
2e-07,9.94872424611874e-07,9.70072340374665e-07,3.4827694385623474e-05
2e-07,1.004090649623393e-06,9.630909925115766e-07,3.4906899394449013e-05
2e-07,1.0133576767234376e-06,9.554713007694037e-07,3.495051525538323e-05
2e-07,1.0226471196499177e-06,9.472290492632315e-07,3.495829035328613e-05
2e-07,1.0319318363121544e-06,9.383888685627756e-07,3.49302444585305e-05
2e-07,1.0411845136494595e-06,9.289847857999157e-07,3.4866615998548355e-05
2e-07,1.050375413752804e-06,9.190562257030056e-07,3.4767778871720565e-05
2e-07,1.0594680529104307e-06,9.086430161438809e-07,3.463418505961323e-05
2e-07,1.0684187998062463e-06,8.977837763537523e-07,3.4466346809435606e-05
2e-07,1.077181569629737e-06,8.865186874711418e-07,3.4264821450978476e-05
2e-07,1.0857143438664521e-06,8.748959208403485e-07,3.4030190979436324e-05
2e-07,1.0939839337329949e-06,8.629796215393776e-07,3.3763075242002965e-05
2e-07,1.101967321510549e-06,8.508537962665441e-07,3.3464170126202605e-05
2e-07,1.109650895207098e-06,8.386178645702212e-07,3.313426044944398e-05
2e-07,1.117027550003137e-06,8.263763887345025e-07,3.277422507192225e-05
2e-07,1.1240914079234906e-06,8.142285754630491e-07,3.238516856018137e-05
2e-07,1.1308341811594877e-06,8.022619232106263e-07,3.1968746110097034e-05
2e-07,1.137246111853475e-06,7.905510149654987e-07,3.1527417424474074e-05
2e-07,1.1433178696030134e-06,7.791586063723652e-07,3.106431239734984e-05
2e-07,1.1490390300224803e-06,7.681363292521813e-07,3.0582876105566146e-05
2e-07,1.1543956355526526e-06,7.57524685410308e-07,3.00866664156894e-05
2e-07,1.159369944525974e-06,7.473532973750888e-07,2.9579310167123284e-05
2e-07,1.1639399312680494e-06,7.37642158237738e-07,2.906444802212397e-05
2e-07,1.1680789362905045e-06,7.284035542847093e-07,2.854565140633805e-05
2e-07,1.1717583146328631e-06,7.196437149608941e-07,2.802638535473261e-05
2e-07,1.1749498470797243e-06,7.113630140367693e-07,2.7510072942907617e-05
2e-07,1.1776249324251809e-06,7.035558031213219e-07,2.700020953051293e-05
2e-07,1.1797543360935195e-06,6.962140476530443e-07,2.650035144177831e-05
2e-07,1.1813115318750672e-06,6.893361140054111e-07,2.6013894413721946e-05
2e-07,1.1822803895049487e-06,6.829343485256791e-07,2.554382086378768e-05
2e-07,1.1826690075239954e-06,6.770331711338584e-07,2.509260702489607e-05
2e-07,1.1825213578299485e-06,6.716589904571244e-07,2.466223607580054e-05
2e-07,1.1819112418032092e-06,6.66832061883159e-07,2.425421054630021e-05
2e-07,1.180921829387409e-06,6.625652825114062e-07,2.386958218536833e-05
2e-07,1.1796293506327879e-06,6.588665631215507e-07,2.350903829966848e-05
2e-07,1.1781004023065895e-06,6.557415790647121e-07,2.317300042660725e-05
2e-07,1.1764016787415234e-06,6.531958010246955e-07,2.2861660992582958e-05
2e-07,1.174615220996227e-06,6.512353020920894e-07,2.257496711738065e-05
2e-07,1.1728470197523408e-06,6.498656639058137e-07,2.2312619689032272e-05
2e-07,1.1712222508028722e-06,6.490882991838903e-07,2.2074108566747825e-05
2e-07,1.1698726778990487e-06,6.488964380462675e-07,2.1858767816530638e-05
2e-07,1.1689244390353621e-06,6.49273943712382e-07,2.1665901149869786e-05
2e-07,1.168488927185688e-06,6.501967428727589e-07,2.1495061361344693e-05
2e-07,1.1686554803147822e-06,6.516355597451688e-07,2.1346334079257465e-05
2e-07,1.1694853040549265e-06,6.535597233131175e-07,2.1220291180778935e-05
2e-07,1.1710093117222564e-06,6.559401430893048e-07,2.1117649678995627e-05
2e-07,1.1732319937759209e-06,6.58749649391217e-07,2.103902485320372e-05
2e-07,1.1761392568972113e-06,6.619639193904418e-07,2.0984899211336933e-05
2e-07,1.179705102130393e-06,6.655658441379493e-07,2.095568314806692e-05
2e-07,1.1838934083385434e-06,6.695481793518147e-07,2.095183157392691e-05
2e-07,1.1886576175329455e-06,6.739085489728025e-07,2.097396560817799e-05
2e-07,1.1939416867318038e-06,6.786412495342246e-07,2.102289031945448e-05
2e-07,1.1996807918832307e-06,6.837338910928696e-07,2.109948140491744e-05
2e-07,1.2058030299627646e-06,6.891679545111515e-07,2.1204490767365107e-05
1.867123461793517e-06,1.2122351092296156e-06,6.949189891791919e-07,2.1338349214390828e-05
1.7316876742099029e-06,1.218910413195004e-06,7.009562680336596e-07,2.1501035127323183e-05
1.6012559492001516e-06,1.225775862774007e-06,7.072420686711693e-07,2.1692012545124416e-05
1.47597315901957e-06,1.232793256074412e-06,7.137314038885247e-07,2.191022707069696e-05
1.3559670249079656e-06,1.2399328837481028e-06,7.20375019372887e-07,2.215421017552945e-05
1.241352611461485e-06,1.2471635540962221e-06,7.271265345650613e-07,2.242228860480945e-05
1.132232698457116e-06,1.2544449774579122e-06,7.339506626239212e-07,2.271276937568023e-05
1.0286965133682956e-06,1.2617250260385405e-06,7.4082803148498e-07,2.302402082568212e-05
9.308197978322806e-07,1.268941041186719e-06,7.477542656173373e-07,2.335447333089421e-05
8.386631504888447e-07,1.2760228314317323e-06,7.547341134659234e-07,2.370255689333156e-05
7.522671919237156e-07,1.2828954779712612e-06,7.61773818044433e-07,2.406659835188624e-05
6.716500754474133e-07,1.2894814077717428e-06,7.688746066214024e-07,2.4444722412050094e-05
5.968092504306106e-07,1.295702862328574e-06,7.760288171381207e-07,2.483478360072984e-05
5.277213956608933e-07,1.3014854109763969e-06,7.832202683817562e-07,2.523440171777623e-05
4.643386938745762e-07,1.3067593407540531e-06,7.904270188212898e-07,2.5641232137800407e-05
4.0658652017053253e-07,1.3114572812173923e-06,7.976219926404924e-07,2.6053404577965604e-05
3.543650269590355e-07,1.3155123565476573e-06,8.047716434335929e-07,2.6469778850514983e-05
3.075523338167923e-07,1.3188591029590366e-06,8.118360036956647e-07,2.688982066133361e-05
2.660075674608778e-07,1.321435876722819e-06,8.187708781030078e-07,2.7313286177020928e-05
2.2957385207404472e-07,1.3231904211137821e-06,8.255303302535081e-07,2.773993124356194e-05
1.980800104541904e-07,1.3240889245146392e-06,8.320683749845187e-07,2.8169352755928462e-05
1.7134043956901445e-07,1.3241224034227112e-06,8.383410564672746e-07,2.8601144597444122e-05
1.4915574457583326e-07,1.3233034750496756e-06,8.44309888953277e-07,2.9035320511239093e-05
1.3131562284268972e-07,1.321654293896685e-06,8.499445255752141e-07,2.947253336982511e-05
1.1760250513756461e-07,1.3191956582701098e-06,8.552213499109916e-07,2.9913842785258837e-05
1.077938337512542e-07,1.315946424291953e-06,8.601191792972994e-07,3.036029566205896e-05
1.0166267300740656e-07,1.3119314135048293e-06,8.646165317997507e-07,3.081262815150294e-05
9.897844791072275e-08,1.3071886191863196e-06,8.686922032547201e-07,3.127116288375285e-05
9.950874203963749e-08,1.3017703239628094e-06,8.72327599751618e-07,3.1735811957143895e-05
1.030216002305182e-07,1.2957407260776529e-06,8.755076622307104e-07,3.220608803173813e-05
1.0928723007232251e-07,1.2891719758244144e-06,8.782192081876256e-07,3.268111686914397e-05
1.1807798148631995e-07,1.282138388269059e-06,8.804502484077639e-07,3.315968400131609e-05
1.2916768779028474e-07,1.2747159865805865e-06,8.82191488038708e-07,3.364028937279216e-05
1.4233191346617004e-07,1.2669896652718931e-06,8.834359351399033e-07,3.412115339886327e-05
1.5734849277969126e-07,1.259053872050311e-06,8.841767343031758e-07,3.4600179438380686e-05
1.7399833708053849e-07,1.2510018344349968e-06,8.844070382801027e-07,3.5074929089691544e-05
1.9206746789637002e-07,1.2429199653386945e-06,8.841209565191998e-07,3.5542653418253694e-05
2.1134906765170122e-07,1.2348966281283772e-06,8.833130073533588e-07,3.600038150056789e-05
2.316433861076609e-07,1.227030931254715e-06,8.81977120074976e-07,3.644503486765277e-05
2.52756173499096e-07,1.2194277771503687e-06,8.80106428508572e-07,3.6873535821689506e-05
2.7449844669625765e-07,1.2121854726481177e-06,8.776932410433457e-07,3.7282915197897176e-05
2.966884060830566e-07,1.2053869309363326e-06,8.747293675329487e-07,3.767043933057613e-05
3.191536786810372e-07,1.1990949744635405e-06,8.712073787124823e-07,3.803371558413961e-05
3.4173306448680124e-07,1.1933497303184321e-06,8.671226872664171e-07,3.837071299751109e-05
3.642785112877506e-07,1.188169563012153e-06,8.624758623811356e-07,3.86797173771548e-05
3.8665597315133927e-07,1.1835550221872022e-06,8.572737412552305e-07,3.895928712017091e-05
4.0874291534889677e-07,1.1794940340818554e-06,8.51528547416581e-07,3.9208202460601135e-05
4.3042431817428386e-07,1.1759688083529647e-06,8.452557226127124e-07,3.9425376749130966e-05
4.515912897058412e-07,1.1729611506681404e-06,8.384726324987486e-07,3.9609813774431406e-05
4.721423979980253e-07,1.1704499862381578e-06,8.311999275948988e-07,3.976067057930626e-05
4.919845691112766e-07,1.1684039900858783e-06,8.234631177756885e-07,3.987731156949028e-05
5.110326428989358e-07,1.166777958015271e-06,8.152907849372937e-07,3.995927829616233e-05
5.29209011706803e-07,1.1655158296907594e-06,8.06710811928128e-07,4.000625335438703e-05
5.46444256429104e-07,1.1645595083033468e-06,7.977486956901059e-07,4.00180872300247e-05
5.626785119692127e-07,1.1638587216847832e-06,7.88428683422375e-07,3.999484015432705e-05
5.778625395551812e-07,1.1633730718483651e-06,7.787752670303635e-07,3.993673815326889e-05
5.919587168507381e-07,1.1630664721487958e-06,7.688142764308209e-07,3.984404891510626e-05
6.049429076438694e-07,1.1629025183451112e-06,7.585744779295235e-07,3.971698673975379e-05
6.168060085960615e-07,1.1628427543433143e-06,7.480883406175395e-07,3.955569338631051e-05
6.275532422286181e-07,1.1628468209947027e-06,7.373918598942056e-07,3.936029036847847e-05
6.37200757994114e-07,1.1628763194015223e-06,7.265258873326749e-07,3.9131045878260814e-05
6.457709991190119e-07,1.162898521645743e-06,7.155370965477498e-07,3.886863379160909e-05
6.532892738382037e-07,1.162883916032267e-06,7.044765211565204e-07,3.8574306926421704e-05
6.597815959928722e-07,1.1628008668528521e-06,6.933981944518721e-07,3.8249846477006604e-05
6.652726621550269e-07,1.1626154944083383e-06,6.82359074795231e-07,3.7897331367522966e-05
6.697848411773456e-07,1.162298318003727e-06,6.714211961980544e-07,3.751886202121873e-05
6.733392836807846e-07,1.1618304325185499e-06,6.606563085063757e-07,3.711637831979209e-05
6.75959263966988e-07,1.1612037521889663e-06,6.501479628743647e-07,3.6691634249349775e-05
6.776741950026763e-07,1.1604194874694742e-06,6.399873538064003e-07,3.6246245030476315e-05
6.785207458966152e-07,1.1594887677976548e-06,6.30265905824456e-07,3.5781738848675846e-05
6.785401488039986e-07,1.1584313730394336e-06,6.210697095840071e-07,3.529974804081544e-05
6.77775421218292e-07,1.1572698037750364e-06,6.124777181313648e-07,3.48023987737876e-05
6.762706520378701e-07,1.1560219271283315e-06,6.045611149373368e-07,3.4292578899470396e-05
6.740709987242941e-07,1.1546953870356934e-06,5.973812571196926e-07,3.3773800857728587e-05
6.712234598848228e-07,1.1532852059716216e-06,5.909871635179982e-07,3.3249809185636065e-05
6.677783212364333e-07,1.1517751770496732e-06,5.854143534318905e-07,3.272419768032748e-05
6.637889456299647e-07,1.1501414300090916e-06,5.806851047044227e-07,3.220019852361453e-05
6.593097590715333e-07,1.1483568403090751e-06,5.76809471823024e-07,3.168079717795578e-05
6.543944283329415e-07,1.1463991643857872e-06,5.737863098543589e-07,3.116909093397233e-05
6.490952223104279e-07,1.1442613984622777e-06,5.716032898139696e-07,3.0668515451551164e-05
6.434626259915798e-07,1.1419530541140312e-06,5.702374675811332e-07,3.0182781307268408e-05
6.375442019181816e-07,1.1394898752948162e-06,5.696605020636165e-07,2.9715704461609285e-05
6.31384126886327e-07,1.1368838555787391e-06,5.698481133058747e-07,2.927107060618357e-05
6.250247328118339e-07,1.1341391435469157e-06,5.707882571424379e-07,2.8852521730536077e-05
6.185091400025229e-07,1.1312508950173552e-06,5.72484673311826e-07,2.8463435218501366e-05
6.118828678975639e-07,1.128207238646175e-06,5.749551954180342e-07,2.8106800081065637e-05
6.05192319586559e-07,1.1249943681000436e-06,5.782239878724924e-07,2.778511890954715e-05
5.984805174776062e-07,1.1216024042090884e-06,5.823102034398496e-07,2.750036193978337e-05
5.917832101028518e-07,1.118032023232886e-06,5.872204194186704e-07,2.7253946678651785e-05
5.851278175704366e-07,1.1142990041002195e-06,5.929493236846654e-07,2.7046685959261803e-05
5.785348761817431e-07,1.1104308619990699e-06,5.994853988384528e-07,2.687872039084906e-05
5.720201972788e-07,1.106458341320026e-06,6.068161710777761e-07,2.6749504029566715e-05
5.65596159846447e-07,1.1024089384997374e-06,6.149311135613115e-07,2.665786283547365e-05
5.592717824468035e-07,1.0983045410583822e-06,6.238215930166242e-07,2.660211335130237e-05
5.53053591256501e-07,1.0941660080348154e-06,6.334757894003556e-07,2.658023561434031e-05
5.469488795438867e-07,1.0900264020431955e-06,6.43871081297881e-07,2.659005243240808e-05
5.409683598708613e-07,1.0859431161893849e-06,6.549709308171462e-07,2.6629345618404568e-05
5.351246036778497e-07,1.081995056732652e-06,6.667270118435327e-07,2.669591649451211e-05
5.294286294521971e-07,1.0782653476450085e-06,6.790822279050247e-07,2.678765412177809e-05
5.238888136989032e-07,1.0748250141481562e-06,6.919727106712592e-07,2.6902618838513112e-05
5.185122703056728e-07,1.0717273670781459e-06,7.053282558144696e-07,2.703907765875435e-05
5.133071824911882e-07,1.0690081015330756e-06,7.190715158211963e-07,2.719545181074248e-05
5.082839021730199e-07,1.0666859057654276e-06,7.331176988753087e-07,2.737019938883672e-05
5.034525402647852e-07,1.0647651111376506e-06,7.473756872161195e-07,2.7561680187867133e-05
4.988189782127081e-07,1.0632397200715655e-06,7.617507392185238e-07,2.7768076067426533e-05
4.943835479704488e-07,1.0620945282300965e-06,7.761483314666156e-07,2.7987411337617964e-05
4.901424002871037e-07,1.0613032351510229e-06,7.904772966926066e-07,2.821761281777989e-05
4.860883788171352e-07,1.060827719475238e-06,8.046519655413979e-07,2.8456545838127254e-05
4.822109512565215e-07,1.0606214317123829e-06,8.18596187926257e-07,2.870203913397754e-05
4.784977512465588e-07,1.0606359778211906e-06,8.322508784004004e-07,2.895193193170512e-05
4.749384546814235e-07,1.0608269094715716e-06,8.455801086538017e-07,2.920413486354848e-05
4.7152771261407003e-07,1.0611563641486778e-06,8.585677470730101e-07,2.9456634667574572e-05
4.6826386273778636e-07,1.0615939037330136e-06,8.712058747723806e-07,2.9707417116757396e-05
4.651451898691449e-07,1.062116414983667e-06,8.8348667762955e-07,2.995438759331782e-05
4.621679373492116e-07,1.0627056502340703e-06,8.954050986727087e-07,3.019535221014776e-05
4.593264043371421e-07,1.0633432288087834e-06,9.069667842135048e-07,3.0428073232619805e-05
4.56613004750854e-07,1.0640054090113724e-06,9.181918303223741e-07,3.065042566600493e-05
4.5401800943719385e-07,1.0646604820876685e-06,9.291117468726295e-07,3.086063529038448e-05
4.515293500092114e-07,1.0652700568617633e-06,9.397639011458842e-07,3.105745970216909e-05
4.49132530618667e-07,1.0657925907389228e-06,9.501865092221458e-07,3.124016622369272e-05
4.468114023196293e-07,1.0661881668002927e-06,9.604129345580893e-07,3.14083139244842e-05
4.4454970919705867e-07,1.0664261379762723e-06,9.704657107162028e-07,3.1561486891707065e-05
4.423318029607755e-07,1.0664930770031794e-06,9.803543007142413e-07,3.169913563128321e-05
4.401426504999442e-07,1.066393126624862e-06,9.90076838908766e-07,3.182056856661151e-05
4.379687261589214e-07,1.0661398371173416e-06,9.996216595713837e-07,3.192499805070118e-05
4.3579919782272027e-07,1.0657487501864502e-06,1.0089677845006441e-06,3.201157313930957e-05
4.3362654538852646e-07,1.0652355131173625e-06,1.0180866906932415e-06,3.20795084279103e-05
4.314464564899289e-07,1.0646153201930812e-06,1.026945687418686e-06,3.2128398809738016e-05
4.2925588863458865e-07,1.0639004338329104e-06,1.0355106441184556e-06,3.215850397249657e-05
4.270504496377232e-07,1.0630979411970837e-06,1.0437455273357195e-06,3.217072928024556e-05
4.248236442870133e-07,1.0622122403649165e-06,1.051610235914195e-06,3.2166376452178204e-05
4.22567359389437e-07,1.0612511201918994e-06,1.0590607253323663e-06,3.2146890087102114e-05
4.2027242527277605e-07,1.0602283873944431e-06,1.0660507556038026e-06,3.2113690594595814e-05
4.179303300132459e-07,1.0591611551880597e-06,1.0725330531162238e-06,3.206816998733605e-05
4.1553559917958633e-07,1.0580654928003331e-06,1.0784614698349666e-06,3.2011899926944565e-05
4.130858244697824e-07,1.0569521749712158e-06,1.0837948610234569e-06,3.194686527153372e-05
4.1057956403354353e-07,1.0558231161652562e-06,1.088500440834205e-06,3.187549278937839e-05
4.0801606326165857e-07,1.0546706690771849e-06,1.0925540871480844e-06,3.180050991269024e-05
4.0539758307275493e-07,1.0534800980692792e-06,1.0959368445962324e-06,3.172478077904119e-05
4.027310127725085e-07,1.0522314773599524e-06,1.0986300760012064e-06,3.1651150397557444e-05
4.000267481822475e-07,1.0508997228631954e-06,1.100613002317234e-06,3.158228070659364e-05
3.972960180480725e-07,1.0494556663750914e-06,1.1018640744422438e-06,3.152051348796126e-05
3.9454887973554796e-07,1.0478685098800621e-06,1.1023634828430416e-06,3.14678052557857e-05
3.917939082597017e-07,1.046109015190455e-06,1.1020936393896395e-06,3.142573067534088e-05
3.890383387940185e-07,1.044154756189645e-06,1.1010384608418234e-06,3.1395508218251174e-05
3.862875248165268e-07,1.0419957191463414e-06,1.099183444710322e-06,3.137799571409829e-05
3.835449715944902e-07,1.0396358554749605e-06,1.0965179968081788e-06,3.137363211244243e-05
3.808133063862728e-07,1.0370906591485892e-06,1.0930415456438723e-06,3.1382356070653775e-05
3.780946980468159e-07,1.0343841179676226e-06,1.0887703230418274e-06,3.1403567384486376e-05
3.753904241409849e-07,1.0315445000391755e-06,1.0837373041391191e-06,3.143616931298985e-05
3.727009723405402e-07,1.0285988674246729e-06,1.0779850070808377e-06,3.147868192728647e-05
3.7002840152251367e-07,1.0255702219201595e-06,1.0715602083908542e-06,3.1529395823886406e-05
3.6737911613283025e-07,1.022476905586268e-06,1.064514130854682e-06,3.1586531395568586e-05
3.647626837003351e-07,1.0193312603303232e-06,1.0569021908743058e-06,3.1648384048271306e-05
3.6218774194313476e-07,1.0161387407532349e-06,1.0487799895776415e-06,3.17134386504991e-05
3.5965974947500265e-07,1.0128981707094735e-06,1.0401990406132314e-06,3.178041296491982e-05
3.5718106800383244e-07,1.0096028490641542e-06,1.0312068238508885e-06,3.184821441956814e-05
3.547516942371434e-07,1.0062433344556015e-06,1.021852195510807e-06,3.191585297343624e-05
3.523710650432157e-07,1.0028092181188636e-06,1.012190560838132e-06,3.198235144362794e-05
3.5004061219798143e-07,9.992885087902571e-07,1.0022810905753507e-06,3.204666688793784e-05
3.477656574001569e-07,9.95668076596657e-07,9.921784046018343e-07,3.210766278247763e-05
3.455561995220242e-07,9.919343983093892e-07,9.81928462940117e-07,3.216417219503973e-05
3.43426636192398e-07,9.880722882041622e-07,9.715722592638724e-07,3.2215093542118464e-05
3.413951992754059e-07,9.84064842570402e-07,9.611535963554434e-07,3.225941958749937e-05
3.394830053784741e-07,9.79895868885112e-07,9.507240865451351e-07,3.229620256336401e-05
3.377117758779964e-07,9.755513954582262e-07,9.403407245849694e-07,3.2324539214690115e-05
3.3610099205134396e-07,9.71018758907455e-07,9.300592380445393e-07,3.234360246233454e-05
3.346655594429644e-07,9.662841975492993e-07,9.199295202770279e-07,3.2352637493211795e-05
3.334142664434777e-07,9.613308954646592e-07,9.099947518845926e-07,3.2350873004826145e-05
3.323493544342807e-07,9.561396582456685e-07,9.002918367896252e-07,3.2337441028286156e-05
3.314671987307832e-07,9.506922824596016e-07,8.908513796483312e-07,3.23114151242726e-05
3.307594571324584e-07,9.44975490858252e-07,8.816967546319893e-07,3.227199187723997e-05
3.302140493484746e-07,9.38982949430924e-07,8.728430763802485e-07,3.221874138508086e-05
3.298161778750661e-07,9.327140170166063e-07,8.642989116745527e-07,3.21517553067459e-05
3.2954998106055663e-07,9.261704810599222e-07,8.560705168026958e-07,3.2071604687605684e-05
3.293999159000501e-07,9.193537591500872e-07,8.481638752519918e-07,3.197920007954173e-05
3.2935056678725445e-07,9.122635600733698e-07,8.405830845998661e-07,3.1875619530800985e-05
3.293861438008649e-07,9.048999358097929e-07,8.33327581677238e-07,3.1761884748503555e-05
3.2949105630992505e-07,8.97268923696774e-07,8.263908960159584e-07,3.163876150499433e-05
3.29651765000066e-07,8.893854726494154e-07,8.197642744076419e-07,3.150670621713579e-05
3.298613723361509e-07,8.812714254365227e-07,8.134434658057548e-07,3.1365941419126616e-05
3.30125503539464e-07,8.729539803520146e-07,8.07430777899094e-07,3.1216553416337077e-05
3.304639821703033e-07,8.644648350580555e-07,8.017309892017994e-07,3.105860801776976e-05
3.3090640118051766e-07,8.55836593651465e-07,7.963471537744326e-07,3.089239483189192e-05
3.314845079554362e-07,8.470986339523521e-07,7.912787888110744e-07,3.071872230195836e-05
3.322257071803702e-07,8.382755901537904e-07,7.865208729652456e-07,3.053898467217879e-05
3.33150509640549e-07,8.293882766296255e-07,7.820628406157623e-07,3.03549488826042e-05
3.3427278694462145e-07,8.204558825427534e-07,7.778887283429409e-07,3.016846803481571e-05
3.3560132735852126e-07,8.114976640054616e-07,7.739811239291865e-07,2.998134590249641e-05
3.3714235481582214e-07,8.025339237147713e-07,7.70329123890798e-07,2.979544022135462e-05
3.389013845185665e-07,7.935895292277894e-07,7.669352948068244e-07,2.961281031659703e-05
3.408839405868592e-07,7.846997975331288e-07,7.63817167227602e-07,2.943569748623856e-05
3.4309553536059013e-07,7.759118205413409e-07,7.610036365301552e-07,2.9266400438851648e-05
3.4553964248637747e-07,7.672790623604589e-07,7.58527687470951e-07,2.910716703486684e-05
3.4821427419400174e-07,7.588548469043018e-07,7.564172422719208e-07,2.8960122783123567e-05
3.5111008761122265e-07,7.506876559283773e-07,7.546880166569059e-07,2.8827216118957173e-05
3.542113291902019e-07,7.428194600208292e-07,7.533415772582166e-07,2.871016060992492e-05
3.5749952839743326e-07,7.352885420479152e-07,7.523686433695043e-07,2.8610385479267388e-05
3.609580022294123e-07,7.281332820140715e-07,7.517543500175867e-07,2.852900924431748e-05
3.64573339735033e-07,7.213932533166578e-07,7.514822502804648e-07,2.8466826732041466e-05
3.683337647390706e-07,7.151103848100608e-07,7.515373205696416e-07,2.842430107645179e-05
3.722281528328848e-07,7.093323107933618e-07,7.519089741577841e-07,2.840155363688753e-05
3.762461852535309e-07,7.041112633016076e-07,7.525927589004395e-07,2.8398339261557288e-05
3.803773537222478e-07,6.994945533017764e-07,7.535878773747521e-07,2.8414013925292186e-05
3.8460994029896594e-07,6.955156947254143e-07,7.548917834818916e-07,2.84475380400546e-05
3.8893203997445753e-07,6.921943008559236e-07,7.564988620118772e-07,2.849754973857956e-05
3.933324871832719e-07,6.895437499604567e-07,7.584043668070842e-07,2.856246559387901e-05
3.9779965737754006e-07,6.875830803277147e-07,7.606062760966056e-07,2.8640542292771086e-05
4.023201058976765e-07,6.863467470449085e-07,7.631026251423617e-07,2.872991279634508e-05
4.0687852512748544e-07,6.858853352839807e-07,7.658889697604832e-07,2.8828651362075628e-05
4.114578480649857e-07,6.862583049098746e-07,7.689579013640906e-07,2.8934883427117407e-05
4.1603862642699953e-07,6.875248723898228e-07,7.722982017344034e-07,2.9046899013808608e-05
4.2059881308438796e-07,6.897360261241065e-07,7.758930886963485e-07,2.916320155385688e-05
4.25115920624764e-07,6.929275693598613e-07,7.797216889222583e-07,2.9282485813331812e-05
4.295706643180668e-07,6.971155162801549e-07,7.837659903404811e-07,2.940358472555874e-05
4.3394799016027526e-07,7.022958047324431e-07,7.880174000200317e-07,2.952538638864966e-05
4.382344508435818e-07,7.084461922875055e-07,7.924774127461743e-07,2.9646751601798506e-05
4.424159637170249e-07,7.155275729388953e-07,7.971557442162575e-07,2.976651678667248e-05
4.4647820850506353e-07,7.234861779838284e-07,8.020705236885676e-07,2.988356333202425e-05
4.5040729725970423e-07,7.322594698136704e-07,8.072478879114458e-07,2.9996846295962568e-05
4.5418953647852505e-07,7.417840221293541e-07,8.127162189391582e-07,3.0105358703811524e-05
4.578114075803045e-07,7.519983242216208e-07,8.18497498640344e-07,3.0208065439889093e-05
4.612599072403439e-07,7.628390278851061e-07,8.246017857273276e-07,3.0303850186863128e-05
4.6452362337563936e-07,7.742381673763337e-07,8.310256363551768e-07,3.039152643151665e-05
4.675945168774236e-07,7.861239993966234e-07,8.377532290922698e-07,3.0469897626055986e-05
4.704686716388247e-07,7.984217368103082e-07,8.447601269600109e-07,3.053783908958951e-05
4.7314527366189434e-07,8.110544593689189e-07,8.520170597688212e-07,3.0594400960330604e-05
4.7562524682845433e-07,8.23944648165662e-07,8.594902731381123e-07,3.063888734822415e-05
4.779111417237671e-07,8.370136300078188e-07,8.671393091799559e-07,3.067087248515171e-05
4.800079216401335e-07,8.501797400435655e-07,8.749166441464035e-07,3.069015868038213e-05
4.819234553695192e-07,8.633576920562166e-07,8.8277137265439e-07,3.069669184308325e-05
4.836679865428946e-07,8.76459548228974e-07,8.906536868144722e-07,3.069046546347401e-05
4.852523597345667e-07,8.893970460718105e-07,8.985157366648245e-07,3.067144539700636e-05
4.866864613181582e-07,9.020857071389936e-07,9.063091463299885e-07,3.0639539540717784e-05
4.879787098828525e-07,9.144521158930506e-07,9.139838123716605e-07,3.0594626875763015e-05
4.891355315060675e-07,9.264403480680125e-07,9.214902340894415e-07,3.0536613714161075e-05
4.901614892113324e-07,9.380097136374756e-07,9.28781409781596e-07,3.046546002482228e-05
4.910608250683577e-07,9.491259121340782e-07,9.358111754013003e-07,3.038116080435796e-05
4.918383956081324e-07,9.597544811519258e-07,9.425325195675303e-07,3.028375532763453e-05
4.92498618246038e-07,9.698591842405808e-07,9.488991771715472e-07,3.0173496692853185e-05
4.930434268258828e-07,9.79402835652961e-07,9.548674450828308e-07,3.0051072820491198e-05
4.934718142781593e-07,9.883496991091869e-07,9.603948147545266e-07,2.9917561954881542e-05
4.937831657522186e-07,9.96669816913178e-07,9.654377347262615e-07,2.9774214961440825e-05
4.939818971868875e-07,1.004342332143046e-06,9.699520937851095e-07,2.9622386266008906e-05
4.940786136106184e-07,1.011355409179204e-06,9.7389574462894e-07,2.946354307629142e-05
4.940874559633114e-07,1.017705047722756e-06,9.772298672239531e-07,2.92991904889932e-05
4.940230556108361e-07,1.0233933973764014e-06,9.799179050281977e-07,2.9130770964461364e-05
4.938990342861339e-07,1.028425298857443e-06,9.819238622615462e-07,2.8959602681610528e-05
4.937267248267346e-07,1.0328042728243586e-06,9.832121314447152e-07,2.8786852887941595e-05
4.935133731826611e-07,1.0365292425592852e-06,9.83749784642812e-07,2.861352519282856e-05
4.932612139649964e-07,1.039593443031553e-06,9.835119134978528e-07,2.8440438952900777e-05
4.929679833677148e-07,1.041987029886918e-06,9.824889938321227e-07,2.826819637322472e-05
4.926287283809303e-07,1.043702043731733e-06,9.806911367647456e-07,2.8097148902214203e-05
4.922379559202817e-07,1.0447369610412468e-06,9.781439830424114e-07,2.792737849041236e-05
4.91790500769385e-07,1.0450982708826842e-06,9.74878983138474e-07,2.7758711655789563e-05
4.912812412819013e-07,1.0448005859094832e-06,9.709267639688127e-07,2.759078101466934e-05
4.907044454783844e-07,1.0438712394062248e-06,9.66316894838621e-07,2.7423112809536528e-05
4.900531283361653e-07,1.0423561532527744e-06,9.610799591760372e-07,2.725518231969269e-05
4.893190092037415e-07,1.04031593900266e-06,9.552491374376116e-07,2.708642288258353e-05
4.88492885343721e-07,1.0378146157879005e-06,9.488619414264145e-07,2.6916240991241463e-05
4.875645616508734e-07,1.034911983642607e-06,9.419622051876638e-07,2.674404728704684e-05
4.865223877619171e-07,1.0316603117458842e-06,9.346012541541609e-07,2.656925724412377e-05
4.853531348628545e-07,1.0281014520161293e-06,9.268365686462091e-07,2.6391271134845192e-05
4.840423906132505e-07,1.0242654540336085e-06,9.187281350011631e-07,2.6209484626177248e-05
4.825753266646171e-07,1.020172266578217e-06,9.10335863845207e-07,2.6023336055589472e-05
4.809374036953546e-07,1.0158340595421897e-06,9.017200640809105e-07,2.5832358579912602e-05
4.791145442591342e-07,1.0112556251176705e-06,8.92942658407653e-07,2.5636217257473432e-05
4.770931237978864e-07,1.0064351452692823e-06,8.840656081218073e-07,2.5434729611841722e-05
4.748603452379262e-07,1.001367206021651e-06,8.75146367049403e-07,2.522785906080134e-05
4.724052291867237e-07,9.960449284416305e-07,8.662339316476376e-07,2.501566344053665e-05
4.6971972496363524e-07,9.904592990165431e-07,8.573682729000485e-07,2.479820834805259e-05
4.6679920336103153e-07,9.845992881670491e-07,8.485815648553882e-07,2.4575511099039374e-05
4.636423784690428e-07,9.784559889648936e-07,8.398983468766141e-07,2.434760205704893e-05
4.602509535435512e-07,9.720279256044884e-07,8.313355669600637e-07,2.4114670961377336e-05
4.5662961038594606e-07,9.65322200406291e-07,8.229050157691176e-07,2.387711778113739e-05
4.527859272328335e-07,9.583514750983287e-07,8.146169033701186e-07,2.3635428262304214e-05
4.487287624704694e-07,9.511308702290712e-07,8.064809659764485e-07,2.3390017062207392e-05
4.444663939796554e-07,9.436755842009468e-07,7.985051918052081e-07,2.3141174584690374e-05
4.4000664914963245e-07,9.359989872899339e-07,7.906955664991572e-07,2.2889131294306926e-05
4.3535842613733084e-07,9.28113155551592e-07,7.830573792439959e-07,2.2634206783398666e-05
4.305329906282569e-07,9.20030100174634e-07,7.755967428025361e-07,2.2376933109112266e-05
4.255444788394813e-07,9.117603110144009e-07,7.683230785953179e-07,2.211802277226001e-05
4.204105733329235e-07,9.033107973106405e-07,7.612520918224005e-07,2.185821491370953e-05
4.1515442911214317e-07,8.946855253768473e-07,7.544052917204988e-07,2.159815516442701e-05
4.098059490161216e-07,8.858867260019896e-07,7.478051442123118e-07,2.1338406860033367e-05
4.0440027621083157e-07,8.769153482279509e-07,7.414717923246426e-07,2.1079595787431406e-05
3.9897524536397853e-07,8.677719778950909e-07,7.354241127960413e-07,2.082261174650057e-05
3.9356909679352566e-07,8.584586568491355e-07,7.296794780829078e-07,2.056870574071301e-05
3.8821769243264046e-07,8.489798463273945e-07,7.242499436484769e-07,2.0319366712572766e-05
3.8295229196001785e-07,8.393421887583257e-07,7.191391256414391e-07,2.007605157469545e-05
3.777993595914419e-07,8.295533838437041e-07,7.143419348453331e-07,1.9839956553476816e-05
3.7278289704607394e-07,8.196204771902758e-07,7.098461528303856e-07,1.9611946674704426e-05
3.6792812206018784e-07,8.095493857371471e-07,7.05634272431404e-07,1.9392601070604645e-05
3.632630689894813e-07,7.993464739436595e-07,7.016846430838831e-07,1.91822760488622e-05
3.5881763093475545e-07,7.89019519948811e-07,6.979730071177428e-07,1.898120825707841e-05
3.5462223120502186e-07,7.785761085666229e-07,6.94474902898651e-07,1.8789758091385608e-05
3.507058913968988e-07,7.6802257150053e-07,6.911669728819068e-07,1.8608708561013654e-05
3.4709410536923514e-07,7.573670403595341e-07,6.880269220665497e-07,1.8439352610806866e-05
3.438092872474625e-07,7.466232912828195e-07,6.8503313132114e-07,1.8283285794745435e-05
3.408733076895769e-07,7.358097546816338e-07,6.821633323830357e-07,1.814210106312408e-05
3.3830873411934337e-07,7.249459171301051e-07,6.793928206302587e-07,1.8017171584006207e-05
3.3613827930289877e-07,7.140526332063942e-07,6.766941304085404e-07,1.7909600320750854e-05
3.343834608231972e-07,7.031578957168945e-07,6.740391344265853e-07,1.7820418481754792e-05
3.33062255539232e-07,6.923043055199282e-07,6.714029502328451e-07,1.775094117569886e-05
3.321868193166468e-07,6.815528881063751e-07,6.687675129579991e-07,1.770294917286963e-05
3.3176370708848874e-07,6.70979829501815e-07,6.661227147992885e-07,1.76785749744867e-05
3.317962765810483e-07,6.60667208756714e-07,6.634648925125098e-07,1.768008305138608e-05
3.322854150965754e-07,6.506930524282864e-07,6.60793355185276e-07,1.7709683029132134e-05
3.33227327014128e-07,6.411266103047554e-07,6.581062013357314e-07,1.77693835873713e-05
3.346113627015894e-07,6.320296681881927e-07,6.553976803894798e-07,1.7860871101402842e-05
3.364199445930893e-07,6.23457745287205e-07,6.526581144744165e-07,1.7985413761329315e-05
3.3863050924480025e-07,6.154566027135999e-07,6.498756148345696e-07,1.814381641875907e-05
3.412175635966509e-07,6.080595402202054e-07,6.470386382391189e-07,1.833642732758812e-05
3.441529608097032e-07,6.012923646076659e-07,6.44138846885035e-07,1.8563141364320784e-05
3.474054313013313e-07,5.951814287305025e-07,6.411730227855143e-07,1.882335907350924e-05
3.509408314766201e-07,5.897548266379054e-07,6.381418122935766e-07,1.9115933742195752e-05
3.547231238221239e-07,5.850363780583407e-07,6.350467315671962e-07,1.9439155636958343e-05
3.587156306344772e-07,5.810399860251741e-07,6.318891456242354e-07,1.9790801335336576e-05
3.628815392207937e-07,5.777704651110941e-07,6.286707264274912e-07,2.016826807038129e-05
3.6718387013603295e-07,5.752348314042201e-07,6.253937507654244e-07,2.056876521683735e-05
3.7158646838878045e-07,5.734615110837924e-07,6.22062101651573e-07,2.0989477391041396e-05
3.7605493161860105e-07,5.725129897137725e-07,6.186847872863606e-07,2.142765384204933e-05
3.805560169869784e-07,5.724809221707164e-07,6.152825161201885e-07,2.188066330081209e-05
3.8505752537554185e-07,5.734718287923961e-07,6.118934281038948e-07,2.2346047691243162e-05
3.895289562303973e-07,5.755958553050293e-07,6.0857320715745e-07,2.2821538089814253e-05
3.939406066816493e-07,5.789589364494674e-07,6.053895542822164e-07,2.330498886815819e-05
3.982618896082264e-07,5.836543063627871e-07,6.024131150546375e-07,2.379426172578256e-05
4.024611556455774e-07,5.897536462552589e-07,5.997078590554829e-07,2.4287125473803304e-05
4.0650679167661464e-07,5.973015429676756e-07,5.973250145022072e-07,2.4781204371841118e-05
4.1036853327210326e-07,6.063151487968048e-07,5.953015495629026e-07,2.527400437048887e-05
4.14018352504998e-07,6.167857265214386e-07,5.936612252978328e-07,2.576301075473883e-05
4.1743025220608895e-07,6.286798762700543e-07,5.924159839362364e-07,2.624577744035769e-05
4.2057941820844457e-07,6.419430228351427e-07,5.915665614179668e-07,2.6719962778275665e-05
4.2344212144641993e-07,6.565061751247097e-07,5.91103941485799e-07,2.7183346699172173e-05
4.259974270422778e-07,6.722928876621571e-07,5.910126505002378e-07,2.763386316496673e-05
4.282305797729175e-07,6.892230813742076e-07,5.912743241061162e-07,2.806962021494815e-05
4.3013615973392324e-07,7.072136466064235e-07,5.918719092783304e-07,2.8488845968995802e-05
4.317184711466052e-07,7.261797123863832e-07,5.927954736230024e-07,2.8889775100840974e-05
4.329887126678225e-07,7.460378961080363e-07,5.940460955998319e-07,2.927058353009906e-05
4.339616699244228e-07,7.667081965612077e-07,5.956340605721531e-07,2.9629435762776544e-05
4.346539850345602e-07,7.881152117067087e-07,5.975726665011358e-07,2.996460912362929e-05
4.350829706659239e-07,8.101894238353686e-07,5.998712478951861e-07,3.0274652256681207e-05
4.3526568550798395e-07,8.328628663068431e-07,6.025305564837732e-07,3.0558543224023585e-05
4.352186689676194e-07,8.560595802927287e-07,6.055417988614629e-07,3.081575467527969e-05
4.34957127573513e-07,8.796900358095547e-07,6.088875304414003e-07,3.1046158773593876e-05
4.344944742187712e-07,9.036531018275127e-07,6.125420054951839e-07,3.1249826691805606e-05
4.33843932012385e-07,9.278410038866005e-07,6.164713557908283e-07,3.142682697445581e-05
4.3301998395642756e-07,9.521419237425388e-07,6.206354127927883e-07,3.157709536651473e-05
4.320387351402604e-07,9.76439419515743e-07,6.249897832647737e-07,3.17003953778111e-05
4.309194569162656e-07,1.0006129077827517e-06,6.294858348442196e-07,3.179633988467894e-05
4.2968549038751993e-07,1.0245412085114091e-06,6.340701865644604e-07,3.1864472963595926e-05
4.2836126605591295e-07,1.0481064185452317e-06,6.386862571059214e-07,3.190450739296644e-05
4.2696847168453076e-07,1.0711961443234959e-06,6.432785250211406e-07,3.191672150466198e-05
4.255256304499219e-07,1.0937033329305966e-06,6.477973966205373e-07,3.1902222783072806e-05
4.2404968861112815e-07,1.115524186907635e-06,6.522010100884319e-07,3.1862837972478104e-05
4.225567785694867e-07,1.1365562505099494e-06,6.564549966681865e-07,3.180079846595917e-05
4.210627232597429e-07,1.1566975912969102e-06,6.605339924847732e-07,3.171845118577641e-05
4.195840088187184e-07,1.1758480600282908e-06,6.644237874611534e-07,3.1618066407692714e-05
4.18137343794754e-07,1.19391364803071e-06,6.681216553132373e-07,3.150189876890863e-05
4.167376301869449e-07,1.210812671227983e-06,6.716344312318268e-07,3.1372519791382954e-05
4.153970165920342e-07,1.2264804062790371e-06,6.749729678230338e-07,3.123305805301875e-05
4.141248019569979e-07,1.2408678640091619e-06,6.781454678158669e-07,3.1087112279685416e-05
4.129262829064279e-07,1.2539353810370057e-06,6.811561850386299e-07,3.093850088349801e-05
4.11801929521771e-07,1.265647168207295e-06,6.840091478265216e-07,3.0791037903517155e-05
4.107483068270679e-07,1.2759691705210975e-06,6.867121899942008e-07,3.0648369451876456e-05
4.0975904858348974e-07,1.2848688839527745e-06,6.892811451097393e-07,3.0513847459675047e-05
4.088251723400152e-07,1.2923165723198082e-06,6.917426201040413e-07,3.0390428813604686e-05
4.079366515227646e-07,1.2982866102004356e-06,6.941304922774024e-07,3.028061522394712e-05
4.0708454842316596e-07,1.3027595586364098e-06,6.964786355961256e-07,3.0186453344623155e-05
4.0626162337386366e-07,1.3057291387843814e-06,6.988178451611523e-07,3.0109565141231487e-05
4.054628662338445e-07,1.307211666262808e-06,7.011778944659286e-07,3.0051131023864905e-05
4.046857467508833e-07,1.3072467032458992e-06,7.03588910092602e-07,3.0011806331140364e-05
4.039280007506675e-07,1.3058875753258656e-06,7.060792143694588e-07,2.9991653427024048e-05
4.031852281340415e-07,1.3031940090647686e-06,7.086716391325309e-07,2.999017126917375e-05
4.024506338527755e-07,1.2992312643819383e-06,7.113818677385045e-07,3.0006420139738646e-05
4.01715751079798e-07,1.2940710144183294e-06,7.142208967167176e-07,3.0039184272415538e-05
4.009713700742354e-07,1.2877965295287643e-06,7.171988070945167e-07,3.0087116667118334e-05
4.002082519099129e-07,1.2805123587173986e-06,7.203252689798224e-07,3.0148833427574604e-05
3.9941762433302e-07,1.2723462027477386e-06,7.236074563523103e-07,3.022297037607805e-05
