4.373848072343675e-07,1.1578830395298572e-06,4.90300298733543e-07,2.9203172734258888e-05
4.3518783243891897e-07,1.1646684080711616e-06,4.874763210647267e-07,2.9325999551326746e-05
4.329637620404472e-07,1.1712174293317562e-06,4.849976945372907e-07,2.9439686980479414e-05
4.3072547698371277e-07,1.1775255689039884e-06,4.829153992103741e-07,2.9543582580420068e-05
4.28481962614056e-07,1.183578752686237e-06,4.812939792670787e-07,2.9637054122247893e-05
4.2623846950856783e-07,1.1893559478325838e-06,4.802016445923559e-07,2.9719455125864728e-05
4.2399799566042134e-07,1.194832516640966e-06,4.796989634936421e-07,2.9790152439889394e-05
4.2176264172182897e-07,1.1999810776279974e-06,4.798344841193958e-07,2.984854151625603e-05
4.195333742853449e-07,1.2047706153477232e-06,4.806500216836535e-07,2.989400808845716e-05
4.1730985323830856e-07,1.2091679618219264e-06,4.821901412177683e-07,2.9925948896145946e-05
4.1509245425849963e-07,1.213142936011869e-06,4.845078346059696e-07,2.994392717833313e-05
4.128844941247288e-07,1.216674173757292e-06,4.876632652274871e-07,2.994783671454554e-05
4.1069177624360976e-07,1.2197511180803577e-06,4.917168892153068e-07,2.9937916582243323e-05
4.0852075543169007e-07,1.222370655318252e-06,4.967213286911956e-07,2.9914633618289308e-05
4.063770408547278e-07,1.2245320555895023e-06,5.027165404452412e-07,2.9878533284704974e-05
4.042642112137747e-07,1.2262328468639325e-06,5.097283100296925e-07,2.983010149864179e-05
4.021840213543414e-07,1.2274652821120823e-06,5.177686724315355e-07,2.976966827699693e-05
4.001379474332768e-07,1.228215029160524e-06,5.268388690448682e-07,2.9697390790080628e-05
3.981281077075002e-07,1.2284637025482772e-06,5.369339959367676e-07,2.9613295701725475e-05
3.961563952727758e-07,1.2281924755785143e-06,5.480459608276817e-07,2.951731838550349e-05
3.9422288368493463e-07,1.2273833152117479e-06,5.6016199580341e-07,2.940934067319891e-05
3.923260266821843e-07,1.2260201230051172e-06,5.732590385010764e-07,2.928936173223629e-05
3.90463955894846e-07,1.2240928741043306e-06,5.872981848880336e-07,2.9157840220723742e-05
3.886345357932574e-07,1.2215997741448296e-06,6.022240295456951e-07,2.9015939614844287e-05
3.868353438770274e-07,1.2185429450685939e-06,6.179692681098751e-07,2.8865448210480048e-05
3.8506423955678774e-07,1.214923573814163e-06,6.344614037889161e-07,2.870848206888093e-05
3.833186647841925e-07,1.2107429438537096e-06,6.516295684108761e-07,2.8547223529320836e-05
3.8159389763016384e-07,1.2060081258005017e-06,6.69411689090939e-07,2.8383861776584588e-05
3.798825930537816e-07,1.2007378991255902e-06,6.877601667725807e-07,2.822067284367376e-05
3.7817688401009175e-07,1.194964046227432e-06,7.066421762386716e-07,2.806004483451529e-05
3.7647174082196775e-07,1.1887268479593822e-06,7.260354677799422e-07,2.7904408613839192e-05
3.747666046042194e-07,1.182070400125185e-06,7.45923574162989e-07,2.7756151993845563e-05
3.730645592072635e-07,1.175041744822423e-06,7.662904152281473e-07,2.7617544092966685e-05
3.713713066773201e-07,1.1676898639445131e-06,7.871127663030545e-07,2.749067043062417e-05
3.6969450707537186e-07,1.1600602594353523e-06,8.083529747004866e-07,2.737737286952217e-05
3.680421197521963e-07,1.1521882214826012e-06,8.299567639105007e-07,2.7279173083713707e-05
3.664204665999971e-07,1.1440964882206279e-06,8.518572126702626e-07,2.7197193832001835e-05
3.648334981527432e-07,1.1357978290979643e-06,8.739802464009184e-07,2.71321297582047e-05
3.6328291283413357e-07,1.1272987497850121e-06,8.962464610919313e-07,2.708428652533818e-05
3.617685281497944e-07,1.1186014505447713e-06,9.185698511901371e-07,2.7053642795489372e-05
3.602890497318237e-07,1.1097046895655138e-06,9.408595038004902e-07,2.703987614121847e-05
3.588429423039949e-07,1.100605480622072e-06,9.630262254976593e-07,2.704234873024491e-05
3.574288693612524e-07,1.0913015980336491e-06,9.849867302392229e-07,2.7060091925436123e-05
3.560462636687868e-07,1.081794971172118e-06,1.0066611152459313e-06,2.7091827571620104e-05
3.5469630857578575e-07,1.0720957826085172e-06,1.0279714212576049e-06,2.7136041976418844e-05
3.533816290725328e-07,1.062223160376223e-06,1.0488471168027594e-06,2.719108756422305e-05
3.5210424042841117e-07,1.0522004499098062e-06,1.0692303096645137e-06,2.7255273653569253e-05
3.5086466193229626e-07,1.0420494218895078e-06,1.0890732786296971e-06,2.7326930705450448e-05
3.4966345228401533e-07,1.0317872091649945e-06,1.108331598837695e-06,2.7404450406432722e-05
3.4850255347336693e-07,1.0214264487337758e-06,1.1269585516396652e-06,2.748631235141927e-05
3.4738496974900546e-07,1.0109774647811437e-06,1.1449022149133288e-06,2.7571089958824407e-05
3.463141183617224e-07,1.0004496447490931e-06,1.1621045199721982e-06,2.7657416827241302e-05
3.452935429333861e-07,9.898517567617915e-07,1.1785013095757702e-06,2.774393183681521e-05
3.443262822524581e-07,9.791933180900269e-07,1.1940232914915421e-06,2.7829238811480987e-05
3.434136820642551e-07,9.684855942460251e-07,1.2085981682169684e-06,2.7911907684998054e-05
3.4255428514596965e-07,9.577405416238757e-07,1.222153649966134e-06,2.7990547968021037e-05
3.417434118260191e-07,9.469691688448084e-07,1.2346206199087617e-06,2.8063926896545423e-05
3.409736099112106e-07,9.361812310864359e-07,1.245935808108935e-06,2.8131034088995002e-05
3.4023589985122325e-07,9.25385862363064e-07,1.2560431951546242e-06,2.8191037752297746e-05
3.3952102878986826e-07,9.145912676502987e-07,1.2648931653442793e-06,2.8243163638745238e-05
3.3881990085871053e-07,9.038057270853184e-07,1.2724408893726656e-06,2.8286586819414777e-05
3.381239734327116e-07,8.930423575518118e-07,1.2786465184944357e-06,2.832042622434304e-05
3.37426389278358e-07,8.823220721717432e-07,1.2834761534721055e-06,2.8343829883719398e-05
3.367227516641809e-07,8.716700601548473e-07,1.2869013465063308e-06,2.8356039110090093e-05
3.360109034896451e-07,8.611118047123207e-07,1.2888982890180186e-06,2.8356361127192505e-05
3.352903465577148e-07,8.506750283020406e-07,1.2894488010446757e-06,2.8344106993277385e-05
3.345609397487433e-07,8.403940643580671e-07,1.2885422729807378e-06,2.8318604570338344e-05
3.338212762253314e-07,8.303122603595481e-07,1.2861771187106791e-06,2.827934311142422e-05
3.330686288459912e-07,8.204837377456197e-07,1.2823621706040243e-06,2.822619934429452e-05
3.322996743766285e-07,8.109735945558086e-07,1.277116846423167e-06,2.8159593707285106e-05
3.315102385429221e-07,8.018521842347495e-07,1.2704677864942227e-06,2.8080443212968183e-05
3.3069482633996556e-07,7.931851437049447e-07,1.2624443878540537e-06,2.798992553002741e-05
3.298466478498672e-07,7.850280373723304e-07,1.2530775235546935e-06,2.788919106208202e-05
3.289579434271363e-07,7.774288770663226e-07,1.2424012285767343e-06,2.7779159305900566e-05
3.280206132773461e-07,7.704309524851012e-07,1.230455799651193e-06,2.7660450042968288e-05
3.27026599061723e-07,7.640709788611474e-07,1.2172912074514787e-06,2.7533417491194606e-05
3.25967686178177e-07,7.583762312770826e-07,1.2029681523977714e-06,2.7398258443559648e-05
3.248355050582145e-07,7.533661593900677e-07,1.1875558613700053e-06,2.7255229760168925e-05
3.236218741723353e-07,7.490612062616909e-07,1.1711281342663022e-06,2.710496301893628e-05
3.223189419852572e-07,7.454915462258316e-07,1.1537595161265992e-06,2.6948679139538765e-05
3.209193667731594e-07,7.426934327275436e-07,1.1355236346759102e-06,2.67881231221502e-05
3.194164309119313e-07,7.406962724823577e-07,1.1164935141533513e-06,2.6625317114094932e-05
3.1780373385511077e-07,7.395147871773668e-07,1.096741702899754e-06,2.646231964266925e-05
3.1607522721009197e-07,7.391525181784015e-07,1.0763397645156159e-06,2.630105927047215e-05
3.142263487327745e-07,7.396141420227705e-07,1.0553590172207872e-06,2.61433363568441e-05
3.122556068298616e-07,7.409183905790566e-07,1.0338731420106838e-06,2.5991070907231217e-05
3.101648717999146e-07,7.431013052847605e-07,1.0119595656802994e-06,2.584660051670977e-05
3.079580164705801e-07,7.46208309298283e-07,9.896976221642226e-07,2.571274936584986e-05
3.056402086949541e-07,7.502829089185912e-07,9.671671264200962e-07,2.559266866030536e-05
3.0321910585736e-07,7.553586507746016e-07,9.444501385622848e-07,2.548960958325237e-05
3.00705785429634e-07,7.61454111565313e-07,9.216319793709255e-07,2.540670724355885e-05
2.981146554515276e-07,7.685690807727882e-07,8.987981090353201e-07,2.5346792984884823e-05
2.9546407711363396e-07,7.766834736468015e-07,8.76029929620783e-07,2.5312257929282168e-05
2.927765821776798e-07,7.85759032363699e-07,8.534043564498958e-07,2.5304988395531972e-05
2.900774245626888e-07,7.957411375451142e-07,8.309980171687069e-07,2.532636563819625e-05
2.8739314269284097e-07,8.065606233079398e-07,8.088919937261398e-07,2.5377281329716682e-05
2.847500867063457e-07,8.18136384941422e-07,7.871717108877115e-07,2.5458113573234302e-05
2.821719743348946e-07,8.303778010742765e-07,7.659210104691384e-07,2.5568671040627826e-05
2.7967777639311144e-07,8.431869463251006e-07,7.452163631589163e-07,2.570816981784202e-05
2.7728108303920266e-07,8.564621608726346e-07,7.251260053014476e-07,2.5875270672338705e-05
2.749906274402161e-07,8.701031666524027e-07,7.057113265031997e-07,2.60681642970792e-05
2.7281119556849925e-07,8.840155046805741e-07,6.870279726682819e-07,2.628470886397214e-05
2.70744679991618e-07,8.981143944468099e-07,6.691274989893739e-07,2.652259401432376e-05
2.687914964955989e-07,9.123305162320959e-07,6.520582597959905e-07,2.677946617455281e-05
2.669518501973752e-07,9.266147106990015e-07,6.358644807692886e-07,2.7053001734286664e-05
2.6522763378536386e-07,9.409356552653608e-07,6.205865193944568e-07,2.7340954592468825e-05
2.636270848285689e-07,9.55271057826626e-07,6.062624717663996e-07,2.764117087771474e-05
2.6216973226396353e-07,9.695974797409167e-07,5.929271241177942e-07,2.7951557808607448e-05
2.6088655444280484e-07,9.838836021743514e-07,5.806085356087489e-07,2.827003383219911e-05
2.598151268657214e-07,9.980892258051165e-07,5.693254606870446e-07,2.8594479036916963e-05
2.589931112100598e-07,1.0121678979270131e-06,5.590864276594107e-07,2.8922678042155488e-05
2.584530947105819e-07,1.0260721418286128e-06,5.498905867171471e-07,2.9252296704329546e-05
2.5822036868489735e-07,1.0397609197952407e-06,5.41729657199561e-07,2.9580938848353327e-05
2.583137977734164e-07,1.0532034275586826e-06,5.345883596314189e-07,2.9906228448860772e-05
2.587488397693644e-07,1.0663766951667638e-06,5.284430737759699e-07,3.0225841638919924e-05
2.5953938422284086e-07,1.0792623585487863e-06,5.232621960138642e-07,3.0537488467768826e-05
2.606957138301635e-07,1.0918452867848654e-06,5.190085435308451e-07,3.083890013510921e-05
2.622213221358357e-07,1.1041116935572506e-06,5.156402736735968e-07,3.1127867056941004e-05
2.641123966172372e-07,1.1160453743662192e-06,5.131102732452211e-07,3.140228531744687e-05
2.663603158369761e-07,1.1276243991539469e-06,5.113665411932882e-07,3.166017074958931e-05
2.689553297914629e-07,1.1388201672455068e-06,5.103533776377539e-07,3.1899737380726866e-05
2.718890969566556e-07,1.14959750586e-06,5.100119535018943e-07,3.211960999774172e-05
2.7515570034722967e-07,1.1599157430088915e-06,5.102804855925355e-07,3.231902681276303e-05
2.787524271872896e-07,1.1697306613266173e-06,5.110960438108621e-07,3.249785684006355e-05
2.8267990209304234e-07,1.178995340389182e-06,5.123986546358875e-07,3.265644814080459e-05
2.869399993995034e-07,1.1876617016283656e-06,5.141340150769434e-07,3.279541470035376e-05
2.91532114289288e-07,1.1956845099095949e-06,5.162522166335878e-07,3.2915410437926754e-05
2.9644992725216926e-07,1.203023776888952e-06,5.187067353767615e-07,3.3016934729838484e-05
3.0168010042638826e-07,1.2096430398423457e-06,5.214576992073853e-07,3.3100260395914844e-05
3.0720396522819283e-07,1.2155066402815652e-06,5.244748390077341e-07,3.316550459706858e-05
3.130014507669137e-07,1.2205791772386771e-06,5.277343571399978e-07,3.321273655271847e-05
3.190538829938661e-07,1.2248267069679105e-06,5.312139036698262e-07,3.324203351276239e-05
3.253436277231289e-07,1.2282179946147843e-06,5.348925410866524e-07,3.3253479581766276e-05
3.318516127200432e-07,1.2307280113695975e-06,5.38752545229894e-07,3.324716030093995e-05
3.3855590636156047e-07,1.232345040293962e-06,5.427767961902215e-07,3.3223289735048545e-05
3.4543403207858783e-07,1.2330736589699072e-06,5.46944194095933e-07,3.3182458041920394e-05
3.524664680826443e-07,1.2329303378729296e-06,5.512289481132351e-07,3.3125697592431546e-05
3.596371376887384e-07,1.2319389697146102e-06,5.556041471116387e-07,3.3054289831470224e-05
3.6693087280814e-07,1.2301274340289699e-06,5.600456507728006e-07,3.296963589936712e-05
3.743300748725325e-07,1.2275227424282057e-06,5.645329280975549e-07,3.287329707536851e-05
3.8181369195569684e-07,1.224147819177833e-06,5.690481007952542e-07,3.2766995461290084e-05
3.893594837405589e-07,1.2200216863457763e-06,5.735769574559615e-07,3.265251683162313e-05
3.969456895594207e-07,1.2151617782542823e-06,5.781104775206477e-07,3.253160908382705e-05
4.0454995718593936e-07,1.2095859286998256e-06,5.826423261979132e-07,3.240591326778603e-05
4.12147656642915e-07,1.2033116605275155e-06,5.871646035756023e-07,3.227692117396322e-05
4.197110345493553e-07,1.1963542058269895e-06,5.916676505184643e-07,3.2145944896034915e-05
4.272093455784626e-07,1.1887255317499146e-06,5.961428997760182e-07,3.201407754678045e-05
4.346096315291893e-07,1.1804338961113494e-06,6.005831702664831e-07,3.188213724431721e-05
4.418780960283557e-07,1.1714835375805964e-06,6.04979378839475e-07,3.1750619564108445e-05
4.489819796095973e-07,1.1618751718790837e-06,6.093191352922062e-07,3.161969439652189e-05
4.558903606653058e-07,1.151607409537591e-06,6.135912915702492e-07,3.1489257640867214e-05
4.625737332658848e-07,1.140678212679125e-06,6.177917348815283e-07,3.1359015855421315e-05
4.6900381788978006e-07,1.1290857932511234e-06,6.219237558315816e-07,3.122855349242303e-05
4.7515355143481826e-07,1.1168302673978914e-06,6.259952369936119e-07,3.109734228171841e-05
4.809969736156147e-07,1.1039164625534781e-06,6.300174166186508e-07,3.096471768440053e-05
4.865096116818589e-07,1.0903545989126732e-06,6.340032568061281e-07,3.0829887977656e-05
4.916692253796198e-07,1.076158080056041e-06,6.379641889908816e-07,3.0691993669718436e-05
4.964564475137099e-07,1.0613429954258995e-06,6.419090428041946e-07,3.0550177100655325e-05
5.00855452536349e-07,1.045930956363653e-06,6.458454037760128e-07,3.040362692921313e-05
5.048536060398179e-07,1.0299513900758464e-06,6.49779205886235e-07,3.0251596266764952e-05
5.084395958883863e-07,1.013440994408275e-06,6.537117148596349e-07,3.009342296364444e-05
5.116022191718737e-07,9.964419290500351e-07,6.576370399360207e-07,2.992857603149787e-05
5.143308752692688e-07,9.79000050837157e-07,6.615419577019646e-07,2.975670511883448e-05
5.166165268460072e-07,9.611637804195768e-07,6.654070694436494e-07,2.957763940272924e-05
5.184521984812011e-07,9.429845680741095e-07,6.692083646357367e-07,2.9391322387882957e-05
5.198330895921399e-07,9.245175582730185e-07,6.729191218465322e-07,2.919773027487746e-05
5.207571366333993e-07,9.058212076126171e-07,6.765128650605784e-07,2.899682376184669e-05
5.212263977086808e-07,8.869588404370836e-07,6.799687107555336e-07,2.8788573059012078e-05
5.212483164503261e-07,8.680013652457541e-07,6.832768374091808e-07,2.8573070195183917e-05
5.208364769462193e-07,8.490243856559402e-07,6.864385536756807e-07,2.835061922059659e-05
5.200109317926333e-07,8.301013148450941e-07,6.894599967803074e-07,2.8121669639921124e-05
5.187966476284681e-07,8.113018531330119e-07,6.923451477941558e-07,2.7886654859532527e-05
5.172196893649693e-07,7.926950853717798e-07,6.950939944345022e-07,2.764589701336856e-05
5.153044175102533e-07,7.743489627571592e-07,6.977046455371682e-07,2.739964031901895e-05
5.130744254879119e-07,7.563277286093818e-07,7.001739439989293e-07,2.714816177357409e-05
5.1055553582804e-07,7.386936811943998e-07,7.024973419266549e-07,2.689183140834728e-05
5.077775906876506e-07,7.215094442637585e-07,7.046723722059392e-07,2.663104971943232e-05
5.047737274108699e-07,7.048350069360007e-07,7.067026234092134e-07,2.636614549446905e-05
5.015779637995006e-07,6.887251547509675e-07,7.085966451249512e-07,2.609734515728036e-05
4.982230731826061e-07,6.732336774182572e-07,7.103645118139786e-07,2.582484407542413e-05
4.947397964440594e-07,6.584199317401282e-07,7.120173831915336e-07,2.5548967460614465e-05
4.911569484579494e-07,6.443514009090652e-07,7.135690119598953e-07,2.527034665193172e-05
4.875023069880646e-07,6.311012035993723e-07,7.150365223712705e-07,2.498996748355137e-05
4.838034400905773e-07,6.18741241951787e-07,7.164393825957315e-07,2.4709038832599852e-05
4.800873234652343e-07,6.073332154465313e-07,7.177955551941482e-07,2.442877719985111e-05
4.763799787438879e-07,5.969224901405939e-07,7.191170553152413e-07,2.4150229508267904e-05
4.7270632341517437e-07,5.875377870691984e-07,7.204081518640427e-07,2.3874196331799067e-05
4.690885338846838e-07,5.791940303363631e-07,7.216659546936517e-07,2.360123643397981e-05
4.655441678509781e-07,5.718953505541921e-07,7.228818847889303e-07,2.3331723650371123e-05
4.620862587290549e-07,5.656388191987006e-07,7.240438214369769e-07,2.306598865912753e-05
4.587246495006197e-07,5.604195167571043e-07,7.251391572800935e-07,2.280457515998152e-05
4.55466891837774e-07,5.562356720460599e-07,7.261566929033122e-07,2.2548485588081672e-05
4.5231855391745607e-07,5.530903458916794e-07,7.270849641382695e-07,2.2299195159684235e-05
4.4928381175816486e-07,5.509868768711983e-07,7.27909457948934e-07,2.2058438359151778e-05
4.4636605495607317e-07,5.499224574213026e-07,7.286125045693302e-07,2.1827975368119973e-05
4.4356749537406723e-07,5.498866025915032e-07,7.291749807193016e-07,2.1609424786908552e-05
4.4088904210767117e-07,5.508658349251643e-07,7.295780549250765e-07,2.1404190738731935e-05
4.3833171990028715e-07,5.528525415047047e-07,7.298054528782572e-07,2.121361158412597e-05
4.3589748771662457e-07,5.558532326176755e-07,7.298458812615036e-07,2.10392689448575e-05
4.335882336090839e-07,5.598897107641583e-07,7.296943728279473e-07,2.088313599196761e-05
4.31404750876612e-07,5.649920241145932e-07,7.293522224684641e-07,2.0747460052742497e-05
4.29346922592502e-07,5.711887653596656e-07,7.288252953955915e-07,2.063456979843024e-05
4.27414750254564e-07,5.784996312767379e-07,7.281202630118858e-07,2.0546727240501976e-05
4.2560857863912595e-07,5.869302771026431e-07,7.272403495276732e-07,2.0486008595494667e-05
4.239275906499861e-07,5.964697449795603e-07,7.261836248165394e-07,2.0454200135846813e-05
4.2236796156053406e-07,6.070913237637103e-07,7.249439002915558e-07,2.0452726703567104e-05
4.209224642355125e-07,6.187531811370607e-07,7.235120625600373e-07,2.0482622849093287e-05
4.19582075773064e-07,6.313971596199781e-07,7.218771710520289e-07,2.0544537271893813e-05
4.183377215676271e-07,6.449498096849985e-07,7.20028048129873e-07,2.0638735427894e-05
4.171801044666023e-07,6.593263691456438e-07,7.179555367516773e-07,2.076506206589874e-05
4.1609930638285677e-07,6.74433618687782e-07,7.156541713184719e-07,2.092288493762849e-05
4.150857763509512e-07,6.90170074468321e-07,7.131223998065199e-07,2.1111062857090923e-05
4.141304459731973e-07,7.064261986669865e-07,7.103612638871668e-07,2.132795344606247e-05
4.132232628630869e-07,7.230867149000244e-07,7.073720932227716e-07,2.1571492896742448e-05
4.123527365858664e-07,7.400333039007312e-07,7.041561010119033e-07,2.1839359464409423e-05
4.115073903351078e-07,7.571455343860978e-07,7.007173001504393e-07,2.2129139638499515e-05
4.106780780202965e-07,7.74301922762302e-07,6.970652122292057e-07,2.243842173810133e-05
4.0985942066824283e-07,7.91384076056916e-07,6.932139111818992e-07,2.2764851715116597e-05
4.0904851399614725e-07,8.08281847973378e-07,6.891789091565756e-07,2.3106205794353562e-05
4.082424385374738e-07,8.248949374585423e-07,6.849759715320058e-07,2.3460445840103706e-05
4.074381217696765e-07,8.411318551592695e-07,6.806235392483634e-07,2.382568598793847e-05
4.0663409683017796e-07,8.569095584289346e-07,6.761467294205465e-07,2.420006405857581e-05
4.0583052156474155e-07,8.721522747761394e-07,6.715781272138424e-07,2.4581594433143866e-05
4.050273622609046e-07,8.867887640807985e-07,6.669532087952375e-07,2.496810531851157e-05
4.042239976765682e-07,9.007510732328687e-07,6.623058929855674e-07,2.5357295855627748e-05
4.034207802556404e-07,9.139752347300449e-07,6.576697212815434e-07,2.574682980580756e-05
4.0262011654037646e-07,9.264018513416806e-07,6.530832265832947e-07,2.6134364786246773e-05
4.018255058927454e-07,9.379756146101328e-07,6.48595221795986e-07,2.651753191235196e-05
4.0103963297517377e-07,9.486441766439986e-07,6.442654985360039e-07,2.6893957615576887e-05
4.0026325412217297e-07,9.583577821893525e-07,6.401584316682958e-07,2.726135394428277e-05
3.9949556034399033e-07,9.67070365850173e-07,6.363342481409614e-07,2.761759117866941e-05
3.9873691130344e-07,9.747418278292524e-07,6.328467079378752e-07,2.7960708858657783e-05
3.979926346898763e-07,9.813402515437865e-07,6.297491879423612e-07,2.82889718954948e-05
3.972741769988806e-07,9.868418646970885e-07,6.271008228246631e-07,2.860101078268321e-05
3.965970254401289e-07,9.912287666413211e-07,6.249635622480685e-07,2.8895916163061157e-05
3.959775815515221e-07,9.944872203412814e-07,6.233929494235992e-07,2.917322001305484e-05
3.954304403419271e-07,9.966083260606114e-07,6.224324158452903e-07,2.9432795713819042e-05
3.949665410543968e-07,9.975895112387408e-07,6.221126884138298e-07,2.9674697907781426e-05
3.945926716190946e-07,9.974343484973177e-07,6.224524267803927e-07,2.9898987109745923e-05
3.9431269089528477e-07,9.961514710755665e-07,6.234597671422271e-07,3.0105604965985107e-05
3.941291080979657e-07,9.937547726359387e-07,6.251362538724787e-07,3.029433091700984e-05
3.9404456130254093e-07,9.90263992365248e-07,6.274815517744215e-07,3.0464812981453582e-05
3.9406412570584135e-07,9.857035865172149e-07,6.304950294480277e-07,3.0616628351771446e-05
3.941962307408104e-07,9.80100462511628e-07,6.341749780676685e-07,3.074933107543023e-05
3.944514571295624e-07,9.73482438640618e-07,6.385178983016975e-07,3.0862473771925375e-05
3.948424268209025e-07,9.65878812590797e-07,6.435155182496739e-07,3.0955624455826726e-05
3.953843721350461e-07,9.573259216931299e-07,6.491496282605614e-07,3.102848040415926e-05
3.9609447255809436e-07,9.478788574962916e-07,6.553905879387409e-07,3.108106332467533e-05
3.9699033375412323e-07,9.37620905095894e-07,6.622030289499826e-07,3.111375839739926e-05
3.9808700664216673e-07,9.266600564920826e-07,6.695561120852093e-07,3.112720570187936e-05
3.9939343902941117e-07,9.151147022037041e-07,6.7743332969799e-07,3.112227096429628e-05
4.009112379890342e-07,9.030991465864179e-07,6.858376595352289e-07,3.110004867069989e-05
4.0263582891133976e-07,8.907175461417518e-07,6.947898190796764e-07,3.106179831206119e-05
4.045578753002505e-07,8.78072026160046e-07,7.043202735390181e-07,3.1008886333599734e-05
4.0666382884360726e-07,8.652809980483251e-07,7.1445755861715e-07,3.094277214187808e-05
4.089363692595434e-07,8.524897309573445e-07,7.252171002049724e-07,3.0865039925426785e-05
4.1135496367300356e-07,8.398628700776781e-07,7.365954255188554e-07,3.077747967189392e-05
4.1389561956851307e-07,8.275709902216806e-07,7.485713648891512e-07,3.06821321606628e-05
4.165305618397532e-07,8.157842668243495e-07,7.61111723083875e-07,3.0581190477426825e-05
4.1922892199609643e-07,8.046709073885896e-07,7.741763513355028e-07,3.047680767465975e-05
4.219579530166965e-07,7.943937131174902e-07,7.877186671207856e-07,3.037093626737199e-05
4.24684605049719e-07,7.851022444633033e-07,8.016835258851514e-07,3.0265218548689392e-05
4.273784860205957e-07,7.769225235111873e-07,8.160067193063074e-07,3.0160934058036394e-05
4.3001529698640223e-07,7.699514194805994e-07,8.306165900012254e-07,3.0059064421854493e-05
4.3257670435005863e-07,7.64258901419169e-07,8.45435417838722e-07,2.996045605408856e-05
4.3504628221233595e-07,7.598917676830878e-07,8.603796314101818e-07,2.9865987586846485e-05
4.374067085440066e-07,7.568748108681761e-07,8.75360933486153e-07,2.977667222228101e-05
4.3964038848229533e-07,7.552118727360182e-07,8.902908735367387e-07,2.9693659879871162e-05
4.4173067734925116e-07,7.548875678725003e-07,9.050869192435213e-07,2.9618163568666973e-05
4.436624059765545e-07,7.558691045738599e-07,9.196749317074476e-07,2.955136953543617e-05
4.4542238484069385e-07,7.581091746963702e-07,9.339877170319792e-07,2.949436763241587e-05
4.469990270507665e-07,7.615519075547137e-07,9.479627668305548e-07,2.9448159748660108e-05
4.4838141439992284e-07,7.661419562750529e-07,9.615400302528414e-07,2.941383673759149e-05
4.4956015874321725e-07,7.718314647136285e-07,9.746605254798825e-07,2.939288532705517e-05
4.505294874002392e-07,7.785820989794889e-07,9.872661566115941e-07,2.9387355100481407e-05
4.512875668043479e-07,7.863644013223368e-07,9.99299150021695e-07,2.9399681210729607e-05
4.518354223246732e-07,7.951543939560594e-07,1.010702071378432e-06,2.9432308983678912e-05
4.521772528999739e-07,8.049282965432183e-07,1.02142101032867e-06,2.948734163023131e-05
4.523212777950901e-07,8.15657025873894e-07,1.0314094707499986e-06,2.956632684724257e-05
4.5227883932114237e-07,8.272997360906764e-07,1.0406283153018463e-06,2.9670405673469225e-05
4.5206312861980784e-07,8.397994419173884e-07,1.049042977340736e-06,2.980086063051937e-05
4.5168870921209686e-07,8.530846692164878e-07,1.056622150353005e-06,2.995956175266933e-05
4.511706219547308e-07,8.67074107180068e-07,1.0633384418058066e-06,3.0148903384456122e-05
4.5052331403439705e-07,8.816789750054979e-07,1.0691681529064275e-06,3.0371445759094537e-05
4.4976070674087906e-07,8.968028297205578e-07,1.0740888405487676e-06,3.062961418129878e-05
4.4889747925182503e-07,9.123417019269831e-07,1.078077256423846e-06,3.0925502761358695e-05
4.4795009867778647e-07,9.281871632283119e-07,1.0811098558822422e-06,3.1260689447652725e-05
4.4693614831482e-07,9.442328698924694e-07,1.0831645186601088e-06,3.16360552071717e-05
4.458745672910141e-07,9.603797078951323e-07,1.0842214921925342e-06,3.205166489666178e-05
4.4479006327817575e-07,9.7653454791216e-07,1.084263968576386e-06,3.2506727293588706e-05
4.437182220084672e-07,9.926063663929314e-07,1.0832808762658713e-06,3.299960003470868e-05
4.427051969029358e-07,1.0085056756191615e-06,1.0812716863520003e-06,3.3527830370436724e-05
4.4180123762233325e-07,1.0241468911399292e-06,1.078248305507087e-06,3.408826201527574e-05
4.410528178864768e-07,1.0394514136660792e-06,1.0742329860962287e-06,3.467719598712653e-05
4.404985678567004e-07,1.0543488609268823e-06,1.0692560453602314e-06,3.5290546685908866e-05
4.401705412560511e-07,1.0687745671347064e-06,1.0633537023588934e-06,3.5923967497790306e-05
4.400989232597229e-07,1.0826685049526888e-06,1.0565669996742969e-06,3.657294795484107e-05
4.403159491083108e-07,1.0959796240094988e-06,1.0489448299785722e-06,3.72328698880577e-05
4.408544194148537e-07,1.1086698200648157e-06,1.0405470526045444e-06,3.789904902904641e-05
4.4174164463390074e-07,1.120712253671203e-06,1.0314412695948622e-06,3.856681920686311e-05
4.429947438512008e-07,1.1320851488477695e-06,1.021694795678098e-06,3.923163269534792e-05
4.446198788688117e-07,1.142764750474965e-06,1.0113681854852326e-06,3.988910542312236e-05
4.4661304186829683e-07,1.1527233361093976e-06,1.000513024203425e-06,4.053500754332241e-05
4.489608634687311e-07,1.1619364483607589e-06,9.891724208234773e-07,4.116524468339585e-05
4.5164213754687566e-07,1.170392468814837e-06,9.773828435849883e-07,4.177584072396803e-05
4.5463024834907857e-07,1.1780928670780097e-06,9.651766922277833e-07,4.2362913714432754e-05
4.5789578792532283e-07,1.185044499464217e-06,9.525842100333384e-07,4.2922684686077535e-05
4.614081164592593e-07,1.1912538440644423e-06,9.39633868647804e-07,4.34515403837181e-05
4.6513514495286e-07,1.1967266367620872e-06,9.263526135927908e-07,4.3946079364927305e-05
4.690427227572011e-07,1.2014738087032092e-06,9.12767180968726e-07,4.440310254100396e-05
4.7309442000462925e-07,1.2055238331831312e-06,8.989052119400858e-07,4.481959739165948e-05
4.772509168365424e-07,1.208930827527808e-06,8.847953723188446e-07,4.519275960415105e-05
4.814697157575954e-07,1.2117677058452688e-06,8.704672155576843e-07,4.552003296025202e-05
4.857065879437221e-07,1.2141121731769443e-06,8.559511458717827e-07,4.579910901368311e-05
4.89918421433949e-07,1.21603776384595e-06,8.412788023642512e-07,4.602788655615261e-05
4.940657629230864e-07,1.2176109537623422e-06,8.264833217741732e-07,4.620445472242578e-05
4.981143124441391e-07,1.2188912371189933e-06,8.115982187091758e-07,4.6327119735431326e-05
5.020359712258916e-07,1.2199307616379177e-06,7.966555311934749e-07,4.6394445345601315e-05
5.058085396888432e-07,1.2207725025441687e-06,7.816852263122002e-07,4.640531149858298e-05
5.094129717060551e-07,1.2214495502732141e-06,7.667173925950459e-07,4.635902870353617e-05
5.128302069587276e-07,1.2219850551167777e-06,7.517870386498055e-07,4.625546094952162e-05
5.160404355222323e-07,1.2223905995986285e-06,7.369378956450503e-07,4.609503644120466e-05
5.19024897906149e-07,1.2226645846719161e-06,7.222209307103705e-07,4.587861764900807e-05
5.217675322800404e-07,1.2227932349099643e-06,7.076893683456319e-07,4.560731308324815e-05
5.242544829050446e-07,1.2227541707360625e-06,6.933964920269411e-07,4.528233096694657e-05
5.264724382708702e-07,1.2225216272618343e-06,6.793970605123236e-07,4.490493630949491e-05
5.284076462387696e-07,1.2220724605990905e-06,6.657483795212083e-07,4.4476480993772744e-05
5.300462810112916e-07,1.221389916678358e-06,6.525104253914852e-07,4.399844334899832e-05
5.31375192046497e-07,1.2204623208965214e-06,6.397447703205108e-07,4.347254931916339e-05
5.323820730839481e-07,1.2192800991664062e-06,6.275099996692048e-07,4.290107908741156e-05
5.330552915984917e-07,1.217836336991987e-06,6.158569633031372e-07,4.228717706190794e-05
5.333834452805998e-07,1.2161292362865005e-06,6.048290468726377e-07,4.163485171076036e-05
5.333550095725061e-07,1.214163295560263e-06,5.944641997794765e-07,4.0948661558765995e-05
5.32958909231844e-07,1.2119483171704572e-06,5.847949082842558e-07,4.0233327506737624e-05
5.321856646840791e-07,1.2094949357755486e-06,5.758499372069303e-07,3.9493466458200424e-05
5.31027960054754e-07,1.2068105502259337e-06,5.676608758412474e-07,3.873359167276878e-05
5.294802878240703e-07,1.2039020780302477e-06,5.602689110993787e-07,3.795839621228952e-05
5.275384879673734e-07,1.2007833442516687e-06,5.537243413396911e-07,3.717304517834573e-05
5.251998795600839e-07,1.1974786842424822e-06,5.480782171745685e-07,3.6383194616618536e-05
5.224641183341603e-07,1.1940189548908337e-06,5.433744657509582e-07,3.559478702699737e-05
5.193344023822253e-07,1.1904349445204094e-06,5.396497742681691e-07,3.4813817677585946e-05
5.158175688225335e-07,1.1867542789371858e-06,5.369388589269855e-07,3.404614505991707e-05
5.119229391273961e-07,1.1830008803188469e-06,5.352772084566574e-07,3.329732803055061e-05
5.076625136493593e-07,1.179193325393678e-06,5.346977157051548e-07,3.257248008512443e-05
5.030533029413762e-07,1.1753437429794918e-06,5.352240361196014e-07,3.1876153222922595e-05
4.98118374322041e-07,1.1714605493031176e-06,5.368650156052402e-07,3.12122513134264e-05
4.928844327837512e-07,1.167553149637672e-06,5.396124999991226e-07,3.0583955250264084e-05
4.873786847676813e-07,1.1636358813571275e-06,5.43441943130354e-07,2.9993653722140547e-05
4.816275995740225e-07,1.1597303896592554e-06,5.483138925509104e-07,2.94429116875425e-05
4.7565686144808504e-07,1.1558646694061678e-06,5.541756044825451e-07,2.8932514802388964e-05
4.694917513104045e-07,1.1520685036461315e-06,5.609627190160074e-07,2.8462579792269252e-05
4.631572247955598e-07,1.1483676675532726e-06,5.68602024552395e-07,2.8032708628585998e-05
4.566766275772386e-07,1.1447795565335475e-06,5.770173396413997e-07,2.764217850464105e-05
4.500706729930894e-07,1.1413114382683891e-06,5.861352349638814e-07,2.7290118302099082e-05
4.4335892876729146e-07,1.1379602190488384e-06,5.958842620519413e-07,2.697560387758999e-05
4.365623439919568e-07,1.134713228817749e-06,6.061909392772371e-07,2.669767542185124e-05
4.297038200420209e-07,1.1315506477559245e-06,6.16982544668699e-07,2.645532373364745e-05
4.2280652066755354e-07,1.128448340359295e-06,6.281970664695993e-07,2.6247462583119705e-05
4.1589166540212424e-07,1.1253794314546029e-06,6.397901769183748e-07,2.607289758589996e-05
4.0897725571762923e-07,1.1223166870834924e-06,6.517329533044396e-07,2.5930317946777864e-05
4.02078763476201e-07,1.1192375637738309e-06,6.640024812139549e-07,2.5818303828492333e-05
3.9521183570912925e-07,1.1161260828018441e-06,6.765719435849243e-07,2.573530868758829e-05
3.883944435379592e-07,1.1129673814340215e-06,6.894074862736308e-07,2.567964083651891e-05
3.816457032158717e-07,1.1097429427118917e-06,7.024708298051875e-07,2.564950373097587e-05
3.74982969536676e-07,1.1064361710891705e-06,7.157197690564093e-07,2.5643052494296004e-05
3.684210707348825e-07,1.1030462847829454e-06,7.291067465560204e-07,2.5658401160280278e-05
3.6197422370851344e-07,1.0995986382119043e-06,7.425812967550701e-07,2.5693606389683725e-05
3.556579027591111e-07,1.0961438357519171e-06,7.560950332960577e-07,2.574666926444469e-05
3.4948924741221124e-07,1.0927479125536505e-06,7.69603413367128e-07,2.581555562410001e-05
3.4348706373327785e-07,1.0894790354696e-06,7.830631712705528e-07,2.589819724362344e-05
3.376721222331975e-07,1.0863967549180236e-06,7.964300123746858e-07,2.5992440577582322e-05
3.320673355471395e-07,1.0835478417331499e-06,8.0965989066005e-07,2.6095984910994487e-05
3.266968399923265e-07,1.0809661503141443e-06,8.227112626580611e-07,2.620638827029421e-05
3.2158372403165977e-07,1.0786717137148028e-06,8.35544134244027e-07,2.632116567141382e-05
3.167482689837247e-07,1.0766700145109483e-06,8.481163545565969e-07,2.643794945863721e-05
3.122080975942286e-07,1.0749551398124843e-06,8.603817138889204e-07,2.655467120549885e-05
3.079797441550375e-07,1.0735140418315805e-06,8.722926718196781e-07,2.6669690935138972e-05
3.040803299697041e-07,1.0723264400206332e-06,8.838053340682329e-07,2.678177770856777e-05
3.005269196937304e-07,1.0713621440462329e-06,8.948809596754764e-07,2.6889943540510198e-05
2.973336276239226e-07,1.0705806268107543e-06,9.054818035878276e-07,2.6993238770903447e-05
2.945106852641951e-07,1.0699335385955768e-06,9.155664173273195e-07,2.709062696054387e-05
2.920671064694744e-07,1.0693696713136223e-06,9.250901344961063e-07,2.718098584382164e-05
2.9001312351961277e-07,1.0688417075325407e-06,9.340102201977879e-07,2.726316668442585e-05
2.883590115214009e-07,1.0683106794086264e-06,9.422909113486305e-07,2.733602726446903e-05
2.87112592254384e-07,1.067745076571987e-06,9.499047419617004e-07,2.739849458371029e-05
2.8627939632779076e-07,1.0671170626953475e-06,9.568300980750677e-07,2.744980559715656e-05
2.858640445407707e-07,1.0663986567762994e-06,9.63048290361348e-07,2.7489837350642377e-05
2.858704824406426e-07,1.0655592614722507e-06,9.685442593805777e-07,2.7519200549394012e-05
2.8630341743326394e-07,1.064565960945406e-06,9.733110410213876e-07,2.7539032630422773e-05
2.871710581882617e-07,1.0633854091899865e-06,9.773535307992583e-07,2.75507189730154e-05
2.8848590924720174e-07,1.061985199779432e-06,9.80687991895256e-07,2.755566977367351e-05
2.902632483734272e-07,1.0603343911629702e-06,9.833377043767416e-07,2.755521892362555e-05
2.925184778902287e-07,1.0584044636484009e-06,9.853274837771705e-07,2.7550763590385602e-05
2.9526491128168566e-07,1.0561715614240135e-06,9.866812582664395e-07,2.754404228257943e-05
2.9851227290435646e-07,1.0536166789531375e-06,9.874245333011499e-07,2.753724618124471e-05
3.0226416677651304e-07,1.050722139148313e-06,9.875887293830948e-07,2.753289498166173e-05
3.0651639255286106e-07,1.04746911718645e-06,9.87214352395478e-07,2.753364828171933e-05
3.112585522235011e-07,1.0438387929861964e-06,9.863502940476012e-07,2.7542139749327e-05
3.164757254606937e-07,1.0398138476289913e-06,9.850474753735829e-07,2.7560819659904376e-05
3.221475616362027e-07,1.035377773854335e-06,9.833510213875185e-07,2.759181839068097e-05
3.282473042505423e-07,1.0305149849332845e-06,9.812966585709732e-07,2.763687086391073e-05
3.347428510206432e-07,1.025214875270621e-06,9.789108649190658e-07,2.7697314464788396e-05
3.415985209441012e-07,1.0194762833864465e-06,9.762113866054995e-07,2.7774133151748876e-05
3.4877682523177664e-07,1.0133076069916257e-06,9.732076349094809e-07,2.7867979961574608e-05
3.5624122571978394e-07,1.0067235045485444e-06,9.699018811125971e-07,2.7979118359068214e-05
3.6395870404799156e-07,9.997421579465346e-07,9.662918562573816e-07,2.810731694487212e-05
3.719002971580358e-07,9.92384703973522e-07,9.623752316765031e-07,2.825179233602687e-05
3.800405846403598e-07,9.84674439966715e-07,9.581544073667141e-07,2.841125770262572e-05
3.8835703265014993e-07,9.7663585313867e-07,9.536379797837892e-07,2.8584070671641302e-05
3.968284417156051e-07,9.682977952698936e-07,9.488374518169868e-07,2.8768417915969768e-05
4.0543253832652934e-07,9.596990824940957e-07,9.437622603029177e-07,2.89624546805331e-05
4.1414370448146096e-07,9.508899443486627e-07,9.384167363151772e-07,2.916438108740131e-05
4.229321771122932e-07,9.419303241873276e-07,9.328000789445624e-07,2.9372494862320686e-05
4.317649220668347e-07,9.328887543807105e-07,9.269086705698593e-07,2.958522400891878e-05
4.4060657252432364e-07,9.238396730577585e-07,9.207385998854084e-07,2.9801112320867107e-05
4.494200762376052e-07,9.148612071111521e-07,9.142864114711581e-07,3.001877151722808e-05
4.581674551280257e-07,9.060383402890549e-07,9.075484042697201e-07,3.02368351280592e-05
4.668098993577467e-07,8.974658932361654e-07,9.005203398425499e-07,3.045390723604763e-05
4.753073395830672e-07,8.892446600443419e-07,8.931989425224493e-07,3.0668502639781595e-05
4.836184695537181e-07,8.814744740181116e-07,8.855842245603275e-07,3.0879040812258284e-05
4.917023351554873e-07,8.742486011362286e-07,8.776804817799152e-07,3.1083909539379326e-05
4.995223056935475e-07,8.676501497113861e-07,8.694963750249649e-07,3.1281525584498125e-05
5.070489934322047e-07,8.617548554733019e-07,8.61045759487434e-07,3.1470369798937384e-05
5.142582252380282e-07,8.566396556642796e-07,8.523491997388319e-07,3.164901923004742e-05
5.211279180759188e-07,8.523852182833622e-07,8.434350990469916e-07,3.1816169775660776e-05
5.276388505611942e-07,8.490681646887214e-07,8.343383002769861e-07,3.197061958257902e-05
5.337771294653473e-07,8.467509941285035e-07,8.250956179815387e-07,3.211118483905792e-05
5.395343131196944e-07,8.454753866747031e-07,8.157414395983687e-07,3.2236605028014784e-05
5.449046321847363e-07,8.452596903095714e-07,8.06305073643373e-07,3.234554764511627e-05
5.498818019810939e-07,8.460998482473679e-07,7.96809221574283e-07,3.243671305282245e-05
5.544584890962245e-07,8.479728620145554e-07,7.872702880032741e-07,3.2508964633621625e-05
5.586278813195611e-07,8.508424985655596e-07,7.777008962606141e-07,3.25614797666116e-05
5.623845433750932e-07,8.546650159115065e-07,7.681126575643723e-07,3.259391973354545e-05
5.657246175223292e-07,8.593918671086584e-07,7.585181218421774e-07,3.260650417201253e-05
5.686470640559074e-07,8.649702443720335e-07,7.489339939774323e-07,3.2599891074298784e-05
5.711555967902663e-07,8.713443235176201e-07,7.393867733731949e-07,3.257491522797467e-05
5.732596047693306e-07,8.784565022438931e-07,7.299171562007944e-07,3.2532339898888094e-05
5.749737948968864e-07,8.862454136840055e-07,7.205784963415685e-07,3.247275204485106e-05
5.763169953106761e-07,8.946432375305538e-07,7.114294335064892e-07,3.239658441394367e-05
5.773095052940364e-07,9.035801301544279e-07,7.025260125370753e-07,3.230414295940939e-05
5.779698649739619e-07,9.129944812359396e-07,6.93920671010496e-07,3.219563362569614e-05
5.783131128531036e-07,9.228376044774001e-07,6.856698233601592e-07,3.207134632995187e-05
5.783508485724737e-07,9.330681735243948e-07,6.778417991503882e-07,3.1931989029378465e-05
5.780923620413605e-07,9.436426073397616e-07,6.705182525301739e-07,3.177887052641363e-05
5.775453320661645e-07,9.545083286807164e-07,6.637901558810111e-07,3.161376930092459e-05
5.76715220203982e-07,9.656016063989216e-07,6.577492494083328e-07,3.143865570137305e-05
5.756048161186751e-07,9.768487997944576e-07,6.524761985270801e-07,3.1255443748167495e-05
5.742146576842199e-07,9.8817055816344e-07,6.480322435751775e-07,3.1065866796334993e-05
5.725436004522147e-07,9.994879736758986e-07,6.444584008650279e-07,3.087161382831756e-05
5.705897156905094e-07,1.010728835759756e-06,6.417785259212275e-07,3.067467269383705e-05
5.683517740900414e-07,1.0218320154764923e-06,6.400030911643152e-07,3.0477539958042403e-05
5.658305102467425e-07,1.0327466230589123e-06,6.391345022262353e-07,3.028314717090144e-05
5.630288507586134e-07,1.0434255683709994e-06,6.391734300389256e-07,3.009467239561397e-05
5.599520712775899e-07,1.05381899960249e-06,6.401224261919919e-07,2.9915357380763428e-05
5.566088168495676e-07,1.063871747419345e-06,6.41984357107687e-07,2.9748327461131e-05
5.530110737370335e-07,1.0735233687054292e-06,6.44757581185449e-07,2.959642661077063e-05
5.491720900523509e-07,1.0827106979495891e-06,6.484321345845718e-07,2.946210843163427e-05
5.451042423561903e-07,1.0913772318369094e-06,6.529905605560646e-07,2.9347396871677447e-05
5.408181156171296e-07,1.0994873241213207e-06,6.584130188695519e-07,2.925388326682911e-05
5.363225921243918e-07,1.107032888940849e-06,6.646828301298443e-07,2.9182707271210023e-05
5.316256441466045e-07,1.1140251306048679e-06,6.717906556549941e-07,2.913450752892264e-05
5.267359886386344e-07,1.1204786062166988e-06,6.797355921763217e-07,2.9109379301565703e-05
5.216660087297003e-07,1.126400636550613e-06,6.885189979464462e-07,2.910686467116089e-05
5.164342481824832e-07,1.1317913241478977e-06,6.981328402874575e-07,2.9125984484881786e-05
5.110650265277656e-07,1.1366481312971814e-06,7.085514900830019e-07,2.9165340008933385e-05
5.055866602376579e-07,1.1409664240730641e-06,7.197314817896952e-07,2.9223283148756846e-05
5.000303492588325e-07,1.1447363457169198e-06,7.316153485372984e-07,2.9298086550018532e-05
4.944280575291162e-07,1.1479434644421423e-06,7.441344575639563e-07,2.938805303637348e-05
4.888088249049103e-07,1.1505741350888204e-06,7.572105688925174e-07,2.9491586106250606e-05
4.831960358425748e-07,1.1526182009226174e-06,7.707584927412072e-07,2.9607257902142072e-05
4.776073207657382e-07,1.1540683593600989e-06,7.846898990794266e-07,2.973384427733656e-05
4.720571581465127e-07,1.1549253751043716e-06,7.989158596561448e-07,2.9870283200191576e-05
4.6656086277416966e-07,1.1552083307211305e-06,8.133475904960538e-07,3.0015573592817967e-05
4.6113659253142205e-07,1.1549570426602372e-06,8.278996642502442e-07,3.0168657808597882e-05
4.558033896797374e-07,1.1542281455449145e-06,8.424982285568408e-07,3.032831759844735e-05
4.5057810982712357e-07,1.153094957300653e-06,8.570872482620345e-07,3.0493148254753113e-05
4.4547464997294027e-07,1.1516440362410562e-06,8.71624056091262e-07,3.066164052530575e-05
4.405055996046232e-07,1.1499615302533677e-06,8.860677219700882e-07,3.083226730222353e-05
4.3568635274539864e-07,1.1481201112396723e-06,9.003731267698052e-07,3.1003493032664006e-05
4.310401184713148e-07,1.1461759249459135e-06,9.144957743370741e-07,3.117376223461233e-05
4.265987299559474e-07,1.1441726876165643e-06,9.283990922491709e-07,3.134154136210507e-05
4.2239877068613227e-07,1.142146851714283e-06,9.420557837050431e-07,3.150537300952382e-05
4.184779580733709e-07,1.1401304701484098e-06,9.554439485993564e-07,3.166384605573997e-05
4.1487323773015135e-07,1.1381506403067437e-06,9.685425219794156e-07,3.181549784738264e-05
4.1161907282485365e-07,1.1362271210308757e-06,9.813286883590424e-07,3.1958757025457865e-05
4.0874656706046025e-07,1.1343704596358543e-06,9.937796360273847e-07,3.209198960763533e-05
4.062849281566857e-07,1.1325811982133049e-06,1.005878351170641e-06,3.221363039294161e-05
4.0426489736570846e-07,1.1308514582453214e-06,1.0176168132556245e-06,3.232235763157766e-05
4.027210087476745e-07,1.1291687366122744e-06,1.0289918283921758e-06,3.2417272889091564e-05
4.0168983619162345e-07,1.1275173678225077e-06,1.0399991953774643e-06,3.2498000615724546e-05
4.0120563402171223e-07,1.1258767005043512e-06,1.0506345952062665e-06,3.2564620764784304e-05
4.012964439030918e-07,1.1242206040764091e-06,1.0608994796912985e-06,3.261745216315104e-05
4.0198171822752617e-07,1.1225191983106356e-06,1.0708031776066956e-06,3.2656798564102344e-05
4.032713537087003e-07,1.1207399294867757e-06,1.0803583464154594e-06,3.2682790773508364e-05
4.051665784762378e-07,1.1188476882897447e-06,1.0895748074820965e-06,3.2695362839662813e-05
4.0766144096324467e-07,1.1168053873089053e-06,1.0984566613291398e-06,3.2694278845383384e-05
4.1074237519735176e-07,1.1145761175546403e-06,1.1070022956822549e-06,3.2679177537561655e-05
4.143871256208119e-07,1.112127382894884e-06,1.1152034806633268e-06,3.2649748180141355e-05
4.185654740208934e-07,1.109435290853969e-06,1.1230431471792936e-06,3.2606062951451864e-05
4.232408232181111e-07,1.1064856899559891e-06,1.1304951942973877e-06,3.25488114206584e-05
4.283714970267092e-07,1.1032717015458126e-06,1.1375261109664413e-06,3.247921845223857e-05
4.3391317451780117e-07,1.0997890276294644e-06,1.1440962410047057e-06,3.239875034685327e-05
4.398221296647031e-07,1.0960315837525313e-06,1.1501617854502609e-06,3.2308813823318234e-05
4.460553619575345e-07,1.0919902798983251e-06,1.1556779254038995e-06,3.221059560323437e-05
4.525682886693465e-07,1.0876568572125486e-06,1.1606006117536913e-06,3.210519851072419e-05
4.5931542069900724e-07,1.0830314294100747e-06,1.1648864278879705e-06,3.199401764039788e-05
4.6625378379836073e-07,1.0781271883194335e-06,1.1684923286656131e-06,3.187900098881131e-05
4.733447323996832e-07,1.0729692134446395e-06,1.1713757232453999e-06,3.1762605796013185e-05
4.805531841338264e-07,1.06759363371947e-06,1.1734942814847518e-06,3.164759319239563e-05
4.878453846737673e-07,1.0620488000087966e-06,1.1748059227708064e-06,3.15368062517984e-05
4.951864523678965e-07,1.056390953105082e-06,1.1752698124829392e-06,3.1432979899709524e-05
5.025395882349343e-07,1.050674128515674e-06,1.1748487028391899e-06,3.133861380723659e-05
5.098674623125197e-07,1.0449432229450694e-06,1.173512579253586e-06,3.1255907149504763e-05
5.171333783863992e-07,1.039234189286382e-06,1.1712426550897655e-06,3.1186720713295944e-05
5.243006500759414e-07,1.0335787267465654e-06,1.168034066221115e-06,3.1132545300808305e-05
5.313322139657281e-07,1.02800998474217e-06,1.1638957017479538e-06,3.109447339652943e-05
5.38191829931494e-07,1.0225641568263058e-06,1.1588465643054294e-06,3.107316057164449e-05
5.448455629292866e-07,1.0172760239643508e-06,1.1529103908924506e-06,3.106877328459131e-05
5.512624598873475e-07,1.0121745481223878e-06,1.1461114740879765e-06,3.1080954284204874e-05
5.574144485880443e-07,1.0072823821768902e-06,1.1384729959069412e-06,3.110884488137748e-05
5.632761563934501e-07,1.0026168968850809e-06,1.1300169397107999e-06,3.1151178596678584e-05
5.688250153744223e-07,9.98191706342257e-07,1.1207639259547849e-06,3.1206427672479996e-05
5.740406806550288e-07,9.940190765376346e-07,1.110732811713317e-06,3.127295392204453e-05
5.789038369864669e-07,9.901116840884977e-07,1.0999415591468392e-06,3.1349117459805616e-05
5.833965073704585e-07,9.864817242690952e-07,1.08841051503614e-06,3.143335088992924e-05
5.875035015056686e-07,9.831379849973151e-07,1.0761668699945672e-06,3.152422380178309e-05
5.912127996811643e-07,9.800832559671512e-07,1.063246341705596e-06,3.162048509551619e-05
5.945149909724686e-07,9.773147275829055e-07,1.049689894930238e-06,3.1721069436906925e-05
5.974028283865151e-07,9.748298016328716e-07,1.0355391583873042e-06,3.182506237400083e-05
5.998720151328286e-07,9.726343084133046e-07,1.020835973825983e-06,3.1931615008960205e-05
6.019230440435954e-07,9.707489505831085e-07,1.0056266790761723e-06,3.203983382668633e-05
6.035613891770927e-07,9.692140099502537e-07,9.899669065525044e-07,3.214871831017876e-05
6.047950575482179e-07,9.680874988170756e-07,9.739235649553905e-07,3.2257185713838445e-05
6.056318361327509e-07,9.674323953248574e-07,9.575729145861529e-07,3.236411729569003e-05
6.060779262233971e-07,9.673011668913358e-07,9.409944066743192e-07,3.2468346961999165e-05
6.06137849553536e-07,9.6772830508094e-07,9.242646730599651e-07,3.256862011668215e-05
6.058154563050304e-07,9.687320352099371e-07,9.074578677825413e-07,3.266360616019923e-05
6.051152888982104e-07,9.70319204166391e-07,8.906501805740525e-07,3.2751956885619046e-05
6.040431587907295e-07,9.72487550882488e-07,8.739212093567062e-07,3.283230800445923e-05
6.026056232706752e-07,9.752242764045296e-07,8.573510742194469e-07,3.290320765785133e-05
6.008090621470092e-07,9.785041184526222e-07,8.410199489065781e-07,3.296307903492837e-05
5.986597877145239e-07,9.822892971211386e-07,8.250134233697403e-07,3.3010282813127474e-05
5.961654872315781e-07,9.86530726170557e-07,8.094258875983038e-07,3.3043251994003445e-05
5.933367684004968e-07,9.911704005705285e-07,7.943545155366191e-07,3.3060660884583216e-05
5.901872802503359e-07,9.961459556260802e-07,7.798894598765187e-07,3.306160139815041e-05
5.867319176715617e-07,1.0013955143676662e-06,7.661124830811115e-07,3.304569051105184e-05
5.82985147340006e-07,1.0068600847380769e-06,7.531071172395868e-07,3.3013008175444646e-05
5.789609100075657e-07,1.01248655328662e-06,7.409699785428109e-07,3.29638768236065e-05
5.746730611130504e-07,1.018231053326112e-06,7.298131092564589e-07,3.28986347598548e-05
5.701369792588554e-07,1.0240552446663309e-06,7.197567930216734e-07,3.281753394770966e-05
5.653725321980553e-07,1.0299180580605715e-06,7.109170717156255e-07,3.2720742111720544e-05
5.604046521007543e-07,1.03577226162329e-06,7.033939481632576e-07,3.26083702190609e-05
5.552603211952379e-07,1.041567222438001e-06,6.972671441877869e-07,3.2480506695805594e-05
5.499655333463017e-07,1.0472542538678895e-06,6.926008037092789e-07,3.233731810978296e-05
5.445443530679403e-07,1.0527892145398977e-06,6.894490143501899e-07,3.2179284295417914e-05
5.39019127535536e-07,1.0581292139969894e-06,6.878540700140334e-07,3.2007441792417096e-05
5.334110778018635e-07,1.0632276804135364e-06,6.878409551998871e-07,3.1823389614366184e-05
5.277411473137079e-07,1.068032806250469e-06,6.894163902421219e-07,3.1629057469365955e-05
5.220302042856153e-07,1.0724884443160495e-06,6.925723931477367e-07,3.1426428049575095e-05
5.162981484693335e-07,1.076535210299966e-06,6.972877209820431e-07,3.121735336991679e-05
5.105628755283107e-07,1.0801127820773206e-06,7.03525477984776e-07,3.1003602152049076e-05
5.048408463666254e-07,1.0831639490001013e-06,7.112313468254329e-07,3.0787146294140005e-05
4.991497140960348e-07,1.0856376568281842e-06,7.20334434223455e-07,3.057039577423531e-05
4.935098152069092e-07,1.0874891702718585e-06,7.307504377500081e-07,3.0356151442884558e-05
4.879417722697078e-07,1.0886790621246948e-06,7.423867331118974e-07,3.0147381348303143e-05
4.824627745931528e-07,1.0891725625138835e-06,7.551458100024701e-07,2.994700551048957e-05
4.770850420887324e-07,1.0889396294292085e-06,7.689252658335736e-07,2.9757756491628827e-05
4.7181605304491e-07,1.0879574000960638e-06,7.83618549568272e-07,2.9582103736638165e-05
4.666590912429415e-07,1.086214774472835e-06,7.99120024942952e-07,2.9422202292526043e-05
4.616143713801919e-07,1.0837141849111854e-06,8.153314254834294e-07,2.927985076887368e-05
4.566808824310854e-07,1.080467323144508e-06,8.321640617833387e-07,2.91564773478878e-05
4.5185735535806816e-07,1.076489434130097e-06,8.495364520373629e-07,2.905315522766836e-05
4.471419063004953e-07,1.071798274008901e-06,8.673706668614824e-07,2.8970601970814893e-05
4.4253278043031455e-07,1.0664155429714529e-06,8.855882578762384e-07,2.8909124964500892e-05
4.380302248325981e-07,1.0603664093365656e-06,9.041069546287821e-07,2.8868544837022638e-05
4.3363642524063604e-07,1.0536796526045391e-06,9.228394213849786e-07,2.8848170418865508e-05
4.293535843888852e-07,1.0463899328540571e-06,9.41692481812014e-07,2.8846872988543574e-05
4.2518358333435437e-07,1.0385383951979255e-06,9.605678369315814e-07,2.8863243886864258e-05
4.2113062219038155e-07,1.030170561629505e-06,9.79366784632288e-07,2.8895763515005726e-05
4.1720388635468347e-07,1.0213342635528615e-06,9.979958394370917e-07,2.8942913180903533e-05
4.134168477092185e-07,1.0120797565237152e-06,1.0163690373209172e-06,2.900322872470662e-05
4.0978354901079704e-07,1.0024612860245924e-06,1.0344070135053574e-06,2.9075343276599046e-05
4.0631488460584405e-07,9.92537878034802e-07,1.0520338426263798e-06,2.9158035258411097e-05
4.0301694823726246e-07,9.823743719272351e-07,1.069173356966863e-06,2.925024531701801e-05
3.9989102174017547e-07,9.720433866199443e-07,1.085749873708625e-06,2.9351028403193843e-05
3.9693405583706653e-07,9.616229490716331e-07,1.1016964512210408e-06,2.9459448661888776e-05
3.941393086333579e-07,9.511882423326513e-07,1.1169657403800934e-06,2.95744638140343e-05
3.9149706613427365e-07,9.408055202854492e-07,1.131534081645212e-06,2.9694878608517786e-05
3.8899511700105596e-07,9.305326878680956e-07,1.1453958207448678e-06,2.9819399956765918e-05
3.866190081765343e-07,9.204212234926924e-07,1.1585536718148885e-06,2.994670347005841e-05
3.843524853110828e-07,9.105144805184408e-07,1.171011921556616e-06,3.0075434294652167e-05
3.8217856363129464e-07,9.008445086496463e-07,1.1827737758538882e-06,3.0204191914251527e-05
3.800815593524732e-07,8.914318939476202e-07,1.1938393952883522e-06,3.0331557333371706e-05
3.780487965895834e-07,8.822878801593481e-07,1.2042033835918413e-06,3.0456129186515063e-05
3.7607107728853796e-07,8.73415817642663e-07,1.2138544415599243e-06,3.057652801030141e-05
3.741439877640184e-07,8.648136597635961e-07,1.2227777339095327e-06,3.069142656127056e-05
3.722702243781388e-07,8.56477669240563e-07,1.2309575012356044e-06,3.079964128903279e-05
3.704597112495306e-07,8.484027908234478e-07,1.238377948038588e-06,3.0900211556109266e-05
3.6872645260906136e-07,8.405802930112496e-07,1.2450222508559865e-06,3.0992426188346134e-05
3.670845824974997e-07,8.329977981826982e-07,1.250871111688541e-06,3.107580126113568e-05
3.655461769292085e-07,8.256417455774859e-07,1.2559015198533762e-06,3.115000788432743e-05
3.6412037678994186e-07,8.184987658123738e-07,1.260085595177151e-06,3.1214774034455356e-05
3.628121250175381e-07,8.115560652255405e-07,1.2633909324191782e-06,3.126978238347846e-05
3.6162149448970606e-07,8.048024941664755e-07,1.265783226262582e-06,3.1314593535652646e-05
3.605455861449878e-07,7.982283409793062e-07,1.267229389993592e-06,3.134866386569044e-05
3.595820471330324e-07,7.918227835634517e-07,1.2676997062174958e-06,3.1371466671944545e-05
3.58730953246174e-07,7.855715843435035e-07,1.267169140949035e-06,3.1382603636257426e-05
3.579936646861948e-07,7.794575109949038e-07,1.2656176832069406e-06,3.138181561233937e-05
3.573706976365193e-07,7.734644772064764e-07,1.2630295947080291e-06,3.136891067889482e-05
3.5686105840664814e-07,7.675821278416359e-07,1.2593921424759995e-06,3.134371115218418e-05
3.564628224208387e-07,7.61807541653813e-07,1.2546950453528006e-06,3.1306115107600475e-05
3.561730149123199e-07,7.561473057248274e-07,1.248932716969683e-06,3.1256181987067465e-05
3.5598640844721497e-07,7.506189767771957e-07,1.2421081456110808e-06,3.1194118678330685e-05
3.5589522729464454e-07,7.452450819375413e-07,1.2342342809930902e-06,3.112022467373632e-05
3.558911845086461e-07,7.400439590199419e-07,1.2253328525842976e-06,3.103484868550079e-05
3.559682455646175e-07,7.350276917726892e-07,1.2154327219591378e-06,3.093834160810041e-05
3.561249785953625e-07,7.302054702879699e-07,1.204568201921435e-06,3.083102386069362e-05
3.563670416499575e-07,7.255844108120258e-07,1.1927785500110071e-06,3.0713169951497464e-05
3.567074917459776e-07,7.211668200622721e-07,1.1801079063070742e-06,3.0584974864955224e-05
3.5716304742152e-07,7.169484197778736e-07,1.1666025629236678e-06,3.0446498839245454e-05
3.57748962338462e-07,7.129205490948566e-07,1.1523070748941786e-06,3.029763689443803e-05
3.5847600591436035e-07,7.090748650326344e-07,1.137263258688117e-06,3.013813161843289e-05
3.593505224726473e-07,7.054065623480506e-07,1.121512072745293e-06,2.996760180366889e-05
3.603750745713107e-07,7.019154521904254e-07,1.1050958608374977e-06,2.978556687971352e-05
3.615477544416624e-07,6.986088290168827e-07,1.0880587748935933e-06,2.9591471630692577e-05
3.628616270320829e-07,6.955059074529621e-07,1.0704450502076223e-06,2.938472269330369e-05
3.6430571879058206e-07,6.926356641778254e-07,1.052297647851778e-06,2.916473858721291e-05
3.6586690257217564e-07,6.900261010164354e-07,1.033659681821597e-06,2.8930996474809398e-05
3.675306969999672e-07,6.876961684443507e-07,1.0145778314558468e-06,2.868304675044611e-05
3.692805249997206e-07,6.856593626431529e-07,9.951044446031334e-07,2.842049659212992e-05
3.7109716687743357e-07,6.839345669561781e-07,9.752973165701358e-07,2.814299392454636e-05
3.729589829246358e-07,6.825524641059451e-07,9.552196948155888e-07,2.785022785813455e-05
3.748423740423672e-07,6.815519050283122e-07,9.34939827005475e-07,2.754194444753753e-05
3.7672270604270404e-07,6.80971134230849e-07,9.145272351273607e-07,2.721797040120211e-05
3.785759918236721e-07,6.808403427472066e-07,8.940484213203352e-07,2.6878235923866166e-05
3.803810030405243e-07,6.811786503563147e-07,8.735666522446876e-07,2.652279092022043e-05
3.8212100042735746e-07,6.819951905636319e-07,8.531452263598809e-07,2.615181750859801e-05
3.837842852623312e-07,6.832900711567536e-07,8.328489559789171e-07,2.576565321236473e-05
3.853632734306342e-07,6.850533776532702e-07,8.127407694322454e-07,2.5364821145074083e-05
3.868522356391868e-07,6.872662412502285e-07,7.928777405425123e-07,2.495003796012028e-05
3.8824474886960347e-07,6.899091225071554e-07,7.73312051980499e-07,2.452217525685681e-05
3.8953293326873594e-07,6.92975745667479e-07,7.540951086741461e-07,2.40821829658532e-05
3.9070920859287226e-07,6.964800411987036e-07,7.35281123317166e-07,2.3631046928044612e-05
3.917680323560503e-07,7.00447404004794e-07,7.169310843396807e-07,2.316984774471887e-05
3.927051129430622e-07,7.049002998154752e-07,6.991162790599869e-07,2.269983401412348e-05
3.935153908381186e-07,7.098524673525513e-07,6.819168851446985e-07,2.222236518191204e-05
3.941925227605896e-07,7.153140641749709e-07,6.65414446994005e-07,2.173876816426255e-05
3.9473066947033366e-07,7.213026235881776e-07,6.496826005005136e-07,2.125026716772829e-05
3.9512719723785904e-07,7.278516265122723e-07,6.347834105681062e-07,2.075804165230993e-05
3.9538339763011064e-07,7.350094921949674e-07,6.207732960157895e-07,2.026337706425081e-05
3.9550225718597704e-07,7.428315539194671e-07,6.077133224126828e-07,1.9767825867215627e-05
3.95486214047276e-07,7.513717099425302e-07,5.956751759228726e-07,1.927324699658621e-05
3.953367447923564e-07,7.606740524415444e-07,5.8474044687614e-07,1.8781676654992334e-05
3.950551703259265e-07,7.707638914219957e-07,5.749955667041913e-07,1.8295131733711894e-05
3.946445831527733e-07,7.816420563345006e-07,5.665234787086106e-07,1.7815468226748848e-05
3.9411114404272794e-07,7.93284690080374e-07,5.593934933509846e-07,1.7344375203668806e-05
3.934624273476723e-07,8.056462882120215e-07,5.536534480769407e-07,1.6883525705671727e-05
3.927049959501785e-07,8.186637164568804e-07,5.493274011072065e-07,1.6434767835079158e-05
3.9184503781750157e-07,8.322601058959707e-07,5.464189719252496e-07,1.6000180939538613e-05
3.9089135578361773e-07,8.463473930970386e-07,5.449183137746683e-07,1.5581952267833742e-05
3.898567428283177e-07,8.608282217429968e-07,5.448076706374749e-07,1.5182162592442109e-05
3.887568262394117e-07,8.755991520326544e-07,5.460610101595322e-07,1.4802610317258466e-05
3.8760913378335644e-07,8.905537947060104e-07,5.486404949063813e-07,1.4444752404385938e-05
3.8643306677110206e-07,9.055842386754312e-07,5.524963419132902e-07,1.4109716848532165e-05
3.852483842877729e-07,9.205836791668079e-07,5.575724970173069e-07,1.3798331254957516e-05
3.840724350550029e-07,9.354513498882386e-07,5.638143487413758e-07,1.3511236780470605e-05
3.8291950223980544e-07,9.500965776842086e-07,5.711721342863211e-07,1.3249167190996644e-05
3.818020447144961e-07,9.644409697539223e-07,5.795983282048867e-07,1.3013249766253333e-05
3.8073037844823924e-07,9.78417799361613e-07,5.890444120072012e-07,1.2805054785200841e-05
3.797114661505763e-07,9.919670988505776e-07,5.994615976650062e-07,1.262637325114261e-05
3.7875010809819705e-07,1.0050316576883242e-06,6.108018903431246e-07,1.247893422434822e-05
3.778509622877514e-07,1.0175580603635613e-06,6.23014683914415e-07,1.2364201937499006e-05
3.770177838541379e-07,1.0294977386180578e-06,6.360418792648043e-07,1.2283348808286575e-05
3.7625141717621457e-07,1.0408068155991084e-06,6.498166823280298e-07,1.2237471972696594e-05
3.755503184999757e-07,1.0514492894396224e-06,6.64265292590276e-07,1.2227866420838271e-05
3.7491326101209996e-07,1.0614003959678397e-06,6.793073270014037e-07,1.2256075603431094e-05
3.743409145359937e-07,1.0706436506329563e-06,6.948543682598211e-07,1.2323749933172193e-05
3.73835591608536e-07,1.079164064828903e-06,7.108096321472556e-07,1.2432504144286785e-05
3.734011136630568e-07,1.086944160097988e-06,7.270695764825815e-07,1.258380920425294e-05
3.730433426613898e-07,1.0939630821511659e-06,7.43525571277194e-07,1.2778870550363295e-05
3.72770829797405e-07,1.1001964172930108e-06,7.600651194725019e-07,1.3018491740448555e-05
3.725956178190033e-07,1.1056182486863385e-06,7.765735329586838e-07,1.3302969764470286e-05
3.725330142648797e-07,1.1102063954334469e-06,7.929362766586045e-07,1.3632059158206551e-05
3.725987831127839e-07,1.113947128328923e-06,8.090417091571419e-07,1.4004986010910007e-05
3.7280604471162426e-07,1.1168370614889575e-06,8.247834377951262e-07,1.4420472828337396e-05
3.73164744491517e-07,1.1188845736458989e-06,8.400608328782642e-07,1.4876763929316554e-05
3.736826641926643e-07,1.1201108266630421e-06,8.547782860747207e-07,1.5371642549648186e-05
3.7436634721674564e-07,1.1205462882242654e-06,8.688458419382748e-07,1.5902428510569812e-05
3.7522065624811405e-07,1.1202228239136402e-06,8.82180918160511e-07,1.6466008460964857e-05
3.7624672240481453e-07,1.1191675430761738e-06,8.947082285746824e-07,1.7058956080185553e-05
3.7744056367003424e-07,1.1174013816843549e-06,9.063582115347551e-07,1.7677693449268446e-05
3.787934834114071e-07,1.114939964662751e-06,9.170673552680963e-07,1.831861424485572e-05
3.802935312883443e-07,1.1117963247248757e-06,9.267820314527443e-07,1.897816260014201e-05
3.8192708695636743e-07,1.1079865690463222e-06,9.354634870917349e-07,1.965289225528361e-05
3.836792405643069e-07,1.1035343549374414e-06,9.430891385978377e-07,2.0339494232743787e-05
3.8553315262010476e-07,1.098469088041532e-06,9.49647911936362e-07,2.103477124179621e-05
3.874702355526288e-07,1.0928229099489396e-06,9.551339762349364e-07,2.1735577726515225e-05
3.8947177439813204e-07,1.0866338587098516e-06,9.59544931403967e-07,2.2438755945130506e-05
3.915205031880129e-07,1.0799495529299484e-06,9.628839440182763e-07,2.314108493727121e-05
3.9360038888455297e-07,1.072822856038779e-06,9.651628874829626e-07,2.3839276577726785e-05
3.956953095351126e-07,1.065304723950746e-06,9.664081605078174e-07,2.453004867354568e-05
3.9778886228199677e-07,1.0574464702252195e-06,9.66666106131557e-07,2.5210224306442253e-05
3.998648565873426e-07,1.0493130944870756e-06,9.65999145109086e-07,2.587676835152568e-05
4.0190677452488406e-07,1.0409956210285469e-06,9.64474468484389e-07,2.652676611680385e-05
4.038968522603365e-07,1.0326102993034608e-06,9.621556556680865e-07,2.7157423044528673e-05
4.0581618693564477e-07,1.0242840946822158e-06,9.59101801223021e-07,2.776611313964937e-05
4.076464388595456e-07,1.0161369952850911e-06,9.553712359511718e-07,2.8350407788342967e-05
4.0937257035366275e-07,1.008272438978132e-06,9.510230710784544e-07,2.8908021036690807e-05
4.109847217210769e-07,1.000776480309084e-06,9.46113675203282e-07,2.943673652638563e-05
4.1247753634609386e-07,9.937183497051252e-07,9.406930285824344e-07,2.9934428276998475e-05
4.138476792392517e-07,9.871495993604886e-07,9.348045252628796e-07,3.039916977192964e-05
4.1509191196550934e-07,9.811042389982808e-07,9.2848685752911e-07,3.082933982635632e-05
4.162059020192536e-07,9.756012285522244e-07,9.217771676617996e-07,3.122370368451281e-05
4.171831899999601e-07,9.706485486902963e-07,9.147133992465384e-07,3.1581501047815056e-05
4.180160152169533e-07,9.662461645507649e-07,9.07332625188673e-07,3.1902479185084774e-05
4.186980347590896e-07,9.62386717792339e-07,8.996675697404163e-07,3.218678251626087e-05
4.192264916454815e-07,9.59055494742245e-07,8.917457342656593e-07,3.243473594015774e-05
4.196036683635912e-07,9.562318323475208e-07,8.835908756580742e-07,3.2646640031748336e-05
4.198380878557374e-07,9.538947608335534e-07,8.752240494915134e-07,3.2822666781394155e-05
4.199440478779724e-07,9.520302177325465e-07,8.666637955343944e-07,3.2962869065165685e-05
4.1993932059477437e-07,9.50631719913262e-07,8.579271896827051e-07,3.306724820835851e-05
4.198420157740815e-07,9.49693756791968e-07,8.49031005370032e-07,3.3135853930631745e-05
4.1966754099927227e-07,9.492050047631107e-07,8.399909194925216e-07,3.316900640422508e-05
4.194270619024459e-07,9.491469435548828e-07,8.308205569874782e-07,3.316762144164507e-05
4.191274858099622e-07,9.494986669865812e-07,8.215325227032561e-07,3.313335128560271e-05
4.187726049309526e-07,9.502426875005148e-07,8.121397380027428e-07,3.306839621468002e-05
4.183658926021132e-07,9.513654182780669e-07,8.026557969705529e-07,3.297519814504729e-05
4.17912652205344e-07,9.528524494686121e-07,7.930948313106544e-07,3.285620282242021e-05
4.174188388357696e-07,9.546837937413604e-07,7.834702246418184e-07,3.2713757580329866e-05
4.1688921000762633e-07,9.568345872543162e-07,7.737927146003237e-07,3.2550273326097803e-05
4.163275561841657e-07,9.592806806411771e-07,7.640707092645512e-07,3.23685858025604e-05
4.157370864574498e-07,9.620012906666654e-07,7.543124337694999e-07,3.21721478203204e-05
4.151206050152391e-07,9.64976766119882e-07,7.445271920763777e-07,3.196489887522893e-05
4.144827158873364e-07,9.681882484206743e-07,7.34727780754174e-07,3.175101248916984e-05
4.13833311472938e-07,9.716203248966752e-07,7.249361273407312e-07,3.153466865659672e-05
4.131905921857428e-07,9.752612289042091e-07,7.151862591881491e-07,3.131985085508706e-05
4.1258309414870135e-07,9.790986446938356e-07,7.055190999959516e-07,3.111017901011191e-05
4.1204832765975963e-07,9.831140304946196e-07,6.959746235944577e-07,3.090880957898521e-05
4.1162680178149576e-07,9.87279678871523e-07,6.865919399620618e-07,3.07184030969606e-05
4.113563764283395e-07,9.915601793723602e-07,6.77417707095277e-07,3.0541147029236494e-05
4.1127191856629576e-07,9.959163017288708e-07,6.685113407843143e-07,3.0378797263652862e-05
4.1140791798409687e-07,1.0003084608852508e-06,6.599408395209616e-07,3.0232680245732062e-05
4.117986590414662e-07,1.0046992517469944e-06,6.517758022599099e-07,3.0103650900530157e-05
4.124751872697614e-07,1.0090578260740448e-06,6.440833920047699e-07,2.9992047995474853e-05
4.134625471522953e-07,1.013364522927684e-06,6.36925211188895e-07,2.989769214042854e-05
4.1477867919606217e-07,1.0176076760242979e-06,6.303536710870289e-07,2.981997808367212e-05
4.164340828256332e-07,1.021773802588453e-06,6.244108968985435e-07,2.9758064746291572e-05
4.1843315898319936e-07,1.025842118472312e-06,6.191311624650179e-07,2.9711065346107056e-05
4.2077662920242254e-07,1.0297852609841915e-06,6.14542965746657e-07,2.9678140769756708e-05
4.234613335277101e-07,1.033570032651415e-06,6.106682669686057e-07,2.965852238073854e-05
4.2647736247621405e-07,1.0371566388075329e-06,6.075211301548575e-07,2.9651531618454835e-05
4.2980700548263635e-07,1.0404991044835156e-06,6.0510722677869e-07,2.9656580109425176e-05
4.3342807479048824e-07,1.0435512332573651e-06,6.034223903354999e-07,2.967312103275441e-05
4.3731840653988857e-07,1.046280493653258e-06,6.024504117167066e-07,2.9700587200687427e-05
4.414563564073893e-07,1.0486795379313299e-06,6.021632711962715e-07,2.9738326575109168e-05
4.4581822207742385e-07,1.050761769512523e-06,6.02525298888846e-07,2.9785515001812304e-05
4.503778469148156e-07,1.0525462544222848e-06,6.034997619538991e-07,2.9841112777914734e-05
4.5510947606935777e-07,1.0540464959938921e-06,6.050546971160283e-07,2.990391471894845e-05
4.5999054954357546e-07,1.0552686703031429e-06,6.071661030596756e-07,2.997260652840106e-05
4.650018142378294e-07,1.056220120516901e-06,6.098191269665335e-07,3.004577797830135e-05
4.7012585257327203e-07,1.0569236675578891e-06,6.13006478810115e-07,3.0121948529529333e-05
4.753462031196388e-07,1.0574257356301022e-06,6.167226986937879e-07,3.019962715581363e-05
4.806469142161272e-07,1.0577923288023399e-06,6.209569334999479e-07,3.0277353529918483e-05
4.860118230905663e-07,1.05809864192905e-06,6.256887353009197e-07,3.0353661129470264e-05
4.914231933939847e-07,1.0584197924611191e-06,6.308877395210286e-07,3.042699637475224e-05
4.96860030636712e-07,1.058825360335293e-06,6.365146350565279e-07,3.0495704656672773e-05
5.022973120905306e-07,1.059375211281367e-06,6.425217024044041e-07,3.055813921987466e-05
5.077060168354124e-07,1.060114647098578e-06,6.488535644811299e-07,3.0612868570670835e-05
5.130539560720014e-07,1.061072063500919e-06,6.554496718078185e-07,3.0658895821389464e-05
5.183085266261374e-07,1.0622600677239909e-06,6.622478220998286e-07,3.069575194846189e-05
5.234397016783494e-07,1.0636772511975798e-06,6.691861804779385e-07,3.072340663183935e-05
5.284207344847489e-07,1.0653099863587835e-06,6.762040040896508e-07,3.074206875000927e-05
5.332282493636249e-07,1.0671344466986325e-06,6.832424056380175e-07,3.075196312359624e-05
5.378425837531917e-07,1.0691189019317323e-06,6.902443549625781e-07,3.075318337754485e-05
5.422461822519378e-07,1.071226230880775e-06,6.971544843997822e-07,3.074569865047542e-05
5.464219469869085e-07,1.073416226526062e-06,7.039217952580071e-07,3.072944677676796e-05
5.503551487524454e-07,1.075648350655076e-06,7.105048755536236e-07,3.070438678389795e-05
5.540364059653536e-07,1.0778838268672735e-06,7.16875172556947e-07,3.067049006134737e-05
5.574607310603868e-07,1.0800857487079404e-06,7.230179361164731e-07,3.0627793554542746e-05
5.606238212674056e-07,1.0822193625234028e-06,7.289333733465961e-07,3.057660804305815e-05
5.635212231694235e-07,1.0842523838898836e-06,7.346361506776988e-07,3.051771606276873e-05
5.66150933072532e-07,1.0861556201710522e-06,7.401504767196979e-07,3.0452341781416027e-05
5.685155777496827e-07,1.0879079272286774e-06,7.455021530244151e-07,3.0381917826392968e-05
5.706236539100898e-07,1.0895006953830575e-06,7.50711481778627e-07,3.0307832691332268e-05
5.724905278503322e-07,1.0909328152928658e-06,7.557902679234784e-07,3.0231405199218043e-05
5.741379740921489e-07,1.0922014483469166e-06,7.607425215467196e-07,3.015414001808377e-05
5.755928286421206e-07,1.0933011051893852e-06,7.655656795916313e-07,3.0077938245972828e-05
5.768856702743649e-07,1.0942295451110165e-06,7.702509419205778e-07,3.0005037322378693e-05
5.78048774287217e-07,1.094987907212855e-06,7.747840816765796e-07,2.993781170139723e-05
5.791139955539025e-07,1.0955738955328631e-06,7.791480613692556e-07,2.987858469812104e-05
5.801112906362423e-07,1.0959784140664328e-06,7.833266891416769e-07,2.9829476590348714e-05
5.810665833136279e-07,1.0961889350527223e-06,7.8730781390315e-07,2.9792274066097364e-05
5.819990176386349e-07,1.0961941163932785e-06,7.910859853440838e-07,2.976832782557828e-05
5.829193559439495e-07,1.0959848786344363e-06,7.946629628710548e-07,2.975850762669136e-05
5.838298209129943e-07,1.0955532930470692e-06,7.980435311265917e-07,2.9763221531382945e-05
5.847248186092473e-07,1.0948939194125128e-06,8.012297354903516e-07,2.9782476392387602e-05
5.855923859638813e-07,1.094007147212007e-06,8.04218692076647e-07,2.981593994596495e-05
5.864158294148647e-07,1.092899906189407e-06,8.070042998777953e-07,2.9862977209915478e-05
5.871754462414536e-07,1.0915826568489572e-06,8.095802286098255e-07,2.9922666315789e-05
5.878513401895134e-07,1.0900669105269902e-06,8.119415577225097e-07,2.9993803874815745e-05
5.88426558903359e-07,1.0883653156758094e-06,8.140846837447317e-07,3.0074930442382294e-05
5.888874850121617e-07,1.0864897436857503e-06,8.160064439344266e-07,3.016442204235952e-05
5.892213248188684e-07,1.0844464962776572e-06,8.177023191123516e-07,3.0260611921108418e-05
5.894143142966417e-07,1.0822347845956437e-06,8.19165187600192e-07,3.0361864205703364e-05
5.894526625710499e-07,1.0798497189653583e-06,8.203861141574229e-07,3.046660440594184e-05
5.893246317804539e-07,1.0772847884670422e-06,8.213547651515011e-07,3.0573349709163266e-05
5.890210667006329e-07,1.0745320529431014e-06,8.220588911412219e-07,3.068074385718937e-05
5.885340529705592e-07,1.071583096254343e-06,8.224859685991989e-07,3.0787581270218544e-05
5.87855993815147e-07,1.0684328445728284e-06,8.226259402488572e-07,3.0892804592998945e-05
5.869803787901061e-07,1.0650838861865113e-06,8.224711776930454e-07,3.0995460284851124e-05
5.859032346912599e-07,1.061546650567549e-06,8.220150867840823e-07,3.109460377900614e-05
5.846235048377218e-07,1.0578338086016694e-06,8.212533606532531e-07,3.1189197177669085e-05
5.831420550800221e-07,1.05395317489096e-06,8.201860437799127e-07,3.127809729521985e-05
5.814612536932354e-07,1.0499041868213414e-06,8.188161041810617e-07,3.136014742187158e-05
5.795855766148939e-07,1.0456796480225208e-06,8.171468859537137e-07,3.143426016634964e-05
5.775212356876974e-07,1.0412757312258423e-06,8.151827094098149e-07,3.149942388017063e-05
5.752747198671571e-07,1.0367082181873795e-06,8.129314849750401e-07,3.155466005693467e-05
5.728516532937697e-07,1.032018805784338e-06,8.104078549097363e-07,3.159896948576244e-05
5.702562467197981e-07,1.0272622795338266e-06,8.076354930943188e-07,3.1631315386870675e-05
5.674911381302334e-07,1.0224886766921938e-06,8.046444054725788e-07,3.1650670390942734e-05
5.645575949461474e-07,1.0177352731163537e-06,8.014642149610503e-07,3.1656069234708424e-05
5.6145616964294e-07,1.013027870309911e-06,7.981197294925244e-07,3.164660620957271e-05
5.581869574899875e-07,1.0083844103629531e-06,7.946296106867766e-07,3.162140913510412e-05
5.547487719905889e-07,1.0038158335017677e-06,7.910054044771572e-07,3.15796668318669e-05
5.511386687966046e-07,9.993245326398546e-07,7.872511417587218e-07,3.152075442611626e-05
5.473528164634672e-07,9.94903902976413e-07,7.833639014723419e-07,3.144442617025722e-05
5.433882042205368e-07,9.90540325310085e-07,7.793345950092046e-07,3.1350953482168155e-05
5.392448600808533e-07,9.862158909522895e-07,7.751495373439831e-07,3.124107980544941e-05
5.34927805701461e-07,9.81909270494045e-07,7.707942555774169e-07,3.111579478078072e-05
5.304475988243152e-07,9.775948637439243e-07,7.662577763300133e-07,3.0976065936055745e-05
5.258195675632323e-07,9.732436216687245e-07,7.615329389257602e-07,3.0822678377406546e-05
5.210621327829052e-07,9.688272773742165e-07,7.566129690291319e-07,3.065622039490566e-05
5.161941145085909e-07,9.643229969164064e-07,7.514888748720909e-07,3.047712938134629e-05
5.112322106687547e-07,9.597148117173704e-07,7.461500016522417e-07,3.028573980476988e-05
5.061900205158921e-07,9.549925339464042e-07,7.405876379303932e-07,3.0082432841890996e-05
5.01078417538926e-07,9.50150411925234e-07,7.348002707144551e-07,2.986795581562658e-05
4.959070389884556e-07,9.451849733540894e-07,7.287970150580602e-07,2.9643692512549743e-05
4.906863711374542e-07,9.400923032002945e-07,7.225959815117233e-07,2.941163705963867e-05
4.85430186802049e-07,9.348673469764351e-07,7.16219451310498e-07,2.917414547413164e-05
4.801589822055942e-07,9.295044007008437e-07,7.096918732615755e-07,2.8933648528891853e-05
4.749017968312091e-07,9.239969276076565e-07,7.030422515366474e-07,2.869242930942092e-05
4.696924110313284e-07,9.183391768258415e-07,6.963068723593027e-07,2.8452649982795385e-05
4.64562473698545e-07,9.12529959630484e-07,6.89530177053317e-07,2.8216680267792755e-05
4.5953789874217566e-07,9.065738658360428e-07,6.827636911327852e-07,2.79873802765258e-05
4.546392891756503e-07,9.004787283845511e-07,6.760616970390585e-07,2.7768060326967687e-05
4.498828648972494e-07,8.942537372200845e-07,6.694747077016007e-07,2.756226299330173e-05
4.452804218345996e-07,8.879095690922085e-07,6.630455609495143e-07,2.737357594423672e-05
4.408388511911293e-07,8.814572013558542e-07,6.568096565604048e-07,2.72054886151155e-05
4.3655982802980253e-07,8.749051650396689e-07,6.507956382696739e-07,2.706124105146133e-05
4.324402685162199e-07,8.682583694856545e-07,6.450253259766075e-07,2.6943671785959688e-05
4.284740107578102e-07,8.615210393543291e-07,6.39514879434635e-07,2.6855111858344896e-05
4.2465393094550534e-07,8.547048303808541e-07,6.342764010458906e-07,2.6797347764171645e-05
4.209727312244806e-07,8.478380559903244e-07,6.293194439477512e-07,2.6771626254866892e-05
4.1742235680048977e-07,8.409683585280202e-07,6.246534998002668e-07,2.677865301400473e-05
4.1399369710159687e-07,8.341557382487809e-07,6.202892914122553e-07,2.681856531175163e-05
4.106768079153025e-07,8.274603116507331e-07,6.162388736785802e-07,2.689089775573369e-05
4.074611671534831e-07,8.209328926931877e-07,6.125184805801112e-07,2.6994580352777428e-05
4.04336702893536e-07,8.146127545343507e-07,6.091529878091704e-07,2.7128027817419214e-05
4.012948040525585e-07,8.085294630894451e-07,6.061784748381414e-07,2.728934300581401e-05
3.983274660553185e-07,8.027062145610488e-07,6.03642463536387e-07,2.747655284910867e-05
3.9542573280546117e-07,7.971664888741958e-07,6.016003625070227e-07,2.7687777106428453e-05
3.9257920207050967e-07,7.919408833462325e-07,6.001068641932225e-07,2.792132143004433e-05
3.897764063378954e-07,7.870676120552673e-07,5.992063802652046e-07,2.817572744518943e-05
3.8700562260092077e-07,7.825868180975544e-07,5.989274148383835e-07,2.844976983423612e-05
3.842556194326296e-07,7.785346889415906e-07,5.992812457735519e-07,2.874238662619008e-05
3.8151625987879327e-07,7.74944572856787e-07,6.002637582137942e-07,2.9052575449814806e-05
3.7877916100877106e-07,7.718536920962433e-07,6.018589106764773e-07,2.937926905792403e-05
3.7603796400421203e-07,7.693048753455481e-07,6.040417772078769e-07,2.9721184535845062e-05
3.7328915295024314e-07,7.673438310902266e-07,6.06780951785726e-07,3.0076724604171412e-05
3.7053446317747173e-07,7.660190020053409e-07,6.100409952720597e-07,3.044400601977444e-05
3.677815732677406e-07,7.653786007502807e-07,6.137852623267203e-07,3.082094483527195e-05
3.6504061269235244e-07,7.654610737240059e-07,6.179786071247502e-07,3.120530378615601e-05
3.6232108007056635e-07,7.662867435637908e-07,6.225881031491167e-07,3.159470848316718e-05
3.596325156771558e-07,7.678559546273273e-07,6.275810814215557e-07,3.198668156957901e-05
3.56985461159327e-07,7.70152389735159e-07,6.329224719139377e-07,3.237869242447926e-05
3.543904088015974e-07,7.731483001928238e-07,6.385748229576677e-07,3.276817462001721e-05
3.518562430006674e-07,7.76808498973592e-07,6.445022775352931e-07,3.315254733371602e-05
3.493891790670597e-07,7.810917544623206e-07,6.506737924808051e-07,3.352929891964342e-05
3.469930798099945e-07,7.859504973179369e-07,6.570605476780989e-07,3.389607361375111e-05
3.446715745626577e-07,7.913316014280746e-07,6.636306950405968e-07,3.425071525792569e-05
3.424300233309616e-07,7.971795824994838e-07,6.703472071889824e-07,3.459127870218585e-05
3.402764665497634e-07,8.034397240266589e-07,6.771685529102438e-07,3.49159892092853e-05
3.3822196118042213e-07,8.100584729613336e-07,6.840494277814417e-07,3.522314405233534e-05
3.362787716692985e-07,8.169812665235777e-07,6.90942327067641e-07,3.5511009628095914e-05
3.3445725072681327e-07,8.24151268149383e-07,6.978009162576078e-07,3.5777803794275164e-05
3.3276538364801283e-07,8.315107860545317e-07,7.045817415359532e-07,3.6021795891800815e-05
3.3121102043090075e-07,8.390022454486299e-07,7.112430597045419e-07,3.624143559842306e-05
3.2980242529441617e-07,8.465679553450765e-07,7.177443713443651e-07,3.643541138987028e-05
3.285458771539065e-07,8.541503278163727e-07,7.240465461969925e-07,3.66026386925644e-05
3.274438995136889e-07,8.616930768215229e-07,7.30110726916001e-07,3.67422211333491e-05
3.264955534469635e-07,8.691441841332964e-07,7.358981019186662e-07,3.6853448463194844e-05
3.256967108519893e-07,8.76457920569635e-07,7.413714857407591e-07,3.693588959416288e-05
3.250395805789183e-07,8.835925377091893e-07,7.464967189291303e-07,3.698947338256937e-05
3.2451249375118733e-07,8.905065145069261e-07,7.512435277981621e-07,3.7014437156637483e-05
3.241006397564488e-07,8.971578276615869e-07,7.555860496409134e-07,3.701123257155915e-05
3.2378784844487985e-07,9.035063635506316e-07,7.595020236358014e-07,3.698046798920077e-05
3.235585674460148e-07,9.095157096367388e-07,7.62972765833954e-07,3.692285701061056e-05
3.233985056696195e-07,9.151523225561779e-07,7.659850823693031e-07,3.683915376099074e-05
3.2329423899009427e-07,9.203862237796316e-07,7.685309214747736e-07,3.673007553070829e-05
3.232334016406299e-07,9.251968646587423e-07,7.706053130108396e-07,3.659623305548225e-05
3.232050098807536e-07,9.295778876480824e-07,7.722067422648345e-07,3.643810177152767e-05
3.231989466557595e-07,9.335329369082844e-07,7.733376531400591e-07,3.625604151683501e-05
3.2320526630648143e-07,9.370683050005548e-07,7.740029265884337e-07,3.605032879365984e-05
3.232137840875813e-07,9.401907456836193e-07,7.742084214543191e-07,3.5821164358764305e-05
3.2321425307385075e-07,9.429074426384295e-07,7.73959906182897e-07,3.5568667282627254e-05
3.2319697788419236e-07,9.452254427931749e-07,7.732631504823244e-07,3.5292884359288525e-05
3.231524519557167e-07,9.471518547509829e-07,7.721272013691328e-07,3.4993829555731984e-05
3.230703336743083e-07,9.486929247840488e-07,7.705689640719019e-07,3.467156365263739e-05
3.2293964621912387e-07,9.498521497280722e-07,7.686155533957563e-07,3.4326276243224336e-05
3.227497834840198e-07,9.506310993089258e-07,7.663035299179211e-07,3.395828906279345e-05
3.2249060592960944e-07,9.510326121365555e-07,7.636762774277645e-07,3.356798152272805e-05
3.22152051763498e-07,9.510635674004659e-07,7.607808524321169e-07,3.3155730473519126e-05
3.2172524964592163e-07,9.507377491582028e-07,7.576642405843851e-07,3.2721917767833194e-05
3.212050936238899e-07,9.500785226510595e-07,7.543697822380343e-07,3.226698014745716e-05
3.2059131784175297e-07,9.49117669980732e-07,7.509353032004601e-07,3.179144643436679e-05
3.198871382110223e-07,9.478897971302637e-07,7.473921228010405e-07,3.129593213473429e-05
3.190989131103548e-07,9.464257999594095e-07,7.43765045635905e-07,3.0781128015793105e-05
3.182381155472186e-07,9.447490777975321e-07,7.400754800033693e-07,3.024784022155524e-05
3.173218919082284e-07,9.428752252215507e-07,7.363467159242331e-07,2.969707732883003e-05
3.1637021283951065e-07,9.40812575201697e-07,7.326073398548929e-07,2.913012316780121e-05
3.154022491508664e-07,9.385639983728563e-07,7.28890510690381e-07,2.8548533292346337e-05
3.144345329411331e-07,9.361332742383901e-07,7.252311014724614e-07,2.7954041573795117e-05
3.1348065958249845e-07,9.335328054709816e-07,7.216635444874777e-07,2.7348428037321743e-05
3.125514952873308e-07,9.307837321505249e-07,7.182213191860844e-07,2.673343231113368e-05
3.116559719728384e-07,9.279075183905544e-07,7.14939353785275e-07,2.611076814200176e-05
3.108022171246529e-07,9.249192052774872e-07,7.118580173610237e-07,2.548218055024551e-05
3.099975793732e-07,9.218295950256674e-07,7.09022432568295e-07,2.4849428877298725e-05
3.0924735670647893e-07,9.186546296444472e-07,7.064751768016705e-07,2.4214200958243785e-05
3.0855397524640926e-07,9.154275819853308e-07,7.042496182639676e-07,2.3578060179568736e-05
3.07918578051434e-07,9.122084132788292e-07,7.023693579424116e-07,2.294247736305563e-05
3.0734484135651906e-07,9.090841139287323e-07,7.008502218733494e-07,2.2308919081017086e-05
3.068409736026948e-07,9.061595829161808e-07,6.997010847397906e-07,2.167890198062149e-05
3.0641680033405015e-07,9.0354406767786e-07,6.989260600512261e-07,2.1053964824135106e-05
3.060795432429172e-07,9.013387838754572e-07,6.985298930800658e-07,2.043561765240889e-05
3.0583328568332904e-07,8.99629909246818e-07,6.985229165234554e-07,1.9825319570304143e-05
3.056808899480267e-07,8.984874544219562e-07,6.989220049976928e-07,1.9224470552323026e-05
3.0562442219808745e-07,8.979670097895548e-07,6.997482930826563e-07,1.86343902227916e-05
3.0566426988012464e-07,8.981099967100869e-07,7.010231947734578e-07,1.805628802481865e-05
3.0579928864924695e-07,8.98940982850992e-07,7.02763530200398e-07,1.7491252767733128e-05
3.060273202290372e-07,9.004659429932232e-07,7.049784774868309e-07,1.6940257590422046e-05
3.0634456095424307e-07,9.026742812991443e-07,7.076702684450809e-07,1.6404163560319074e-05
3.067448704160232e-07,9.055443447773216e-07,7.108360892316989e-07,1.5883753242396584e-05
3.072201662427728e-07,9.090517354491736e-07,7.144684164907179e-07,1.5379785449851294e-05
3.077614640820537e-07,9.131765689587471e-07,7.185546375838402e-07,1.4892983484027065e-05
3.0835998202151827e-07,9.179049811176314e-07,7.230776506644411e-07,1.4423958014413488e-05
3.090075536974501e-07,9.232251639517494e-07,7.280175455555319e-07,1.3973167346973535e-05
3.0969605601757997e-07,9.291227572049513e-07,7.333520020208355e-07,1.354098510125497e-05
3.1041685032157876e-07,9.355813933141821e-07,7.390530936558345e-07,1.3127831128196405e-05
3.111610673149435e-07,9.425883862888094e-07,7.450832350892303e-07,1.2734221170553255e-05
3.119207562922937e-07,9.50138147377051e-07,7.513946884743012e-07,1.2360709759835449e-05
3.126902283922446e-07,9.582278554424277e-07,7.579330323790837e-07,1.200782735913284e-05
3.1346666207200005e-07,9.668481434709726e-07,7.646425001719851e-07,1.167602378760901e-05
3.142495011602471e-07,9.75976673733394e-07,7.714703728844888e-07,1.1365603440674671e-05
3.1503846114385015e-07,9.855781463747715e-07,7.783677937648516e-07,1.1076681716399218e-05
3.158312066522192e-07,9.956070575002e-07,7.852872330307781e-07,1.0809166151551147e-05
3.166230134213034e-07,1.0060116726027071e-06,7.921797446398627e-07,1.0562751116348587e-05
3.1740902772981894e-07,1.0167391644808156e-06,7.98994687950059e-07,1.0336927998091412e-05
3.1818699256620734e-07,1.0277381225024688e-06,8.056822828146776e-07,1.0131015293706699e-05
3.189592488203171e-07,1.0389578781743313e-06,8.121978140191979e-07,9.944199977700042e-06
3.197338780616231e-07,1.05034692750262e-06,8.185044207539335e-07,9.775565898126469e-06
3.205229247210886e-07,1.061850429903281e-06,8.245711984703646e-07,9.62410123570339e-06
3.2133826872033403e-07,1.0734081428148189e-06,8.303683054979498e-07,9.488712338327537e-06
3.221890791951341e-07,1.0849552192253038e-06,8.358642233764053e-07,9.368261930830098e-06
3.2308145329221925e-07,1.0964249421559208e-06,8.41025929285446e-07,9.261618766734489e-06
3.2401834439596015e-07,1.1077499029165182e-06,8.458190251340602e-07,9.167691982691227e-06
3.249992258204184e-07,1.1188601016728866e-06,8.502080857712404e-07,9.085424625879297e-06
3.2602005574728973e-07,1.1296805922470751e-06,8.541584818832968e-07,9.013758860556194e-06
3.270742210572059e-07,1.1401325055001257e-06,8.576373390117645e-07,8.951611963848492e-06
3.2815386505172325e-07,1.1501376954095778e-06,8.606128469686359e-07,8.897878778744638e-06
3.292499895481614e-07,1.1596226010142158e-06,8.630560079868035e-07,8.851453506093817e-06
3.30351757780673e-07,1.1685184310309169e-06,8.649456252171141e-07,8.811249795877141e-06
3.314469496350771e-07,1.1767598903278222e-06,8.662697440692545e-07,8.776206013221245e-06
3.325233378398502e-07,1.1842842938491413e-06,8.670205686753126e-07,8.745296179872057e-06
3.3356943928845603e-07,1.1910309610698058e-06,8.671890498901223e-07,8.717571169452167e-06
3.3457441535484125e-07,1.196942389831044e-06,8.667633291834589e-07,8.692229387218588e-06
3.3552791149402517e-07,1.2019671215522023e-06,8.657297530519674e-07,8.668668252969466e-06
3.364205163707352e-07,1.206061009002111e-06,8.640749297741291e-07,8.646449026260733e-06
3.3724425700181716e-07,1.20918831263843e-06,8.617873982060146e-07,8.62519540896368e-06
3.379919660402554e-07,1.2113275508490842e-06,8.588587700758627e-07,8.604513700441359e-06
3.386559077648821e-07,1.2124774831352756e-06,8.552852308958397e-07,8.583978743782962e-06
3.392270585086205e-07,1.2126537646054346e-06,8.510689786207936e-07,8.563177683932242e-06
3.3969537528134687e-07,1.2118795678061823e-06,8.462214648169384e-07,8.54176756001222e-06
3.400502614777838e-07,1.2101796391992063e-06,8.407704495479386e-07,8.51949686161736e-06
3.4028158126462267e-07,1.207579149154184e-06,8.347652077289293e-07,8.496181787292403e-06
3.403827272162984e-07,1.2041071291477774e-06,8.282733604171006e-07,8.471662578338538e-06
3.403540679953552e-07,1.1998039054602409e-06,8.213721928610924e-07,8.445793536820507e-06
3.4020238407799374e-07,1.1947247381562208e-06,8.141403926634093e-07,8.418521755467447e-06
3.3993681594020826e-07,1.1889351725610438e-06,8.066516789025556e-07,8.390030796862935e-06
3.395666180326894e-07,1.1825034281368702e-06,7.989707745918113e-07,8.360829127876082e-06
3.39102120821908e-07,1.175493922918825e-06,7.911528768217489e-07,8.33169997012949e-06
3.385558367586621e-07,1.1679628264488086e-06,7.832453285103785e-07,8.303555329324284e-06
3.379421602238768e-07,1.1599575925684055e-06,7.752882617920549e-07,8.277272212335042e-06
3.372763705107468e-07,1.151520555317727e-06,7.673135409080235e-07,8.253589817727628e-06
3.3657311332073466e-07,1.1426938163774236e-06,7.593447271510221e-07,8.233165690108844e-06
3.358444213878211e-07,1.1335218175295534e-06,7.513991613672103e-07,8.216764167585534e-06
3.350983815345504e-07,1.1240509366067651e-06,7.434896333326761e-07,8.205377743223317e-06
3.3433882982985147e-07,1.114328057355268e-06,7.356239864952594e-07,8.200165598903301e-06
3.3356551185008715e-07,1.1043974358621534e-06,7.278047166069174e-07,8.202303855798625e-06
3.3277493422287013e-07,1.0942968063985806e-06,7.200315305445454e-07,8.212871309206089e-06
3.319627059925334e-07,1.0840569850268629e-06,7.123066907712695e-07,8.23279626602016e-06
3.3112654865257456e-07,1.0737043148621571e-06,7.04639261511685e-07,8.262831527528767e-06
3.302673898145857e-07,1.0632626057917438e-06,6.970452362523684e-07,8.303549595324205e-06
