3.7393848493699947e-07,1.1229001828320918e-06,5.696039672388735e-07,2.9985271330886292e-05
3.717677093489089e-07,1.1196774306497472e-06,5.665578489915464e-07,2.9784992704289435e-05
3.696603696913665e-07,1.1163595715014871e-06,5.638898462505965e-07,2.9596582259677704e-05
3.676127179967239e-07,1.1129372024875065e-06,5.615681448377241e-07,2.9422111440140272e-05
3.656183903557967e-07,1.1093970164079435e-06,5.59568426644744e-07,2.9263265359476093e-05
3.636693567551208e-07,1.1057229690589309e-06,5.57875184726829e-07,2.9121276691928346e-05
3.6175794894521714e-07,1.1018975771073663e-06,5.564789204562473e-07,2.899694371534521e-05
3.598782285474997e-07,1.097901825786948e-06,5.553705665538414e-07,2.8890689596813957e-05
3.580251167614056e-07,1.0937151363180387e-06,5.545385298816473e-07,2.880258554857004e-05
3.561926828239003e-07,1.089316341044958e-06,5.539710513808428e-07,2.873231931546948e-05
3.5437368335017367e-07,1.084684377875408e-06,5.536593232332997e-07,2.8679181073199323e-05
3.525600779094846e-07,1.0797986211774195e-06,5.535963770039129e-07,2.8642145363805846e-05
3.507432806958207e-07,1.0746386199519709e-06,5.537750291739118e-07,2.8620025904455187e-05
3.48914400867326e-07,1.0691836246986363e-06,5.541901487777935e-07,2.861160693296819e-05
3.4706596174392893e-07,1.0634139155145944e-06,5.548424073005252e-07,2.861569946267671e-05
3.451946154086325e-07,1.0573121873135056e-06,5.55739345054365e-07,2.863114982903189e-05
3.433017697471323e-07,1.0508627654498345e-06,5.568949389940228e-07,2.8656852762006762e-05
3.413913878098847e-07,1.0440521459548251e-06,5.583283113943197e-07,2.8691780435055828e-05
3.394677864734581e-07,1.0368716446742844e-06,5.600609416397579e-07,2.873499222260285e-05
3.375356252127363e-07,1.0293172446804865e-06,5.62112830716664e-07,2.878560285503493e-05
3.356020046298747e-07,1.0213860267191596e-06,5.644981108496347e-07,2.8842714363936494e-05
3.3367855804395573e-07,1.0130734183084934e-06,5.672231722182174e-07,2.8905334128956892e-05
3.317811168051846e-07,1.0043745775785325e-06,5.702906388446857e-07,2.8972341258938127e-05
3.299271996503889e-07,9.952902927688456e-07,5.737052920953751e-07,2.9042533988318096e-05
3.281334747318195e-07,9.85831968988554e-07,5.774745898317257e-07,2.9114688890121254e-05
3.264143495462897e-07,9.76019125455929e-07,5.816041301698474e-07,2.91875861836216e-05
3.247811926596606e-07,9.65872472974667e-07,5.860949443910146e-07,2.926002995929328e-05
3.23242001275322e-07,9.5541000522937e-07,5.90943865387438e-07,2.9330843635760546e-05
3.218020824587453e-07,9.44646972419771e-07,5.961425180235705e-07,2.9398830332523657e-05
3.204647680280749e-07,9.335984336805851e-07,6.016768185715992e-07,2.946277079720955e-05
3.1923097398438375e-07,9.222855854028748e-07,6.075329824317493e-07,2.9521456607936188e-05
3.180986719370398e-07,9.107437031460135e-07,6.137064067723907e-07,2.9573674998295098e-05
3.170630468824648e-07,8.99023998332263e-07,6.202032888336786e-07,2.9618165276855824e-05
3.161167062149789e-07,8.871874007248204e-07,6.27034066141171e-07,2.9653648204773852e-05
3.152502906597805e-07,8.753002103349579e-07,6.342061917292051e-07,2.967896502352379e-05
3.144544483255802e-07,8.634360565770958e-07,6.417196783939623e-07,2.9693277941614936e-05
3.137226083443479e-07,8.51674547539457e-07,6.495656495548706e-07,2.9696223704424635e-05
3.130525292832408e-07,8.400927012199449e-07,6.577296456376853e-07,2.9687905799577392e-05
3.124455253726783e-07,8.287568710550845e-07,6.661982575183308e-07,2.9668714915067607e-05
3.119051272063988e-07,8.177202136285905e-07,6.749636105554705e-07,2.963907512784481e-05
3.114369294971552e-07,8.070262350395455e-07,6.840216614364775e-07,2.9599244318905743e-05
3.1104788792284397e-07,7.967176781677225e-07,6.933650807619712e-07,2.9549259482479938e-05
3.107438654767734e-07,7.868441029835835e-07,7.029762163537685e-07,2.9488994528920314e-05
3.105277531869548e-07,7.774612614186633e-07,7.128250096077449e-07,2.941822766418528e-05
3.1039941322263214e-07,7.686265630037368e-07,7.228708562819409e-07,2.933674503190348e-05
3.103562839742991e-07,7.603966600264694e-07,7.330658208934867e-07,2.9244590522307702e-05
3.103936694938464e-07,7.52825843150617e-07,7.433593764878728e-07,2.9142334118996315e-05
3.1050497134820377e-07,7.459665121489018e-07,7.537040294536196e-07,2.903108710582779e-05
3.1068281734850226e-07,7.398730551396502e-07,7.640581103748515e-07,2.891228055996941e-05
3.1092047641047647e-07,7.346033375407944e-07,7.743827736787107e-07,2.878742359361143e-05
3.1121256339927203e-07,7.302138668449564e-07,7.846359740302034e-07,2.8657939045573407e-05
3.1155568616664107e-07,7.267508716788124e-07,7.947690169593651e-07,2.852513821506363e-05
3.1194874186997645e-07,7.242432841190855e-07,8.04727342897832e-07,2.839041745720154e-05
3.1239142931161427e-07,7.227030689725843e-07,8.144533063043339e-07,2.825554402943495e-05
3.1288206462961145e-07,7.22130641049244e-07,8.238880811108435e-07,2.812274942787588e-05
3.134172698194744e-07,7.225183088824715e-07,8.32971796667045e-07,2.799458651790489e-05
3.139926578793776e-07,7.238493457127647e-07,8.416436098880081e-07,2.7873719419766346e-05
3.1460242233672145e-07,7.260959556862584e-07,8.498427046970246e-07,2.7762744708045677e-05
3.1523919578075516e-07,7.292186936619216e-07,8.575099862482008e-07,2.766404686134972e-05
3.1589502607754457e-07,7.331678271041474e-07,8.645927675015879e-07,2.757968106588648e-05
3.165619827370203e-07,7.37887417538036e-07,8.710542669004995e-07,2.751129990434191e-05
3.172328837990407e-07,7.43320857981915e-07,8.768835266909096e-07,2.746014902685026e-05
3.179023197467716e-07,7.494143183327662e-07,8.82099060066147e-07,2.7427112619023692e-05
3.185656277929886e-07,7.561167092029297e-07,8.867425894304464e-07,2.741273693628174e-05
3.192163949404636e-07,7.633779179486101e-07,8.908646273463755e-07,2.741719670414284e-05
3.1984578556599086e-07,7.711464541977528e-07,8.945104653917767e-07,2.7440247305720026e-05
3.204442005615747e-07,7.793674752082136e-07,8.977144559109391e-07,2.748119796219421e-05
3.210030629307625e-07,7.879843998774459e-07,9.00501525408849e-07,2.7538919095434637e-05
3.215148694882909e-07,7.969432532853312e-07,9.028897619789812e-07,2.761192761489176e-05
3.219720304755045e-07,8.061941178618932e-07,9.04890916226478e-07,2.769855275812713e-05
3.2236688272640853e-07,8.156889783909798e-07,9.065100392288929e-07,2.779709057091324e-05
3.226941919819287e-07,8.253791024974274e-07,9.07745521227014e-07,2.790588470762652e-05
3.2295438928286417e-07,8.35212805891753e-07,9.085896976133037e-07,2.8023365892143426e-05
3.2315382864884497e-07,8.451351193319975e-07,9.090308113470352e-07,2.8148077983819972e-05
3.2330169709310237e-07,8.550907781861838e-07,9.090564333811363e-07,2.8278687907463007e-05
3.234079074118413e-07,8.650270784790886e-07,9.086565869708175e-07,2.841399135717364e-05
3.234832780856072e-07,8.748934341294323e-07,9.078252057850792e-07,2.855290050066712e-05
3.235387853700963e-07,8.846393965615792e-07,9.065615947463958e-07,2.8694368243954884e-05
3.235839324157655e-07,8.942130868881669e-07,9.048731710022102e-07,2.883728435669498e-05
3.2362765586719107e-07,9.035610552822642e-07,9.027756790349195e-07,2.8980441421262092e-05
3.236819704235374e-07,9.126316717392395e-07,9.002879756374327e-07,2.912256194309991e-05
3.2376539139163606e-07,9.213799251829545e-07,8.974256919529394e-07,2.926230557139649e-05
3.239042702645644e-07,9.297676121968289e-07,8.941989656708917e-07,2.9398259383531562e-05
3.241308268081066e-07,9.377594268204617e-07,8.906135219869751e-07,2.952896677878064e-05
3.244772931839919e-07,9.453211793504157e-07,8.86671912908724e-07,2.9652982685164893e-05
3.2497010431184485e-07,9.524229398403411e-07,8.823742500356835e-07,2.9768900373450964e-05
3.2563050178288513e-07,9.59044708617059e-07,8.777194133082899e-07,2.9875393637441932e-05
3.264823109017675e-07,9.651793602156651e-07,8.727071373016354e-07,2.997133135015346e-05
3.2755965182869877e-07,9.708297453395426e-07,8.673399699581665e-07,3.005588457233907e-05
3.289071048031867e-07,9.760031395655308e-07,8.616233419179096e-07,3.0128550637144984e-05
3.305731213083483e-07,9.807070154271656e-07,8.55563890053177e-07,3.018910484350897e-05
3.326028731668345e-07,9.84946173078128e-07,8.491679749347628e-07,3.0237499186665974e-05
3.350346219162199e-07,9.887216261233272e-07,8.424422434179503e-07,3.0273727908204706e-05
3.3790081369799037e-07,9.92031138512964e-07,8.353973649183727e-07,3.0297699120546727e-05
3.412328817631036e-07,9.94868567449417e-07,8.28052003351601e-07,3.030918546458187e-05
3.450666798227012e-07,9.972235103984785e-07,8.204318248086819e-07,3.0307900610375708e-05
3.494459036200606e-07,9.990873054702677e-07,8.125645094538688e-07,3.0293624819457745e-05
3.5442234275783963e-07,1.000464473733475e-06,8.044756130967878e-07,3.0266266652284185e-05
3.6005321684315673e-07,1.0013789024199024e-06,7.961866408794639e-07,3.0225858471075463e-05
3.6639558322065506e-07,1.0018675735423756e-06,7.877146136977695e-07,3.0172514834041808e-05
3.7349743191148527e-07,1.0019683119475938e-06,7.790724943548007e-07,3.010636538004949e-05
3.813894208124497e-07,1.0017144394657163e-06,7.702699255823322e-07,3.0027525172687102e-05
3.9008379421418425e-07,1.0011409116958705e-06,7.613142969865357e-07,2.9936111692762077e-05
3.9958161547978155e-07,1.000294426814025e-06,7.522121896723924e-07,2.9832261501484764e-05
4.098817054758432e-07,9.992381447112072e-07,7.429705083815824e-07,2.9716152755948327e-05
4.2098365176224507e-07,9.98048392624152e-07,7.335967155326008e-07,2.958801381228047e-05
4.328855740426688e-07,9.968080924368113e-07,7.240996219713806e-07,2.9448081484419252e-05
4.455824622914684e-07,9.956024987428288e-07,7.144918569493841e-07,2.9296539010127227e-05
4.5906565379418423e-07,9.945150771835155e-07,7.047914182505619e-07,2.9133470745460577e-05
4.733215015254914e-07,9.936201716913842e-07,6.950193551333905e-07,2.895883318968837e-05
4.883314476692865e-07,9.929783655676762e-07,6.851953877214227e-07,2.8772448299195124e-05
5.040747609217442e-07,9.926383287121922e-07,6.753359182414399e-07,2.857403665219448e-05
5.205301251598262e-07,9.9263772534068e-07,6.654550936492034e-07,2.8363266122294787e-05
5.376739936072442e-07,9.930000622968824e-07,6.555660675065796e-07,2.813977346661809e-05
5.554779857344587e-07,9.937350068703353e-07,6.456812376798114e-07,2.79031645040898e-05
5.73905936225456e-07,9.948449568715887e-07,6.358122668755761e-07,2.76530225392611e-05
5.929098188610978e-07,9.963309864215055e-07,6.259701861605891e-07,2.7388933527458843e-05
6.124271421382577e-07,9.981928795892674e-07,6.161649559917464e-07,2.711052134842587e-05
6.32382756992307e-07,1.0004250398751035e-06,6.064044380848042e-07,2.6817481203818936e-05
6.52693910458621e-07,1.0030127466411407e-06,5.966938342763034e-07,2.6509606108539718e-05
6.732756123943102e-07,1.0059322344164507e-06,5.870359076671665e-07,2.6186802700537664e-05
6.940443274381821e-07,1.009154678563598e-06,5.774322363616347e-07,2.5849077947836702e-05
7.149185820331914e-07,1.012649602677194e-06,5.67887525017635e-07,2.5496502083492567e-05
7.358166100453876e-07,1.0163837140628534e-06,5.584161581383471e-07,2.5129187540732848e-05
7.566541359996549e-07,1.0203166418002512e-06,5.490446598432875e-07,2.47473044839908e-05
7.773442277146037e-07,1.02439795590674e-06,5.398065910048823e-07,2.435111532163963e-05
7.977970778129886e-07,1.0285674780278527e-06,5.30735783069346e-07,2.394099003338621e-05
8.179189480164471e-07,1.0327579429813535e-06,5.218652625989985e-07,2.3517395096486003e-05
8.376121396025731e-07,1.0368990480675423e-06,5.132314789320485e-07,2.3080908160863645e-05
8.567765946372152e-07,1.040922833201187e-06,5.048784823417774e-07,2.2632270308450424e-05
8.753128574560304e-07,1.044770147543268e-06,4.96857429399696e-07,2.217240957048733e-05
8.931256440954511e-07,1.0483957850112931e-06,4.892207869391861e-07,2.1702412850916e-05
9.101269316578041e-07,1.0517685595531498e-06,4.820153393496186e-07,2.122347685784412e-05
9.262388651362831e-07,1.054865657604513e-06,4.7527810314556934e-07,2.0736851549009206e-05
9.413973313617543e-07,1.0576653978863605e-06,4.6903689443021775e-07,2.024381096102489e-05
9.555561046056445e-07,1.0601438757142515e-06,4.633166346835599e-07,1.974567213847365e-05
9.686900596929189e-07,1.0622757187267127e-06,4.581482189259803e-07,1.92437993098174e-05
9.807951269530157e-07,1.0640350956083558e-06,4.5357294704516793e-07,1.873956549384671e-05
9.918846788054651e-07,1.065395546366957e-06,4.4964268903496325e-07,1.823432722395201e-05
1.001984191808312e-06,1.0663306356810595e-06,4.4642276287328854e-07,1.7729435267294798e-05
1.0111258396134884e-06,1.0668186548725585e-06,4.4399648501406314e-07,1.722628059746592e-05
1.0193443650022421e-06,1.0668497132905123e-06,4.4246095817235573e-07,1.672638215966668e-05
1.0266743909618378e-06,1.0664287660337136e-06,4.419126148187624e-07,1.6231448755490173e-05
1.033147468771766e-06,1.065572407867951e-06,4.4243747155545405e-07,1.574333204965137e-05
1.0387887755020923e-06,1.064302636054845e-06,4.441158378881279e-07,1.5263901343708756e-05
1.0436160054703347e-06,1.0626410983501033e-06,4.470322407302825e-07,1.4794917600234539e-05
1.0476407687964708e-06,1.0606058227565935e-06,4.5127908208865635e-07,1.4337973098791604e-05
1.050869917130475e-06,1.058212161143816e-06,4.5695004194115934e-07,1.3894578638272244e-05
1.0533064063033298e-06,1.0554783985189585e-06,4.6412476094598896e-07,1.3466362842978885e-05
1.054952550887636e-06,1.0524321092031371e-06,4.72855172718913e-07,1.3055192146695786e-05
1.0558161587125329e-06,1.0491132214523493e-06,4.831640031754941e-07,1.2663108336011066e-05
1.0559145625872403e-06,1.0455725534389978e-06,4.950551035565608e-07,1.2292153799349634e-05
1.0552732816674222e-06,1.041866862914763e-06,5.085276643200079e-07,1.1944196314331374e-05
1.053922667000604e-06,1.0380582360789335e-06,5.235834748275074e-07,1.1620828517018512e-05
1.051896113184407e-06,1.0342200875059577e-06,5.402217564696354e-07,1.1323343668450004e-05
1.0492289356150934e-06,1.0304355503543074e-06,5.584282063350612e-07,1.1052751172030856e-05
1.0459565958084568e-06,1.0267831756985156e-06,5.781677962378453e-07,1.0809843915481045e-05
1.0421137952068091e-06,1.0233245680666382e-06,5.993832439403198e-07,1.059538412936871e-05
1.0377342555086072e-06,1.0201036614934969e-06,6.219956451197239e-07,1.041038042687087e-05
1.0328488447814078e-06,1.0171546385010288e-06,6.459053141268226e-07,1.025622999130226e-05
1.0274833491246019e-06,1.014510099620587e-06,6.709942583233537e-07,1.0134571393302693e-05
1.021657907550895e-06,1.0122026231726722e-06,6.971312919150161e-07,1.004699801574327e-05
1.015387262004875e-06,1.0102626879429096e-06,7.241783142879481e-07,9.99482823729992e-06
1.008682608653195e-06,1.0087179236475098e-06,7.519965475844413e-07,9.979011041530026e-06
1.001556369857604e-06,1.0075914835880323e-06,7.804524499127016e-07,1.0000277676997197e-05
9.940259183147229e-07,1.0068974407059756e-06,8.094215595424962e-07,1.0059501312581551e-05
9.861120571192982e-07,1.0066362570778757e-06,8.387884158840287e-07,1.0157933810956633e-05
9.778358337072162e-07,1.0067943310568322e-06,8.684433512258693e-07,1.0297140139536099e-05
9.692178685473309e-07,1.0073468554595424e-06,8.98279007409839e-07,1.0478786708198376e-05
9.602786224393506e-07,1.0082596143995708e-06,9.281886585601515e-07,1.0704440655797084e-05
9.510390334220144e-07,1.0094890022803206e-06,9.58064927423188e-07,1.0975404548610788e-05
9.415218045059502e-07,1.010983607223344e-06,9.877970495833542e-07,1.129258183036015e-05
9.317508275004624e-07,1.0126875728398985e-06,1.0172695202406357e-06,1.165638584628856e-05
9.21748455330479e-07,1.014542450768604e-06,1.0463641147872863e-06,1.2066697079960692e-05
9.115331987067171e-07,1.0164870558787027e-06,1.0749616887255795e-06,1.252285779334403e-05
9.011188286340359e-07,1.0184578975317177e-06,1.1029422833802255e-06,1.3023686538879554e-05
8.905144229007178e-07,1.0203911729005482e-06,1.130186243718643e-06,1.356747357764465e-05
8.797251594687195e-07,1.0222246638598356e-06,1.1565767446031129e-06,1.4151940128897967e-05
8.687535839297689e-07,1.0238996088173808e-06,1.1820021666819952e-06,1.4774221382991447e-05
8.576004990781985e-07,1.0253640648730087e-06,1.2063580209850368e-06,1.54309312356854e-05
8.46265481872745e-07,1.0265752471741935e-06,1.229547417640443e-06,1.6118290560906973e-05
8.34748137715206e-07,1.0274980687396672e-06,1.2514786214368438e-06,1.6832288195291878e-05
8.230494592660171e-07,1.028102276282559e-06,1.272061980652549e-06,1.7568849915186358e-05
8.111720150711463e-07,1.028361655686006e-06,1.291209793528626e-06,1.8323960568726466e-05
7.991206303202606e-07,1.0282546535118424e-06,1.308838699892875e-06,1.909371626546779e-05
7.869051118810493e-07,1.027763100373017e-06,1.324872392902145e-06,1.987434017948539e-05
7.745422014743837e-07,1.0268709682670746e-06,1.3392432170097752e-06,2.0662176355795333e-05
7.620532542635679e-07,1.0255683164042135e-06,1.3518917651264174e-06,2.1453660010494733e-05
7.494593700574207e-07,1.0238567557661023e-06,1.3627661465044286e-06,2.2245286489164167e-05
7.367786354799616e-07,1.0217487456249009e-06,1.3718235069447116e-06,2.30335799437284e-05
7.24026510580978e-07,1.0192618030114086e-06,1.3790325760482329e-06,2.3815051518433343e-05
7.112168719298865e-07,1.0164148528582729e-06,1.3843742080193465e-06,2.4586200963639635e-05
6.983621446476673e-07,1.013229594554234e-06,1.3878393580296706e-06,2.534359333665313e-05
6.854729558756107e-07,1.0097315807737382e-06,1.3894261015807642e-06,2.6083930803115453e-05
6.725581761308389e-07,1.005946186265567e-06,1.3891378795102646e-06,2.680407141835777e-05
6.596254330780211e-07,1.001893147156658e-06,1.3869838981649004e-06,2.750103968903019e-05
6.466817316864608e-07,9.97587470242403e-07,1.3829809497572635e-06,2.8172045587591144e-05
6.337346259461378e-07,9.930500695776264e-07,1.377156416318661e-06,2.8814479392979803e-05
6.207942491206418e-07,9.883203695060414e-07,1.3695515802291477e-06,2.942588667591712e-05
6.078754000408949e-07,9.834578834211469e-07,1.3602227389251294e-06,3.000402040248263e-05
5.949987784052785e-07,9.785312124177052e-07,1.3492392839077324e-06,3.054703274214917e-05
5.821907096195802e-07,9.736054263070394e-07,1.3366793328745364e-06,3.1053666393970146e-05
5.694814829903333e-07,9.687380601353016e-07,1.3226240239019766e-06,3.1523262417545765e-05
5.569031537629458e-07,9.63983359384133e-07,1.3071536912276232e-06,3.195560412537417e-05
5.444871736836209e-07,9.59394910356143e-07,1.29034795027941e-06,3.2350732364366234e-05
5.322618583329385e-07,9.550223976809158e-07,1.2722878314398745e-06,3.2708796859528476e-05
5.202504728671635e-07,9.509095404639869e-07,1.2530570303706185e-06,3.3029943984981456e-05
5.084710030238797e-07,9.470961345580385e-07,1.232741240505748e-06,3.3314252351601366e-05
4.969377549849793e-07,9.436191444153e-07,1.2114269739306445e-06,3.356174032102737e-05
4.856647276903103e-07,9.405146413627823e-07,1.1892004404775429e-06,3.3772432492092217e-05
4.7466942047685966e-07,9.378248133728749e-07,1.1661457511676138e-06,3.394643184686375e-05
4.639736375642757e-07,9.356004838426132e-07,1.1423436390498943e-06,3.408395506851248e-05
4.536002891692837e-07,9.338912964021893e-07,1.1178716954149174e-06,3.41853349206638e-05
4.435699441154992e-07,9.327357635532135e-07,1.0928046996892838e-06,3.4251089111816966e-05
4.3390056426450464e-07,9.321646193382489e-07,1.0672145572981159e-06,3.428213357112909e-05
4.2460866831738994e-07,9.3221363215047e-07,1.0411713518070077e-06,3.427992425518671e-05
4.15708836749266e-07,9.329321819877413e-07,1.014745954019406e-06,3.424629695598396e-05
4.072121270069786e-07,9.343795200621234e-07,9.880138540619884e-07,3.418324465828045e-05
3.9912506379624706e-07,9.3661399938261e-07,9.61058972062804e-07,3.409290452057608e-05
3.914497504690819e-07,9.396840657880785e-07,9.339735620953487e-07,3.397759797780102e-05
3.841851863818451e-07,9.43622317591872e-07,9.068530821696506e-07,3.383975948103343e-05
3.773290873649721e-07,9.4844125862509e-07,8.797907918379107e-07,3.3681817788593434e-05
3.708787708780032e-07,9.541325072153956e-07,8.52876029795594e-07,3.3506099908166044e-05
3.648303496443331e-07,9.606709690306783e-07,8.261952436598313e-07,3.331476128654674e-05
3.591778267914654e-07,9.680201205454609e-07,7.998330187008683e-07,3.310972885971802e-05
3.5391387189852316e-07,9.76133030209957e-07,7.738713280404327e-07,3.289265505175916e-05
3.490303884229772e-07,9.84950313139739e-07,7.483875957551831e-07,3.266489118074671e-05
3.4451688231640813e-07,9.943999792992152e-07,7.234547309048444e-07,3.242748538006831e-05
3.40359099946e-07,1.0043999657969812e-06,6.991441136161122e-07,3.218120274361497e-05
3.3654014191472285e-07,1.014861376520182e-06,6.755271087036096e-07,3.192657122675061e-05
3.3304212204491317e-07,1.025690923784774e-06,6.526721711598372e-07,3.166395899043443e-05
3.298460737833125e-07,1.0367917805736404e-06,6.306417115327511e-07,3.139365248524132e-05
3.269307304115189e-07,1.048064785390813e-06,6.094918368344231e-07,3.1115882292862863e-05
3.242725775531561e-07,1.059411339596389e-06,5.892719966441516e-07,3.083079795899061e-05
3.218482304222353e-07,1.070737662602029e-06,5.700237507929764e-07,3.053845683802227e-05
3.196368454520681e-07,1.0819620395705527e-06,5.517810050391282e-07,3.0238855163882898e-05
3.176202068711841e-07,1.0930217938902055e-06,5.345709082164557e-07,2.993195581093565e-05
3.157820973144941e-07,1.1038714112366734e-06,5.184139789162231e-07,2.9617685962656422e-05
3.1410847156353786e-07,1.1144716930741664e-06,5.033243229231455e-07,2.929593836895345e-05
3.125868578520459e-07,1.1247793729847458e-06,4.893100058640463e-07,2.896660238519124e-05
3.112045602951724e-07,1.1347442693753231e-06,4.763727820075817e-07,2.862960707920946e-05
3.0994784004140905e-07,1.1443138822015586e-06,4.645080356701312e-07,2.828496132526169e-05
3.088036458210688e-07,1.1534410628823256e-06,4.537060596396906e-07,2.793278418979922e-05
3.077624119164588e-07,1.1620895709886123e-06,4.43954682652581e-07,2.7573310231685297e-05
3.068200072486945e-07,1.1702345810872349e-06,4.3524315614472827e-07,2.720687367390304e-05
3.0597987274020987e-07,1.1778584333059424e-06,4.2756538437892225e-07,2.6833873390446105e-05
3.0525599183192393e-07,1.184944803239597e-06,4.2091901862768066e-07,2.645473385829232e-05
3.0467413403274397e-07,1.1914748281235915e-06,4.15301461349665e-07,2.6069945532473675e-05
3.042687167392931e-07,1.197425074186097e-06,4.107079577077468e-07,2.568018347183017e-05
3.040756461719749e-07,1.202767254208888e-06,4.071329095322077e-07,2.5286327968060165e-05
3.041254208809395e-07,1.2074721236186274e-06,4.045708710288543e-07,2.488931612177497e-05
3.044408220172103e-07,1.211514428326804e-06,4.030147562553699e-07,2.448998368400155e-05
3.050375688947954e-07,1.2148735338933028e-06,4.024521744362053e-07,2.408903531746506e-05
3.05924296413243e-07,1.2175321848283413e-06,4.028639199103697e-07,2.3687144619049038e-05
3.0710260978052003e-07,1.2194773878817149e-06,4.042274186236846e-07,2.3285099019071444e-05
3.085682902109987e-07,1.2207024752213191e-06,4.0652266149879656e-07,2.288385755691955e-05
3.1031216707628485e-07,1.2212071906119803e-06,4.097374599191017e-07,2.2484473653641293e-05
3.1232103105207226e-07,1.2209941399410242e-06,4.138712492640823e-07,2.2087961991752703e-05
3.1458053575207826e-07,1.2200650737315572e-06,4.189347709808643e-07,2.1695213723058373e-05
3.170784536231184e-07,1.2184223691654804e-06,4.2494231961250603e-07,2.1307043909814767e-05
3.198048052775245e-07,1.2160730971596208e-06,4.3190045759693357e-07,2.09243756170792e-05
3.227499050528573e-07,1.2130280214619112e-06,4.398021126915507e-07,2.0548422020698722e-05
3.2590477043163467e-07,1.209297081841759e-06,4.4862813591051433e-07,2.0180697860340844e-05
3.292646608248053e-07,1.204888831307665e-06,4.583504000558279e-07,1.9822839042060484e-05
3.3283144411900865e-07,1.1998159359655534e-06,4.689326125520031e-07,1.9476351912850932e-05
3.3661184132858007e-07,1.1941053929888976e-06,4.80330639626969e-07,1.91424360687496e-05
3.406135356138544e-07,1.1878093982468621e-06,4.924933256086289e-07,1.8821955229618937e-05
3.448418949877448e-07,1.181007314769307e-06,5.053621833426871e-07,1.851551308630837e-05
3.492978767581291e-07,1.1737943485060352e-06,5.188722938135696e-07,1.8223562476909384e-05
3.539778232485255e-07,1.1662687419389508e-06,5.329580569061171e-07,1.7946597012293613e-05
3.5887514183219383e-07,1.1585272947391831e-06,5.475603034389106e-07,1.7685468586733798e-05
3.6398087396590634e-07,1.1506634997838611e-06,5.62628887358559e-07,1.7441620556679987e-05
3.692818947975257e-07,1.142765636054356e-06,5.781199793061052e-07,1.7217000282971168e-05
3.747599347373385e-07,1.1349169793135549e-06,5.939902997214688e-07,1.701375121176864e-05
3.8039392364066636e-07,1.1271946548202028e-06,6.101911508349137e-07,1.683390452290635e-05
3.861641207440608e-07,1.1196660653257215e-06,6.266659870045274e-07,1.667916257891853e-05
3.920548611620039e-07,1.1123860812214806e-06,6.433529968585759e-07,1.655089446435069e-05
3.9805473995387173e-07,1.1053965834294356e-06,6.601902298700853e-07,1.645042031395005e-05
4.0415481505755957e-07,1.098727446145826e-06,6.771202559554239e-07,1.6379351823696356e-05
4.103457098530189e-07,1.0923962680891622e-06,6.940919846808356e-07,1.6339677064910258e-05
4.166152982693214e-07,1.0864069246644584e-06,7.110585087022661e-07,1.6333594111271458e-05
4.229479898419732e-07,1.0807497280663714e-06,7.279726764786867e-07,1.6363288292780906e-05
4.293248942600904e-07,1.0754029598184366e-06,7.44783666191353e-07,1.6430759079010254e-05
4.3572410525390893e-07,1.070334346360795e-06,7.614375775527316e-07,1.653769906689491e-05
4.421211080046071e-07,1.0655031931758615e-06,7.778819405252156e-07,1.66853899678873e-05
4.484899279962736e-07,1.0608645902403902e-06,7.940699965407877e-07,1.6874612694006527e-05
4.548048478200735e-07,1.0563768144758105e-06,8.099607911275023e-07,1.7105616659054162e-05
4.6104101387710047e-07,1.0520093960938106e-06,8.255148527486669e-07,1.7378146530240258e-05
4.6717312494800406e-07,1.0477457220635963e-06,8.40690538238523e-07,1.7691458318273833e-05
4.731739006176481e-07,1.043578678294439e-06,8.554470583175934e-07,1.804429459199176e-05
4.790150977747437e-07,1.039504460823669e-06,8.697529753288538e-07,1.8434850819793986e-05
4.846711440509384e-07,1.035520285968538e-06,8.835937901090384e-07,1.886077475234206e-05
4.901219434923081e-07,1.031626690440522e-06,8.969736609413912e-07,1.931923243808876e-05
4.953528355441886e-07,1.027828393935902e-06,9.099098131520081e-07,1.9807043704589652e-05
5.003530818382076e-07,1.0241299639891757e-06,9.224225953151323e-07,2.032084930130993e-05
5.051140204493069e-07,1.020532781403314e-06,9.345267116980759e-07,2.0857257797497136e-05
5.096274860988907e-07,1.0170382674855663e-06,9.462282448660351e-07,2.1412945773196868e-05
5.138860516731972e-07,1.0136519467878682e-06,9.575279681886886e-07,2.1984723664133122e-05
5.178841701651558e-07,1.0103855128642458e-06,9.68426799274455e-07,2.2569570512831534e-05
5.216171248710714e-07,1.007259186825767e-06,9.789286647116585e-07,2.3164611830771184e-05
5.250786666006016e-07,1.004300128351705e-06,9.8903828750605e-07,2.3767030611615478e-05
5.282611945789359e-07,1.0015333981864509e-06,9.987559988618792e-07,2.437394594107067e-05
5.311589495201018e-07,9.989732017830523e-07,1.0080755025801138e-06,2.498233126483613e-05
5.337707193031042e-07,9.96622560350728e-07,1.0169858450586663e-06,2.558903676110723e-05
5.360993299606615e-07,9.944798187556705e-07,1.0254729488135056e-06,2.619088956761159e-05
5.38149140780133e-07,9.92544698872169e-07,1.0335186901959272e-06,2.678476461337551e-05
5.399244528884429e-07,9.908180996067708e-07,1.0410997723740014e-06,2.736759154754641e-05
5.414295576994553e-07,9.892966819498364e-07,1.048188498807332e-06,2.7936370660756318e-05
5.426696907938233e-07,9.879685201880814e-07,1.0547557155887692e-06,2.848823897210566e-05
5.436517765663643e-07,9.868140095845748e-07,1.0607748000922422e-06,2.902054972305672e-05
5.443834568621027e-07,9.858127049127621e-07,1.0662243129577164e-06,2.953088759839073e-05
5.448714434800425e-07,9.849543093632423e-07,1.0710868192907817e-06,3.0016979675420037e-05
5.451210431901376e-07,9.842477483016511e-07,1.0753445714617216e-06,3.0476599319791302e-05
5.451358860719012e-07,9.837202930890414e-07,1.0789758840561491e-06,3.090758297601184e-05
5.449171086278305e-07,9.834052153065856e-07,1.0819551075078501e-06,3.130793465311001e-05
5.444627412939429e-07,9.833283069517795e-07,1.0842563484331318e-06,3.167595135681692e-05
5.437677777965709e-07,9.835044464033054e-07,1.0858582069061212e-06,3.201037474764152e-05
5.428260144764245e-07,9.839415866276896e-07,1.08674548609976e-06,3.23105260242148e-05
5.416350130313399e-07,9.846426791459586e-07,1.086907065974902e-06,3.257629280304177e-05
5.402022079233488e-07,9.856040539395244e-07,1.086333849924374e-06,3.2807928329637554e-05
5.385470780280429e-07,9.868135950995235e-07,1.0850200568400044e-06,3.300578557675159e-05
5.366974585147047e-07,9.882499929888843e-07,1.0829653523196708e-06,3.317013222450882e-05
5.346836992488676e-07,9.898848794706726e-07,1.0801734938989543e-06,3.330108815161552e-05
5.325346683415179e-07,9.916865224891378e-07,1.076648658460491e-06,3.3398640885708965e-05
5.302756962134147e-07,9.93620351952141e-07,1.072393551897341e-06,3.346271319981561e-05
5.279271161485504e-07,9.95647145545483e-07,1.0674096254447948e-06,3.349333243322428e-05
5.255038950945055e-07,9.977234902757874e-07,1.061697288015208e-06,3.349094759971529e-05
5.230177218533007e-07,9.998073513477306e-07,1.0552555583703571e-06,3.34567457704901e-05
5.204805295250369e-07,1.001866781050641e-06,1.0480822257047905e-06,3.3392695553715964e-05
5.179065159647448e-07,1.0038838384935456e-06,1.0401752626668287e-06,3.330129564995378e-05
5.153121175971443e-07,1.0058505168280529e-06,1.0315349335290623e-06,3.318525797281139e-05
5.127150092855976e-07,1.0077625711562771e-06,1.0221657164541724e-06,3.3047281813152394e-05
5.101322328400475e-07,1.0096161378605163e-06,1.0120773729580558e-06,3.2890004495184104e-05
5.075777515212582e-07,1.0114079016341275e-06,1.001284973296653e-06,3.2716224122949654e-05
5.05060986041429e-07,1.0131363141978206e-06,9.898081589079564e-07,3.252924573395039e-05
5.025887047444276e-07,1.0148001332044394e-06,9.776696748586312e-07,3.2332991188023986e-05
5.001696718790768e-07,1.0163953092198086e-06,9.648941987441045e-07,3.2131789296739656e-05
4.978177226579032e-07,1.0179143754737544e-06,9.515089566051145e-07,3.1930070939164144e-05
4.955506816306747e-07,1.0193494084733282e-06,9.375461040300086e-07,3.1732141076024405e-05
4.933861849551111e-07,1.0206945741778028e-06,9.23046661509096e-07,3.154205868355156e-05
4.913374382668819e-07,1.021943931770275e-06,9.080646831457424e-07,3.136358921820113e-05
4.894118988375037e-07,1.0230864964161258e-06,8.926681182716902e-07,3.120017693466121e-05
4.87612552222035e-07,1.024104240979805e-06,8.769342608730951e-07,3.105491064405083e-05
4.85938877234678e-07,1.024975232201392e-06,8.609419570594277e-07,3.093048343006129e-05
4.843864997407321e-07,1.0256785470967009e-06,8.447657920518239e-07,3.082913774153803e-05
4.829468492934139e-07,1.0261957273609e-06,8.28475725297748e-07,3.0752587218725874e-05
4.816076721359097e-07,1.0265081157289944e-06,8.121410983004996e-07,3.070193565601322e-05
4.803539032375465e-07,1.0265943135451022e-06,7.958356654888342e-07,3.0677618644288125e-05
4.791683629073789e-07,1.0264301117123986e-06,7.796406899313073e-07,3.0679403357468264e-05
4.780323207363704e-07,1.025990392342844e-06,7.636445794315031e-07,3.0706497046442755e-05
4.769259195314983e-07,1.0252528584667031e-06,7.479388751982104e-07,3.07577488205078e-05
4.7582871828246145e-07,1.0242006275375209e-06,7.326127119297455e-07,3.0831841958519516e-05
4.7472030317348976e-07,1.022819979717881e-06,7.177492239313819e-07,3.092740181766172e-05
4.7358027169826364e-07,1.0210963630106856e-06,7.034245574173611e-07,3.104304533827855e-05
4.723883129504056e-07,1.0190130355132523e-06,6.897073176259454e-07,3.1177418392891415e-05
4.711252955051115e-07,1.0165520433704487e-06,6.766569330284264e-07,3.132921399311345e-05
4.697741693365928e-07,1.0136965866167194e-06,6.643219471710187e-07,3.1497161006560325e-05
4.683201447800906e-07,1.0104333923950753e-06,6.527395817948123e-07,3.1679995545521176e-05
4.667506200739127e-07,1.0067538086261341e-06,6.419357447352671e-07,3.187639617323034e-05
4.650543949141729e-07,1.002654070430884e-06,6.319247140024437e-07,3.2084869711327885e-05
4.6322062211161916e-07,9.981337036967352e-07,6.227095057446992e-07,3.230366959762567e-05
4.6123820431297504e-07,9.931923680422902e-07,6.14283940620041e-07,3.253080910578893e-05
4.590952758055913e-07,9.878289731161221e-07,6.066352965367589e-07,3.2764100363268985e-05
4.5677902197385616e-07,9.820436311188178e-07,5.997459835146828e-07,3.3001174000258806e-05
4.542766209940506e-07,9.758412425302978e-07,5.935962651048021e-07,3.323952923787289e-05
4.515779750787721e-07,9.69237396571535e-07,5.881707145521813e-07,3.347662850883877e-05
4.486791151883157e-07,9.622641608304935e-07,5.834651478842295e-07,3.370996204445578e-05
4.4558304162912024e-07,9.549711660731682e-07,5.794867898022292e-07,3.3937025953378976e-05
4.422972992942775e-07,9.474199774853258e-07,5.762459062127308e-07,3.4155279650462456e-05
4.388315865483795e-07,9.396744144029457e-07,5.737464731268581e-07,3.436216455073604e-05
4.3519765307196714e-07,9.317936752178055e-07,5.719827083521542e-07,3.4555163960640106e-05
4.3140929367620747e-07,9.238323022020287e-07,5.70939816035799e-07,3.4731887895095145e-05
4.274808178532104e-07,9.158427881901584e-07,5.705972077282424e-07,3.4890225672867925e-05
4.234268279855355e-07,9.07874251124437e-07,5.709359721443154e-07,3.502852622729384e-05
4.192638577201538e-07,8.999682936268032e-07,5.719467987001445e-07,3.514566143650903e-05
4.150104212759625e-07,8.921574100695593e-07,5.736308017533563e-07,3.524090799542693e-05
4.106848602279365e-07,8.844654026541581e-07,5.759930302426911e-07,3.5313735651538864e-05
4.0630377553085843e-07,8.769082765224594e-07,5.790350359068132e-07,3.5363638294637794e-05
4.0188294904828453e-07,8.694991836524305e-07,5.827516971304021e-07,3.539008396986361e-05
3.974389511408141e-07,8.622568669281876e-07,5.871316325046162e-07,3.539254972510719e-05
3.929890642035176e-07,8.552090159823662e-07,5.921563242532315e-07,3.537055118646902e-05
3.8855110640538823e-07,8.483871559806954e-07,5.97797379893892e-07,3.532366872171549e-05
3.841438335284185e-07,8.418200655875154e-07,6.040159895712592e-07,3.525171840597265e-05
3.7978582488875227e-07,8.35533757023837e-07,6.107657422242865e-07,3.5155076705770714e-05
3.754936241370397e-07,8.295609111769541e-07,6.179970775468667e-07,3.503485565698335e-05
3.712810408961273e-07,8.239522369109079e-07,6.256618999006682e-07,3.489274963261182e-05
3.671592562853107e-07,8.187771092699852e-07,6.337167009276361e-07,3.473074558566753e-05
3.6313703834542407e-07,8.141123314143723e-07,6.421225010283086e-07,3.4550884918266525e-05
3.5922093062481337e-07,8.100285819376089e-07,6.508421323819804e-07,3.435512849658276e-05
3.554154791038918e-07,8.065833960474933e-07,6.598367905287415e-07,3.4145436781530844e-05
3.517234952464085e-07,8.038219245550044e-07,6.690629862800772e-07,3.3924037880628744e-05
3.481460032780015e-07,8.017786515225928e-07,6.784712327139038e-07,3.369358332930365e-05
3.446820681832563e-07,8.004764216635277e-07,6.880074857398418e-07,3.345705983084881e-05
3.413292441871125e-07,7.999251468025095e-07,6.976173074177421e-07,3.321761494927552e-05
3.3808423279235027e-07,8.001207816472549e-07,7.072508906798036e-07,3.2978410411854886e-05
3.349429756046949e-07,8.010445124402174e-07,7.168650417648971e-07,3.2742502471958e-05
3.3190080690468075e-07,8.026628729308204e-07,7.264221175097794e-07,3.2512740700942716e-05
3.2895285718259297e-07,8.049288751645792e-07,7.358896253442405e-07,3.2291692884486135e-05
3.260941188135548e-07,8.07784741462847e-07,7.452404830172413e-07,3.208160368932132e-05
3.2332025398032235e-07,8.11166757747794e-07,7.544515658283433e-07,3.188438574304479e-05
3.2062930402907266e-07,8.150120649508155e-07,7.635006843885498e-07,3.1701617831547635e-05
3.180217861426089e-07,8.192660237194554e-07,7.723638623069303e-07,3.1534505285739377e-05
3.15498806582307e-07,8.238857366724534e-07,7.81013575435545e-07,3.138379702017193e-05
3.1306038957549637e-07,8.288354667312951e-07,7.894173096222477e-07,3.1249710624098017e-05
3.107053754765005e-07,8.340777817825063e-07,7.975368870770256e-07,3.1131925087594124e-05
3.084331044034205e-07,8.395696704694067e-07,8.053293181601037e-07,3.1029670316609006e-05
3.0624537719596853e-07,8.452662125848324e-07,8.127488309014081e-07,3.0941890513098294e-05
3.041462841510225e-07,8.511263068347006e-07,8.197499358162544e-07,3.086740564441198e-05
3.0214036560221356e-07,8.571145582315613e-07,8.262901537141575e-07,3.080501108473386e-05
3.0023149577309434e-07,8.631975113171299e-07,8.323302285770539e-07,3.0753538330658e-05
2.984228028738321e-07,8.693389697014134e-07,8.378339021721828e-07,3.071191838961533e-05
2.967169283265604e-07,8.755013390491405e-07,8.42770349923128e-07,3.067922319873433e-05
2.951163074531469e-07,8.81651402354693e-07,8.471161805904218e-07,3.06546454628971e-05
2.936229079716011e-07,8.877631737088435e-07,8.508530622543446e-07,3.063742884739373e-05
2.922377315619659e-07,8.938176863552649e-07,8.539637872171784e-07,3.062677041042521e-05
2.9096068926912536e-07,8.998046837398659e-07,8.564310471262725e-07,3.062172931621587e-05
2.897902201471673e-07,9.057242493391441e-07,8.58238305919371e-07,3.0621227814249944e-05
2.887228906410386e-07,9.115821382624228e-07,8.593705353849331e-07,3.062414483323948e-05
2.8775476983033783e-07,9.1738057559329e-07,8.598148955023941e-07,3.0629376949145584e-05
2.8688365703020585e-07,9.231139279679159e-07,8.595619257604662e-07,3.063583158016841e-05
2.861090984391385e-07,9.28773685962812e-07,8.586057583117001e-07,3.0642431776864583e-05
2.854308221847467e-07,9.343551384037409e-07,8.569422765987545e-07,3.064816808778924e-05
2.848486662106376e-07,9.398573293275722e-07,8.545672607419717e-07,3.065214022053824e-05
2.843637341781816e-07,9.45280171303293e-07,8.514770797751612e-07,3.065350795288085e-05
2.839781631789589e-07,9.506257636895813e-07,8.476720330281421e-07,3.065137190442978e-05
2.8369334254110426e-07,9.559029539315722e-07,8.431595835206446e-07,3.0644704738031204e-05
2.8350836198746896e-07,9.611301006920769e-07,8.379544799457444e-07,3.063243389287583e-05
2.834193347945834e-07,9.66331164176041e-07,8.320760245058881e-07,3.061367291361545e-05
2.834192411338516e-07,9.715255597968244e-07,8.255449673977339e-07,3.058795789478104e-05
2.834984497568009e-07,9.767201243298849e-07,8.183826667880579e-07,3.055531803369871e-05
2.836466175501761e-07,9.819085208587047e-07,8.106144811061146e-07,3.0516169384299434e-05
2.838553143194595e-07,9.870741588731348e-07,8.022758761924049e-07,3.0471127625821614e-05
2.8411927587885735e-07,9.92192736181646e-07,7.934165868120644e-07,3.0420793166254816e-05
2.84435524590726e-07,9.972356358346169e-07,7.841009322499163e-07,3.0365575218354883e-05
2.8480139097279703e-07,1.002175888161474e-06,7.744068541109502e-07,3.03056372184266e-05
2.8521290899598587e-07,1.0069952662407084e-06,7.644251582171863e-07,3.024094048225804e-05
2.8566462222366574e-07,1.0116865211956067e-06,7.542564733007602e-07,3.0171300041603572e-05
2.861502721455518e-07,1.0162462467384242e-06,7.440041034970372e-07,3.0096443359740916e-05
2.866633372402297e-07,1.0206647910253872e-06,7.33765846333015e-07,3.001619213167917e-05
2.871980245714484e-07,1.0249249709989905e-06,7.236290390853677e-07,2.993079471956104e-05
2.877509940481277e-07,1.0290137515519352e-06,7.136686890199452e-07,2.984114102476673e-05
2.8832172361360256e-07,1.0329383215661336e-06,7.039462133333732e-07,2.974865261340636e-05
2.8891045881014353e-07,1.0367322378212748e-06,6.945086757452942e-07,2.9654968921272657e-05
2.8951580379714576e-07,1.040447746135747e-06,6.853897631105414e-07,2.9561660301597857e-05
2.901340485891764e-07,1.044142796451228e-06,6.766125520704687e-07,2.947019215945285e-05
2.9076015139859307e-07,1.0478707773203751e-06,6.681930034803443e-07,2.938214979353539e-05
2.91389211052173e-07,1.0516751543272729e-06,6.601430557994611e-07,2.9299413516236263e-05
2.920181408964353e-07,1.0555867669357698e-06,6.524728307739882e-07,2.922411144146694e-05
2.9264720109125126e-07,1.0596221682720809e-06,6.451921294190816e-07,2.9158462858501727e-05
2.9327977367910905e-07,1.063785396496949e-06,6.383120522920425e-07,2.9104610207631435e-05
2.9392049438755804e-07,1.0680720543997134e-06,6.318480517438447e-07,2.906447897644508e-05
2.9457359654805694e-07,1.072469979370205e-06,6.258249610254653e-07,2.9039689421949787e-05
2.9524197849286144e-07,1.076957769721707e-06,6.20281993619347e-07,2.9031498089910395e-05
2.9592715140905425e-07,1.0815062695236514e-06,6.152740738525713e-07,2.9040748924548547e-05
2.9663014844801413e-07,1.0860806101267558e-06,6.108684551414833e-07,2.906786484122203e-05
2.9735192960900066e-07,1.0906404222226378e-06,6.071388104190557e-07,2.911291169382001e-05
2.980925988706054e-07,1.0951415655316409e-06,6.041584557124799e-07,2.917568522438271e-05
2.988519086791172e-07,1.0995401585772523e-06,6.019933113478508e-07,2.9255733087597717e-05
2.9963180035504853e-07,1.10379646456113e-06,6.006954007585421e-07,2.9352302742860426e-05
3.0043679286274124e-07,1.1078771249571665e-06,6.002986342643085e-07,2.946427805153735e-05
3.012707962601745e-07,1.1117550253306968e-06,6.008206104512424e-07,2.9590170481029107e-05
3.0213438973549947e-07,1.1154072968334444e-06,6.022713654188713e-07,2.972820168053915e-05
3.030243291560295e-07,1.1188137771313626e-06,6.046626743797623e-07,2.9876446227401112e-05
3.039338086809945e-07,1.121957874902403e-06,6.080097644365359e-07,3.0032971885538814e-05
3.0485321551263127e-07,1.1248293767954608e-06,6.12324145506869e-07,3.019595480550185e-05
3.057716390435106e-07,1.1274269435831663e-06,6.17605485353477e-07,3.036375869589393e-05
3.066787080718143e-07,1.1297565869992249e-06,6.238402712174067e-07,3.0534958584812164e-05
3.075662602032023e-07,1.131826014465316e-06,6.310054861196133e-07,3.0708309784250394e-05
3.0842921454342513e-07,1.1336423456956229e-06,6.390723217814939e-07,3.088268061284658e-05
3.092659107172616e-07,1.1352151039475404e-06,6.48008548133851e-07,3.1056973044697485e-05
3.100790553251057e-07,1.1365555007417923e-06,6.577801886479097e-07,3.123004628789276e-05
3.108764637575117e-07,1.1376709875728956e-06,6.683544233082498e-07,3.140065399500959e-05
3.116694652806388e-07,1.138563777922665e-06,6.797037458822908e-07,3.156743604872768e-05
3.124694855050846e-07,1.1392330108731196e-06,6.918075505855895e-07,3.1728988774803264e-05
3.13285817627005e-07,1.139673723083113e-06,7.046485178918911e-07,3.188395590589345e-05
3.1412587700382165e-07,1.1398737572197528e-06,7.182050032369295e-07,3.203106937483012e-05
3.149958167305872e-07,1.1398129278959672e-06,7.324438039751873e-07,3.216911516310286e-05
3.159001870934208e-07,1.1394640834686965e-06,7.473189833294839e-07,3.2296845044270254e-05
3.168423203296925e-07,1.1387963102436498e-06,7.627766104785923e-07,3.241290676379387e-05
3.178255769690345e-07,1.137781658911451e-06,7.787582382098038e-07,3.251586222044201e-05
3.18853123268852e-07,1.136400875023902e-06,7.951996045018364e-07,3.2604296694688926e-05
3.1992650538957905e-07,1.1346416611134708e-06,8.120285177203015e-07,3.2676949338652994e-05
3.2104540534643413e-07,1.132491819746233e-06,8.291659671481858e-07,3.2732794195117464e-05
3.222080641472181e-07,1.1299350509103987e-06,8.46530620905488e-07,3.27710689481687e-05
3.234109739324873e-07,1.1269511345761863e-06,8.640436131080488e-07,3.2791253775731323e-05
3.2464905418022277e-07,1.1235173752712576e-06,8.81630097353599e-07,3.27929897717848e-05
3.259170803249824e-07,1.1196099626483738e-06,8.992185695717823e-07,3.2775972811496774e-05
3.272111908223023e-07,1.1152046813673684e-06,9.167412046064356e-07,3.2739882140978983e-05
3.28530226557836e-07,1.1102775472272652e-06,9.341337236084423e-07,3.2684391339112985e-05
3.298781673391385e-07,1.1048098032451058e-06,9.513316323967982e-07,3.2609259593405846e-05
3.3126659902476764e-07,1.0987995055802783e-06,9.682650710337995e-07,3.2514417575512085e-05
3.3271320958179365e-07,1.092271374148345e-06,9.848567729321096e-07,3.2399968665106514e-05
3.342364727194927e-07,1.0852731821504954e-06,1.0010233195991772e-06,3.2266121255357635e-05
3.358520447286102e-07,1.077860819417685e-06,1.0166771439390888e-06,3.211313756296021e-05
3.3757285216397763e-07,1.0700864164107256e-06,1.0317294231458835e-06,3.1941420482269044e-05
3.394099024690513e-07,1.0619994538890218e-06,1.0460965596924284e-06,3.175169965407672e-05
3.413728546548855e-07,1.053659153880425e-06,1.0597094115335382e-06,3.154505013575711e-05
3.434710292639453e-07,1.0451462852524514e-06,1.0725192239618104e-06,3.132272628662749e-05
3.457136204087304e-07,1.036562830486214e-06,1.0844961230391992e-06,3.108606171046128e-05
3.481082849028175e-07,1.0280198498228244e-06,1.095621851021626e-06,3.0836437997030024e-05
3.5065940919240323e-07,1.019622175225306e-06,1.105881180434496e-06,3.057520498454126e-05
3.533675525207375e-07,1.0114576763630713e-06,1.1152568951820794e-06,3.03035824060494e-05
3.562296315864855e-07,1.0035940949359242e-06,1.1237312147477457e-06,3.002258729452912e-05
3.5923838650075286e-07,9.96082805954123e-07,1.13129099561072e-06,2.973300130934807e-05
3.6238209457231826e-07,9.889661390173856e-07,1.1379299697616132e-06,2.943538416384732e-05
3.656466922632171e-07,9.822816998946645e-07,1.1436447795733052e-06,2.913011270759469e-05
3.690192309404428e-07,9.76060917021459e-07,1.148429270916817e-06,2.8817424952408422e-05
3.7248930677561673e-07,9.703269531643645e-07,1.1522729595930326e-06,2.8497457983721387e-05
3.7604753191378155e-07,9.650952044798993e-07,1.1551642858578677e-06,2.8170277579570867e-05
3.796839683059971e-07,9.60373946796747e-07,1.157094752069911e-06,2.783591476116408e-05
3.8338936650386313e-07,9.561644873059755e-07,1.1580596937617672e-06,2.7494420965792516e-05
3.8715752710496957e-07,9.524624867486448e-07,1.1580559550718642e-06,2.7145936046610128e-05
3.909850379622782e-07,9.492609624127053e-07,1.1570803514044719e-06,2.679072734006665e-05
3.9486830338732617e-07,9.46554500740692e-07,1.1551302591132116e-06,2.6429145218383644e-05
3.988009283337461e-07,9.44342187602425e-07,1.1522052601340349e-06,2.6061527473017176e-05
4.027734724928893e-07,9.426263864517651e-07,1.1483094590407994e-06,2.5688137634428972e-05
4.067744592982412e-07,9.414081650980907e-07,1.1434545203489262e-06,2.530915114493597e-05
4.107904364925295e-07,9.406819790832987e-07,1.1376631499650521e-06,2.492466034587156e-05
4.1480552793761785e-07,9.404325199162632e-07,1.1309709771100498e-06,2.453469337830881e-05
4.188019748018085e-07,9.406364529364531e-07,1.1234244009180358e-06,2.413924905747872e-05
4.22761185761193e-07,9.412675664628828e-07,1.1150752139784682e-06,2.3738339408268e-05
4.266642822144643e-07,9.423011966653266e-07,1.1059747167084686e-06,2.333203716573071e-05
4.304918522435502e-07,9.437152877566201e-07,1.0961697676905217e-06,2.29205359988833e-05
4.3422338705139207e-07,9.454893372643179e-07,1.0857026499611395e-06,2.2504209862495722e-05
4.37837093778971e-07,9.476058947681455e-07,1.0746138654626041e-06,2.2083634685846592e-05
4.413097089608803e-07,9.500526840698459e-07,1.0629444976328354e-06,2.165955821846944e-05
4.446161859885423e-07,9.528182609027672e-07,1.0507364382716862e-06,2.1232832768540934e-05
4.4773011665284593e-07,9.55884604837497e-07,1.0380314228509845e-06,2.0804359663032605e-05
4.5062459138260137e-07,9.592258319628044e-07,1.0248708667439195e-06,2.0375107247157448e-05
4.5327323423656504e-07,9.628118643531246e-07,1.011297895241315e-06,1.994614947044445e-05
4.556529317271102e-07,9.666097346265405e-07,9.97359663983847e-07,1.9518614416853284e-05
4.5774705171417464e-07,9.705827567870086e-07,9.831064305018992e-07,1.9093573645603063e-05
4.595452782329914e-07,9.746924962519985e-07,9.685882845365488e-07,1.867197581351535e-05
4.6104089205674963e-07,9.789018429314832e-07,9.538553418201485e-07,1.825466359942756e-05
4.622289994673912e-07,9.831737328446672e-07,9.389638867553551e-07,1.7842434346312155e-05
4.631059091428289e-07,9.87467172072125e-07,9.239831010339813e-07,1.7436064628642943e-05
4.6366906095463715e-07,9.917372813049266e-07,9.089963558309843e-07,1.703629649182235e-05
4.639181018339427e-07,9.95939617532763e-07,8.940957799903359e-07,1.664384818454065e-05
4.6385638276115e-07,1.0000323522186294e-06,8.793721210707813e-07,1.6259457139444515e-05
4.6349087458661004e-07,1.0039738961243523e-06,8.64904954857106e-07,1.588391353271809e-05
4.628301162573015e-07,1.007720892980133e-06,8.507581264398582e-07,1.5518036888041063e-05
4.618821590948884e-07,1.011229724418936e-06,8.369799102377061e-07,1.5162597516733813e-05
4.60655453935186e-07,1.0144582862960502e-06,8.236047586477062e-07,1.481824669220718e-05
4.59163802038122e-07,1.0173671715348187e-06,8.106555216308454e-07,1.4485495994676059e-05
4.574318476700399e-07,1.0199236168240827e-06,7.981455801980182e-07,1.4164752196648284e-05
4.554955750911648e-07,1.022105419955432e-06,7.860805829081081e-07,1.3856381728222736e-05
4.5339727748179503e-07,1.023899750716576e-06,7.744604280757195e-07,1.3560725923929884e-05
4.511810781624093e-07,1.025302828313528e-06,7.632814688171533e-07,1.3278042617182487e-05
4.48893495275515e-07,1.0263250087889192e-06,7.525382605387157e-07,1.300844967366854e-05
4.4658545153467377e-07,1.0269908656893902e-06,7.422246844861623e-07,1.2751943403478681e-05
4.4430979696953926e-07,1.0273290628052743e-06,7.32335277681818e-07,1.2508512191909841e-05
4.4211485651778575e-07,1.0273627522431314e-06,7.228665575312345e-07,1.227827419477147e-05
4.4003966441833275e-07,1.0271104482119694e-06,7.138169313434374e-07,1.2061511780824291e-05
4.381141222080177e-07,1.026595549085555e-06,7.051860913872535e-07,1.18586037114526e-05
4.363617023562075e-07,1.025853886993873e-06,6.969745864405903e-07,1.1669952671117869e-05
4.348008212266993e-07,1.0249333629540232e-06,6.891817139646036e-07,1.1495921677835424e-05
4.3344506429470213e-07,1.0238904806711832e-06,6.818021610882622e-07,1.1336756447571665e-05
4.323045328723669e-07,1.022788135288537e-06,6.748245371815231e-07,1.1192519722179578e-05
4.3138775371011277e-07,1.021692407805058e-06,6.682337734002513e-07,1.1063069796861486e-05
4.307027152160579e-07,1.020664826112015e-06,6.620153954845726e-07,1.0948079849992855e-05
4.3025729706509245e-07,1.019752669146389e-06,6.561570823230153e-07,1.0847066191192967e-05
4.3005918141186725e-07,1.018984381116625e-06,6.506484958768738e-07,1.0759406164432814e-05
4.3011438584563773e-07,1.018370778492935e-06,6.454833701098907e-07,1.0684363293490565e-05
4.3042478701322966e-07,1.0179076174250496e-06,6.406612755319986e-07,1.0621128526648473e-05
4.3098703739489663e-07,1.0175791055910587e-06,6.361854737132098e-07,1.056884680278476e-05
4.31793579507399e-07,1.0173638893173955e-06,6.320583954592413e-07,1.0526612779251463e-05
4.3283301925160673e-07,1.0172422113104106e-06,6.282782715112687e-07,1.049346557895533e-05
4.340887319160387e-07,1.0172006757362006e-06,6.24839546168848e-07,1.0468409482180997e-05
4.3553828452462845e-07,1.0172318708061803e-06,6.217362265736681e-07,1.0450441471834312e-05
4.3715499258698957e-07,1.0173308578040935e-06,6.189646620600368e-07,1.0438553612395058e-05
4.3890963012143756e-07,1.0174926845280513e-06,6.165237434342884e-07,1.0431716042010562e-05
4.407708960937213e-07,1.0177105568379258e-06,6.144136095160629e-07,1.042886848054657e-05
4.427053783748576e-07,1.0179734002894738e-06,6.126345730453568e-07,1.0428926730800639e-05
4.446777210280098e-07,1.018266893977447e-06,6.111856105587607e-07,1.0430802646809702e-05
4.466512652639696e-07,1.0185799516152344e-06,6.100628758025903e-07,1.0433450432311861e-05
4.485891588195647e-07,1.0189089435018417e-06,6.09261257466778e-07,1.0435920974305393e-05
4.5045580150208967e-07,1.0192529461980421e-06,6.087770489701321e-07,1.0437382162106804e-05
4.522192031454219e-07,1.019605150253727e-06,6.086071629408621e-07,1.0437122716580948e-05
4.5385337343304005e-07,1.0199486914669376e-06,6.087480847904168e-07,1.0434587993625173e-05
4.5533831138292037e-07,1.0202588667355849e-06,6.091995920437808e-07,1.0429413817523323e-05
4.5665813279112603e-07,1.0205118014847622e-06,6.099681257858236e-07,1.0421378171485725e-05
4.578002842676882e-07,1.0206976644160592e-06,6.110627916918849e-07,1.0410298885202446e-05
4.587565747712469e-07,1.0208281918239165e-06,6.124890304262835e-07,1.0395985570611364e-05
4.5952337297869356e-07,1.0209301473416948e-06,6.142482869346402e-07,1.0378280765092197e-05
4.600990347106932e-07,1.0210310252701737e-06,6.163420109630556e-07,1.0357135763250378e-05
4.6048110214406594e-07,1.0211482881411522e-06,6.187746391532567e-07,1.0332632742760773e-05
4.606658424561287e-07,1.0212870647946782e-06,6.215542132607365e-07,1.0304916874997927e-05
4.60648862778448e-07,1.021445296919598e-06,6.246911541078111e-07,1.0274113437161247e-05
4.6042520604845704e-07,1.0216198305520624e-06,6.281958422550068e-07,1.0240303073995296e-05
4.599896105339348e-07,1.0218071419279969e-06,6.320758997153062e-07,1.020355960891341e-05
4.593383856676594e-07,1.0220002018043189e-06,6.363342480010339e-07,1.0164062806925957e-05
4.5847173434948796e-07,1.0221883672488087e-06,6.409687179334098e-07,1.0122252057871793e-05
4.573936563106737e-07,1.0223645732745656e-06,6.459725291914156e-07,1.0078884404749826e-05
4.5611001658890106e-07,1.022533549436305e-06,6.513340270114061e-07,1.0034931826905848e-05
4.54627035764738e-07,1.0227100609570088e-06,6.570351650748044e-07,9.991401406940718e-06
4.529504712680358e-07,1.0229084826305305e-06,6.63050111317966e-07,9.949176954093828e-06
4.5108596996982423e-07,1.02313467963938e-06,6.693455939297988e-07,9.908969159261664e-06
4.490404289060688e-07,1.0233843229493402e-06,6.758827435861895e-07,9.871445278478404e-06
4.468226878843649e-07,1.0236449079748805e-06,6.826193885313444e-07,9.837443131843183e-06
4.444434018302758e-07,1.0238987335731895e-06,6.895119937596584e-07,9.8080562304327e-06
4.4191467147191924e-07,1.0241239347165876e-06,6.965166056751481e-07,9.784536912055246e-06
4.3924911601739037e-07,1.0242935768535802e-06,7.035904303456049e-07,9.768143560746007e-06
4.364587805201754e-07,1.0243771866655927e-06,7.106946518911683e-07,9.760042218534514e-06
4.3355517141495687e-07,1.0243486653546695e-06,7.177939744567774e-07,9.761274209846104e-06
4.305499103989317e-07,1.0241981481988782e-06,7.248516963305806e-07,9.772741521787804e-06
4.2745444401429e-07,1.0239371873174387e-06,7.318258475056795e-07,9.795200336723742e-06
4.242795171049298e-07,1.023590711434027e-06,7.386696365656453e-07,9.829336388657167e-06
4.210349926594078e-07,1.023184017054668e-06,7.453353714765937e-07,9.87597774028815e-06
4.17729035101411e-07,1.0227389499111124e-06,7.517786394823288e-07,9.93631888619166e-06
4.143672941831812e-07,1.0222824287727242e-06,7.579586259165796e-07,1.0011949669506384e-05
4.109534317419717e-07,1.021854432001995e-06,7.638361572904015e-07,1.0104686827718738e-05
4.0749107383716616e-07,1.0215036920565612e-06,7.693754117790777e-07,1.0216344511414747e-05
4.0398615775588743e-07,1.0212757168035034e-06,7.745491726272859e-07,1.034853087185376e-05
4.004475539441904e-07,1.0212040373342964e-06,7.793406647657464e-07,1.050259406426073e-05
3.9688525571626096e-07,1.0213083723767081e-06,7.837399911632039e-07,1.0679839235241072e-05
3.933080952008247e-07,1.0215979177821829e-06,7.877416273198031e-07,1.0881848090639714e-05
3.8972278437415093e-07,1.0220766864502718e-06,7.913455175090666e-07,1.111057113117782e-05
3.8613500943298433e-07,1.0227465674890442e-06,7.945577135213077e-07,1.1368159835069756e-05
3.8255238014476036e-07,1.0236065179075887e-06,7.973902402194535e-07,1.1656728322229625e-05
3.789867281883281e-07,1.0246500124326926e-06,7.998613444025746e-07,1.1978138969829731e-05
3.7545289499977687e-07,1.0258620160450351e-06,8.019931240103905e-07,1.2333830935304855e-05
3.719651503919286e-07,1.027217446071788e-06,8.03806086088644e-07,1.2724716641918868e-05
3.685350219352751e-07,1.028682845148399e-06,8.053150510551484e-07,1.3151160086130568e-05
3.6517140519363384e-07,1.0302187321777095e-06,8.06529827092596e-07,1.3613005013160346e-05
3.618810087221205e-07,1.0317802073736242e-06,8.074594377997905e-07,1.4109600151651364e-05
3.5866865575680706e-07,1.033316779250365e-06,8.081146588548197e-07,1.463980758004316e-05
3.555387164651522e-07,1.0347733223623516e-06,8.085061866659402e-07,1.5202004794172955e-05
3.5249714135621533e-07,1.036093496895596e-06,8.086424999409057e-07,1.5794081412472956e-05
3.495511932416343e-07,1.0372249713435812e-06,8.085315511455627e-07,1.6413442464081508e-05
3.467066676150853e-07,1.0381233219370108e-06,8.081833994614163e-07,1.7057063785993563e-05
3.439659376848946e-07,1.0387525206294213e-06,8.076097096837763e-07,1.7721630374233686e-05
3.4132798756677537e-07,1.0390828868433391e-06,8.068241190434363e-07,1.840371671705774e-05
3.387889132195385e-07,1.0390881686023823e-06,8.058468441495374e-07,1.9099932490925013e-05
3.3634255952613e-07,1.0387430314367347e-06,8.047063879782971e-07,1.98070006933288e-05
3.339821161088525e-07,1.038021859589311e-06,8.034335404215273e-07,2.05217809528323e-05
3.317019626793364e-07,1.0368986484451498e-06,8.020547988983981e-07,2.1241243753708165e-05
3.2949809783996293e-07,1.035347010615006e-06,8.005915753767373e-07,2.1962406257249647e-05
3.2736731993583214e-07,1.0333407334355765e-06,7.990617108368206e-07,2.2682264321182848e-05
3.2530634070072797e-07,1.0308553428861065e-06,7.974784845882496e-07,2.339774199705537e-05
3.2331221787041645e-07,1.0278689702056656e-06,7.958488541829586e-07,2.410567588266849e-05
3.213843627478799e-07,1.0243625558094995e-06,7.941751339117713e-07,2.48028707450403e-05
3.195251655233315e-07,1.0203209699399977e-06,7.924596006457036e-07,2.548621458171934e-05
3.177384135639308e-07,1.0157334190652555e-06,7.907069919473968e-07,2.6152764530178447e-05
3.1602815996528356e-07,1.0105921330564415e-06,7.889222902610249e-07,2.6799754237115586e-05
3.143983023491808e-07,1.0048920039627995e-06,7.871072402760108e-07,2.74245696756552e-05
3.128519580148511e-07,9.986311048142138e-07,7.852602533506805e-07,2.8024750230376874e-05
3.1139060821100487e-07,9.918095979561631e-07,7.833796375605104e-07,2.859801320109929e-05
3.100133500675282e-07,9.844300418129541e-07,7.81465352755564e-07,2.9142282754450787e-05
3.087183097685012e-07,9.765044970386169e-07,7.795162694773815e-07,2.9655758287300165e-05
3.075068296831414e-07,9.680651648323851e-07,7.775261065565031e-07,3.0137011338376337e-05
3.0638584682959624e-07,9.591675614470371e-07,7.754818164531709e-07,3.058501069639634e-05
3.053652016810843e-07,9.498816535064985e-07,7.733644791781032e-07,3.0999051340275516e-05
3.044537447903883e-07,9.402794990976671e-07,7.711519967826905e-07,3.137863821992426e-05
3.036583912482764e-07,9.304307176869616e-07,7.688225444989019e-07,3.172337634365937e-05
3.0298539274535236e-07,9.204051236106888e-07,7.663563769919726e-07,3.203291475504259e-05
3.024416987665157e-07,9.102732426384943e-07,7.637352306224388e-07,3.230692645722781e-05
3.020357021711413e-07,9.00104114570458e-07,7.609410743529387e-07,3.254508104180666e-05
3.017773402515061e-07,8.899648795399847e-07,7.579552222795759e-07,3.2747036222951474e-05
3.016775553573021e-07,8.79920257222883e-07,7.547578955837467e-07,3.291248312330338e-05
3.017484282781605e-07,8.700327279654516e-07,7.513297983908901e-07,3.304121014931494e-05
3.0200414724845264e-07,8.60367194026758e-07,7.47657188220482e-07,3.313313990101516e-05
3.0246003947633465e-07,8.509935963734093e-07,7.437381124917205e-07,3.318833152543745e-05
3.03129446235251e-07,8.41980260471897e-07,7.395849835421728e-07,3.3206973426520285e-05
3.040215512582752e-07,8.333864710563792e-07,7.352211918021731e-07,3.31894222328816e-05
3.051409977527916e-07,8.25267633089624e-07,7.306750572125534e-07,3.3136261371914064e-05
3.064880239162776e-07,8.176918058057659e-07,7.259772368848452e-07,3.3048280313932195e-05
3.080588234257064e-07,8.107507616405949e-07,7.211633797175172e-07,3.292638882364448e-05
3.09846528612926e-07,8.045513754877102e-07,7.162781193803064e-07,3.277154102915919e-05
3.118423755854972e-07,7.991941601617881e-07,7.11376228994368e-07,3.258468587853484e-05
3.1403608957688505e-07,7.947569983784775e-07,7.065190780722955e-07,3.236675704889136e-05
3.1641574398546014e-07,7.912904742975969e-07,7.017669514693997e-07,3.211871201364913e-05
3.1896725833284113e-07,7.888195880101509e-07,6.971718280887711e-07,3.1841564347165335e-05
3.216731427067669e-07,7.87347412456037e-07,6.927748632066439e-07,3.153635399727014e-05
3.2451237335501016e-07,7.868592344915171e-07,6.886067095501215e-07,3.1204091382085155e-05
3.274635873292477e-07,7.873262173665678e-07,6.846883420547721e-07,3.084573611924504e-05
3.305102106519233e-07,7.887086694463289e-07,6.810335127427839e-07,3.046221488119034e-05
3.3364474697731373e-07,7.909585751803363e-07,6.776529905850392e-07,3.005445309497767e-05
3.3687030178026013e-07,7.940194199653378e-07,6.745586770944098e-07,2.9623402055895332e-05
3.401983128815423e-07,7.978248735664527e-07,6.717652064670732e-07,2.917005581207871e-05
3.436447526281112e-07,8.023016132283681e-07,6.69287719693904e-07,2.869546464389248e-05
3.4722737717552845e-07,8.073770088820345e-07,6.671378730495653e-07,2.820074480738547e-05
3.509628263827022e-07,8.12986613454817e-07,6.653234150396703e-07,2.7687068699740698e-05
3.548638850699596e-07,8.190768414474517e-07,6.638543642919196e-07,2.7155634412807454e-05
3.5893874767017e-07,8.256019631629269e-07,6.627526037257632e-07,2.660763688560649e-05
3.6319043832165156e-07,8.325182440540896e-07,6.620603121580254e-07,2.6044261027102622e-05
3.676152889025792e-07,8.397789617073744e-07,6.618438140615578e-07,2.5466703289294823e-05
3.7220271793406857e-07,8.473316269984973e-07,6.62189690366096e-07,2.4876204725968603e-05
3.769366669687992e-07,8.551176286108534e-07,6.631940972554945e-07,2.427406476369655e-05
3.8179723540596253e-07,8.63075152078162e-07,6.649505499235436e-07,2.366163670972277e-05
3.8676222191824726e-07,8.711440180268049e-07,6.675398361905436e-07,2.3040333471169e-05
3.918081940385256e-07,8.792680514522432e-07,6.71023087466283e-07,2.241165089696883e-05
3.9691032424426994e-07,8.873938857390438e-07,6.754401973536632e-07,2.177718532346471e-05
4.0204166170038185e-07,8.954712877246393e-07,6.808134775310684e-07,2.1138614381207198e-05
4.071730454058633e-07,9.034560611373717e-07,6.871508236552151e-07,2.049764128173852e-05
4.122736209128375e-07,9.113088283005129e-07,6.944461020185821e-07,1.9855933769839915e-05
4.1731149130483327e-07,9.189893833130457e-07,7.026798233605038e-07,1.9215085233242286e-05
4.2225443054666674e-07,9.264536562277435e-07,7.118205187844923e-07,1.8576625851741355e-05
4.2707037797781353e-07,9.336538476145818e-07,7.218268286028405e-07,1.7942070166948713e-05
4.31727414597886e-07,9.405389313912943e-07,7.326522489973858e-07,1.7312916588222923e-05
4.361940719906665e-07,9.470575382858892e-07,7.442509312984644e-07,1.6690582245548668e-05
4.4044101241303826e-07,9.531636495943287e-07,7.565796156563154e-07,1.607636761071946e-05
4.444434565412817e-07,9.588199819978688e-07,7.695935813146795e-07,1.5471506803817095e-05
4.481828550016739e-07,9.6399661623725e-07,7.832409501226662e-07,1.4877289389024618e-05
4.5164635039562473e-07,9.68668430811013e-07,7.974612212359472e-07,1.4295207757316418e-05
4.5482433723026903e-07,9.728131666618215e-07,8.121874839403545e-07,1.3727038961799875e-05
4.577099623047107e-07,9.764088961510058e-07,8.273498190007796e-07,1.3174801617294155e-05
4.6030201000766104e-07,9.794316747019377e-07,8.428814686535756e-07,1.264062953568082e-05
4.626057949216149e-07,9.818546517604651e-07,8.587243180749863e-07,1.2126615254300708e-05
4.6462942619602596e-07,9.836490633376091e-07,8.74825270879351e-07,1.1634673318723175e-05
4.66379834033451e-07,9.847884290884293e-07,8.911274265180695e-07,1.116654734237218e-05
4.6786121336997024e-07,9.85256049667907e-07,9.07568448510193e-07,1.0723983782424902e-05
4.6907516615777757e-07,9.85050862702418e-07,9.240873172939535e-07,1.0308870556825716e-05
4.700222500494379e-07,9.841853126527207e-07,9.406317752715824e-07,9.923191708366097e-06
4.7070465315821473e-07,9.826772249334105e-07,9.57162043215024e-07,9.568855273146498e-06
4.7112789595855177e-07,9.805451326728792e-07,9.736495572491494e-07,9.24751806262641e-06
4.712995702801467e-07,9.778137690931872e-07,9.900706268824802e-07,8.960493374419938e-06
4.7122704702601783e-07,9.745265207340523e-07,1.0063985916465065e-06,8.708729443268209e-06
4.709166190347666e-07,9.707510974966985e-07,1.0225998534146982e-06,8.492800196437907e-06
4.7037335945746143e-07,9.665694555997733e-07,1.038636016014494e-06,8.312954194105102e-06
4.6960091808490686e-07,9.62060862844058e-07,1.0544694416049863e-06,8.16934112730544e-06
4.686019320835226e-07,9.572912040501403e-07,1.0700664173554944e-06,8.06235777466693e-06
4.673798639297901e-07,9.523110503269465e-07,1.0853951316349042e-06,7.992824967622781e-06
4.659420420171396e-07,9.47158173173428e-07,1.100422915822525e-06,7.961853995633223e-06
4.643010459019678e-07,9.418602941519691e-07,1.115117916520642e-06,7.970581874930256e-06
4.6247190662728567e-07,9.364361361432043e-07,1.129452282285091e-06,8.019935724060579e-06
4.6046791323673527e-07,9.308960061233946e-07,1.1434008466880936e-06,8.110474208558572e-06
4.582990792378973e-07,9.252441129556757e-07,1.1569357116383413e-06,8.242461485559939e-06
4.559730006644805e-07,9.19481082223868e-07,1.1700216032912965e-06,8.416186126596991e-06
4.534964517946879e-07,9.136043384294993e-07,1.1826148638051856e-06,8.632192872859961e-06
4.5087714229802704e-07,9.076084385553116e-07,1.1946651833028312e-06,8.891245593846118e-06
4.481253462343243e-07,9.014876192426228e-07,1.2061175233904213e-06,9.194178031164296e-06
4.452550769500314e-07,8.952387098287154e-07,1.216913764151337e-06,9.541765656126934e-06
4.4228434628185795e-07,8.888611011411758e-07,1.2269954151502478e-06,9.934628511969867e-06
4.3923469081501284e-07,8.823538764062115e-07,1.2363055005761715e-06,1.0373130805182567e-05
4.361299437003601e-07,8.757134427652988e-07,1.24478744282928e-06,1.0857251054111442e-05
4.329942728584491e-07,8.689331175506693e-07,1.2523837908849122e-06,1.1386470337899921e-05
4.2985052751016313e-07,8.620040754055033e-07,1.2590368582840159e-06,1.1959730744990331e-05
4.267189485337895e-07,8.549170737119441e-07,1.2646899937747306e-06,1.2575431556744427e-05
4.236166487007153e-07,8.476641711407734e-07,1.2692892408381431e-06,1.3231421716539188e-05
4.205590907851522e-07,8.402409101386038e-07,1.2727861140489055e-06,1.3925000630453485e-05
4.1756135568179655e-07,8.326487404128108e-07,1.2751408230585584e-06,1.4652941274109644e-05
4.146366787420614e-07,8.248944839570971e-07,1.2763236983243551e-06,1.541154233904283e-05
4.117943576373696e-07,8.169882254099879e-07,1.2763136030339072e-06,1.6196740670251818e-05
4.090395303849641e-07,8.089458422370254e-07,1.2750955484797235e-06,1.7004297009464483e-05
4.063745986897028e-07,8.007941216448546e-07,1.2726619236608127e-06,1.7829982957294195e-05
4.038006470582997e-07,7.925698478543255e-07,1.2690173900561217e-06,1.866967909519164e-05
4.013179078393536e-07,7.843126182851587e-07,1.2641816155883351e-06,1.951940031672231e-05
3.9892589756506344e-07,7.760598866760872e-07,1.2581872569523024e-06,2.03753106059388e-05
3.966230284650181e-07,7.678483287514894e-07,1.251075330237485e-06,2.1233730411925897e-05
3.944053946627889e-07,7.597169721307472e-07,1.242889867517697e-06,2.2091123521256065e-05
3.922659975756628e-07,7.517069247683514e-07,1.2336737639161891e-06,2.294406367425857e-05
3.901955451209908e-07,7.438568676477891e-07,1.223466743851896e-06,2.378917125476153e-05
3.881844644458571e-07,7.361983363117976e-07,1.2123052194327544e-06,2.4623045243300386e-05
3.8622400447895456e-07,7.287559897952659e-07,1.200224058429107e-06,2.5442270942982637e-05
3.8430541568239475e-07,7.215508658377802e-07,1.1872592904849435e-06,2.62435109428987e-05
3.8241898157441747e-07,7.146008406107212e-07,1.173450400748508e-06,2.702357432865111e-05
3.805541684058421e-07,7.079182125078188e-07,1.1588413161651358e-06,2.7779425716451287e-05
3.787010300546433e-07,7.015080507272529e-07,1.143479611052168e-06,2.8508193032466986e-05
3.7685198000219225e-07,6.953690217514543e-07,1.12741532821724e-06,2.920718399008008e-05
3.750014279152706e-07,6.89495893722132e-07,1.110701197704501e-06,2.987389128564359e-05
3.731433105634192e-07,6.838830516779956e-07,1.0933944227209039e-06,3.050603570119611e-05
3.712694762900595e-07,6.785284495388411e-07,1.075559831026027e-06,3.110167002967529e-05
3.6936998819841544e-07,6.734361660224942e-07,1.057272440173019e-06,3.165924800000031e-05
3.674343556736649e-07,6.686156937414016e-07,1.038615757200898e-06,3.217759808317923e-05
3.654525835440236e-07,6.640779894354099e-07,1.019676826703235e-06,3.2655841899536886e-05
3.634157276591404e-07,6.598320225270185e-07,1.0005424904875369e-06,3.3093291276763176e-05
3.6131629652362795e-07,6.558843191029892e-07,9.81297022895428e-07,3.3489362357881355e-05
3.591487026440433e-07,6.522385069049365e-07,9.62019626781143e-07,3.3843545414664544e-05
3.569111937626824e-07,6.488942484652566e-07,9.427824050155052e-07,3.415540923472645e-05
3.5460912596336157e-07,6.458500229626849e-07,9.236492085166409e-07,3.4424611721956185e-05
3.5225536413539157e-07,6.431095655751488e-07,9.046758738723888e-07,3.4650941196767904e-05
3.4986707769616307e-07,6.406867621788644e-07,8.859126330517166e-07,3.483438318763081e-05
3.4746287605482364e-07,6.386078165682438e-07,8.674073003570705e-07,3.497513756429853e-05
3.4506100723607787e-07,6.369097482395211e-07,8.492057924460473e-07,3.507356681972701e-05
3.426773056121673e-07,6.356323460196306e-07,8.313498967757452e-07,3.513014737254801e-05
3.403236965649849e-07,6.348082633845e-07,8.138767102598577e-07,3.514549538936104e-05
3.3800837846519323e-07,6.344599779998021e-07,7.96821010763329e-07,3.51204506660183e-05
3.3573724858537567e-07,6.346071564970747e-07,7.802184702756557e-07,3.50561081618224e-05
3.335148791301761e-07,6.352790080932951e-07,7.641090343359326e-07,3.4953740416018545e-05
3.3134402750177003e-07,6.365194688580165e-07,7.485383222605161e-07,3.4814674198555276e-05
3.292247823120553e-07,6.38381251238942e-07,7.335542423551319e-07,3.4640202144221325e-05
3.271548500598106e-07,6.409153084942073e-07,7.192004747404205e-07,3.443155163873145e-05
3.251306415960091e-07,6.441613909828135e-07,7.055115670451467e-07,3.418988634405192e-05
3.231483595613309e-07,6.481437410844973e-07,6.925142565159467e-07,3.391632701857992e-05
3.212060211945368e-07,6.528718924952953e-07,6.802350368285021e-07,3.361199344172604e-05
3.1930652025635854e-07,6.583410941309529e-07,6.687074484654885e-07,3.327804357685744e-05
3.174593821216002e-07,6.645310006976129e-07,6.579747516068981e-07,3.2915673504049303e-05
3.15680724409055e-07,6.714057940688902e-07,6.480900823962916e-07,3.2526079886955795e-05
3.1399398412415737e-07,6.789160975460267e-07,6.391150478445678e-07,3.211042277370302e-05
3.12431651432576e-07,6.87001471833003e-07,6.311139350315127e-07,3.166981230524218e-05
3.110338251149975e-07,6.955935622316662e-07,6.241436196261651e-07,3.1205321816764755e-05
3.098415856095314e-07,7.046196535122175e-07,6.182445678707851e-07,3.0718027400853165e-05
3.0888993625380076e-07,7.140052912341608e-07,6.134369205925472e-07,3.0209063732504247e-05
3.0820537700761e-07,7.236756802044418e-07,6.097209849399879e-07,2.9679656385421844e-05
3.0780808153630873e-07,7.33558324024988e-07,6.070798596039704e-07,2.9131098170433906e-05
3.07716200013387e-07,7.435864830054915e-07,6.054821219758782e-07,2.8564705000312123e-05
3.0794920248386367e-07,7.536980846964589e-07,6.048846241880909e-07,2.7981797367803087e-05
3.085280808628069e-07,7.638304084801718e-07,6.052374212445539e-07,2.738369830284436e-05
3.094744277653977e-07,7.739168105123624e-07,6.064905458069167e-07,2.67717316304264e-05
3.1081174608806014e-07,7.83888360261515e-07,6.085991311156596e-07,2.614722271624992e-05
3.125670939563129e-07,7.936791972694627e-07,6.115238353131023e-07,2.5511504922355968e-05
3.147684293811888e-07,8.032307361440609e-07,6.152266649829775e-07,2.4865938244687696e-05
3.174384334716668e-07,8.124905417038845e-07,6.196663214459475e-07,2.421194847061809e-05
3.205897458068944e-07,8.214088129325859e-07,6.247975571241804e-07,2.355108467094993e-05
3.242235490348579e-07,8.299361983743981e-07,6.30572612345943e-07,2.2885063417383028e-05
3.283302937460372e-07,8.380229403841021e-07,6.369401473815096e-07,2.2215757056708687e-05
3.328914188203576e-07,8.45620418309838e-07,6.438428842560625e-07,2.154512565975504e-05
3.378816447661809e-07,8.526853814794085e-07,6.512171771444527e-07,2.0875131115438747e-05
3.4327176815643485e-07,8.591825374481331e-07,6.589945568455698e-07,2.020768367400002e-05
3.4903121497170053e-07,8.650825377487267e-07,6.67105213252271e-07,1.954464854480108e-05
3.551301804089095e-07,8.703590616622326e-07,6.754826053877828e-07,1.8887852904412092e-05
3.6154218622021346e-07,8.749893438525698e-07,6.840648901979407e-07,1.823902789960344e-05
3.682448785618763e-07,8.78956386085352e-07,6.927915935290286e-07,1.7599739512855804e-05
3.752163146729634e-07,8.822487946039553e-07,7.01601050088695e-07,1.6971390510267238e-05
3.8242983435912646e-07,8.8485911061897e-07,7.104337779974259e-07,1.6355302218511303e-05
3.898527805990954e-07,8.867834535191868e-07,7.192384976463511e-07,1.5752842075498487e-05
3.9744981169444325e-07,8.880219043552137e-07,7.279735226199082e-07,1.5165534918283035e-05
4.051867138840282e-07,8.885789093293716e-07,7.366026614139791e-07,1.4595086825094662e-05
4.130305548873618e-07,8.884636571130502e-07,7.450900930418934e-07,1.4043308241101727e-05
4.209475467338021e-07,8.876897376559954e-07,7.533969760993037e-07,1.3511975852393565e-05
4.289029283299741e-07,8.86274537799984e-07,7.614805872567638e-07,1.3002683766228435e-05
4.368636020834777e-07,8.842395365133228e-07,7.692965148384638e-07,1.2516772542799958e-05
4.4480111034825904e-07,8.816127696714785e-07,7.76803104558047e-07,1.20554132650085e-05
4.526923155597855e-07,8.784328109714485e-07,7.839649984376182e-07,1.1619778948878039e-05
4.605167750398573e-07,8.747499311712595e-07,7.907525307947869e-07,1.1211138964909948e-05
4.682533102022542e-07,8.706215367457737e-07,7.971387313774772e-07,1.0830806990957773e-05
4.758789443437912e-07,8.661050253931715e-07,8.031001560945009e-07,1.0480007311699677e-05
4.833691084722239e-07,8.612552156413885e-07,8.086223468296799e-07,1.0159755933209836e-05
4.906972903623257e-07,8.561300565181195e-07,8.137038639281752e-07,9.870802739183536e-06
4.978363584887105e-07,8.507981635167119e-07,8.183561582146282e-07,9.613621291909627e-06
5.047618212329594e-07,8.453384638330088e-07,8.226001321470459e-07,9.38844113301792e-06
5.114529814794578e-07,8.398315892787055e-07,8.264598113701581e-07,9.195379047386422e-06
5.178916021402106e-07,8.343512021102732e-07,8.299559609505948e-07,9.034697053560106e-06
5.240608996783936e-07,8.289636809842906e-07,8.33102904473492e-07,8.907033227992507e-06
5.299446985346665e-07,8.237381312945327e-07,8.359085290087015e-07,8.813401689978455e-06
5.355264969556484e-07,8.187580526929132e-07,8.383768699366309e-07,8.754992248576789e-06
5.407899497154439e-07,8.141225816286177e-07,8.405124457365491e-07,8.732936008247947e-06
5.457200883229503e-07,8.099353639670306e-07,8.423238066521742e-07,8.748122521469881e-06
5.503036152404752e-07,8.062905851839897e-07,8.438237772765184e-07,8.801158761999355e-06
5.545281081378611e-07,8.032648806654986e-07,8.450257618946959e-07,8.89256180349236e-06
5.583808042167451e-07,8.009148909328079e-07,8.459393520072709e-07,9.023039071490777e-06
5.618489295390399e-07,7.992769132719379e-07,8.465690864536577e-07,9.193580652458708e-06
5.649232861071571e-07,7.983676217643601e-07,8.469150400262815e-07,9.40533479569316e-06
5.676027260158558e-07,7.981862158136944e-07,8.469729940855513e-07,9.65942369239143e-06
5.698949841384856e-07,7.987182906904483e-07,8.467357090177118e-07,9.956787681898196e-06
5.718132213844739e-07,7.999402268977733e-07,8.461965449172127e-07,1.029807789945284e-05
5.733717460379732e-07,8.01822035359734e-07,8.453540649660986e-07,1.0683582496547383e-05
5.745841648650215e-07,8.043283275849847e-07,8.44215825718732e-07,1.1113158452965567e-05
5.754643309773164e-07,8.074186052708044e-07,8.427999948311876e-07,1.1586193471378587e-05
5.760271578389632e-07,8.110481169434521e-07,8.411341300790614e-07,1.2101630041537864e-05
5.762871400293292e-07,8.151700393268029e-07,8.392515872636557e-07,1.2658002114191687e-05
5.762567543220746e-07,8.197397468942359e-07,8.371860495589068e-07,1.3253420201479559e-05
5.759463688662628e-07,8.247189683767972e-07,8.349657060106465e-07,1.3885528180076614e-05
5.753639581753123e-07,8.300738262745129e-07,8.3261178559528e-07,1.4551485920677902e-05
5.745145614469981e-07,8.357676179142009e-07,8.301448096589181e-07,1.5248002857248398e-05
5.734009190996001e-07,8.417564146174433e-07,8.275931057963152e-07,1.597144479852245e-05
5.720244709833774e-07,8.479892087004734e-07,8.24993676171454e-07,1.6717999468353433e-05
5.703857895768372e-07,8.544092953744238e-07,8.223849145908534e-07,1.748382309228702e-05
5.68484764520805e-07,8.609561756491549e-07,8.197999109102312e-07,1.8265123220236768e-05
5.663205041200914e-07,8.675681165480145e-07,8.172643360667009e-07,1.90582051632256e-05
5.638913385149482e-07,8.741859526871595e-07,8.147958926398803e-07,1.985949203262406e-05
5.611954722170938e-07,8.807589081751044e-07,8.124048061961151e-07,2.066550471076861e-05
5.582318510865903e-07,8.872491760593358e-07,8.100976408905298e-07,2.1472817592482103e-05
5.550006088272075e-07,8.936309746103096e-07,8.078822965970155e-07,2.227800860663381e-05
5.515031361478608e-07,8.998851524950165e-07,8.05769005985602e-07,2.3077617512399843e-05
5.47742669705262e-07,9.059929252808794e-07,8.03766611921991e-07,2.386813784136176e-05
5.437248854331009e-07,9.119316761226743e-07,8.018784483483017e-07,2.464604617471404e-05
5.394568669527501e-07,9.176740194155277e-07,8.00100553546478e-07,2.5407836873471505e-05
5.349457172449743e-07,9.231881344536684e-07,7.984214595903856e-07,2.6150040929824026e-05
5.301987555119758e-07,9.284379140208208e-07,7.968234844625174e-07,2.6869251023226988e-05
5.252249715986298e-07,9.333835820245436e-07,7.952856120414095e-07,2.756218520369224e-05
5.200366360889297e-07,9.379833550466074e-07,7.937865311465619e-07,2.8225778559327202e-05
5.146495790383728e-07,9.421967179640799e-07,7.923061066158331e-07,2.8857229551345788e-05
5.090821899138288e-07,9.459885855015771e-07,7.908237718953355e-07,2.945394914602292e-05
5.033550722296128e-07,9.493317252129969e-07,7.89315338363611e-07,3.001348556937928e-05
4.974915867104882e-07,9.522057130831068e-07,7.877517814050287e-07,3.053352555947875e-05
4.91517816189096e-07,9.54593808402981e-07,7.86100180018316e-07,3.101195886220133e-05
4.854609304691344e-07,9.564813759222594e-07,7.843263837857748e-07,3.144697048862163e-05
4.793466667357413e-07,9.57856498470827e-07,7.824018059038192e-07,3.183719783268573e-05
4.731989989034238e-07,9.587107820689224e-07,7.803118042622971e-07,3.2181910487412416e-05
4.670430254600728e-07,9.59040543871636e-07,7.780570447972772e-07,3.2481046471210644e-05
4.609067544909912e-07,9.58847500992472e-07,7.756464648514347e-07,3.273504795288254e-05
4.5481929913483e-07,9.581380968339576e-07,7.730893399950345e-07,3.29446146309427e-05
4.488087865881686e-07,9.569264815513195e-07,7.703917407121559e-07,3.311049600443949e-05
4.4290189229197285e-07,9.552431418540596e-07,7.675574359057291e-07,3.323337185905426e-05
4.3712384114561004e-07,9.531396511171804e-07,7.645901476149869e-07,3.331382053927815e-05
4.3149817745751725e-07,9.506811817759571e-07,7.614941399415999e-07,3.3352344801116995e-05
4.2604563308989796e-07,9.479338576198359e-07,7.58274006698906e-07,3.3349473639847824e-05
4.2078250226196787e-07,9.449589858664502e-07,7.549350945602083e-07,3.3306030916097816e-05
4.1572015064611703e-07,9.418135553642078e-07,7.514828952326612e-07,3.32234938074007e-05
4.108656069331575e-07,9.3855315317153e-07,7.47920368762362e-07,3.310413572944236e-05
4.0622206087984023e-07,9.352387111613279e-07,7.44245895578092e-07,3.295084521668845e-05
4.0178898802411337e-07,9.319420992257624e-07,7.40454358155088e-07,3.2766815043249496e-05
3.975620868728664e-07,9.287447036804147e-07,7.365395769674976e-07,3.255527608204629e-05
3.9353321347405217e-07,9.25731670733513e-07,7.324974955975546e-07,3.2319423586172946e-05
3.8969065730268796e-07,9.229851383796988e-07,7.283322917314534e-07,3.2062642382444566e-05
3.860197828686121e-07,9.205771106250769e-07,7.24061828101512e-07,3.178881290720322e-05
3.825040926761593e-07,9.185632183012713e-07,7.197173117646397e-07,3.150235815878313e-05
3.79126965539657e-07,9.169805123829977e-07,7.153386627680606e-07,3.120804096042317e-05
3.758734430558546e-07,9.158508606014324e-07,7.109681552410742e-07,3.091072510797879e-05
3.7273094788969453e-07,9.151855685802714e-07,7.066446730950406e-07,3.061518562957013e-05
3.696890930818982e-07,9.149859927428276e-07,7.024015771847579e-07,3.0325962516780683e-05
3.6673989896005797e-07,9.152422245725115e-07,6.982665603020192e-07,3.0047246717869732e-05
3.6387809370927634e-07,9.159355565694707e-07,6.942612148341787e-07,2.9782789825733442e-05
3.6110008491877215e-07,9.170427948216805e-07,6.904016683608617e-07,2.953585098830176e-05
3.584031335651333e-07,9.185362822701012e-07,6.866998561516324e-07,2.9309189053268903e-05
3.55786875092508e-07,9.203812658039863e-07,6.83164513579128e-07,2.9105059448507698e-05
3.5325502113242457e-07,9.225355712672972e-07,6.798033434788943e-07,2.8925168319648687e-05
3.508140290125552e-07,9.249525555575357e-07,6.766251146404195e-07,2.8770600470097497e-05
3.4846974580962487e-07,9.275851077764572e-07,6.736398018353003e-07,2.864178211608564e-05
3.462249867928369e-07,9.303864978495001e-07,6.708588963679311e-07,2.853853623857948e-05
3.440790848677029e-07,9.333078823490332e-07,6.682970308097061e-07,2.8460253987666872e-05
3.420293794600189e-07,9.362974756735259e-07,6.659722166106836e-07,2.8406115092683253e-05
3.4007368724991626e-07,9.393027864543855e-07,6.639024766760961e-07,2.837522932008612e-05
3.382114193526012e-07,9.422723214143732e-07,6.621008633610542e-07,2.8366664737733983e-05
3.364428645669725e-07,9.451549966653515e-07,6.605735258109271e-07,2.8379452504771413e-05
3.347684095867179e-07,9.478994275765194e-07,6.593219828210263e-07,2.8412616800807452e-05
3.3318839544859107e-07,9.504562785950424e-07,6.583453257775646e-07,2.8465187962175e-05
3.3170323112723907e-07,9.52783523866658e-07,6.576398735088745e-07,2.8536177134630486e-05
3.303133428404614e-07,9.548498496149523e-07,6.572001061780284e-07,2.862453706419217e-05
3.290186507494314e-07,9.5663309513391e-07,6.570230487873425e-07,2.8729113924527522e-05
3.278183982653489e-07,9.581157778125082e-07,6.571103617756086e-07,2.8848577812002508e-05
3.2671233545309385e-07,9.592809617909072e-07,6.574639518978107e-07,2.8981383287799187e-05
3.257026177801924e-07,9.601100699611036e-07,6.580809375415364e-07,2.912580687511337e-05
3.247948628983613e-07,9.605822118310292e-07,6.589553754583625e-07,2.927999733648421e-05
3.239970308953627e-07,9.60674867071475e-07,6.600855018140198e-07,2.9441986567296666e-05
3.233162659679861e-07,9.603668765428578e-07,6.614794161873288e-07,2.9609695916464253e-05
3.227561968904024e-07,9.596427677326946e-07,6.631554242031887e-07,2.9780959238503444e-05
3.223166304170891e-07,9.58497360207413e-07,6.651386022202381e-07,2.9953565242808972e-05
3.219945959279186e-07,9.5694012300332e-07,6.674549397175132e-07,3.0125362638704747e-05
3.217855853961527e-07,9.549947825375871e-07,6.701239206534142e-07,3.0294408080025282e-05
3.2168562915723683e-07,9.526918493566349e-07,6.731531561384126e-07,3.045904103437608e-05
3.2169478126539157e-07,9.50060007422254e-07,6.765374935934142e-07,3.061786538597544e-05
3.2182053842612073e-07,9.471224661888928e-07,6.802603707090023e-07,3.076970166467357e-05
3.220774277324018e-07,9.438986602108788e-07,6.842950983341827e-07,3.091351657966093e-05
3.224820386559617e-07,9.40407483130555e-07,6.886071555578749e-07,3.104832674115659e-05
3.23049046308125e-07,9.366684507541023e-07,6.931574132284483e-07,3.117311279808517e-05
3.237914345818854e-07,9.327012866108036e-07,6.979032671588747e-07,3.12867783584212e-05
3.247219661155839e-07,9.285250186454805e-07,7.027975164329575e-07,3.138817339611304e-05
3.258537478731056e-07,9.241580127166769e-07,7.077880069866783e-07,3.147618768904393e-05
3.271997183127991e-07,9.196241608535359e-07,7.128191045129456e-07,3.154986866378455e-05
3.2877131546162126e-07,9.149630722302471e-07,7.17833325984142e-07,3.160849189429257e-05
3.3057760761189087e-07,9.102303035718682e-07,7.227719351853595e-07,3.165154484026154e-05
3.326253037219813e-07,9.054843893480759e-07,7.275757007908255e-07,3.167865197507801e-05
3.349190217552649e-07,9.007753037465494e-07,7.321874100275861e-07,3.168954130531601e-05
3.374611363867089e-07,8.961459335918331e-07,7.365560881476288e-07,3.168406827937859e-05
3.402511785766532e-07,8.916439947606379e-07,7.406418053354931e-07,3.16622105309945e-05
3.432857263519765e-07,8.873311418098166e-07,7.44419836701118e-07,3.162402831082366e-05
3.465587010977283e-07,8.83279346022418e-07,7.478826502116957e-07,3.156963270388933e-05
3.5006130091873985e-07,8.795603072013039e-07,7.510370495673698e-07,3.149916439709469e-05
3.537812442460956e-07,8.762368148148458e-07,7.538957217589392e-07,3.1412783881010324e-05
3.5770138916835853e-07,8.73357063839613e-07,7.564682337582506e-07,3.1310679135603965e-05
3.617993821023321e-07,8.709517361412037e-07,7.587581498496534e-07,3.1193090515256976e-05
3.660499891092114e-07,8.690337498621876e-07,7.60767555912737e-07,3.106037509318515e-05
3.704295395848306e-07,8.67600235267724e-07,7.625028641162356e-07,3.091313339131034e-05
3.749207460847407e-07,8.666384081140442e-07,7.63974374775288e-07,3.075232304074397e-05
3.795155506551636e-07,8.661332558718706e-07,7.651909398519232e-07,3.0579243921024844e-05
3.84214775751333e-07,8.660695111897779e-07,7.661580786720982e-07,3.0395393227849706e-05
3.890258950797911e-07,8.66427367345261e-07,7.668817190406495e-07,3.020227633306325e-05
3.9395899544588214e-07,8.671797179318449e-07,7.673718757957734e-07,3.000124657824259e-05
3.9902065873298e-07,8.68293322279561e-07,7.676432253841217e-07,2.9793422425632337e-05
4.042093345764808e-07,8.697297335824466e-07,7.677135878748049e-07,2.9579724208966826e-05
4.0951546960214313e-07,8.714445171636898e-07,7.676005941039251e-07,2.9361012066835235e-05
4.1492509178297317e-07,8.73387651877101e-07,7.673183012400476e-07,2.913821207981663e-05
4.2042275163027603e-07,8.755068033040619e-07,7.668763130422899e-07,2.891234635296189e-05
4.2599168271006717e-07,8.777516638498081e-07,7.662806926642145e-07,2.868449159220111e-05
4.316128985507887e-07,8.800764231695592e-07,7.655348708241192e-07,2.8455727122631566e-05
4.37264786852818e-07,8.824382126404665e-07,7.64640062632811e-07,2.8227113927977728e-05
4.429232802978404e-07,8.847936094658299e-07,7.6359626591491e-07,2.799971701226523e-05
4.485622011566326e-07,8.870979310542772e-07,7.624051421732508e-07,2.7774675243139674e-05
4.541532631570524e-07,8.893068982043186e-07,7.610727434470799e-07,2.7553368598576502e-05
4.5966617695730847e-07,8.91378559245911e-07,7.596093258878713e-07,2.73376849792938e-05
4.6506909105136604e-07,8.932770661065166e-07,7.580279638857182e-07,2.713019213668497e-05
4.7032896283378657e-07,8.949760789017163e-07,7.563440187500538e-07,2.6934018916319903e-05
4.754117339302818e-07,8.964565210435854e-07,7.545737646243585e-07,2.675250390010051e-05
4.802823113788562e-07,8.977007855293762e-07,7.527311894375936e-07,2.6588783069004344e-05
4.849047511834945e-07,8.986897427152994e-07,7.508249418763028e-07,2.644550626538873e-05
4.892433058907193e-07,8.994035985581757e-07,7.488571246943702e-07,2.632494764684033e-05
4.932645022302392e-07,8.998251281091835e-07,7.468236985761479e-07,2.6229467645006404e-05
4.969397616514287e-07,8.999452141678354e-07,7.447154574939487e-07,2.6161811701032786e-05
5.002476914211743e-07,8.997667331062885e-07,7.425190991907804e-07,2.6124979109724618e-05
5.031745216726442e-07,8.993019059795099e-07,7.402187008250188e-07,2.612192380201633e-05
5.057120888492126e-07,8.985653763709493e-07,7.377987060383469e-07,2.6155319531775652e-05
5.078554524821418e-07,8.975690487100307e-07,7.352486001881014e-07,2.622739676274115e-05
5.096015746635611e-07,8.963228586390171e-07,7.325662743594624e-07,2.633981953470918e-05
5.109483096472622e-07,8.948417957139807e-07,7.297572616106374e-07,2.6493593322054338e-05
5.118940894487391e-07,8.931526491681195e-07,7.268310365950491e-07,2.668902285583482e-05
5.124390460672179e-07,8.91291293164224e-07,7.237974077547578e-07,2.692572906974397e-05
5.125857971626561e-07,8.892925522636934e-07,7.206642798915851e-07,2.7202670340102052e-05
5.123383930671751e-07,8.871857930588057e-07,7.174361508487033e-07,2.7518121731978528e-05
5.117014835881437e-07,8.850010974998995e-07,7.141142359712205e-07,2.7869666684461333e-05
5.106816078023233e-07,8.827759778944002e-07,7.107004820697402e-07,2.825427015090105e-05
5.092881976389451e-07,8.805541027507917e-07,7.072029137754902e-07,2.866841813758493e-05
5.075320485592063e-07,8.783794459226582e-07,7.036370138823809e-07,2.9108272987314838e-05
5.054239041735429e-07,8.76291994839813e-07,7.000242610122266e-07,2.9569807464321166e-05
5.02975327273335e-07,8.743253210004688e-07,6.963923226875495e-07,3.004890310925021e-05
5.001993774897333e-07,8.725061614759334e-07,6.927771834445215e-07,3.054142395013993e-05
4.971093037199131e-07,8.708605308934013e-07,6.892236246909735e-07,3.10432756818909e-05
4.93716929631152e-07,8.694232362715824e-07,6.85780030825164e-07,3.155044014812268e-05
4.900323013314872e-07,8.682378613535885e-07,6.824893231961928e-07,3.205897369538283e-05
4.86064382901216e-07,8.673460155848201e-07,6.793835328159845e-07,3.2564987857201614e-05
4.818219921218654e-07,8.66779436093173e-07,6.764851362659824e-07,3.306464221452337e-05
