3.645421651458533e-07,9.77478438340255e-07,7.60697758472924e-07,1.9490015657207625e-05
3.646149416072021e-07,9.78272140007313e-07,7.642878334954486e-07,1.940610000898983e-05
3.6457263556838327e-07,9.785343532781978e-07,7.67715403384303e-07,1.931901560961203e-05
3.644009767616506e-07,9.782544077475755e-07,7.709921554504343e-07,1.9228914886545106e-05
3.640880418225254e-07,9.774314924085e-07,7.741269445002975e-07,1.913590354319365e-05
3.6362576597504157e-07,9.760792370193865e-07,7.771262101167014e-07,1.9040267534190155e-05
3.630091829109645e-07,9.74225479989027e-07,7.79997163716645e-07,1.8942754417233083e-05
3.6223456177466606e-07,9.719065880061214e-07,7.827489929844524e-07,1.8844596018325525e-05
3.612991884387804e-07,9.69163807272687e-07,7.85389086816861e-07,1.8747279939046494e-05
3.602027423882774e-07,9.660478492244629e-07,7.879202111937794e-07,1.8652396504121698e-05
3.589482430761239e-07,9.626232334486551e-07,7.903435209063434e-07,1.856163448212773e-05
3.5754198070092e-07,9.589624571971953e-07,7.926631937845143e-07,1.847675497907961e-05
3.559927641221385e-07,9.551354343985692e-07,7.948870489105003e-07,1.8399497773341454e-05
3.5431038321799395e-07,9.512051489980686e-07,7.970243950398381e-07,1.8331463053054567e-05
3.525046157477074e-07,9.472327994756256e-07,7.990867122451044e-07,1.8274003908840226e-05
3.505857198241613e-07,9.432875404013992e-07,8.010931966001578e-07,1.8228166588241552e-05
3.485646063106107e-07,9.394526615357643e-07,8.030780465733339e-07,1.8194682098054934e-05
3.464525846551267e-07,9.358240026664049e-07,8.050960056468186e-07,1.8173985147098105e-05
3.4426220878495226e-07,9.32502353713486e-07,8.072238815462452e-07,1.816623198130584e-05
3.420077220030897e-07,9.295831899468369e-07,8.09556802272608e-07,1.8171302372040478e-05
3.397037339812414e-07,9.271472330254234e-07,8.122003061465504e-07,1.818880732979819e-05
3.3736373279143766e-07,9.2525551201464e-07,8.152592532318457e-07,1.8218137243454107e-05
3.349995973782923e-07,9.2394890311389e-07,8.188251631546518e-07,1.8258539288162887e-05
3.326219229240605e-07,9.232487044854422e-07,8.229683756721104e-07,1.8309158034286853e-05
3.3024102008446196e-07,9.231572627568398e-07,8.277379813573352e-07,1.8369019855690547e-05
3.27868603978441e-07,9.236592628562657e-07,8.331641046763701e-07,1.8437040927242925e-05
3.2551907629032986e-07,9.247233260728846e-07,8.392595420510059e-07,1.851209683227167e-05
3.232085895440813e-07,9.263047040207129e-07,8.460214908669892e-07,1.8593083458130868e-05
3.209527025005927e-07,9.283492554382187e-07,8.53432488548545e-07,1.8678926402565093e-05
3.1876462399108675e-07,9.307968245376223e-07,8.614611244609213e-07,1.876855960362218e-05
3.1665447035117195e-07,9.335842872800743e-07,8.700638157260588e-07,1.886089304199933e-05
3.1463016352114397e-07,9.366505589794421e-07,8.791862598218489e-07,1.8954804410156007e-05
3.126992576199615e-07,9.399434071384311e-07,8.887640269221001e-07,1.9049192721519987e-05
3.108688919153031e-07,9.434254885194455e-07,8.987254918530668e-07,1.914307585497402e-05
3.09144444075888e-07,9.470762579642759e-07,9.089991497266573e-07,1.9235657304392293e-05
3.075302066845939e-07,9.508872444268236e-07,9.195213003892995e-07,1.932628693197493e-05
3.0603155910082825e-07,9.548524048673337e-07,9.302389252994945e-07,1.941432818605118e-05
3.0465620288383215e-07,9.589592097882431e-07,9.411079782780918e-07,1.949905362618479e-05
3.0341498617113144e-07,9.631848468252814e-07,9.520892121621289e-07,1.9579682097987352e-05
3.023223413360934e-07,9.674970954707322e-07,9.631417926072916e-07,1.9655534449036595e-05
3.013945069573956e-07,9.718572741794191e-07,9.742167664732405e-07,1.972615071734649e-05
3.0064630119706524e-07,9.762264256966976e-07,9.852539700670346e-07,1.979123906044776e-05
3.000890639370877e-07,9.805759273024003e-07,9.961832961846236e-07,1.9850514458294305e-05
2.99731354041665e-07,9.84894722937102e-07,1.0069286738377694e-06,1.990358800263229e-05
2.9958241492136767e-07,9.891846964053787e-07,1.0174116612372032e-06,1.994997280207245e-05
2.996552804865606e-07,9.93448562494491e-07,1.0275525452755985e-06,1.9989152555585238e-05
2.9996612148843807e-07,9.9768096999881e-07,1.0372705874727119e-06,2.002064327736592e-05
3.0053126278138554e-07,1.0018661799469677e-06,1.0464861119277435e-06,2.0044016534020165e-05
3.013654554189137e-07,1.0059794031289177e-06,1.0551239021465502e-06,2.005888533389436e-05
3.024817498599212e-07,1.0099896788780074e-06,1.0631152169216286e-06,2.0064890594362685e-05
3.038902190872633e-07,1.0138626017851006e-06,1.0703990897101437e-06,2.0061706272136346e-05
3.055948784053487e-07,1.0175627024609522e-06,1.0769252380613992e-06,2.004902456249639e-05
3.075918790871604e-07,1.0210587195308507e-06,1.0826554948736628e-06,2.0026514498026584e-05
3.098708055775651e-07,1.0243322749683993e-06,1.0875602449466156e-06,1.9993799611282694e-05
3.124175565642633e-07,1.0273841845987124e-06,1.0916137782368434e-06,1.995048086819033e-05
3.152165380231929e-07,1.03023286683796e-06,1.0947929730795384e-06,1.9896200594203727e-05
3.1825143011554973e-07,1.032906075071262e-06,1.0970776079324357e-06,1.983071687637819e-05
3.2150477789041054e-07,1.0354314612514195e-06,1.0984502999695054e-06,1.9753923815928878e-05
3.249568271213361e-07,1.0378293717470881e-06,1.098897376284063e-06,1.9665793177865052e-05
3.2858552074437034e-07,1.0401086470050283e-06,1.09841122703058e-06,1.956631316237392e-05
3.323693259857564e-07,1.0422656160775537e-06,1.096991338147504e-06,1.9455519251798418e-05
3.362904452591769e-07,1.0442854377058515e-06,1.0946423797430874e-06,1.9333615523233897e-05
3.403342927798477e-07,1.0461450201301831e-06,1.091372171014886e-06,1.9201060395629227e-05
3.444862285684588e-07,1.0478172161140129e-06,1.0871911022056518e-06,1.9058515859574437e-05
3.487296121834792e-07,1.0492760625272664e-06,1.0821118465053811e-06,1.890671905416282e-05
3.5304541934148775e-07,1.0505031782805359e-06,1.0761499068824058e-06,1.8746381536436386e-05
3.5741172780963564e-07,1.0514915881905667e-06,1.0693260456746941e-06,1.8578152233198995e-05
3.6180332316930453e-07,1.05224270413923e-06,1.061669055923002e-06,1.8402616917142948e-05
3.661926090689221e-07,1.0527600913913742e-06,1.0532161195503305e-06,1.822028572967773e-05
3.7055143614173626e-07,1.0530476584539815e-06,1.044010643264411e-06,1.8031570457137048e-05
3.748521970545149e-07,1.0531166316927169e-06,1.034101072914826e-06,1.783679223880366e-05
3.7906835993923476e-07,1.0529968257720622e-06,1.023542754978479e-06,1.7636212615536785e-05
3.8317544408780313e-07,1.0527412620687688e-06,1.012399093063666e-06,1.7430044789329378e-05
3.8715210803284994e-07,1.0524205821916183e-06,1.0007386508206231e-06,1.7218444978772427e-05
3.9098132382918073e-07,1.0521120511986945e-06,9.886311226730341e-07,1.7001512196833966e-05
3.946518854181149e-07,1.0518868043975037e-06,9.761445515937642e-07,1.6779308734931547e-05
3.981590016874043e-07,1.051799387711238e-06,9.633428332888058e-07,1.6551900728116142e-05
4.015027325446977e-07,1.0518838748736236e-06,9.502840048335259e-07,1.6319394136944735e-05
4.046864573896733e-07,1.0521553218852994e-06,9.370198602220512e-07,1.6081934957232166e-05
4.0771786104959026e-07,1.0526129229544485e-06,9.235959249711139e-07,1.5839688236308888e-05
4.106090124020284e-07,1.0532431668340173e-06,9.100519611211927e-07,1.5592840610518933e-05
4.1337246396851673e-07,1.0540223757465608e-06,8.964238020318204e-07,1.534163143253195e-05
4.16017382019975e-07,1.054918195074183e-06,8.827451976223966e-07,1.508637763762334e-05
4.1854957572602137e-07,1.0558904122264723e-06,8.690479857991692e-07,1.4827479764897408e-05
4.209747859192776e-07,1.056892654263681e-06,8.553623619516755e-07,1.4565416285590802e-05
4.233020378398246e-07,1.0578756963227888e-06,8.417196660420287e-07,1.430072361414177e-05
4.25543606308134e-07,1.0587907446199983e-06,8.281563377742244e-07,1.4033963790082504e-05
4.277127083674944e-07,1.0595910925920143e-06,8.147170144444747e-07,1.3765697669807672e-05
4.2982199725002794e-07,1.0602349363247905e-06,8.014559151358802e-07,1.3496489394119894e-05
4.318824427872604e-07,1.0606918756335372e-06,7.884337705655984e-07,1.3226937205654285e-05
4.3390238435688437e-07,1.0609478208955757e-06,7.757095170059676e-07,1.2957675327026974e-05
4.358877077440369e-07,1.0610029218670591e-06,7.63332400006165e-07,1.2689324639100756e-05
4.378425661676458e-07,1.060865258813699e-06,7.513399922695286e-07,1.2422453221861015e-05
4.397708302512126e-07,1.0605450429891905e-06,7.397621224164464e-07,1.2157600198531313e-05
4.4167871165765544e-07,1.0600505875427538e-06,7.286282063694253e-07,1.1895351113295269e-05
4.435761897659184e-07,1.0593870010863115e-06,7.179738537172406e-07,1.1636406585383102e-05
4.4547492462735776e-07,1.0585584582309677e-06,7.07841927412089e-07,1.138157567544232e-05
4.473845611522358e-07,1.05757098076917e-06,6.982782445648939e-07,1.1131710604122114e-05
4.493105930964511e-07,1.0564330494819055e-06,6.893256820476586e-07,1.0887664591009604e-05
4.512538222613204e-07,1.0551548408831845e-06,6.810189600957936e-07,1.0650290050374182e-05
4.532106887328276e-07,1.0537458641313705e-06,6.733822100317733e-07,1.0420474035299665e-05
4.551747243487992e-07,1.0522112830763677e-06,6.664297794356314e-07,1.0199233423949423e-05
4.571379161217407e-07,1.050550983818592e-06,6.601677760450046e-07,9.98779808948813e-06
4.5909022123790066e-07,1.048763285822743e-06,6.545951855558188e-07,9.787557057300129e-06
4.6101805023100976e-07,1.046848676308928e-06,6.4970463772673e-07,9.599888401764468e-06
4.629037903438715e-07,1.0448116445434822e-06,6.4548275606148e-07,9.425999653672966e-06
4.64726971003601e-07,1.0426630637825328e-06,6.4191156048307e-07,9.266851379065852e-06
4.6646692011504133e-07,1.0404198798914486e-06,6.389708995943032e-07,9.123198761858667e-06
4.6810606425829533e-07,1.0380994094461284e-06,6.366392869777032e-07,8.995743768377907e-06
4.696314321522809e-07,1.0357137506600015e-06,6.348941943294795e-07,8.885278897317932e-06
4.710333697993352e-07,1.0332696795907294e-06,6.337147911858857e-07,8.792699783411898e-06
4.7230442269706366e-07,1.030771752037532e-06,6.330846441110238e-07,8.718903394900215e-06
4.7344005439093617e-07,1.0282225155399888e-06,6.329899561994348e-07,8.664682693955956e-06
4.744379264912239e-07,1.0256196504696657e-06,6.334148826103003e-07,8.630692271616168e-06
4.7529454138776816e-07,1.022954068912762e-06,6.343408772755643e-07,8.617458546982742e-06
4.7600352969324243e-07,1.020209861131855e-06,6.357538046004695e-07,8.625374361675985e-06
4.7655785537898676e-07,1.0173653637241514e-06,6.376531085737188e-07,8.654708462369464e-06
4.769522918317424e-07,1.01439439773688e-06,6.400548065858597e-07,8.705744962709419e-06
4.771828684135848e-07,1.0112666216476127e-06,6.429876456278022e-07,8.77905105319088e-06
4.772451045926812e-07,1.0079484066181415e-06,6.464857418098834e-07,8.875643591798816e-06
4.771335257621298e-07,1.0044079553286232e-06,6.505786611959449e-07,8.996884695973762e-06
4.768421047274393e-07,1.0006256195165286e-06,6.552816404706782e-07,9.14422012473107e-06
4.763648107198248e-07,9.966018809756572e-07,6.605911691524976e-07,9.318918372277707e-06
4.756961240549877e-07,9.923541081945122e-07,6.66487931635143e-07,9.521897054772208e-06
4.7483096341313145e-07,9.879052000289172e-07,6.72945182390039e-07,9.753787125342346e-06
4.7376408176811474e-07,9.83275438215024e-07,6.799377139901753e-07,1.0015247345946234e-05
4.724904600992263e-07,9.784857004245349e-07,6.874459467377297e-07,1.03072192803259e-05
4.710065708795967e-07,9.735696022692114e-07,6.954551681158535e-07,1.063089101651411e-05
4.693102652770778e-07,9.685812086228788e-07,7.039541165551819e-07,1.09874960848848e-05
4.673995716008649e-07,9.63592003743368e-07,7.129345701818644e-07,1.1378139984045199e-05
4.652729045446704e-07,9.586841656647685e-07,7.223918138242391e-07,1.180369188043894e-05
4.6293069874720537e-07,9.539431242016746e-07,7.323262673222199e-07,1.2264706591308353e-05
4.6037702208085744e-07,9.494490406215263e-07,7.427457818687277e-07,1.2761367314319831e-05
4.5762053063740903e-07,9.452706889682209e-07,7.536667433257981e-07,1.3293462652235758e-05
4.546734600225012e-07,9.414614737493471e-07,7.651108370398098e-07,1.3860385716621875e-05
4.515487567655152e-07,9.380561928339004e-07,7.770969471660198e-07,1.4461120678824368e-05
4.4825794543066647e-07,9.350710150738266e-07,7.896354019940033e-07,1.5094201579017347e-05
4.4481040844409887e-07,9.325066429992625e-07,8.027333293002102e-07,1.5757664305570752e-05
4.41213101016834e-07,9.303513938073555e-07,8.164072066662023e-07,1.6449020736798707e-05
4.3747087974090186e-07,9.285840266942517e-07,8.306891560244369e-07,1.7165271061090588e-05
4.335873052274872e-07,9.271786866165199e-07,8.45622609342488e-07,1.7902981162069806e-05
4.29565547411372e-07,9.261098789265173e-07,8.612537350021759e-07,1.8658446661620146e-05
4.2541037965898967e-07,9.253530920490816e-07,8.776236532789774e-07,1.9427886691198457e-05
4.2113100416425917e-07,9.248830317991552e-07,8.94762460055792e-07,2.0207565618678645e-05
4.1674229594208177e-07,9.246734599372141e-07,9.126848090837393e-07,2.099383008585665e-05
4.122643219833343e-07,9.2469782860094e-07,9.313857502737908e-07,2.1783124454319085e-05
4.077224373488012e-07,9.249302413722632e-07,9.508373164802105e-07,2.257200747865841e-05
4.031476248315733e-07,9.253462745421015e-07,9.709892457660057e-07,2.335715748983953e-05
3.9857445991221386e-07,9.259207333194487e-07,9.917732912655122e-07,2.413537391888765e-05
3.9403702398938033e-07,9.266239415787205e-07,1.0131063206380449e-06,2.490357085956357e-05
3.895659954493677e-07,9.274204680100064e-07,1.0348920372053715e-06,2.565873537407341e-05
3.851883573285201e-07,9.282700476568323e-07,1.0570236814227129e-06,2.6397889075265586e-05
3.809276893475997e-07,9.291294584195043e-07,1.0793857732806247e-06,2.7118107065030066e-05
3.768031891120678e-07,9.299553684176162e-07,1.1018549875265403e-06,2.781654512328612e-05
3.728290616227369e-07,9.307083033743e-07,1.124304762664006e-06,2.8490434668788708e-05
3.690160913643517e-07,9.313555556995014e-07,1.1466121817893206e-06,2.9137086265958477e-05
3.653740412333393e-07,9.318704804766164e-07,1.1686597132636324e-06,2.9753913785238342e-05
3.6191285954384077e-07,9.322306124561191e-07,1.190330954580549e-06,3.033845125101615e-05
3.586426343426833e-07,9.324172260853277e-07,1.211507156245487e-06,3.088834843321427e-05
3.5557345797368205e-07,9.324149287141285e-07,1.2320687890459613e-06,3.1401357999804436e-05
3.527153502434286e-07,9.322108694803059e-07,1.251900175016415e-06,3.187535459729241e-05
3.5007732837859786e-07,9.317940725859553e-07,1.27089260769466e-06,3.230840009425765e-05
3.4766592177212227e-07,9.31153987801684e-07,1.2889432989459708e-06,3.269880775878626e-05
3.454845294109498e-07,9.302788008666872e-07,1.3059525596787843e-06,3.3045195107493346e-05
3.4353359922991125e-07,9.291567248532706e-07,1.3218232994495885e-06,3.3346585273400676e-05
3.4181036614146304e-07,9.27782322302235e-07,1.336462811089572e-06,3.360252048748723e-05
3.403083599563108e-07,9.26163476444919e-07,1.349784538966745e-06,3.3813053153048765e-05
3.390179505853112e-07,9.243218283085058e-07,1.3617089509868557e-06,3.397859037916617e-05
3.379277314253179e-07,9.222864436316702e-07,1.3721636539827644e-06,3.4099694194368825e-05
3.370260139536021e-07,9.200858566249651e-07,1.3810834288794013e-06,3.4176948760563697e-05
3.3630254900754325e-07,9.177425051884594e-07,1.3884113321352158e-06,3.421093897626159e-05
3.3575021198649004e-07,9.152721464830521e-07,1.39410036851426e-06,3.420227743772665e-05
3.353663328966094e-07,9.126877574952787e-07,1.398113248665292e-06,3.4151614002665875e-05
3.351532206669745e-07,9.10003659008962e-07,1.4004205912284588e-06,3.405971552604853e-05
3.35116047088769e-07,9.072360127791e-07,1.4010005684552264e-06,3.392774201439787e-05
3.352585007374333e-07,9.043993544645059e-07,1.3998402228051666e-06,3.375756768369319e-05
3.355799493105636e-07,9.015039270249605e-07,1.3969381295922298e-06,3.3551829123515665e-05
3.3607504568773406e-07,8.985599389214052e-07,1.3923083016340375e-06,3.3313671470604234e-05
3.367342998429061e-07,8.955860344941269e-07,1.3859811309630795e-06,3.304641108946541e-05
3.3754639283000186e-07,8.926109703965744e-07,1.3779996961492253e-06,3.275328447739516e-05
3.3850156756458625e-07,8.896650458856706e-07,1.3684172389859336e-06,3.2437426313572905e-05
3.395922483470254e-07,8.867717434395807e-07,1.357297926723625e-06,3.2102126833512794e-05
3.408106696872991e-07,8.839510552170441e-07,1.3447162839182732e-06,3.175111918072129e-05
3.421469082108788e-07,8.812324729761419e-07,1.3307541266361834e-06,3.138859656293574e-05
3.435886382327019e-07,8.786629595436086e-07,1.3154972907184572e-06,3.101900211981318e-05
3.451227566704751e-07,8.763023480382246e-07,1.299032885766621e-06,3.0646808789990016e-05
3.467387550059632e-07,8.742145186618454e-07,1.281447827479905e-06,3.0276368174323822e-05
3.484314912606853e-07,8.724607539315836e-07,1.2628296068803574e-06,2.991180203144953e-05
3.502009995306786e-07,8.710940373487955e-07,1.2432688547012113e-06,2.9556911243388478e-05
3.5205017400906953e-07,8.701549594076332e-07,1.2228623800497995e-06,2.9215109013657927e-05
3.5398206534836985e-07,8.696695427959007e-07,1.20171365323437e-06,2.888939625363911e-05
3.5599705918019645e-07,8.696482924788731e-07,1.1799278820133434e-06,2.858235330762509e-05
3.5809135853998647e-07,8.700878511109389e-07,1.1576053361550509e-06,2.8296098094146905e-05
3.602587296100352e-07,8.709738031402313e-07,1.1348393598406978e-06,2.803221280932625e-05
3.624940165322954e-07,8.722814411084389e-07,1.1117182181617334e-06,2.7791689358920213e-05
3.64795224582081e-07,8.739758836231784e-07,1.0883252610981608e-06,2.7574930485269293e-05
3.6716281194234183e-07,8.760134673007561e-07,1.0647364900836864e-06,2.738181745745829e-05
3.6959669568934977e-07,8.783428809531969e-07,1.041018874929944e-06,2.721183608595929e-05
3.720933067507784e-07,8.809064081433785e-07,1.017230761302039e-06,2.70642224836114e-05
3.7464538962715896e-07,8.836441426482243e-07,9.934231354506747e-07,2.693807618970755e-05
3.772451481825751e-07,8.864999363944885e-07,9.696407722181231e-07,2.6832432155624054e-05
3.7988864937533435e-07,8.894245977026062e-07,9.459231274372492e-07,2.674632792902377e-05
3.825769856770357e-07,8.923764403010301e-07,9.223055193173313e-07,2.667886690901389e-05
3.853125111086002e-07,8.953224866912852e-07,8.988214715912476e-07,2.6629237128573432e-05
3.8809451662087457e-07,8.982395312447874e-07,8.755054926635593e-07,2.6596678134426584e-05
3.909179649228093e-07,9.011138655382271e-07,8.523934551694943e-07,2.6580416942447344e-05
3.937741000382456e-07,9.039413837484554e-07,8.295209101267166e-07,2.6579584637414222e-05
3.966508063268207e-07,9.06726612871533e-07,8.069246841595493e-07,2.6593156236706225e-05
3.9953317190694633e-07,9.094777142808308e-07,7.846487568839929e-07,2.6619967761333334e-05
4.0240591386347975e-07,9.121999768211469e-07,7.627467808928811e-07,2.665877199316293e-05
4.0525696312700366e-07,9.148944644373764e-07,7.41276649724216e-07,2.670826365769114e-05
4.080797858745299e-07,9.175632510530649e-07,7.202938253663584e-07,2.676708458512141e-05
4.108733194674351e-07,9.202133186380912e-07,6.998511233016425e-07,2.683383942566412e-05
4.1364025381664687e-07,9.228532621803822e-07,6.800021293730015e-07,2.6907120696654723e-05
4.1638502720676476e-07,9.254865629578249e-07,6.608009173834405e-07,2.698550685170928e-05
4.1911190288554395e-07,9.281077232616224e-07,6.422977887574856e-07,2.706749873695493e-05
4.2182286586754143e-07,9.3070301177563e-07,6.24535667759549e-07,2.7151447341831744e-05
4.2451602917231883e-07,9.332537206113193e-07,6.075486306407078e-07,2.7235559923115522e-05
4.271852604191536e-07,9.357398943293196e-07,5.913613907382715e-07,2.731799413444061e-05
4.2982102247778214e-07,9.381425008114908e-07,5.759892402583549e-07,2.739700236645469e-05
4.324120004258193e-07,9.404442406883608e-07,5.614389331633389e-07,2.747111032778396e-05
4.349461750079264e-07,9.426316159824823e-07,5.477109866004009e-07,2.7539277883537438e-05
4.3741094456811647e-07,9.446959680858255e-07,5.348014780301319e-07,2.760092828076739e-05
4.397934807453557e-07,9.46630221740332e-07,5.227013450048505e-07,2.765581154695484e-05
4.4208161797589714e-07,9.4842527604713e-07,5.113952397690568e-07,2.770378588692484e-05
4.4426599738349256e-07,9.500700768314108e-07,5.00862121924324e-07,2.7744631902835803e-05
4.463431139157776e-07,9.515532295241728e-07,4.910773656178901e-07,2.7777980840730652e-05
4.483153399407317e-07,9.528646960374658e-07,4.820159423057086e-07,2.7803334599016552e-05
4.501881409586953e-07,9.53998525695895e-07,4.736552068140261e-07,2.7820093010455835e-05
4.5196944589953844e-07,9.549549459553834e-07,4.659750698376157e-07,2.7827605015998414e-05
4.5367020681029746e-07,9.55740258169229e-07,4.589563526779725e-07,2.782537334882978e-05
4.553015896226527e-07,9.563645149031223e-07,4.525808128790426e-07,2.7813365288028808e-05
4.568710750716965e-07,9.568378920789669e-07,4.4683399155181037e-07,2.779214416728923e-05
4.5838279712649785e-07,9.571717931340326e-07,4.417071862778383e-07,2.77627234568705e-05
4.598407643527072e-07,9.573880297104694e-07,4.3719436385646456e-07,2.7726318627633808e-05
4.612504956209735e-07,9.575261170356907e-07,4.332866351957121e-07,2.7684130524961426e-05
4.6261872135484906e-07,9.576403621479602e-07,4.299706168758569e-07,2.76372621127856e-05
4.6395213541526927e-07,9.57793124700817e-07,4.272306826537896e-07,2.758689585745017e-05
4.6525519361447603e-07,9.580502606167649e-07,4.2504990980906094e-07,2.7534610737580003e-05
4.6652814807173e-07,9.584773087364332e-07,4.2340821026301773e-07,2.748251511138435e-05
4.677667172646555e-07,9.591359379950334e-07,4.2228134908003494e-07,2.74331246982007e-05
4.6896351787409537e-07,9.600809625897735e-07,4.216443499652457e-07,2.738916633084748e-05
4.7011101709117606e-07,9.613577775254595e-07,4.2147721429537224e-07,2.735341006593085e-05
4.712047417284633e-07,9.630001993011542e-07,4.217665302833189e-07,2.732851805450737e-05
4.7224434122374113e-07,9.650280111655868e-07,4.225023725721955e-07,2.731689164410881e-05
4.732328906364853e-07,9.674447928036457e-07,4.2367525686305965e-07,2.732053478801512e-05
4.741768268596986e-07,9.702387177879014e-07,4.252736560900568e-07,2.734097149670257e-05
4.750860858822955e-07,9.733876378841294e-07,4.272822469233285e-07,2.737923005346743e-05
4.7597313381723224e-07,9.768645810673729e-07,4.296838951560916e-07,2.7435856991158123e-05
4.768520908327879e-07,9.806387286031843e-07,4.3246415253981026e-07,2.7510911211326427e-05
4.77738818443646e-07,9.846736775336955e-07,4.356125068383761e-07,2.760394066451848e-05
4.786498370660129e-07,9.889267924964896e-07,4.391186888393818e-07,2.7713986693273304e-05
4.795996958510733e-07,9.933490417803357e-07,4.4296846872166863e-07,2.7839665278597967e-05
4.805999840414946e-07,9.978853764947868e-07,4.471422432248107e-07,2.797933637461782e-05
4.816608520561954e-07,1.0024764596232754e-06,4.516168606482394e-07,2.8131291476721837e-05
4.827931605475833e-07,1.0070602437981813e-06,4.563699039081145e-07,2.8293873077841552e-05
4.840096669267861e-07,1.0115724513593356e-06,4.613838452546018e-07,2.846552469041552e-05
4.853240577033871e-07,1.0159465609652343e-06,4.6664772890810135e-07,2.8644824920975464e-05
4.867478049686113e-07,1.020113989334626e-06,4.72155098046435e-07,2.883051407878582e-05
4.882870440070832e-07,1.0240045233876822e-06,4.778984067063179e-07,2.9021479761418732e-05
4.89941660004555e-07,1.0275481020489135e-06,4.838639557187381e-07,2.9216701521875624e-05
4.9170551605415e-07,1.0306789934845516e-06,4.90032950165539e-07,2.9415180900996144e-05
4.935666255114166e-07,1.0333392158528628e-06,4.963884501161408e-07,2.9615854284997608e-05
4.955096265212421e-07,1.035477727945302e-06,5.029207157903488e-07,2.9817503859770204e-05
4.975214863707806e-07,1.037047477735967e-06,5.096268841391276e-07,3.001874465702209e-05
4.995965808990703e-07,1.0380040521787078e-06,5.1650840156925e-07,3.021809681821001e-05
5.017376320405202e-07,1.0383073442746945e-06,5.235686019089984e-07,3.041404380495741e-05
5.0395226875165e-07,1.037926114918779e-06,5.308104289945393e-07,3.060504520811884e-05
5.06247380741452e-07,1.036841965452734e-06,5.382338862511911e-07,3.078956859821864e-05
5.086249971740746e-07,1.0350484386379441e-06,5.458323810402943e-07,3.096616980829671e-05
5.110810100984462e-07,1.0325462086946595e-06,5.535900068322114e-07,3.1133548489564864e-05
5.13604940249904e-07,1.0293379972146664e-06,5.614819722997428e-07,3.1290483512213266e-05
5.161801605245165e-07,1.025425297009745e-06,5.694760954126649e-07,3.143569653379844e-05
5.187850099979211e-07,1.020808281386797e-06,5.77533229243049e-07,3.156779172194668e-05
5.213940500053701e-07,1.0154892966687028e-06,5.856079026631411e-07,3.1685321438808424e-05
5.239786988554186e-07,1.0094764018468179e-06,5.936507088336685e-07,3.1786927888026915e-05
5.265076073883565e-07,1.0027829352432494e-06,6.016118441595479e-07,3.187152875126116e-05
5.289477777421651e-07,9.954264148730541e-07,6.094435569343263e-07,3.193849466743724e-05
5.312666950203615e-07,9.874330410633769e-07,6.17099883867296e-07,3.1987688145352906e-05
5.334336875927802e-07,9.78846686262317e-07,6.245363015022759e-07,3.201930536534629e-05
5.354194030229234e-07,9.697327725665544e-07,6.317125824659152e-07,3.2033633665545725e-05
5.371953790312458e-07,9.601693009947216e-07,6.385952330898426e-07,3.2030883284463105e-05
5.387346643401441e-07,9.502317763537485e-07,6.451549021751969e-07,3.2011158870302536e-05
5.400123928724277e-07,9.399856365005548e-07,6.513626019421927e-07,3.197451515174773e-05
5.410068609427145e-07,9.294882232855223e-07,6.571902843962516e-07,3.192099942037091e-05
5.41701301819907e-07,9.18793052184742e-07,6.626138774536258e-07,3.185066929779495e-05
5.420847971370451e-07,9.079526743325527e-07,6.676139475302465e-07,3.176370494040157e-05
5.421529358001606e-07,8.970197108486847e-07,6.721746861473961e-07,3.166064523953057e-05
5.419095671871132e-07,8.860464933081873e-07,6.762844801525032e-07,3.1542522775667465e-05
5.413675154788542e-07,8.750875452674633e-07,6.799364332100532e-07,3.141075054300733e-05
5.405456844754687e-07,8.642063034379959e-07,6.831265622072146e-07,3.126690517999698e-05
5.394643234397785e-07,8.534777573546669e-07,6.858517688835221e-07,3.1112544594876176e-05
5.381422072577361e-07,8.429800846971787e-07,6.881095974416736e-07,3.094910723937267e-05
5.365960365121197e-07,8.327833200968709e-07,6.898995489188387e-07,3.0778026488804344e-05
5.348401109197277e-07,8.229503302305431e-07,6.912256543716433e-07,3.0601042999838676e-05
5.328870538082897e-07,8.135527724320843e-07,6.920996514902781e-07,3.0420391869208808e-05
5.307510314437489e-07,8.046879462679344e-07,6.925431296790983e-07,3.0238702203604614e-05
5.284506920359305e-07,7.96480753741618e-07,6.925875072050161e-07,3.0058773457902112e-05
5.260081056634369e-07,7.890696926165551e-07,6.922716726151521e-07,2.988337497723007e-05
5.234447885788784e-07,7.825902788991563e-07,6.916380326531814e-07,2.9715097506646613e-05
5.207788576969271e-07,7.771657203431055e-07,6.907301137264786e-07,2.9556252990382586e-05
5.18024721832958e-07,7.729020719932576e-07,6.895942783067409e-07,2.9408809378295746e-05
5.151931651477865e-07,7.698843004900631e-07,6.882816164517201e-07,2.9274362459154326e-05
5.122906408732434e-07,7.681748203012016e-07,6.868448919688786e-07,2.915414764388396e-05
5.093194342750942e-07,7.678147995631831e-07,6.853341356400507e-07,2.9049045813774272e-05
5.062794068676884e-07,7.688257364876614e-07,6.837973546535638e-07,2.8959542222827834e-05
5.031697133492872e-07,7.712094988717845e-07,6.822846979153115e-07,2.888567449058177e-05
4.99989326550695e-07,7.749477213513405e-07,6.808511442959531e-07,2.8827014870782604e-05
4.967368297755347e-07,7.800023272437025e-07,6.795571559003158e-07,2.87826990152791e-05
4.934107444374113e-07,7.863187571669097e-07,6.784673298534414e-07,2.875152247838689e-05
4.900110428126903e-07,7.938333575696822e-07,6.776468218394685e-07,2.8732101936491914e-05
4.865406795160981e-07,8.024826354660266e-07,6.771573914497422e-07,2.8723035362749468e-05
4.830058742969862e-07,8.122090314943378e-07,6.770531694963701e-07,2.872300469676527e-05
4.794156609760065e-07,8.229608449889503e-07,6.773759882860107e-07,2.873082153054597e-05
4.757811674359663e-07,8.346880407990273e-07,6.781533882229914e-07,2.8745428291907128e-05
4.721144083796385e-07,8.47337254079386e-07,6.794006123445444e-07,2.8765869616977068e-05
4.6842747920884855e-07,8.608500201137621e-07,6.811234758655386e-07,2.8791261268828278e-05
4.6473233729855615e-07,8.751656481632344e-07,6.833193874080023e-07,2.8820759021504467e-05
4.6103958606527737e-07,8.902235454621207e-07,6.859782403969146e-07,2.885349435087827e-05
4.573566495264003e-07,9.05959465955756e-07,6.890849605923653e-07,2.88884850855282e-05
4.536872733011576e-07,9.222988742762895e-07,6.926206673629511e-07,2.8924609929229582e-05
4.500320297023321e-07,9.391540319494854e-07,6.965605395212735e-07,2.896067624190897e-05
4.463886226413531e-07,9.564252017150128e-07,7.00871540243639e-07,2.8995495148617938e-05
4.4275272466388425e-07,9.740034458137124e-07,7.05512724525673e-07,2.902791766598728e-05
4.3911985646404296e-07,9.917747091354838e-07,7.104370310299868e-07,2.9056852999627405e-05
4.354866781596116e-07,1.009623697063705e-06,7.155923957366752e-07,2.9081269951412073e-05
4.318512386916847e-07,1.0274355872342088e-06,7.209229590472988e-07,2.9100181809144104e-05
4.282130077712252e-07,1.0450968439666904e-06,7.263736811926798e-07,2.9112674031387398e-05
4.2457208651777615e-07,1.0624957325343609e-06,7.318973268531607e-07,2.911800109979115e-05
4.209280351849876e-07,1.0795217916454613e-06,7.374560875790967e-07,2.9115656035773023e-05
4.172797176149839e-07,1.0960660817074026e-06,7.430154835450362e-07,2.910535955950945e-05
4.136255096340961e-07,1.1120230798873221e-06,7.485397340063939e-07,2.908702808029641e-05
4.0996300127368506e-07,1.127291759340565e-06,7.539954297422372e-07,2.906074412603341e-05
4.062888019389704e-07,1.1417748578513642e-06,7.593573979620814e-07,2.9026710482733528e-05
4.025992925788014e-07,1.1553791848563904e-06,7.646074992435141e-07,2.8985189791082533e-05
3.988920193175615e-07,1.1680194337710066e-06,7.697279079367558e-07,2.89364275036839e-05
3.9516647577524826e-07,1.1796223166891093e-06,7.74696948727611e-07,2.8880569651898028e-05
3.91423677213415e-07,1.1901271874846137e-06,7.794895978156674e-07,2.881765466570789e-05
3.8766490856542343e-07,1.199485865913297e-06,7.840804064506675e-07,2.874770546225805e-05
3.8389071827083687e-07,1.2076638329789191e-06,7.88447264455781e-07,2.867080239422011e-05
3.8010126033069896e-07,1.2146391349282522e-06,7.925743894432317e-07,2.858706652697746e-05
3.7629748238761797e-07,1.220397730932229e-06,7.964544282594809e-07,2.849661639891245e-05
3.724819082221972e-07,1.224929361696151e-06,8.000882841813156e-07,2.839955835225157e-05
3.6865925671111563e-07,1.2282267261907403e-06,8.034810375646898e-07,2.8296007823946428e-05
3.6483758059335705e-07,1.2302864069328735e-06,8.06639687944358e-07,2.818610436683638e-05
3.610287392510396e-07,1.2311097735081708e-06,8.095758734826835e-07,2.8070007153883992e-05
3.572465099071664e-07,1.2307056627992966e-06,8.123059935482748e-07,2.794787661647237e-05
3.535032561729997e-07,1.229095252946014e-06,8.148454222984181e-07,2.7819829964697716e-05
3.498077856926357e-07,1.2263149353677521e-06,8.172031254849572e-07,2.7685889972907734e-05
3.461653866170815e-07,1.2224142607081748e-06,8.193811748289621e-07,2.7545971551531183e-05
3.425792213720444e-07,1.217450746704605e-06,8.213777529110282e-07,2.739989842380484e-05
3.3905261953200057e-07,1.2114884123634632e-06,8.23189887534386e-07,2.724741251881268e-05
3.3559158941137446e-07,1.204604301990603e-06,8.248134679634586e-07,2.7088172058823432e-05
3.322057975887262e-07,1.1968934142549014e-06,8.262411633795118e-07,2.692175206598248e-05
3.289075693765932e-07,1.1884625280210659e-06,8.274603762943582e-07,2.674764738995217e-05
3.2571020749529307e-07,1.179420439204334e-06,8.284527263821231e-07,2.656527563331045e-05
3.226278655548509e-07,1.1698746315781963e-06,8.291956175975241e-07,2.6373986959769746e-05
3.196782648491803e-07,1.1599318683029791e-06,8.296651686206901e-07,2.6173090947912218e-05
3.168850618683968e-07,1.149694979142186e-06,8.298383698193955e-07,2.5961912270900705e-05
3.142759864458741e-07,1.1392556303217372e-06,8.296939791695694e-07,2.5739865006800727e-05
3.118780341506841e-07,1.1286902436599873e-06,8.292141693489549e-07,2.5506486392239012e-05
3.097134537263117e-07,1.1180613095608507e-06,8.283865376676591e-07,2.526139882208324e-05
3.077980499049105e-07,1.1074204388440978e-06,8.272034007758176e-07,2.500426171715865e-05
3.061410705228054e-07,1.0968112069105937e-06,8.256588517645035e-07,2.473477122151036e-05
3.0474582534506176e-07,1.0862697362295565e-06,8.23748021757616e-07,2.445268788581996e-05
3.036109236608728e-07,1.0758225957650343e-06,8.21470351821352e-07,2.4157854147103187e-05
3.0273177030957125e-07,1.0654863964848544e-06,8.18833797245556e-07,2.38501961654311e-05
3.0210124316285965e-07,1.0552714793717294e-06,8.15856375781802e-07,2.3529721840338182e-05
3.0170944192915417e-07,1.0451876200546473e-06,8.125636499992034e-07,2.319652310069365e-05
3.015434783482151e-07,1.035247254849043e-06,8.089831133200318e-07,2.2850789572408387e-05
3.015875112459521e-07,1.0254627003621625e-06,8.051395272557395e-07,2.2492835470357285e-05
3.0182283260881016e-07,1.0158415603109198e-06,8.010540652489163e-07,2.212312470192672e-05
3.022280860707996e-07,1.0063872663387691e-06,7.967457312699794e-07,2.174226851937432e-05
3.027799434531106e-07,9.971036503028459e-07,7.922340646652026e-07,2.135097869258204e-05
3.034553175886361e-07,9.879971244919866e-07,7.875418391243832e-07,2.0950003059321853e-05
3.042353540655057e-07,9.79073535054541e-07,7.826934955683134e-07,2.0540116092300225e-05
3.0510912296427337e-07,9.703336271286304e-07,7.777100842045221e-07,2.012218623021362e-05
3.0607500168835845e-07,9.617725611765112e-07,7.726076530509966e-07,1.9697225420198348e-05
3.0713936222397737e-07,9.533829120776158e-07,7.674005013106009e-07,1.9266341657362478e-05
3.0831334819633023e-07,9.451576359917572e-07,7.62103751809368e-07,1.8830655557032555e-05
3.096094726987849e-07,9.370912601156185e-07,7.567337019717098e-07,1.8391276265725964e-05
3.110390543942827e-07,9.291782527758076e-07,7.513087190035409e-07,1.7949359334166362e-05
3.126109928488709e-07,9.214104448330076e-07,7.458500676767845e-07,1.7506226634584134e-05
3.14331913896395e-07,9.137771241695104e-07,7.403813304558626e-07,1.7063481848541697e-05
3.162059724923819e-07,9.062669341357614e-07,7.349277227512201e-07,1.662301538367913e-05
3.182338229202078e-07,8.988682436570603e-07,7.295159332609654e-07,1.618686495607448e-05
3.2041187527021714e-07,8.915677459499061e-07,7.24173972949378e-07,1.5757037306274303e-05
3.227322028630777e-07,8.84350978904628e-07,7.18929961932507e-07,1.5335458478274807e-05
3.251832007396557e-07,8.772075605085241e-07,7.138087671945319e-07,1.492409237550593e-05
3.2775020071231537e-07,8.701362947637768e-07,7.088291746147395e-07,1.4525065084975367e-05
3.304153116855471e-07,8.631434839398261e-07,7.040057128699335e-07,1.4140654904938424e-05
3.331574659935425e-07,8.562365955984319e-07,6.993527902291461e-07,1.3773176179314886e-05
3.3595360536629425e-07,8.49420191919955e-07,6.948869832691717e-07,1.3424821719097285e-05
3.387813512512377e-07,8.426963122287756e-07,6.906295446335602e-07,1.3097509103260402e-05
3.416222890822611e-07,8.360663783633217e-07,6.866106429833507e-07,1.2792786934459376e-05
3.4446270871251287e-07,8.295337366118289e-07,6.8287226865742e-07,1.2511810754735558e-05
3.4729100792662396e-07,8.231078500814131e-07,6.794675600898495e-07,1.2255348608243992e-05
3.500956250359356e-07,8.16805258340403e-07,6.764561482904934e-07,1.2023823440956904e-05
3.5286549182185093e-07,8.106434009943543e-07,6.73896606424176e-07,1.1817478013578184e-05
3.555912256272301e-07,8.046334078751831e-07,6.71839323497379e-07,1.1636681275028133e-05
3.582655133990876e-07,7.98778359405055e-07,6.703237334218517e-07,1.1482177477246435e-05
3.6088201569625223e-07,7.930784861419379e-07,6.693798935399047e-07,1.135507092332952e-05
3.634334340403253e-07,7.875436947567199e-07,6.690293464546691e-07,1.125660273995885e-05
3.659110869032386e-07,7.822058615025265e-07,6.692823888384723e-07,1.1187914152324181e-05
3.683070752448822e-07,7.77117708520182e-07,6.701351075425492e-07,1.1149983300489619e-05
3.7061662161195006e-07,7.723407564981369e-07,6.715700600038207e-07,1.1143786275710556e-05
3.728377769495461e-07,7.679350907096991e-07,6.735595398223943e-07,1.1170450780090947e-05
3.749697870781809e-07,7.639531869704406e-07,6.760682366131236e-07,1.1231203675544237e-05
3.770125782427513e-07,7.604371090132323e-07,6.790545004436819e-07,1.132720396765836e-05
3.78966187773077e-07,7.574199422378963e-07,6.824709640595043e-07,1.145939407839666e-05
3.808294508466262e-07,7.549270110827897e-07,6.862651768647506e-07,1.1628397221980544e-05
3.826006898506465e-07,7.529745493419913e-07,6.903818198238754e-07,1.1834456765391873e-05
3.8428038158521364e-07,7.515680412356999e-07,6.947687260880843e-07,1.207741198796723e-05
3.8587163781542243e-07,7.507012606947476e-07,6.993845978313103e-07,1.2356697969893618e-05
3.873782401258418e-07,7.503580996832137e-07,7.04202108551782e-07,1.267135504056804e-05
3.8880433338687895e-07,7.50518574622134e-07,7.092038011280288e-07,1.3020055153783878e-05
3.901553692876157e-07,7.511644971901598e-07,7.143735691548505e-07,1.3401153718920648e-05
3.9143743766215036e-07,7.522795162763537e-07,7.196891679751909e-07,1.3812737123648745e-05
3.926570117604133e-07,7.538447189706679e-07,7.251208454531332e-07,1.425263934765574e-05
3.938220886235975e-07,7.558359282423277e-07,7.306361819128483e-07,1.4718437369526957e-05
3.949422496946362e-07,7.582249041568538e-07,7.362062681829207e-07,1.520744807682158e-05
3.960295545181998e-07,7.609799963346777e-07,7.418071763844988e-07,1.571675776465829e-05
3.9710282554072255e-07,7.64064751681252e-07,7.474151418077608e-07,1.6243284324476432e-05
3.9819206153923796e-07,7.674386171231758e-07,7.530011399768855e-07,1.6783832123618473e-05
3.993385514170282e-07,7.710609881510134e-07,7.585298638980916e-07,1.7335140495665814e-05
4.005889540756442e-07,7.748942744507153e-07,7.639618923602439e-07,1.789395371311149e-05
4.019861785538491e-07,7.789025302875095e-07,7.692574445636039e-07,1.8457095711586785e-05
4.03563646613305e-07,7.830491537774116e-07,7.743812641964176e-07,1.902151187754595e-05
4.053456220430086e-07,7.872971493430811e-07,7.793054975942934e-07,1.9584270262894198e-05
4.073495709925748e-07,7.916086426257281e-07,7.840083041367937e-07,2.0142542401350693e-05
4.095863912556135e-07,7.959428306232186e-07,7.884712834614385e-07,2.069357391288603e-05
4.1205929723632615e-07,8.00256618649814e-07,7.926788652283276e-07,2.12346564228897e-05
4.147647045150682e-07,8.045086018091219e-07,7.966184697408724e-07,2.1763142806882705e-05
4.176957547664994e-07,8.086623092956615e-07,8.002804297058085e-07,2.2276506061008692e-05
4.2084562918792023e-07,8.126856384134512e-07,8.036582283124819e-07,2.27723717509387e-05
4.24208066936881e-07,8.165498139983814e-07,8.0674895863815e-07,2.3248497546575776e-05
4.277748727391021e-07,8.202313799021599e-07,8.095532716486048e-07,2.370274009681396e-05
4.3153249416344183e-07,8.23712723652646e-07,8.120727538251216e-07,2.413302994095057e-05
4.354605440365055e-07,8.269791388537619e-07,8.143048997748636e-07,2.453736346345808e-05
4.395330090065813e-07,8.300166535325587e-07,8.162404359376938e-07,2.4913832558610557e-05
4.437205997212272e-07,8.328102222693146e-07,8.178653576376381e-07,2.5260660724754567e-05
4.479921371619106e-07,8.353410298090734e-07,8.191646801993372e-07,2.5576203152721774e-05
4.523143817701969e-07,8.375854119815766e-07,8.201253404684032e-07,2.585895438941499e-05
4.5665206550172157e-07,8.395157306804595e-07,8.207390236952318e-07,2.6107615057958367e-05
4.6096862619736426e-07,8.411018975234547e-07,8.210043903548564e-07,2.632121398025676e-05
4.652264383067152e-07,8.423129342632795e-07,8.20925484261333e-07,2.6499252498646647e-05
4.6938696688135917e-07,8.431188013702337e-07,8.205070674523209e-07,2.664178439856417e-05
4.7341159635556153e-07,8.434929464906637e-07,8.197512561545155e-07,2.6749358840486653e-05
4.77262920067101e-07,8.4341433801731e-07,8.186567315574379e-07,2.6822853029627842e-05
4.809063318883721e-07,8.428695505271088e-07,8.172195495055394e-07,2.686327069540849e-05
4.843110450675425e-07,8.418553970788924e-07,8.154357610893337e-07,2.687158999479452e-05
4.874494270477548e-07,8.403777404795543e-07,8.133047530238786e-07,2.684871532045686e-05
4.902955808576684e-07,8.384458313489529e-07,8.10831137157671e-07,2.679550322145716e-05
4.928248914462785e-07,8.360676803112082e-07,8.080271382887798e-07,2.6712808851429307e-05
4.950143947647994e-07,8.33248731723158e-07,8.049155411634981e-07,2.6601613809683248e-05
4.96843952677118e-07,8.299919734814236e-07,8.015269391285643e-07,2.646332162824136e-05
4.982992613558993e-07,8.262986409381899e-07,7.978912867588756e-07,2.6300043227548506e-05
4.993754229464885e-07,8.221705163274288e-07,7.940318451597941e-07,2.6114579898283287e-05
5.000774445559569e-07,8.17614098553371e-07,7.899648827824466e-07,2.591013518380857e-05
5.00416030671905e-07,8.126449535694869e-07,7.857013631071281e-07,2.5689985688401652e-05
5.004021063795475e-07,8.072898473272464e-07,7.812471033422494e-07,2.545726969280934e-05
5.000446029519507e-07,8.0158563368427e-07,7.766020681763552e-07,2.521506258089949e-05
4.993515008345028e-07,7.955760969779956e-07,7.717607791946533e-07,2.4966696068180513e-05
4.983313274352796e-07,7.893079544683605e-07,7.667145170888305e-07,2.4715946891826026e-05
4.969936285920234e-07,7.828284586606646e-07,7.614548855335392e-07,2.446692825792994e-05
4.95349326097083e-07,7.761914289194347e-07,7.559764438819316e-07,2.422386700102681e-05
4.934117498554244e-07,7.69470893174415e-07,7.502772359508823e-07,2.3990913142133145e-05
4.911967315138262e-07,7.627672573875374e-07,7.443601274949549e-07,2.3771993665811928e-05
4.887210337079919e-07,7.561980166259135e-07,7.382351652531855e-07,2.357068334963229e-05
4.860011320940421e-07,7.498826940526454e-07,7.319200262995093e-07,2.3390090706189147e-05
4.83053340425347e-07,7.439334712034253e-07,7.254417735588887e-07,2.323278709554656e-05
4.798937967262636e-07,7.384528247938219e-07,7.18843157735122e-07,2.310078916658723e-05
4.765373935254962e-07,7.335332220544586e-07,7.121866055478112e-07,2.299558011453558e-05
4.7299735733378155e-07,7.29256451209609e-07,7.055496733340876e-07,2.29181310396771e-05
4.692877519693516e-07,7.256922733798082e-07,6.990170969249425e-07,2.2868884858454292e-05
4.654274542119035e-07,7.228961367168315e-07,6.926754788420296e-07,2.2847725147605882e-05
4.6144137351128474e-07,7.209080712272765e-07,6.866082860290725e-07,2.285399307956528e-05
4.57358979287158e-07,7.197532102412587e-07,6.808890246232102e-07,2.288659986616995e-05
4.53213559949866e-07,7.194422967047046e-07,6.755757251348604e-07,2.294421926682229e-05
4.490413118369893e-07,7.199747760221545e-07,6.707097365884324e-07,2.302545380226417e-05
4.448778468377527e-07,7.213478129127135e-07,6.663202908370282e-07,2.312888819378075e-05
4.407544280750539e-07,7.235672364246708e-07,6.624328209389859e-07,2.325307921795859e-05
4.3669652328148834e-07,7.26651175613514e-07,6.59074244767563e-07,2.3396569903205137e-05
4.327236956763731e-07,7.306227929223838e-07,6.562728200878271e-07,2.3557926522101545e-05
4.288501054434801e-07,7.354983184401269e-07,6.540577990892566e-07,2.37357505003578e-05
4.250855231494394e-07,7.412779231549218e-07,6.524624631146546e-07,2.3928652945922643e-05
4.214359250693128e-07,7.479422006391932e-07,6.515278503495645e-07,2.413518819675551e-05
4.17903765559371e-07,7.554535967688028e-07,6.513018485899218e-07,2.4353764127497048e-05
4.144883721860803e-07,7.637596286654446e-07,6.51833399638441e-07,2.4582632633017176e-05
4.1118698424684e-07,7.727950480558506e-07,6.531670796218039e-07,2.4819992519944823e-05
4.079981876102767e-07,7.824844956607079e-07,6.553392509147303e-07,2.506406990632756e-05
4.0492667225309637e-07,7.927488721405704e-07,6.583741271144842e-07,2.531311361524134e-05
4.0198428740380617e-07,8.035144217806729e-07,6.622829016768443e-07,2.5565379071214397e-05
3.991861048287691e-07,8.147177229454407e-07,6.67068899708815e-07,2.581913005515527e-05
3.965455893363366e-07,8.263011028982903e-07,6.727360488916929e-07,2.607262699139719e-05
3.9407194986910563e-07,8.382037255121343e-07,6.792962252600814e-07,2.632409036673136e-05
3.917699432368125e-07,8.503587269102304e-07,6.867716610106703e-07,2.657165840292797e-05
3.896408124706047e-07,8.626976422551077e-07,6.951893930431373e-07,2.681336030935585e-05
3.8768262462795574e-07,8.751542974180749e-07,7.045694038710879e-07,2.704712621517109e-05
3.8589058622460707e-07,8.87664179349178e-07,7.149141360841087e-07,2.7270853405030937e-05
3.8425933445877755e-07,9.001636504747006e-07,7.262046369253295e-07,2.748253307226368e-05
3.8278606502196216e-07,9.125924462777792e-07,7.384015520345499e-07,2.768044149768467e-05
3.8147181285064024e-07,9.248965876010592e-07,7.5144895755546e-07,2.786334001235351e-05
3.8032086682733406e-07,9.370291466722168e-07,7.652795472075486e-07,2.8030532006501753e-05
3.7933896866310453e-07,9.489507337200964e-07,7.798185773687287e-07,2.818170113924491e-05
3.785310446831378e-07,9.606313688977379e-07,7.949859552186426e-07,2.831664234181956e-05
3.7790040150613754e-07,9.720522427535395e-07,8.106957829114365e-07,2.8435067900584882e-05
3.774495628235936e-07,9.83203562769042e-07,8.268542717789501e-07,2.8536567784133656e-05
3.7718122769201776e-07,9.940770175461297e-07,8.433609550591587e-07,2.8620647586748932e-05
3.770998592806623e-07,1.0046585101497367e-06,8.601136939581917e-07,2.8686755552262688e-05
3.7721440321309963e-07,1.0149265661625071e-06,8.770132626007587e-07,2.8734358250231285e-05
3.775393267221092e-07,1.024854856815488e-06,8.939676493468986e-07,2.8763194430998762e-05
3.780920121705375e-07,1.0344153794400586e-06,9.108973983899252e-07,2.8773602900286604e-05
3.7888826472381615e-07,1.043579143725009e-06,9.277380100585222e-07,2.8766617619933765e-05
3.799392045547181e-07,1.0523143408608046e-06,9.444356497563367e-07,2.874377422545216e-05
3.81251691609939e-07,1.060587899286662e-06,9.609394321478014e-07,2.8706836698135864e-05
3.8283154798795365e-07,1.0683712756314956e-06,9.77197881578529e-07,2.865756839715685e-05
3.846862111603872e-07,1.0756431410190314e-06,9.93162996360855e-07,2.8597625958818373e-05
3.8682357112969716e-07,1.0823869314297957e-06,1.0087964538299251e-06,2.8528715112709776e-05
3.892485428746162e-07,1.0885874726296436e-06,1.0240702442973491e-06,2.845291218102021e-05
3.919611845730805e-07,1.0942306210961313e-06,1.0389616801003377e-06,2.837279472752837e-05
3.949562912940703e-07,1.099310625170804e-06,1.0534481133179528e-06,2.829128262896541e-05
3.982235447176453e-07,1.1038430922408635e-06,1.067503101812099e-06,2.8211411714936755e-05
4.0174815023580843e-07,1.107870773115009e-06,1.0810933033067156e-06,2.8136176710903705e-05
4.055114497409503e-07,1.111455812469757e-06,1.0941776750220807e-06,2.8068419654224395e-05
4.094926606559603e-07,1.1146657629938477e-06,1.1067094063586523e-06,2.801071814237266e-05
4.1367132229683216e-07,1.117562876969422e-06,1.118638039298476e-06,2.796527174813644e-05
4.180273558837316e-07,1.1202014016282422e-06,1.1299107970254009e-06,2.793383628961391e-05
4.2253942391680977e-07,1.1226300882310275e-06,1.1404745350003015e-06,2.7917739008786133e-05
4.2718457727870457e-07,1.1248929592843024e-06,1.1502783740438368e-06,2.791791325248108e-05
4.3193826874855537e-07,1.1270272936351898e-06,1.1592748641940133e-06,2.793486826780611e-05
4.3677333786582574e-07,1.1290620879079494e-06,1.1674190004762093e-06,2.7968616250084942e-05
4.4165984257120133e-07,1.131017045782375e-06,1.1746679461489469e-06,2.801863560876825e-05
4.4656643060692005e-07,1.1329012689326408e-06,1.1809825589158023e-06,2.8083908655921917e-05
4.5146216636854707e-07,1.1347127050008595e-06,1.1863275668271995e-06,2.8163043903423528e-05
4.5631824751898153e-07,1.1364397316575585e-06,1.190670259688413e-06,2.8254460283454107e-05
4.611086254665162e-07,1.1380652001368813e-06,1.1939805959058631e-06,2.8356557717413482e-05
4.6580950812848386e-07,1.1395721623169408e-06,1.1962317122075929e-06,2.846781759327832e-05
4.703983997493225e-07,1.1409502188872115e-06,1.1973990923910277e-06,2.8586850270490955e-05
4.7485231348282786e-07,1.1421991466012423e-06,1.1974597951694954e-06,2.871241156619148e-05
4.791459239670355e-07,1.1433270817677826e-06,1.1963933670993452e-06,2.884338025624143e-05
4.832512393169267e-07,1.1443474551603972e-06,1.1941852923712627e-06,2.897870735468307e-05
4.871388446894023e-07,1.145278988427138e-06,1.190831213079611e-06,2.911735421625481e-05
4.907802375065664e-07,1.1461464391414561e-06,1.186337217828334e-06,2.925821949840285e-05
4.941502874594732e-07,1.1469789251874146e-06,1.1807163183992832e-06,2.940008822334944e-05
4.972276507249854e-07,1.147804904069948e-06,1.1739865363024985e-06,2.9541658012645118e-05
4.999933925859446e-07,1.1486446937225656e-06,1.166171116436013e-06,2.968161031734345e-05
5.024303631723862e-07,1.1495044857953259e-06,1.1572971457497364e-06,2.9818642609517747e-05
5.04523437930571e-07,1.1503754614137803e-06,1.1473929563256195e-06,2.9951456724099067e-05
5.062601008007119e-07,1.1512365505399095e-06,1.1364875181572371e-06,3.007874971844684e-05
5.076312034721704e-07,1.1520571573614434e-06,1.1246122229201339e-06,3.0199239707273572e-05
5.086300834023731e-07,1.1527997434190279e-06,1.1118024923784529e-06,3.031170307596853e-05
5.092506208755376e-07,1.153424044105097e-06,1.0980979552921137e-06,3.0414976033907976e-05
5.094871247631235e-07,1.1538920743671472e-06,1.0835423860150421e-06,3.0507984449145644e-05
5.093353101167674e-07,1.1541717037664336e-06,1.0681830623921358e-06,3.058986416923964e-05
5.087924808122942e-07,1.1542365441583417e-06,1.0520682259352018e-06,3.066008195275278e-05
5.078578060660007e-07,1.1540617489593263e-06,1.035244460730445e-06,3.071847441204777e-05
5.065332368499773e-07,1.1536201323402115e-06,1.0177565932014947e-06,3.0765204727689894e-05
5.048246524979325e-07,1.1528816214775283e-06,9.996496766936968e-07,3.080064163128305e-05
5.027426788919721e-07,1.151813460065072e-06,9.809708874531564e-07,3.082518653284055e-05
5.003016512148833e-07,1.1503812122855688e-06,9.617707354552718e-07,3.083911938267968e-05
4.975173543130658e-07,1.148555091497743e-06,9.421048864450184e-07,3.0842546386951194e-05
4.944060829771698e-07,1.1463198382538328e-06,9.220365804543268e-07,3.083546294267562e-05
4.909846277989704e-07,1.1436780026989972e-06,9.016379821857728e-07,3.0817844106114785e-05
4.872701236556177e-07,1.1406428752334587e-06,8.809899906826441e-07,3.078969016918744e-05
4.832802270729832e-07,1.1372301682584624e-06,8.601811484081039e-07,3.07510248604671e-05
4.790327932779597e-07,1.1334557652899495e-06,8.393053610758691e-07,3.070188615916065e-05
4.74545255345725e-07,1.129336329986518e-06,8.184574225284294e-07,3.064242436344198e-05
4.6983562979528496e-07,1.1248885249027405e-06,7.97727184939425e-07,3.057309998648977e-05
4.6492387190818176e-07,1.1201274805887148e-06,7.771957980336849e-07,3.0494722041040913e-05
4.598316442726361e-07,1.1150679718748841e-06,7.569355737742172e-07,3.0408281779222704e-05
4.5458230558317004e-07,1.1097305488191272e-06,7.370107497360196e-07,3.0314830986772606e-05
4.492024273657258e-07,1.1041461952006868e-06,7.174770922962413e-07,3.0215439883745814e-05
4.4372265548877364e-07,1.0983512903068358e-06,6.983818361000935e-07,3.011113200609552e-05
4.3817625192875863e-07,1.092377746505652e-06,6.797652026387991e-07,3.000281657755304e-05
4.3259774115329047e-07,1.0862480478420865e-06,6.616616299216203e-07,2.9891231982941363e-05
4.2702389543505006e-07,1.0799772488511564e-06,6.440992031000827e-07,2.977688487674089e-05
4.2149481923352646e-07,1.0735821251124784e-06,6.270995526460109e-07,2.9660013024010554e-05
4.16052625191228e-07,1.0670967814571443e-06,6.106798684946885e-07,2.9540597541241912e-05
4.1073797153826454e-07,1.0605840921193668e-06,5.948545136576995e-07,2.9418414561642934e-05
4.05586572725077e-07,1.054131272038757e-06,5.796343326378242e-07,2.9293094987509925e-05
4.0062770163560345e-07,1.047834133366973e-06,5.650254367119418e-07,2.9164159712980126e-05
3.958846995369815e-07,1.041783035218887e-06,5.510298085620432e-07,2.9031034614547008e-05
3.9137639491693286e-07,1.0360564269772626e-06,5.376481408664468e-07,2.8893087008129938e-05
3.871181178445978e-07,1.0307200945131548e-06,5.248835674093522e-07,2.8749696100703502e-05
3.831220125195963e-07,1.0258268749830851e-06,5.127451624555486e-07,2.860029766865075e-05
3.7939785334162063e-07,1.0214147280015686e-06,5.012507242638367e-07,2.8444347931898164e-05
3.759542975049939e-07,1.0175051095452122e-06,4.904268439668009e-07,2.828125757643561e-05
3.727990107558663e-07,1.014103169801773e-06,4.803053121619536e-07,2.8110370469719647e-05
3.699374990422542e-07,1.01120157262101e-06,4.709184236523543e-07,2.7930976183139648e-05
3.673721298871603e-07,1.0087866219791485e-06,4.622961564462392e-07,2.7742329777523414e-05
3.651023363014826e-07,1.0068408290105608e-06,4.544673341325152e-07,2.7543682156696565e-05
3.631251676682925e-07,1.0053418022517045e-06,4.474638215390847e-07,2.7334311879049034e-05
3.6143465356850365e-07,1.0042631804197691e-06,4.413232988906425e-07,2.711355112983208e-05
3.600205541246419e-07,1.0035787994260928e-06,4.3608890927385046e-07,2.688082791877348e-05
3.5886835974096813e-07,1.0032668761819064e-06,4.3180723668208597e-07,2.6635740620465816e-05
3.579604862652933e-07,1.0033108200642314e-06,4.2852432018793996e-07,2.637812176763245e-05
3.572776466546241e-07,1.0036951617992435e-06,4.262798979055701e-07,2.610803465626405e-05
3.567997799209984e-07,1.0044001228797552e-06,4.251040280155285e-07,2.582571841414907e-05
3.5650605210059817e-07,1.0054002829085183e-06,4.250176493986498e-07,2.553152757640025e-05
3.563743462407158e-07,1.006667851075448e-06,4.2603256829871714e-07,2.522590436735352e-05
3.563810377774271e-07,1.008175966654122e-06,4.281492119921396e-07,2.490941914556388e-05
3.565013316028576e-07,1.0098977527563794e-06,4.313552322980624e-07,2.4582817144732212e-05
3.567098167784973e-07,1.0118022715985432e-06,4.3562673808637027e-07,2.424696632934137e-05
3.569805761055576e-07,1.0138527753413715e-06,4.4093269882949456e-07,2.3902746062406172e-05
3.572874023003715e-07,1.0160089350852215e-06,4.4724048411138677e-07,2.355097510017258e-05
3.5760565295202886e-07,1.0182297550954154e-06,4.545173709680671e-07,2.3192416806354426e-05
3.579150915363581e-07,1.0204753261061217e-06,4.6272725182351216e-07,2.2827879935636928e-05
3.5820089132832545e-07,1.022706794643022e-06,4.718268347736179e-07,2.245834679376177e-05
3.584522244156249e-07,1.0248842012644044e-06,4.817636433563498e-07,2.2084993539801907e-05
3.586605038928593e-07,1.0269645580557761e-06,4.924760015027086e-07,2.170908341981832e-05
3.588189108111141e-07,1.0289014653573885e-06,5.038958085691413e-07,2.1331827180207068e-05
3.5892299001800605e-07,1.0306454603421171e-06,5.159529072077188e-07,2.0954311295576125e-05
3.589703022831739e-07,1.0321464161904067e-06,5.285771982413534e-07,2.057757395648584e-05
3.589584807961499e-07,1.0333588351101827e-06,5.416987159071255e-07,2.020280527385901e-05
3.5888414518221023e-07,1.0342471265669643e-06,5.552489195912933e-07,1.983149622997377e-05
3.5874408038796674e-07,1.034787615736728e-06,5.691612462020788e-07,1.9465394516305194e-05
3.585363256547617e-07,1.0349672213013905e-06,5.833684983517294e-07,1.910631281065484e-05
3.5825908774583305e-07,1.034780123136734e-06,5.978001402851405e-07,1.8755921310733358e-05
3.579089910343953e-07,1.0342228436651152e-06,6.123820375521501e-07,1.8415618838399933e-05
3.5748054929882674e-07,1.0332905681529142e-06,6.27037385381809e-07,1.8086508961081586e-05
3.569667264118247e-07,1.0319798391624184e-06,6.416876560859705e-07,1.7769437009474705e-05
3.5636006753786547e-07,1.030298080533362e-06,6.562543864576352e-07,1.746505285832247e-05
3.5565378133943246e-07,1.0282737943156434e-06,6.706613661495074e-07,1.7173967906664685e-05
3.548425632930868e-07,1.0259591838792904e-06,6.8483501811526e-07,1.6897031223108535e-05
3.5392452155479776e-07,1.0234215284924236e-06,6.987032824668343e-07,1.663552042220479e-05
3.529039675564553e-07,1.0207303715502027e-06,7.121953489178194e-07,1.6391058223825808e-05
3.517916136565847e-07,1.0179525865240436e-06,7.252430701366731e-07,1.616535622557624e-05
3.50600813114218e-07,1.0151555599001257e-06,7.377834217419635e-07,1.5959975393668125e-05
3.4934326410004164e-07,1.0124068917540022e-06,7.497614355082133e-07,1.5776206936064024e-05
3.4802772856536627e-07,1.0097668009293443e-06,7.611321829801129e-07,1.561518507487953e-05
3.4666149504763245e-07,1.0072812957210051e-06,7.718594055629834e-07,1.547821150725846e-05
3.4525228378786825e-07,1.0049833711900664e-06,7.819115755953584e-07,1.536699620569162e-05
3.438098118780417e-07,1.0029017722639188e-06,7.912584311871052e-07,1.5283602018672725e-05
3.4234711036327013e-07,1.0010700600362857e-06,7.998693473551685e-07,1.5230216539965485e-05
3.408802538693076e-07,9.99529094766638e-07,8.077145758506324e-07,1.5208936365127499e-05
3.394265139424086e-07,9.983227039247344e-07,8.147678826427884e-07,1.5221612986262295e-05
3.380032605028298e-07,9.97490761629099e-07,8.210066811882905e-07,1.5269750514099753e-05
3.3662815275632227e-07,9.97063150015222e-07,8.264107304979323e-07,1.5354432942287322e-05
3.353196192750237e-07,9.970561068380345e-07,8.309630088197402e-07,1.5476267360315215e-05
3.340966283098911e-07,9.974712862297158e-07,8.346519073019495e-07,1.563536840870619e-05
3.3297724520530646e-07,9.982958518409086e-07,8.374726314003096e-07,1.5831386440832928e-05
3.3197755393670325e-07,9.995024923673777e-07,8.394270263408548e-07,1.6063520731821075e-05
3.31111743528174e-07,1.0010509383455528e-06,8.40521253909071e-07,1.63304894430351e-05
3.3039139739035923e-07,1.002890919977007e-06,8.407633838540234e-07,1.6630502338048527e-05
3.298238526743515e-07,1.0049647654336121e-06,8.401639949907566e-07,1.6961291302895867e-05
3.294119576581615e-07,1.0072099564650223e-06,8.387392883639636e-07,1.732022085735121e-05
3.291550579632308e-07,1.0095622293071851e-06,8.365140965010034e-07,1.7704467873633698e-05
3.2904936614739064e-07,1.0119582850715959e-06,8.335230730100895e-07,1.8111208640270147e-05
3.290883913309948e-07,1.0143377495797343e-06,8.298104927986842e-07,1.8537726195046905e-05
3.292646062218009e-07,1.0166452726090786e-06,8.254304115672734e-07,1.8981428223865005e-05
3.295711381064312e-07,1.0188334448291464e-06,8.20445597203732e-07,1.9439839787782528e-05
3.300019125005273e-07,1.020865850444417e-06,8.149218483707937e-07,1.991059245713776e-05
3.3055030904717e-07,1.0227193377126663e-06,8.089204916725236e-07,2.0391381178263905e-05
3.3120761817201466e-07,1.0243847848404258e-06,8.024954722702653e-07,2.087988564087997e-05
3.319625189899301e-07,1.0258642121746815e-06,7.956962394275554e-07,2.137368379899513e-05
3.3280181406182195e-07,1.027164178691897e-06,7.885725949789444e-07,2.1870200605286105e-05
3.33711392197129e-07,1.0282899263340518e-06,7.811776012629631e-07,2.2366746603796526e-05
3.346765249706647e-07,1.0292424974605677e-06,7.735666436091287e-07,2.2860628034914867e-05
3.3568219948673174e-07,1.0300182098475028e-06,7.657940712899715e-07,2.3349226568707832e-05
3.3671365945170286e-07,1.0306133867177615e-06,7.579107652358535e-07,2.3830017725530727e-05
3.377566460859482e-07,1.0310334092692785e-06,7.49962800938872e-07,2.43005832702622e-05
3.3879806630418765e-07,1.031295139435054e-06,7.419900826137397e-07,2.4758643728886442e-05
3.398268349311514e-07,1.0314180905395229e-06,7.340271338899473e-07,2.5202082752996482e-05
3.4083313092109734e-07,1.0314140393977993e-06,7.261058288696355e-07,2.5628912545803e-05
3.418062780717857e-07,1.0312834413745823e-06,7.182554342822753e-07,2.6037188573145785e-05
3.427338441645289e-07,1.0310173156539094e-06,7.104997159674849e-07,2.6424967093280694e-05
3.4360376403653934e-07,1.0305998592956612e-06,7.028553082422543e-07,2.6790360877546226e-05
3.444076858293873e-07,1.0300104444896035e-06,6.953326120625248e-07,2.713164265486473e-05
3.451418498999747e-07,1.0292270226645772e-06,6.879380697990935e-07,2.7447337844974225e-05
3.458056230326941e-07,1.0282298342344824e-06,6.80678170299203e-07,2.773631350562437e-05
3.464001021649433e-07,1.027001676081341e-06,6.735654893093006e-07,2.7997851732895198e-05
3.469269308621329e-07,1.0255258915918748e-06,6.666230235685738e-07,2.8231632670310304e-05
3.473878936022016e-07,1.0237861055838326e-06,6.598816727449214e-07,2.8437598313828117e-05
3.477859097426002e-07,1.0217671837140274e-06,6.533720445639966e-07,2.861577008428601e-05
3.4812593737740523e-07,1.0194542986038326e-06,6.471175513760721e-07,2.876612573090081e-05
3.484146819176149e-07,1.0168304548338064e-06,6.411333140442185e-07,2.8888569651288646e-05
3.48659264970801e-07,1.013875229669836e-06,6.354297914384653e-07,2.8982938485646625e-05
3.488662716841792e-07,1.0105668043289708e-06,6.300168437684725e-07,2.904901704288325e-05
3.490421653515501e-07,1.0068885318930629e-06,6.249041904834424e-07,2.908665519333499e-05
3.49193226116384e-07,1.002836707253158e-06,6.200991003831296e-07,2.909604616169532e-05
3.493239210154777e-07,9.98421666635654e-07,6.156068973618943e-07,2.9077994533301287e-05
3.4943573781256964e-07,9.93660968379829e-07,6.11435665896555e-07,2.9033931188864374e-05
3.4952783188226984e-07,9.885735003299409e-07,6.075988722485929e-07,2.8965705024253846e-05
3.495983292311684e-07,9.831796831444236e-07,6.041121376513198e-07,2.8875354817299e-05
3.496446502316798e-07,9.775033332902245e-07,6.009878866347046e-07,2.876496900697671e-05
3.4966277965463925e-07,9.71573065803575e-07,5.982326252742135e-07,2.863670596587461e-05
3.4964688344467894e-07,9.654238257582864e-07,5.958485877183757e-07,2.84930101011492e-05
3.495902041032999e-07,9.59094126117932e-07,5.938376935219979e-07,2.833683040410589e-05
3.494865051200728e-07,9.526191152989735e-07,5.922032382335485e-07,2.8171607332855128e-05
3.493302870426051e-07,9.460267496475664e-07,5.909473116087107e-07,2.8001071649095147e-05
3.491158629962465e-07,9.393382565671782e-07,5.900667654109783e-07,2.7829012991826044e-05
3.488381841366437e-07,9.325690338301887e-07,5.89551962973632e-07,2.765907731279612e-05
3.484958349810089e-07,9.257288041326145e-07,5.89390080896481e-07,2.749461777772677e-05
3.4809248234637326e-07,9.188210676167688e-07,5.895707477926292e-07,2.7338611882765665e-05
3.476355454199582e-07,9.118428729397577e-07,5.900896083791732e-07,2.7193619599840085e-05
3.4713458764624074e-07,9.047865396003521e-07,5.909481649134447e-07,2.70617605284498e-05
3.465999713276382e-07,8.97643198415514e-07,5.921538108996825e-07,2.694471293397345e-05
3.460416374345288e-07,8.904067951246038e-07,5.937245108832832e-07,2.684372584933673e-05
3.454694799437326e-07,8.830767627081123e-07,5.956941514759828e-07,2.6759611718604654e-05
3.448938609018032e-07,8.756579628879909e-07,5.981097019538832e-07,2.6692711400400768e-05
3.443241118977356e-07,8.681578169254186e-07,6.010201296501566e-07,2.66428789634391e-05
3.437672921007544e-07,8.605826808203188e-07,6.044653907004577e-07,2.6609554603594392e-05
3.4322910008896715e-07,8.529366583140891e-07,6.084715045441304e-07,2.659193457362481e-05
3.427148380224997e-07,8.45222616146173e-07,6.130522396937905e-07,2.658914846880964e-05
3.422291108940087e-07,8.374426271904556e-07,6.182142872691457e-07,2.6600348173844667e-05
3.417767304234197e-07,8.29597822345588e-07,6.239616897519243e-07,2.662471949591292e-05
3.41366006119815e-07,8.216887879787094e-07,6.302970109146239e-07,2.666148847910972e-05
3.410103544263171e-07,8.137158269850467e-07,6.372197298397687e-07,2.6709941102028383e-05
3.40725226822232e-07,8.056792131328548e-07,6.447245167486767e-07,2.676942302630409e-05
3.405238320476636e-07,7.975806906491265e-07,6.528007564162053e-07,2.683930489108775e-05
3.4041640256693604e-07,7.894248168465844e-07,6.614316065138321e-07,2.691892189102768e-05
3.4041237793622505e-07,7.812178389011381e-07,6.705914349102291e-07,2.700749942864053e-05
3.405210150245149e-07,7.729660338618772e-07,6.802431476615629e-07,2.710411418653705e-05
3.407493364956964e-07,7.646769437209907e-07,6.903370189256818e-07,2.720773202902675e-05
3.4110086462590125e-07,7.563615041381894e-07,7.008112083448869e-07,2.7317259033397e-05
3.415768863275419e-07,7.480334152188499e-07,7.115945095741083e-07,2.743154368543295e-05
3.4217808148705965e-07,7.39708296329962e-07,7.226134884188827e-07,2.754938226422981e-05
3.429051384453877e-07,7.314053547769495e-07,7.338026621217214e-07,2.766957835917478e-05
3.4376031428655016e-07,7.231478207282635e-07,7.45109739777311e-07,2.7791013642601746e-05
3.4475033646435735e-07,7.149595223616429e-07,7.564912411519191e-07,2.791265684279913e-05
3.4588708647034914e-07,7.06860968906365e-07,7.679046629274162e-07,2.803354007376027e-05
3.471839510177096e-07,6.988684377783373e-07,7.793053980948047e-07,2.8152809084495196e-05
3.4865082229317817e-07,6.909966120967653e-07,7.906479151564935e-07,2.8269825630686614e-05
3.502916975424453e-07,6.832621582757046e-07,8.01885558224647e-07,2.8384198813766687e-05
3.521047758987689e-07,6.75683779101049e-07,8.129681668388805e-07,2.8495718220012026e-05
3.5408316366261147e-07,6.682796294497239e-07,8.238411045638108e-07,2.8604241381219817e-05
3.562155010989389e-07,6.610683035036144e-07,8.34446536425425e-07,2.8709573356593376e-05
3.584864046708595e-07,6.540756673776431e-07,8.447247737995646e-07,2.8811368207389514e-05
3.608772032191859e-07,6.47342775895384e-07,8.546148658938684e-07,2.890908251426569e-05
3.63366780795019e-07,6.409267192864448e-07,8.640554033057945e-07,2.9002001030341913e-05
3.6593169653190155e-07,6.348908397254538e-07,8.729856370661333e-07,2.9089329030815857e-05
3.6854677339928646e-07,6.292916118373916e-07,8.813458505586916e-07,2.9170290270165502e-05
3.7118745620516616e-07,6.241714237740282e-07,8.890777419384879e-07,2.9244167126856896e-05
3.7383208282226246e-07,6.195575461738928e-07,8.961269596980614e-07,2.93102788274635e-05
3.7646258214086255e-07,6.15464162471378e-07,9.024463067314056e-07,2.936797052067347e-05
3.790649686648407e-07,6.118972287269036e-07,9.079966812845915e-07,2.9416755600658947e-05
3.8162972984977424e-07,6.088604812887926e-07,9.127469554383734e-07,2.94565341327956e-05
3.8415124696868295e-07,6.06358146472258e-07,9.166743466228241e-07,2.9487577997380732e-05
3.8662816802866395e-07,6.043940212266893e-07,9.197641212803423e-07,2.9510316617812176e-05
3.8906514844109077e-07,6.029718176350035e-07,9.220079253791581e-07,2.9525206455969765e-05
3.9147231595081246e-07,6.020972024825527e-07,9.23402105979916e-07,2.953269646804829e-05
3.938617587027049e-07,6.017769028124564e-07,9.239491592455149e-07,2.9533199667270703e-05
3.962441510897014e-07,6.020154027249253e-07,9.236622604764404e-07,2.9527069545304652e-05
3.986270936444768e-07,6.028150265926331e-07,9.225669246052828e-07,2.951457410721276e-05
4.010148992147976e-07,6.041836213973993e-07,9.206970690462179e-07,2.9495875468597524e-05
4.034085119961515e-07,6.061451632261136e-07,9.180905577322736e-07,2.9471020737333898e-05
4.058049976973278e-07,6.087399275230437e-07,9.147874802064092e-07,2.943992109213045e-05
4.081984845836197e-07,6.12010904732732e-07,9.108282174337446e-07,2.9402331092731066e-05
4.105825815390035e-07,6.159892617918429e-07,9.062507539878668e-07,2.9357858300475787e-05
4.1295116106833685e-07,6.206877117707183e-07,9.01090714242192e-07,2.9305986424132567e-05
4.1529698084253893e-07,6.261000736579617e-07,8.953840578202774e-07,2.9246088430378882e-05
4.1761039816514295e-07,6.322052775565965e-07,8.891696744839003e-07,2.917745424384554e-05
4.1987905114260633e-07,6.389745728647276e-07,8.824910029740562e-07,2.9099347392827043e-05
4.2208888723127523e-07,6.463766694401044e-07,8.75395563497728e-07,2.9011042916400872e-05
4.242271246304297e-07,6.543768433970015e-07,8.67931097869828e-07,2.8911811538248987e-05
4.2628559437395075e-07,6.629335900284651e-07,8.601422524535599e-07,2.8800888457710304e-05
4.282621421975053e-07,6.7199765135628e-07,8.520733444227216e-07,2.867747040116972e-05
4.3015966413259706e-07,6.815132455729707e-07,8.43775261814496e-07,2.854073895871061e-05
4.3198340882697924e-07,6.914201061055852e-07,8.35310279978207e-07,2.8389899036873558e-05
4.337386241469762e-07,7.016549942421702e-07,8.267516169888654e-07,2.822422684886994e-05
4.354308191548499e-07,7.121522477436411e-07,8.181775484698106e-07,2.8043122273071394e-05
4.37066357637212e-07,7.228445762102063e-07,8.096632023551585e-07,2.784616244129065e-05
4.3865033480123845e-07,7.336633650911995e-07,8.012763971377195e-07,2.7633149323160466e-05
4.401844673000985e-07,7.445380475342722e-07,7.930799531534652e-07,2.740414165284657e-05
4.4166860620225065e-07,7.553960432681202e-07,7.85135115921651e-07,2.71594548874228e-05
4.4310373078450277e-07,7.661635162580201e-07,7.775000369801663e-07,2.689961437365314e-05
4.444921276882228e-07,7.767667662162477e-07,7.702240204829961e-07,2.6625268468291597e-05
4.4583545300875636e-07,7.871349724389068e-07,7.63343481594308e-07,2.633710492550063e-05
4.471337838277995e-07,7.972040530101849e-07,7.568833122160017e-07,2.603585469082373e-05
4.483851376668063e-07,8.069184632154233e-07,7.508625448663144e-07,2.572238455032072e-05
4.4958433804650247e-07,8.162283120910363e-07,7.453009681558099e-07,2.539772096758663e-05
4.507224049219418e-07,8.250853798539346e-07,7.40222331878376e-07,2.506292945571477e-05
4.5178725421150274e-07,8.334431148014461e-07,7.35651894086198e-07,2.471897814795823e-05
4.5276505923609717e-07,8.412589311280734e-07,7.316112922425321e-07,2.436669894107437e-05
4.5364186873367546e-07,8.484944972792301e-07,7.281156209189145e-07,2.400686032965772e-05
4.544055107086441e-07,8.551139641205144e-07,7.251737109548432e-07,2.36403117975874e-05
4.5504712113859023e-07,8.610827687208803e-07,7.227894797508523e-07,2.32680851758284e-05
4.555616725032547e-07,8.663686704124629e-07,7.209638411830931e-07,2.2891359828083137e-05
4.5594743700419617e-07,8.709435208775755e-07,7.196966800603362e-07,2.251133065080356e-05
4.5620443577448274e-07,8.747833749233001e-07,7.189861149512347e-07,2.2129087560925068e-05
4.563322583521633e-07,8.778673320371966e-07,7.188247350440717e-07,2.1745601729112422e-05
4.5632834065353385e-07,8.801771437269644e-07,7.191965381093635e-07,2.1361863591778784e-05
4.5618817831051256e-07,8.817002716281778e-07,7.200762467421578e-07,2.0979088173123764e-05
4.559078606866953e-07,8.824373953980885e-07,7.214293168090433e-07,2.059879964014183e-05
4.554866854926829e-07,8.824082838948122e-07,7.232121447346419e-07,2.0222710350050507e-05
4.5492694248819113e-07,8.816475361032531e-07,7.253733897221892e-07,1.9852496829295927e-05
4.5423209990732745e-07,8.801932403974455e-07,7.278569985365056e-07,1.9489629298528102e-05
4.534061513035281e-07,8.780797776854591e-07,7.306057387076644e-07,1.9135316537192944e-05
4.524530101457182e-07,8.753374416683865e-07,7.335627450919931e-07,1.879051500134952e-05
4.513751878681738e-07,8.719945128679241e-07,7.366716435065855e-07,1.8455953654577906e-05
4.501732981901946e-07,8.680794931792355e-07,7.39876868736271e-07,1.8132220153846947e-05
4.4884650143679246e-07,8.636227887189486e-07,7.431229927003549e-07,1.7819990224427832e-05
4.4739362953352405e-07,8.586572366007122e-07,7.463537165073651e-07,1.7520316132454526e-05
4.4581463841422853e-07,8.532168253123613e-07,7.495151117999745e-07,1.7234720553284406e-05
4.441107091484112e-07,8.473373041463361e-07,7.525646972245705e-07,1.696500990888666e-05
4.4228279196369646e-07,8.410652698710045e-07,7.554791828018628e-07,1.6712994557369015e-05
4.4033048633926077e-07,8.344694112973415e-07,7.582522178832558e-07,1.6480291827980294e-05
4.382524090891677e-07,8.276385999185983e-07,7.608838964995041e-07,1.6268274161591566e-05
4.360478103446103e-07,8.206674297072192e-07,7.63371331335678e-07,1.6078230616007913e-05
4.3371797860289287e-07,8.136447112687429e-07,7.657054594245034e-07,1.5911659017991095e-05
4.312657171283478e-07,8.066544491648599e-07,7.678723399670665e-07,1.577039128098207e-05
4.2869411910172905e-07,7.997860258205087e-07,7.698557496552428e-07,1.5656456767828554e-05
4.260074999452857e-07,7.931430372717911e-07,7.716389147134012e-07,1.5571877253050313e-05
4.232134277494226e-07,7.86843563499998e-07,7.732045064698819e-07,1.551852038959717e-05
4.203226180448436e-07,7.810144101133204e-07,7.745349602614184e-07,1.549799829118876e-05
4.173477298901176e-07,7.757835885807115e-07,7.756145803144806e-07,1.551158580496133e-05
4.143036014293218e-07,7.712708925106306e-07,7.76430525783616e-07,1.556015460037587e-05
4.112073232533574e-07,7.675781110178675e-07,7.769705716721273e-07,1.5644133053662155e-05
4.080767802245496e-07,7.647833053541775e-07,7.772202299052793e-07,1.5763507495743662e-05
4.0492999601209505e-07,7.629406355733594e-07,7.77161849696043e-07,1.5917853048173166e-05
4.0178700607538243e-07,7.620829516689339e-07,7.767755314561425e-07,1.610634627406633e-05
3.986727920848952e-07,7.622235568379941e-07,7.760408878058002e-07,1.6327736694290076e-05
3.956181665212952e-07,7.633573557903213e-07,7.749383215922167e-07,1.6580314135422644e-05
3.9265767969896605e-07,7.654630916087076e-07,7.734493682495906e-07,1.686192860415581e-05
3.898271795575518e-07,7.685051143685226e-07,7.715576478124043e-07,1.717009069476571e-05
3.87162363119554e-07,7.72434692714961e-07,7.692512767305481e-07,1.7502126187779053e-05
3.846965943990581e-07,7.771932164781277e-07,7.665250715414099e-07,1.785531630064924e-05
3.824582668096387e-07,7.827155155759465e-07,7.63379896897912e-07,1.8226981185760453e-05
3.8046944438176046e-07,7.88931476184265e-07,7.598194863980522e-07,1.861453209884508e-05
3.7874525619190937e-07,7.957690164395069e-07,7.55848348240624e-07,1.9015512758469212e-05
3.772938147812838e-07,8.031595878097444e-07,7.514716314850632e-07,1.942759106927688e-05
3.761168558574725e-07,8.110421128347801e-07,7.466949522726742e-07,1.984848671595637e-05
3.752105499409779e-07,8.193615612953528e-07,7.415240896211224e-07,2.027588564520448e-05
3.745669171115829e-07,8.280632520986024e-07,7.359648698245391e-07,2.070738594227032e-05
3.7417538115469993e-07,8.370885865466691e-07,7.300229404255377e-07,2.114050196871873e-05
3.740229646078798e-07,8.463751568672492e-07,7.237039773977425e-07,2.1572736799662822e-05
3.7409402286381004e-07,8.558573371090555e-07,7.170146289011741e-07,2.200166314678149e-05
3.7437181107450024e-07,8.654649088394951e-07,7.099645509956145e-07,2.242494821315059e-05
3.748419224109287e-07,8.751231452055612e-07,7.02569071456109e-07,2.2840354256047848e-05
3.754948544026124e-07,8.847573555291691e-07,6.94849869326626e-07,2.324577270946277e-05
3.7632524334814217e-07,8.942990010081553e-07,6.868325492296233e-07,2.3639277740700666e-05
3.773287937948475e-07,9.036885752617788e-07,6.785430901830567e-07,2.4019130220757752e-05
3.7849976240699117e-07,9.128750378832636e-07,6.700054583306077e-07,2.4383695321154315e-05
3.7982954728674604e-07,9.218127570808037e-07,6.612411463701527e-07,2.4731346332905765e-05
3.813055183228218e-07,9.304565951135428e-07,6.522697953174216e-07,2.5060464877414115e-05
3.829105907855466e-07,9.387595660510448e-07,6.431098618764165e-07,2.536954214894231e-05
3.846242264655129e-07,9.466766461070515e-07,6.337791683197668e-07,2.5657305601958512e-05
3.8642385877110646e-07,9.541715254736742e-07,6.242955854039419e-07,2.5922838397482573e-05
3.8828542343308097e-07,9.612200279373569e-07,6.146784157836113e-07,2.616568483920292e-05
3.901835010052487e-07,9.678091833350191e-07,6.049514621733789e-07,2.6385873078524867e-05
3.92092321052017e-07,9.739351860091406e-07,5.951470753429766e-07,2.658379108699411e-05
3.9398741800200524e-07,9.795994398550923e-07,5.853069636937183e-07,2.6759958267451456e-05
3.958465149897901e-07,9.848014851437253e-07,5.754771775598582e-07,2.6914809078842128e-05
3.976488847857314e-07,9.89534003234658e-07,5.657016723581539e-07,2.7048587693589044e-05
3.993743325714452e-07,9.937850613553731e-07,5.560194181100237e-07,2.7161351878217146e-05
4.010038540512421e-07,9.975440798708895e-07,5.464642949127796e-07,2.7253012030938144e-05
4.025218983312401e-07,1.0008031183486577e-06,5.370659439542553e-07,2.732341042617545e-05
4.039175189992265e-07,1.0035525931158227e-06,5.278509360906257e-07,2.7372546800840576e-05
4.0518317937293026e-07,1.0057781814970194e-06,5.188435556157786e-07,2.740091536453971e-05
4.0631289954029455e-07,1.0074614159852041e-06,5.100675386787712e-07,2.7409676235974845e-05
4.0730085703935287e-07,1.0085836539770394e-06,5.015492801557471e-07,2.7400507292128923e-05
4.0814045715428956e-07,1.0091354718794777e-06,4.933192589100015e-07,2.7375317405990456e-05
4.088245047525383e-07,1.009126895898666e-06,4.854105861536048e-07,2.733600987951869e-05
4.0934666011168606e-07,1.008589966879978e-06,4.778567203466867e-07,2.7284366857776804e-05
4.0970361313107856e-07,1.0075736807463134e-06,4.706888397870416e-07,2.722218656193761e-05
4.098963674627056e-07,1.006135552512503e-06,4.6393379364075787e-07,2.715162440340465e-05
4.0992858004139143e-07,1.0043331291081691e-06,4.5761331810511954e-07,2.7075382560406643e-05
4.098038589571716e-07,1.002218439927618e-06,4.5174290413061724e-07,2.699659676587344e-05
4.0952535209088295e-07,9.998353408132668e-07,4.4633190263488647e-07,2.691860320223691e-05
4.0909626493582797e-07,9.972179353851746e-07,4.413876965616517e-07,2.684472917194104e-05
4.0851945325875526e-07,9.943902958549e-07,4.3692068099822547e-07,2.6778122276123444e-05
4.0779737888344976e-07,9.913688401540935e-07,4.3294473938747474e-07,2.672161120973336e-05
4.0693300448848845e-07,9.88165890900903e-07,4.2947378179468213e-07,2.6677612668321013e-05
4.0593074195656365e-07,9.847906534459185e-07,4.265189695282821e-07,2.664810359228364e-05
4.04796590315904e-07,9.812470349025949e-07,4.240880255173218e-07,2.6634644392247132e-05
4.0353747377367356e-07,9.775319243978913e-07,4.2218505349746187e-07,2.663839971326161e-05
4.021616595746034e-07,9.736364445549473e-07,4.208112493491027e-07,2.666010918259465e-05
4.006809884171815e-07,9.69548648970528e-07,4.199671064946726e-07,2.670002298126908e-05
3.991126485074087e-07,9.65255417667071e-07,4.1965462097102105e-07,2.675786149449911e-05
3.974786480146261e-07,9.607441366348387e-07,4.198778372376907e-07,2.683284578190125e-05
3.958030571449226e-07,9.56005238173882e-07,4.20640773608012e-07,2.692381047279592e-05
3.941082898540537e-07,9.510338773917344e-07,4.2194570856394854e-07,2.702936000654332e-05
3.9241216185889724e-07,9.458289238457842e-07,4.2379732465992e-07,2.714800026702308e-05
3.907268635601034e-07,9.403903979573269e-07,4.2621178479645493e-07,2.7278222282467473e-05
3.8906003070272973e-07,9.347180287119268e-07,4.2922208546815095e-07,2.741856314437417e-05
3.87416255141539e-07,9.288114733210688e-07,4.328719981109822e-07,2.756765565811025e-05
3.857973376280778e-07,9.226701737387907e-07,4.372019617293218e-07,2.7724250907622344e-05
3.8420266032198033e-07,9.162926937457269e-07,4.422377329954464e-07,2.788719523538112e-05
3.826307187804608e-07,9.096771021808636e-07,4.4798678584792865e-07,2.8055365764510888e-05
3.81079959468589e-07,9.028218573541338e-07,4.544402833310154e-07,2.822758398268839e-05
3.7954817815289505e-07,8.957252484781872e-07,4.6157669343921396e-07,2.8402539833430846e-05
3.7803177788006103e-07,8.883833603900816e-07,4.693636833251978e-07,2.8578799457582183e-05
3.7652572147786824e-07,8.807887166748474e-07,4.777580669129265e-07,2.875490776114956e-05
3.75024274870626e-07,8.729307942123281e-07,4.867070091483711e-07,2.8929468978186164e-05
3.7352271274079036e-07,8.647985766053213e-07,4.961518469772411e-07,2.910114278605052e-05
3.720198643507705e-07,8.563846181079533e-07,5.06030775983574e-07,2.926862571741562e-05
3.7051930165177906e-07,8.476868664791605e-07,5.16278061363685e-07,2.943067401952371e-05
3.6902739722973116e-07,8.387064404446328e-07,5.268230098007958e-07,2.9586114819241887e-05
3.675509966211783e-07,8.294460087379123e-07,5.375917275803999e-07,2.973377835827613e-05
3.660968402396829e-07,8.199107860137908e-07,5.485125464305655e-07,2.9872445309144165e-05
3.64671175514588e-07,8.10108851483753e-07,5.595227899960523e-07,3.000097659972425e-05
3.632794938013396e-07,8.000499493907549e-07,5.705701123489281e-07,3.011858586707039e-05
3.619267159433425e-07,7.897440722678735e-07,5.816080907553109e-07,3.022501751263937e-05
3.606171582928681e-07,7.792009291280848e-07,5.925930586602286e-07,3.0320496042521465e-05
3.593551836235141e-07,7.68432103091227e-07,6.034822204599062e-07,3.0405529745192382e-05
3.5814665009250906e-07,7.574557283624674e-07,6.142300918348848e-07,3.0480698305132305e-05
3.5700052957070057e-07,7.463008237057774e-07,6.24786661252237e-07,3.054648067810178e-05
3.559303758348529e-07,7.350094891415032e-07,6.350991398377783e-07,3.060314040375244e-05
3.549532617450409e-07,7.236357119786468e-07,6.451137599124262e-07,3.065070123878144e-05
3.540853640513241e-07,7.122390101524366e-07,6.547760564330688e-07,3.06890164080238e-05
3.5333789321976227e-07,7.008758692440923e-07,6.640321892043718e-07,3.071785845351185e-05
3.5271608711959707e-07,6.895951629478348e-07,6.728323164065905e-07,3.0736970610116584e-05
3.522201543687785e-07,6.784387317746784e-07,6.811332935999108e-07,3.074608507122569e-05
3.518468028292021e-07,6.674441758154937e-07,6.888999445045845e-07,3.074499101375321e-05
3.5159209474142717e-07,6.5664679529189e-07,6.961069426235475e-07,3.073374562620981e-05
3.514554447405456e-07,6.460792808113287e-07,7.027399610719658e-07,3.0712868101056304e-05
3.5144103140169575e-07,6.357722385715712e-07,7.087944369028144e-07,3.0683258866449216e-05
3.515552372284968e-07,6.257594069311766e-07,7.142745439551703e-07,3.064599593275371e-05
3.518043574620519e-07,6.160840890860298e-07,7.191923435661525e-07,3.060231484028945e-05
3.521944368161532e-07,6.067989328416082e-07,7.23564070934096e-07,3.055368613964085e-05
3.527307240684832e-07,5.979586233254774e-07,7.274056327236691e-07,3.0501779261816772e-05
3.5341617046142604e-07,5.89613206721692e-07,7.307309068856394e-07,3.044832970046828e-05
3.542502673631234e-07,5.818081730094184e-07,7.335512869510534e-07,3.039499238205084e-05
3.552289696317788e-07,5.745914471986549e-07,7.358746331281079e-07,3.0343213408947083e-05
3.5634583887303535e-07,5.680233772700595e-07,7.377052292299871e-07,3.0294136295546428e-05
3.575936583504605e-07,5.62182247019395e-07,7.39045865171224e-07,3.0248548062977318e-05
3.589664982137389e-07,5.571587900224557e-07,7.3990068640967e-07,3.0206862954467604e-05
3.6046205043749523e-07,5.53045177114493e-07,7.402763178643951e-07,3.016913720374735e-05
3.620813505604389e-07,5.499287146289346e-07,7.401801536981884e-07,3.0135108611154608e-05
3.63824932915016e-07,5.478892490800622e-07,7.396187042467137e-07,3.0104253870286005e-05
3.656894285633526e-07,5.469949716404221e-07,7.385989198456092e-07,3.0075852527509853e-05
3.6766736823168203e-07,5.472964076848623e-07,7.371299581861882e-07,3.004904637677241e-05
3.6974807457038986e-07,5.488210876594465e-07,7.352229396989584e-07,3.002287893604615e-05
3.719172418619416e-07,5.515718227815319e-07,7.328909680881613e-07,2.9996296458211213e-05
3.741565791666043e-07,5.5552917112032e-07,7.301500447935498e-07,2.996812923882887e-05
3.7644573544207936e-07,5.606559452285249e-07,7.270184363337347e-07,2.9937112060855165e-05
3.787649709399221e-07,5.669012614526102e-07,7.235144098791422e-07,2.9901959295339678e-05
3.810955367907754e-07,5.742034836752129e-07,7.196544792197289e-07,2.986144611660136e-05
3.834180377260406e-07,5.824948097882221e-07,7.154530686926708e-07,2.9814458897463533e-05
3.8571129821861383e-07,5.917088172433335e-07,7.109225728076189e-07,2.9760020482742323e-05
3.87952705856141e-07,6.017859227067286e-07,7.060734125364119e-07,2.9697306945309614e-05
3.901191995562313e-07,6.126729071457727e-07,7.009151691462415e-07,2.9625655991468738e-05
3.921890781486623e-07,6.243205730269577e-07,6.954582659118256e-07,2.9544550719880523e-05
3.941452303557578e-07,6.366834633036458e-07,6.897143434570451e-07,2.9453581142707843e-05
3.959776477407512e-07,6.497210716929148e-07,6.836959754167698e-07,2.935241101728745e-05
3.976829881784511e-07,6.633985928054801e-07,6.774171116186478e-07,2.924074243608019e-05
3.99262512742922e-07,6.776830025193317e-07,6.708928627235191e-07,2.911827635318504e-05
4.007205860364492e-07,6.925340163333813e-07,6.641386936349603e-07,2.8984753715135283e-05
4.020643056758663e-07,7.078972253217702e-07,6.571719484210035e-07,2.884007730704008e-05
4.0330377627288496e-07,7.237042909332603e-07,6.500147446458456e-07,2.8684339024678748e-05
4.0445161303018775e-07,7.398794276356409e-07,6.42694588932664e-07,2.851769882250711e-05
4.0552121899480755e-07,7.563482252078482e-07,6.352425888623183e-07,2.834027120953243e-05
4.0652493388306077e-07,7.730412252777334e-07,6.276914158883275e-07,2.8152112410396882e-05
4.074720972117697e-07,7.898903081606988e-07,6.200749728304795e-07,2.795329143482479e-05
4.0836726461372405e-07,8.068245553113205e-07,6.124300861449079e-07,2.7743994239793646e-05
4.092100028630317e-07,8.237698641979514e-07,6.047969485824322e-07,2.7524558497337305e-05
4.0999701715598273e-07,8.406518354720125e-07,5.972160807924312e-07,2.7295405291769972e-05
4.107264921915172e-07,8.573985682444568e-07,5.897261940689452e-07,2.705694881118085e-05
4.114019206204093e-07,8.739401241061705e-07,5.82366951406332e-07,2.6809563404440367e-05
4.120320841507315e-07,8.902060326045931e-07,5.751827833100325e-07,2.655366131759497e-05
4.126286734756245e-07,9.061232268746052e-07,5.682228941444155e-07,2.628986626789421e-05
4.1320429720083187e-07,9.21615761180003e-07,5.615384778738778e-07,2.601915305408873e-05
4.137710582962008e-07,9.366072332379796e-07,5.551797292829009e-07,2.5742824904933774e-05
4.1433977823347757e-07,9.510247102579149e-07,5.49194441265509e-07,2.546233102603645e-05
4.149194609308881e-07,9.648014042510056e-07,5.436325370621079e-07,2.5179045091739605e-05
4.155163770163853e-07,9.778769270042627e-07,5.385567569938093e-07,2.4894132838556885e-05
4.1613346982208607e-07,9.901968156522129e-07,5.340494368405803e-07,2.460852879396463e-05
4.167704546765682e-07,1.001711981522474e-06,5.302079615934901e-07,2.4322960241577132e-05
4.174243543636562e-07,1.0123773542362784e-06,5.271324099064814e-07,2.403801220471696e-05
4.1809024638533593e-07,1.0221507367445148e-06,5.249122062009965e-07,2.375430485727612e-05
4.187622044116277e-07,1.0309928717147137e-06,5.236175191206942e-07,2.3472787872821507e-05
4.194345201230743e-07,1.038868343258754e-06,5.232967833105842e-07,2.319495162616568e-05
4.2010317765805047e-07,1.0457470596085054e-06,5.239765295457609e-07,2.292275037484506e-05
4.207673021060242e-07,1.051608613985145e-06,5.256625662784125e-07,2.265833548152641e-05
4.2142863281280154e-07,1.0564500571647068e-06,5.283445314199342e-07,2.2403803889066248e-05
4.2208848287862647e-07,1.0602879753601382e-06,5.320008159626393e-07,2.216103426296085e-05
4.227458659694186e-07,1.0631487395474115e-06,5.36599328563273e-07,2.193171093279093e-05
4.233981717836421e-07,1.0650575588118738e-06,5.420962980445191e-07,2.171759277276056e-05
4.240414758215293e-07,1.0660376944426143e-06,5.484378094707457e-07,2.1520792731206708e-05
4.2467007293158547e-07,1.0661170710379437e-06,5.555637876966006e-07,2.134379927532432e-05
4.2527691177213006e-07,1.065334112681914e-06,5.634121106582284e-07,2.1189293337821728e-05
4.2585413377262796e-07,1.0637381175494243e-06,5.719240809241855e-07,2.1059961696512768e-05
4.263931160026874e-07,1.0613844553983415e-06,5.810509856656845e-07,2.0958362744355747e-05
4.268849061537893e-07,1.0583297042348605e-06,5.907552950812804e-07,2.0886798896196948e-05
4.273209339893176e-07,1.0546290922521296e-06,6.010039463346563e-07,2.084719756949416e-05
4.2769406564610134e-07,1.0503335316489142e-06,6.11760080361621e-07,2.0841038586405944e-05
4.2800031753175077e-07,1.0454873661698652e-06,6.22979283490935e-07,2.086933322054984e-05
4.2823959119081003e-07,1.0401299521985492e-06,6.346109929264531e-07,2.09326329515068e-05
4.2841389471919423e-07,1.0342992160114272e-06,6.46601896079132e-07,2.1031034268671613e-05
4.285254778143541e-07,1.0280330355383623e-06,6.588970107148012e-07,2.1164157709146384e-05
4.2857811178735796e-07,1.0213668761457515e-06,6.71437338891792e-07,2.133111000399816e-05
4.2857992011240494e-07,1.0143307192966114e-06,6.84157534163427e-07,2.153045526227781e-05
4.28544097500093e-07,1.0069491668225913e-06,6.969875253365119e-07,2.176025041626461e-05
4.2848670255691923e-07,9.99243606413663e-07,7.098588386815962e-07,2.2018189101328392e-05
4.284231170636536e-07,9.912330611243064e-07,7.227116849696127e-07,2.2301801542702435e-05
4.2836519518088214e-07,9.829343930434128e-07,7.354976529924027e-07,2.2608612550925172e-05
4.2832013608538344e-07,9.743642077731164e-07,7.481768610638388e-07,2.293623436874789e-05
4.282906287787771e-07,9.6554060384167e-07,7.607112561286962e-07,2.328243590383252e-05
4.282755906711858e-07,9.564823161019371e-07,7.730579187441521e-07,2.364519230556311e-05
4.282711574958318e-07,9.4720807568798e-07,7.851670734481291e-07,2.402266144953306e-05
4.282712969556153e-07,9.377381362509035e-07,7.969843446494851e-07,2.4413069343609856e-05
4.2826761559223955e-07,9.280944793749252e-07,8.084526911671673e-07,2.481456182162834e-05
4.2824916035831157e-07,9.182982015045315e-07,8.195124434647062e-07,2.522509485210488e-05
4.2820316447413466e-07,9.083674633050459e-07,8.301018004750589e-07,2.564242162138309e-05
4.2811579709207677e-07,8.983196964893694e-07,8.401585962123644e-07,2.6064176665686647e-05
4.279725985973065e-07,8.881779663097465e-07,8.496215113831409e-07,2.648795632222988e-05
4.2776049268862317e-07,8.779769835153132e-07,8.584314035592521e-07,2.691132366184207e-05
4.274703062986664e-07,8.67765139553989e-07,8.665349035710699e-07,2.7331792130435426e-05
4.270964788338274e-07,8.576022268410494e-07,8.738884928178455e-07,2.774686059335817e-05
4.266350401121614e-07,8.475532035212744e-07,8.804606632091387e-07,2.8154097206355848e-05
4.260827964456949e-07,8.376800665552423e-07,8.862320365328835e-07,2.855118817474825e-05
