4.1808273985957367e-07,1.040267838456347e-06,4.310579866103029e-07,3.164243014046931e-05
4.179226625207893e-07,1.0463773160819084e-06,4.283867440973344e-07,3.1569020026969404e-05
4.181373407239553e-07,1.0525712287017491e-06,4.257255975755449e-07,3.150852408989553e-05
4.187308645535208e-07,1.0588137347007414e-06,4.230694534061532e-07,3.1460123005067077e-05
4.197049885312572e-07,1.065063553829802e-06,4.204132816976713e-07,3.1423023068983505e-05
4.2105752874732475e-07,1.0712787050828912e-06,4.177508463383764e-07,3.139651415729422e-05
4.2278098939751184e-07,1.0774201263747869e-06,4.150740866972321e-07,3.138000376439515e-05
4.248623067040769e-07,1.083453034543499e-06,4.1237445190395407e-07,3.1373025026947196e-05
4.2728292705379e-07,1.089348283138563e-06,4.096449410169962e-07,3.137521023262157e-05
4.300189501429023e-07,1.095080823540709e-06,4.068809578572794e-07,3.1386240994280305e-05
4.3304207665075925e-07,1.100623343996831e-06,4.0407928743134963e-07,3.140577842598833e-05
4.363214713119563e-07,1.1059408647625586e-06,4.012362577627717e-07,3.143336861202563e-05
4.3982544608689815e-07,1.1109904948268878e-06,3.983467135235272e-07,3.1468375395022966e-05
4.435222687185886e-07,1.1157262961174249e-06,3.954040956984681e-07,3.1510002928072804e-05
4.473803420584156e-07,1.1201060992313834e-06,3.9240082312453604e-07,3.155736072470277e-05
4.513675229841307e-07,1.12409361423112e-06,3.89328823491354e-07,3.1609505138805935e-05
4.5545002307649327e-07,1.1276566299642423e-06,3.8618075666890957e-07,3.166547702432813e-05
4.5959197889929507e-07,1.1307701586227337e-06,3.8295126866812505e-07,3.172434956703675e-05
4.6375587738576823e-07,1.1334234975355743e-06,3.7963706945041436e-07,3.178523527054273e-05
4.679038714879487e-07,1.135620277730682e-06,3.7623630894844353e-07,3.1847223891801856e-05
4.719997118234039e-07,1.137369954153532e-06,3.7274823945869647e-07,3.1909357898414344e-05
4.760110226368165e-07,1.1386794339703741e-06,3.691729092227515e-07,3.197073264968186e-05
4.799132915866543e-07,1.13955059477865e-06,3.655104555537287e-07,3.203060912234112e-05
4.836951522904308e-07,1.1399864083034929e-06,3.617607006556693e-07,3.208842879128161e-05
4.873592481237173e-07,1.140005953619332e-06,3.579242535226172e-07,3.214375052647413e-05
4.909153407113404e-07,1.139657158254599e-06,3.5400547610721063e-07,3.2196154975733535e-05
4.943718142993796e-07,1.139013052779656e-06,3.500156123868093e-07,3.224515725996086e-05
4.977329023758059e-07,1.1381552650089017e-06,3.4597285102248485e-07,3.2290142544836575e-05
5.0100091583256e-07,1.137159294104045e-06,3.418987040947617e-07,3.2330319521829524e-05
5.041786028442643e-07,1.136087625881299e-06,3.378140624763564e-07,3.2364732336508016e-05
5.072698098141766e-07,1.13498958381511e-06,3.3373765059451487e-07,3.239235023310829e-05
5.102795562207717e-07,1.1339037889406888e-06,3.2968622997130964e-07,3.241215546952773e-05
5.132133097505028e-07,1.132857846855585e-06,3.256747917870386e-07,3.2423158258642706e-05
5.160748698530872e-07,1.1318669243566915e-06,3.217168152661337e-07,3.242436639313594e-05
5.188652990015896e-07,1.1309361145240862e-06,3.178249743107654e-07,3.2414832894302645e-05
5.215841675817273e-07,1.1300639811139277e-06,3.1401098895972573e-07,3.2393848667815595e-05
5.242303043124607e-07,1.1292442774551048e-06,3.102846253503207e-07,3.236108838887827e-05
5.26801553216245e-07,1.128467079818475e-06,3.066533828035396e-07,3.231653675657635e-05
5.29296627200288e-07,1.1277180306670687e-06,3.031233737881109e-07,3.22603290269114e-05
5.317184859213065e-07,1.1269771918854005e-06,2.997007158222333e-07,3.2192652731715134e-05
5.340748539613856e-07,1.1262227010488126e-06,2.9639166226153536e-07,3.211370352561849e-05
5.363749268716965e-07,1.1254367606751414e-06,2.932012866540078e-07,3.202367400908473e-05
5.38625888616597e-07,1.124607510041938e-06,2.901329992257125e-07,3.1922756762036584e-05
5.408323319111513e-07,1.1237260996282408e-06,2.87189015828307e-07,3.181112887457301e-05
5.429986859272572e-07,1.1227820295081194e-06,2.843702959644073e-07,3.1688911295921434e-05
5.451318952753339e-07,1.1217595578612857e-06,2.816764302840086e-07,3.155613109233332e-05
5.472404291261932e-07,1.1206361262918084e-06,2.7910572541476977e-07,3.141271808572429e-05
5.493308748276643e-07,1.1193823013125049e-06,2.766548247777068e-07,3.1258534662022925e-05
5.514080589545709e-07,1.1179630778662944e-06,2.7431898638726713e-07,3.1093404167668634e-05
5.5347938226838e-07,1.11633969556446e-06,2.720939896619153e-07,3.091712288745822e-05
5.555584062393243e-07,1.1144706417614434e-06,2.6997742050851586e-07,3.072948971192077e-05
5.57664558825111e-07,1.1123132263396378e-06,2.679676902630909e-07,3.053038354709001e-05
5.5981956843287e-07,1.1098283866030457e-06,2.660627267514632e-07,3.031984457579388e-05
5.620425255629643e-07,1.106985831867746e-06,2.642595333985709e-07,3.009807698824649e-05
5.643456920937661e-07,1.1037632589276794e-06,2.6255439503380285e-07,2.9865376005234333e-05
5.667338887660781e-07,1.10014077138907e-06,2.60944749295136e-07,2.9622064023135218e-05
5.692083697741602e-07,1.0960966520108913e-06,2.5943255196284864e-07,2.936846769435957e-05
5.717715107605882e-07,1.0916066497082457e-06,2.5802568077666943e-07,2.910489100957749e-05
5.744274230603296e-07,1.08664582070894e-06,2.5673531772435353e-07,2.8831562194945134e-05
5.771778412140021e-07,1.0811912343472165e-06,2.555728980386158e-07,2.8548596387591515e-05
5.800184189736102e-07,1.0752251076613062e-06,2.545496730177711e-07,2.825602106474719e-05
5.829407938759944e-07,1.068739322645255e-06,2.536768120131153e-07,2.7953865078651398e-05
5.859373409428497e-07,1.0617395387518106e-06,2.5296474439762e-07,2.7642287979068127e-05
5.890011661199172e-07,1.0542467061096406e-06,2.524225067383716e-07,2.7321717272285212e-05
5.921222887136624e-07,1.0462965553411492e-06,2.520567988839275e-07,2.6992940622620397e-05
5.952871142678936e-07,1.0379370299966611e-06,2.518708938665019e-07,2.665711400033569e-05
5.984826572095739e-07,1.029222632480853e-06,2.5186434382805376e-07,2.631568557837792e-05
6.016997441097221e-07,1.020207209160037e-06,2.520341568278604e-07,2.5970247721521688e-05
6.049309031160385e-07,1.0109405757269904e-06,2.523770201993173e-07,2.562234929224349e-05
6.081661105819288e-07,1.0014717028175483e-06,2.5289033109362077e-07,2.527333857299097e-05
6.113913919652493e-07,9.918522079877018e-07,2.5357190324077005e-07,2.4924300543057405e-05
6.145907085181277e-07,9.821347711797005e-07,2.5442050237857136e-07,2.457609581116552e-05
6.177485182419004e-07,9.723699179610917e-07,2.554360098156143e-07,2.4229434722693632e-05
6.208505277898993e-07,9.626053351505784e-07,2.566174999601277e-07,2.3884898882448472e-05
6.238822757425517e-07,9.528886440678815e-07,2.57961423035288e-07,2.354291094689016e-05
6.268269974731453e-07,9.432704998322818e-07,2.5946282476327033e-07,2.320371507469824e-05
6.296641808210458e-07,9.338017909385021e-07,2.6111985675193037e-07,2.286741191293847e-05
6.323698887846957e-07,9.245268042428637e-07,2.629374112810721e-07,2.253409121847445e-05
6.349197402599096e-07,9.15481411433662e-07,2.649253306662468e-07,2.22040265693413e-05
6.372936339252448e-07,9.066996026399824e-07,2.670930446227211e-07,2.1877772927904464e-05
6.394785758095854e-07,8.982249112990299e-07,2.694458686836955e-07,2.1556077746486906e-05
6.414667571364274e-07,8.901206663283341e-07,2.719845192405732e-07,2.123969173946873e-05
6.432505115814354e-07,8.82473489997037e-07,2.747061020515091e-07,2.092921687137757e-05
6.448189563750699e-07,8.753888553543526e-07,2.776053220129913e-07,2.062506490867077e-05
6.461592966557385e-07,8.689795271238559e-07,2.806755420618148e-07,2.0327526061474594e-05
6.472601841305646e-07,8.633495858569496e-07,2.839090489723113e-07,2.003688019888601e-05
6.481128388263831e-07,8.585820384708698e-07,2.872961052300187e-07,1.9753475591462837e-05
6.48710433593773e-07,8.547345917943589e-07,2.9082373716379945e-07,1.947784731157209e-05
6.490479193279324e-07,8.518396750354861e-07,2.9447533625221173e-07,1.921092721252802e-05
6.491212167346921e-07,8.499056304897608e-07,2.9823099764697044e-07,1.8954133314132694e-05
6.489256471556526e-07,8.489195083871748e-07,3.0206864870818945e-07,1.870920106234336e-05
6.484563875896859e-07,8.488510177391979e-07,3.059655761710733e-07,1.8477911308022066e-05
6.477118398102896e-07,8.496568546266648e-07,3.098992149023379e-07,1.8261875019446176e-05
6.466981051853119e-07,8.512865366969825e-07,3.138468326539884e-07,1.806248097653029e-05
6.454318802146441e-07,8.536891745903516e-07,3.177847143061676e-07,1.7881120858093956e-05
6.439388021077099e-07,8.56816314216793e-07,3.21688731181699e-07,1.7719557580777998e-05
6.422483153977523e-07,8.606188157885084e-07,3.255370275392877e-07,1.75800819024663e-05
6.40390772520916e-07,8.650431372750515e-07,3.293121854310221e-07,1.7465372125347968e-05
6.383972753915333e-07,8.700332130940546e-07,3.330013786952853e-07,1.737825814873087e-05
6.362974189292158e-07,8.755370286608013e-07,3.365955063773183e-07,1.7321510487310832e-05
6.341158840503878e-07,8.815104074393358e-07,3.4008721806631806e-07,1.7297657650454026e-05
6.318720619175705e-07,8.879124822820069e-07,3.434685168979596e-07,1.730882724108127e-05
6.295824478631674e-07,8.946969212424953e-07,3.46729889248984e-07,1.7356632281641728e-05
6.272634028950229e-07,9.01807924036698e-07,3.49860899608075e-07,1.7442132703890326e-05
6.249322508406779e-07,9.091830995482029e-07,3.528514225180545e-07,1.7565858728896834e-05
6.226060185925605e-07,9.167575303786569e-07,3.556927293269558e-07,1.7727834949448636e-05
6.202996364839139e-07,9.244653001534651e-07,3.58376972267171e-07,1.7927552932913834e-05
6.180255143177073e-07,9.322419294181524e-07,3.608954675971353e-07,1.816392125854067e-05
6.157937201244595e-07,9.400295626131004e-07,3.6323795052138747e-07,1.843527738390632e-05
6.136116769930544e-07,9.477801540086836e-07,3.653930579278432e-07,1.873949441725276e-05
6.114852699921751e-07,9.55455515922259e-07,3.6734866148904927e-07,1.9074153226724265e-05
6.094221604536029e-07,9.63025864258658e-07,3.6909184171665074e-07,1.9436735040378205e-05
6.074333384521681e-07,9.704648235320913e-07,3.70609399373992e-07,1.9824773643891705e-05
6.055304759655439e-07,9.77742716573963e-07,3.718893212925776e-07,2.023592683305408e-05
6.037221967909625e-07,9.84824211280048e-07,3.729222592134909e-07,2.0667987141271022e-05
6.020122836965982e-07,9.91670423842583e-07,3.7370172736652104e-07,2.1118867243734688e-05
6.003994674720884e-07,9.98240583071257e-07,3.742233353905277e-07,2.158658010713216e-05
5.988780022194125e-07,1.0044929836198375e-06,3.744844360870569e-07,2.2069219229407958e-05
5.974386906563426e-07,1.0103894996167592e-06,3.744844599430646e-07,2.2564926537046108e-05
5.9607014634963e-07,1.0159034841051958e-06,3.742249498220228e-07,2.3071822673766325e-05
5.947606013890405e-07,1.021023897668264e-06,3.7370883806519903e-07,2.3587898681724065e-05
5.934989826301797e-07,1.0257497397802009e-06,3.7293970978857005e-07,2.411094874246051e-05
5.922743775465986e-07,1.0300793610336559e-06,3.719214226513833e-07,2.4638603939545306e-05
5.91075588303347e-07,1.0340049733874605e-06,3.7065763276107186e-07,2.516840397677176e-05
5.898909285127717e-07,1.0375143166984243e-06,3.6915146562948155e-07,2.5697843686333945e-05
5.887075911131196e-07,1.040593566473603e-06,3.674060092541768e-07,2.6224408796262532e-05
5.875115061133452e-07,1.0432287832568902e-06,3.6542657197151155e-07,2.6745636605008e-05
5.862875430929711e-07,1.0454063825994529e-06,3.63224908255595e-07,2.7259171071477304e-05
5.850191427155616e-07,1.0471127480412956e-06,3.6082144887069527e-07,2.7762740677025365e-05
5.836892382965179e-07,1.0483368266049166e-06,3.582419884427733e-07,2.825413549969173e-05
5.822851312607168e-07,1.0490783347765312e-06,3.5551291266027824e-07,2.87312863779018e-05
5.808044539907593e-07,1.0493532935959302e-06,3.5266043795162244e-07,2.9192335607248712e-05
5.792560597101631e-07,1.0491896183883111e-06,3.497123764270059e-07,2.9635599702944893e-05
5.776552958135545e-07,1.0486187013092051e-06,3.466978715919771e-07,3.0059501549045586e-05
5.760186795490498e-07,1.0476694748252809e-06,3.4364456788714236e-07,3.046255093168429e-05
5.743609177011082e-07,1.0463667722394545e-06,3.4057619990978954e-07,3.0843367353723364e-05
5.726931577126446e-07,1.0447392702501098e-06,3.375120286396977e-07,3.120067999330325e-05
5.710216289637757e-07,1.0428338640738086e-06,3.344670205605636e-07,3.153327359664608e-05
5.69347403252626e-07,1.0407194036881764e-06,3.314520493804002e-07,3.183995615641505e-05
5.676672077762362e-07,1.0384744028357142e-06,3.284746357825441e-07,3.211959974016503e-05
5.659745648078594e-07,1.0361722082938394e-06,3.2554073294347485e-07,3.237119263344397e-05
5.642616218464523e-07,1.0338743707687876e-06,3.2265662754745497e-07,3.2593846590005365e-05
5.625220948366859e-07,1.031630922554868e-06,3.198293578249583e-07,3.278679316947056e-05
5.607545691755094e-07,1.0294813243375575e-06,3.170663254917469e-07,3.2949473411230606e-05
5.589644505911709e-07,1.0274530638368395e-06,3.143756044787212e-07,3.308172990717794e-05
5.571626355860062e-07,1.0255607450435548e-06,3.1176597403537675e-07,3.3183897833120124e-05
5.553622109794438e-07,1.0238093878771184e-06,3.092459963769665e-07,3.3256713172473606e-05
5.535777162042115e-07,1.0222001729766492e-06,3.068235916140449e-07,3.330120815338664e-05
5.518275468296059e-07,1.020732930518887e-06,3.045062493003231e-07,3.331863901552249e-05
5.501341217415308e-07,1.0194035019707362e-06,3.0230065647762986e-07,3.3310375634374576e-05
5.485192116736352e-07,1.0182001761042177e-06,3.002116775668629e-07,3.3277775176380435e-05
5.469991368685014e-07,1.0171030122644683e-06,2.98241204049454e-07,3.3222087739270894e-05
5.455840246547858e-07,1.0160860930342959e-06,2.9638779553740674e-07,3.3144445046395576e-05
5.442792652051471e-07,1.0151221835303836e-06,2.9464810610112374e-07,3.30459675749206e-05
5.430859907923478e-07,1.0141877135903872e-06,2.930184851002153e-07,3.2927903833380845e-05
5.420009411166327e-07,1.0132634384164154e-06,2.914947878663024e-07,3.279165082517774e-05
5.410174966250977e-07,1.0123300531366242e-06,2.900717756817073e-07,3.2638636266641914e-05
5.401281507145673e-07,1.0113645285468051e-06,2.887430455776221e-07,3.2470192903585906e-05
5.393274678723912e-07,1.0103421939062176e-06,2.8750067933996856e-07,3.228753981900973e-05
5.386140226077531e-07,1.0092423207754623e-06,2.863357272081744e-07,3.209184117000594e-05
5.379912249813938e-07,1.0080505776268132e-06,2.8524072777905715e-07,3.1884218594247746e-05
5.374679135241028e-07,1.0067553703098302e-06,2.842123392925709e-07,3.166569226093847e-05
5.370577696514871e-07,1.0053416792622965e-06,2.832518095048329e-07,3.143715137328158e-05
5.367762241109877e-07,1.0037878620815418e-06,2.823639591653697e-07,3.1199403006963376e-05
5.366355552546204e-07,1.0020666556766158e-06,2.815563617905282e-07,3.0953233915313375e-05
5.366413501819055e-07,1.0001482168123895e-06,2.8083950310124147e-07,3.069942144411006e-05
5.367928143561818e-07,9.980046626674088e-07,2.8022807890817473e-07,3.043869251963565e-05
5.370848628659228e-07,9.956148361545745e-07,2.797412886180637e-07,3.0171656535645226e-05
5.375095780168505e-07,9.929654828863791e-07,2.7939973401592805e-07,2.989878459112497e-05
5.38057974573642e-07,9.900484248352284e-07,2.792211208384285e-07,2.9620561231835512e-05
5.387217191294386e-07,9.868572587857266e-07,2.792183398547988e-07,2.933781299220882e-05
5.394921910811871e-07,9.83386878084288e-07,2.7939985367416694e-07,2.905195030930116e-05
5.403573523413265e-07,9.79636632402951e-07,2.7977006855387077e-07,2.8764867672789836e-05
5.413001896686033e-07,9.75614400571836e-07,2.8032911037801124e-07,2.8478633016021834e-05
5.423003482081796e-07,9.71337564184507e-07,2.810736856445896e-07,2.819531328343691e-05
5.433364884491993e-07,9.668297758274857e-07,2.819984750760239e-07,2.7917041949534087e-05
5.44387699433368e-07,9.621157800840821e-07,2.8309576656471637e-07,2.7646172029655047e-05
5.454355345933678e-07,9.572168862888604e-07,2.843540243949802e-07,2.7385400121985823e-05
5.464659706160083e-07,9.521495114219141e-07,2.8575754303331557e-07,2.7137816900860214e-05
5.47468410010549e-07,9.469283566454846e-07,2.87287686755668e-07,2.69068257601182e-05
5.484325079714668e-07,9.415722312623579e-07,2.889244228275353e-07,2.66959404515574e-05
5.493457540818634e-07,9.361073230181763e-07,2.90646666382371e-07,2.6508504184956657e-05
5.501931069500577e-07,9.305640829748516e-07,2.9243178883858036e-07,2.6347361522579777e-05
5.50958408499858e-07,9.249707982341915e-07,2.942557197789094e-07,2.621459929426837e-05
5.516273985680214e-07,9.193498971940594e-07,2.960940554821683e-07,2.611146198867469e-05
5.521910156575033e-07,9.137192009427315e-07,2.979230882798923e-07,2.603839540858971e-05
5.526463200706946e-07,9.080981857571177e-07,2.997202197093183e-07,2.5995134964318405e-05
5.52996246433084e-07,9.025140418091877e-07,3.01465198248189e-07,2.598084033550442e-05
5.532502458291688e-07,8.970000507895941e-07,3.031424211287825e-07,2.599430066612975e-05
5.534235315128439e-07,8.915905006613047e-07,3.04741772702467e-07,2.6034130925364346e-05
5.535342915133345e-07,8.863197528718624e-07,3.062568993714327e-07,2.6098853356632638e-05
5.536016635441779e-07,8.812230283379721e-07,3.0768288843572397e-07,2.6186901117911138e-05
5.53645650541344e-07,8.763346044793379e-07,3.090152785838161e-07,2.6296617345033675e-05
5.536872354943722e-07,8.716840567013666e-07,3.102502330227567e-07,2.642624350219368e-05
5.537466332777428e-07,8.672946200405352e-07,3.113845809968591e-07,2.6573918274375065e-05
5.538416575759392e-07,8.631849058424848e-07,3.1241549143462557e-07,2.673780609664365e-05
5.539887330477522e-07,8.593690441355133e-07,3.133401143219542e-07,2.691642756198829e-05
5.542035524796633e-07,8.558547073980194e-07,3.141554655895332e-07,2.7108950328687145e-05
5.544990269445529e-07,8.526428815267845e-07,3.1485947692488126e-07,2.731508405846705e-05
5.54882609023576e-07,8.497279620819091e-07,3.1545316300520075e-07,2.7534684629417595e-05
5.553564414183895e-07,8.470974871151991e-07,3.159426803639797e-07,2.7767552339725054e-05
5.559250385772545e-07,8.447347727335737e-07,3.1634080499129e-07,2.8013691867680877e-05
5.566083551909478e-07,8.426226424698375e-07,3.1666799472165033e-07,2.8273747834177093e-05
5.574491596565944e-07,8.40743499743545e-07,3.1695258355294087e-07,2.854902261030252e-05
5.585120507909998e-07,8.390770449618369e-07,3.172287313102808e-07,2.8840988828177422e-05
5.598804957964305e-07,8.375992765062688e-07,3.1753146485648226e-07,2.9150788326631032e-05
5.616513924393344e-07,8.362831873160002e-07,3.1789159111771624e-07,2.947900298147984e-05
5.639243018384121e-07,8.351003976320269e-07,3.1833452103848876e-07,2.9825647755567304e-05
5.667901993224691e-07,8.340224180066655e-07,3.1888293641222485e-07,3.0190252521732238e-05
5.703247498406096e-07,8.330204732328623e-07,3.1956057689264933e-07,3.0571893373084585e-05
5.745856124702485e-07,8.320649189739272e-07,3.203946650500801e-07,3.0969160732711674e-05
5.796147057984331e-07,8.311247405444027e-07,3.214151206466537e-07,3.138016649320058e-05
5.854457889502036e-07,8.301666124085485e-07,3.226510511426936e-07,3.180266391153319e-05
5.921101616662496e-07,8.291562778523231e-07,3.2412671529867676e-07,3.223424938100774e-05
5.996356510724405e-07,8.280637282421902e-07,3.2585956398735124e-07,3.267255577906801e-05
6.080428913254686e-07,8.268664205041748e-07,3.278609776278008e-07,3.311535018346823e-05
6.173437033585508e-07,8.255471281732173e-07,3.3013755107348215e-07,3.356055472564631e-05
6.275486552293005e-07,8.24092292540322e-07,3.3269385599747405e-07,3.400668844008942e-05
6.386901213240524e-07,8.224969762340862e-07,3.355390422403497e-07,3.445427290874591e-05
6.508454971347141e-07,8.207729038207485e-07,3.3869293698329745e-07,3.4907289293536605e-05
6.641369236354328e-07,8.189493704387039e-07,3.421862506671717e-07,3.53731559609241e-05
6.787120519321513e-07,8.170645179032821e-07,3.460562853215153e-07,3.586146882589473e-05
6.947243426059521e-07,8.151555353492613e-07,3.503405845385546e-07,3.6382651593000576e-05
7.123181805028051e-07,8.132532901677923e-07,3.5506990443717254e-07,3.6946831883297025e-05
7.316172860380734e-07,8.113795617019921e-07,3.6026371110130904e-07,3.756289986823705e-05
7.527146813389594e-07,8.095464573759685e-07,3.659295391298094e-07,3.823782459269956e-05
7.756641810274551e-07,8.077583261425529e-07,3.720652154049857e-07,3.897636091503441e-05
8.004765517018275e-07,8.060130729495137e-07,3.786629936798892e-07,3.978120833022072e-05
8.271224892288156e-07,8.043017368759641e-07,3.857132656309922e-07,4.0653410129717546e-05
8.55541634187839e-07,8.02608763866962e-07,3.932059103424878e-07,4.159269598368225e-05
8.856536004222574e-07,8.009137818746121e-07,4.0113008161900953e-07,4.259770965813387e-05
9.173676243863345e-07,7.991944152623422e-07,4.094731598065819e-07,4.3666294120975206e-05
9.505908698222493e-07,7.97429703308932e-07,4.182190491960329e-07,4.479591187761226e-05
9.852343345360625e-07,7.956016747543735e-07,4.273470740245697e-07,4.598405666189859e-05
1.0212156492815158e-06,7.936933053411044e-07,4.368316180418314e-07,4.722858333718636e-05
1.0584606476836413e-06,7.916860960373131e-07,4.466421143637993e-07,4.852799315422274e-05
1.0969038142523638e-06,7.895615483194083e-07,4.567439527744503e-07,4.9881529763301754e-05
1.1364853747996712e-06,7.873047287840464e-07,4.6709896477753384e-07,5e-06
1.1771437127523515e-06,7.849068766033814e-07,4.77664021849694e-07,5e-06
1.2188068582828258e-06,7.823696307401399e-07,4.883899726556464e-07,5e-06
1.261389562408903e-06,7.797101246192633e-07,4.992234697944014e-07,5e-06
1.3047949853855481e-06,7.769597722274305e-07,5.101103617420529e-07,5e-06
1.3489143054000448e-06,7.741565665093484e-07,5.209974585667146e-07,5e-06
1.3936226887788851e-06,7.713375855471068e-07,5.318319137872653e-07,5e-06
1.4387748927587343e-06,7.685339164657711e-07,5.425600970149031e-07,5e-06
1.4842034047590031e-06,7.65768488499157e-07,5.531278194319604e-07,5e-06
1.5297201253083825e-06,7.630594556252223e-07,5.634820070380645e-07,5e-06
1.575120550172106e-06,7.604277548547569e-07,5.735718999774435e-07,5e-06
1.6201886072866629e-06,7.579037369271469e-07,5.833485104844953e-07,5e-06
1.664702633361778e-06,7.555297972076412e-07,5.927636552483072e-07,5e-06
1.708443500830341e-06,7.533574134698138e-07,6.017700023689541e-07,5e-06
1.751199777313693e-06,7.514389855206447e-07,6.10322307800563e-07,5e-06
1.7927666051010376e-06,7.498195363449561e-07,6.183790201407393e-07,5e-06
1.8329438795805287e-06,7.485332148037937e-07,6.259028731761627e-07,5e-06
1.871536414154099e-06,7.476069938595402e-07,6.328601965131432e-07,5e-06
1.908354918699041e-06,7.470733518771289e-07,6.392198098887061e-07,5e-06
1.943218365135656e-06,7.469852239120827e-07,6.449526159341626e-07,5e-06
1.9759557872273246e-06,7.474189639749181e-07,6.500319835148406e-07,5e-06
2e-07,7.484628401628023e-07,6.544341451149673e-07,5e-06
2e-07,7.50202278184903e-07,6.581389118178252e-07,5e-06
2e-07,7.527098621972517e-07,6.61130696879188e-07,5e-06
2e-07,7.560404961902652e-07,6.633991052427436e-07,5e-06
2e-07,7.602311047608378e-07,6.649389361613445e-07,5e-06
2e-07,7.65303040199531e-07,6.657495752135119e-07,5e-06
2e-07,7.712625985484578e-07,6.658341941236653e-07,5e-06
2e-07,7.780993322332785e-07,6.651992029275224e-07,5e-06
2e-07,7.857857430402616e-07,6.638541864503822e-07,5e-06
2e-07,7.942787502152124e-07,6.618124292865266e-07,5e-06
2e-07,8.035231717987508e-07,6.590911304116401e-07,5e-06
2e-07,8.134580036380065e-07,6.557110319575484e-07,5e-06
2e-07,8.240219237288708e-07,6.516968367630115e-07,5e-06
2e-07,8.351532990053327e-07,6.470784053780489e-07,5e-06
2e-07,8.467852449037413e-07,6.418903095291907e-07,5e-06
2e-07,8.588409210023102e-07,6.361690958401671e-07,5e-06
2e-07,8.712333458155177e-07,6.299509499018556e-07,5e-06
2e-07,8.838697908280512e-07,6.232710716819069e-07,5e-06
2e-07,8.966565263045359e-07,6.161631562608036e-07,5e-06
2e-07,9.094994167668006e-07,6.086585049527052e-07,5e-06
2e-07,9.223025353818519e-07,6.007860204219064e-07,5e-06
2e-07,9.349701156593193e-07,5.925732764548418e-07,5e-06
1.9746969763146333e-06,9.474107853510448e-07,5.840477083537159e-07,5e-06
1.9443019392344474e-06,9.595410572932636e-07,5.752370509219604e-07,5e-06
1.9121091034174894e-06,9.712875760350178e-07,5.661685467692229e-07,5e-06
1.8782605670857624e-06,9.82586138414818e-07,5.568675592221282e-07,5e-06
1.8429022938195807e-06,9.933780587896076e-07,5.473570813946368e-07,5e-06
1.8061785153102902e-06,1.00360804722404e-06,5.376592716676293e-07,5e-06
1.7682315117722587e-06,1.013224417965265e-06,5.277987903603507e-07,5e-06
1.7292039086972992e-06,1.0221796371231646e-06,5.178048217307796e-07,5e-06
1.6892386678910749e-06,1.0304295494113358e-06,5.077091409967679e-07,5e-06
1.6484771591164713e-06,1.0379318354402886e-06,4.975430874250378e-07,5e-06
1.6070575078837285e-06,1.044646831326503e-06,4.873368559253914e-07,5e-06
1.5651131364794614e-06,1.050540510676314e-06,4.771196791262024e-07,5e-06
1.5227720117691073e-06,1.0555853930425623e-06,4.669191751957938e-07,5e-06
1.480157635255382e-06,1.059759840942419e-06,4.5676131271604795e-07,5e-06
1.4373909068541947e-06,1.0630514822133778e-06,4.4667235875913093e-07,5e-06
1.3945911163028318e-06,1.0654635360411483e-06,4.366811727611206e-07,5e-06
1.3518768095822415e-06,1.0670140490053329e-06,4.2681935047590385e-07,5e-06
1.309368040520879e-06,1.0677268628434798e-06,4.17119304615869e-07,5e-06
1.2671877936728338e-06,1.0676256092476364e-06,4.076124368536746e-07,5e-06
1.2254604991127908e-06,1.066735368650762e-06,3.983291657438985e-07,5e-06
1.1843083082517806e-06,1.0650865205791715e-06,3.8930001816823185e-07,5e-06
1.1438462116783751e-06,1.0627175574282269e-06,3.8055599726581307e-07,5e-06
1.1041791095315685e-06,1.0596753479510808e-06,3.721287784584553e-07,5e-06
1.0654032012229247e-06,1.056012360248346e-06,3.640506957192372e-07,5e-06
1.0276082212545423e-06,1.0517871514748123e-06,3.5635247153034845e-07,5e-06
9.908767616769386e-07,1.0470720786524708e-06,3.49059624288014e-07,5e-06
9.552821463307577e-07,1.0419583066072814e-06,3.4219163911073647e-07,4.798045014405666e-05
9.208871238792608e-07,1.0365472074944222e-06,3.3576522572672964e-07,4.593410849030132e-05
8.877434467452434e-07,1.0309346761812125e-06,3.2979782047510426e-07,4.3918468676117625e-05
8.558919378231174e-07,1.0252018351851802e-06,3.2430770525253394e-07,4.1938493908257504e-05
8.253631058538887e-07,1.0194160317863013e-06,3.193120894767116e-07,3.999874418479099e-05
7.961797865966155e-07,1.013642203159514e-06,3.1482558618878744e-07,3.8103316666604794e-05
7.683620768378078e-07,1.007960141629661e-06,3.1085886549638844e-07,3.625599138653169e-05
7.41930669225418e-07,1.002473081900305e-06,3.074174807030026e-07,3.446051487825153e-05
7.169061193151772e-07,9.972992276164426e-07,3.045030802197122e-07,3.272078842189925e-05
6.933063994708732e-07,9.925550012584015e-07,3.0211810335753013e-07,3.1040819813945124e-05
6.711441805495879e-07,9.883416980472096e-07,3.002706169718573e-07,2.9424496529990875e-05
6.504234255431237e-07,9.84738134221746e-07,2.989742521027778e-07,2.7875329350149712e-05
6.311379949222508e-07,9.817976922944737e-07,2.9824257187131845e-07,2.639629289267519e-05
6.132756214076761e-07,9.795491947803209e-07,2.980834507141193e-07,2.4989772830717787e-05
5.968247977746355e-07,9.780001300069694e-07,2.984981536004762e-07,2.3657540372954252e-05
5.81777714362735e-07,9.77139591511888e-07,2.994825205192923e-07,2.240076539286946e-05
5.681270401738615e-07,9.769400857585823e-07,3.0102654677170684e-07,2.1220198114081408e-05
5.558609424720905e-07,9.773597733134658e-07,3.03113442585965e-07,2.011651318553295e-05
5.449594463832e-07,9.783458796532586e-07,3.057203289956376e-07,1.9090564664524694e-05
5.353928326406188e-07,9.798373034720195e-07,3.08819928598217e-07,1.8143353585520583e-05
5.271223719845683e-07,9.817655313101255e-07,3.123815381685393e-07,1.7275784543647973e-05
5.201024613625863e-07,9.840566986168698e-07,3.163725578683364e-07,1.6488397417933606e-05
5.14284627173348e-07,9.866369866533385e-07,3.207618003115848e-07,1.578122504668935e-05
5.09623892122869e-07,9.894403035658078e-07,3.255211183420275e-07,1.5153915979835143e-05
5.060825667224153e-07,9.924154557626673e-07,3.306235933545702e-07,1.4606073257925895e-05
5.03625883009829e-07,9.955289381654857e-07,3.3604221397998373e-07,1.4137485439638543e-05
5.022133316615371e-07,9.987616493027486e-07,3.417509150674176e-07,1.3748067657072088e-05
5.017942615050482e-07,1.0021015592687328e-06,3.477248938694855e-07,1.3437673074965199e-05
5.023093640372919e-07,1.0055355854952199e-06,3.539386682350786e-07,1.3205971071548896e-05
5.036936997350144e-07,1.0090441597053334e-06,3.603644195866911e-07,1.305242534499342e-05
5.058777742787026e-07,1.0126001523296578e-06,3.6697280900948093e-07,1.2976282109698558e-05
5.087870815278432e-07,1.016171802026335e-06,3.7373483052938797e-07,1.2976503346118304e-05
5.123425908277328e-07,1.0197288634454751e-06,3.8062166267940076e-07,1.3051685200100007e-05
5.164626469096913e-07,1.0232477367078597e-06,3.8760232829228246e-07,1.3200002653924188e-05
5.210648209605694e-07,1.026710122645113e-06,3.9464216658553594e-07,1.3419167866309776e-05
5.260669636129707e-07,1.0300961475471191e-06,4.017035092200424e-07,1.3706381662934496e-05
5.313885699784835e-07,1.0333788829195813e-06,4.087469568043813e-07,1.4058284569255895e-05
5.369538225299482e-07,1.0365253591754886e-06,4.1573244611997963e-07,1.4470957457824854e-05
5.426947201143057e-07,1.0395007708382562e-06,4.2262113002671143e-07,1.4940010389609833e-05
5.485511359286233e-07,1.0422701143819115e-06,4.293777145582893e-07,1.5460731463122126e-05
5.544677631580107e-07,1.0447976686269938e-06,4.359708977852893e-07,1.6028240792383648e-05
5.603907355423598e-07,1.0470459459257276e-06,4.4237198097402314e-07,1.6637614228725502e-05
5.662659766085715e-07,1.0489741200413885e-06,4.4855422048496065e-07,1.7283983082777727e-05
5.720392611252427e-07,1.0505378986336838e-06,4.5449267652249615e-07,1.7962647051683926e-05
5.776571804589614e-07,1.0516926899536156e-06,4.60163185345287e-07,1.8669191496884783e-05
5.830688301924587e-07,1.0523983930621244e-06,4.6554169869453847e-07,1.93995341169132e-05
5.882274102293116e-07,1.0526221536217744e-06,4.7060504017285826e-07,2.014985164688204e-05
5.930907283560542e-07,1.0523387906001836e-06,4.753324200388669e-07,2.091643096188981e-05
5.976210796502334e-07,1.0515310513193705e-06,4.797067296140844e-07,2.1695528261102093e-05
6.017848304353246e-07,1.0501895923598815e-06,4.837154607783468e-07,2.248328623533965e-05
6.055520612633707e-07,1.0483130754858525e-06,4.873519002489601e-07,2.3275749583679252e-05
6.088974993221729e-07,1.0459091953078177e-06,4.906158501650785e-07,2.4068970511804307e-05
6.118032016290612e-07,1.0429943089273115e-06,4.935120638947057e-07,2.4859107074747947e-05
6.142610497743315e-07,1.0395903542018862e-06,4.960469428489547e-07,2.564246705695068e-05
6.162717577234464e-07,1.0357243051768322e-06,4.98226652728204e-07,2.6415543140919485e-05
6.178403919148459e-07,1.03143426541266e-06,5.000584167128728e-07,2.71750695858534e-05
6.189719068805771e-07,1.0267729319616787e-06,5.015528905444601e-07,2.791806215936665e-05
6.196686725876446e-07,1.0217999174085766e-06,5.027245207030678e-07,2.8641764361998438e-05
6.199297337665305e-07,1.0165715232146605e-06,5.035892663623132e-07,2.9343506038117876e-05
6.197513446578798e-07,1.0111358112132894e-06,5.041626572611999e-07,3.00205968867138e-05
6.191280953510096e-07,1.0055313143431922e-06,5.044616754403814e-07,3.067033298384685e-05
6.180542453471487e-07,9.99792928627093e-07,5.045072951449803e-07,3.129009261632309e-05
6.165255862982559e-07,9.939675764371919e-07,5.043219220300559e-07,3.1877507588281655e-05
6.145408461409921e-07,9.88128396833001e-07,5.039242754789114e-07,3.243067967747593e-05
6.121012882145004e-07,9.823752239159201e-07,5.033272862223386e-07,3.294830331687041e-05
6.092102293313085e-07,9.76822577661811e-07,5.025390399304073e-07,3.34295914711156e-05
6.058740952046489e-07,9.715835782136298e-07,5.015644504980522e-07,3.3874071354349344e-05
6.021027026585675e-07,9.667560121334438e-07,5.004065532893071e-07,3.4281370298142795e-05
5.979075972726475e-07,9.624149392346785e-07,4.990676190833818e-07,3.465107173720653e-05
5.933015189810395e-07,9.586129657445726e-07,4.975504439789553e-07,3.498266970976436e-05
5.883005597628947e-07,9.553837725228508e-07,4.958587482587461e-07,3.5275580964357205e-05
5.829261175419091e-07,9.527452981413868e-07,4.939959172664871e-07,3.552919403649807e-05
5.772051953350955e-07,9.507026436856316e-07,4.919637182977813e-07,3.5743046030405764e-05
5.711718619015964e-07,9.492506514886439e-07,4.897628890687121e-07,3.5917151752637436e-05
5.648695823665251e-07,9.483753521610487e-07,4.873956761406774e-07,3.6052243673720544e-05
5.583503775375335e-07,9.480534517869745e-07,4.848688608777052e-07,3.614969728433698e-05
5.516714799298877e-07,9.482516592956421e-07,4.821962543166797e-07,3.621125801973389e-05
5.448920867651194e-07,9.489306617809452e-07,4.794004404274711e-07,3.6238777463435856e-05
5.380698074609679e-07,9.500555568500108e-07,4.765111959254346e-07,3.623404406865634e-05
5.312588500392433e-07,9.516069767079656e-07,4.735597248815943e-07,3.619882695735015e-05
5.245117777055484e-07,9.535838700333063e-07,4.705736829952568e-07,3.613516159394345e-05
5.178801547290007e-07,9.559959747297475e-07,4.6757591870609934e-07,3.604561424590511e-05
5.114111201367438e-07,9.58852112393834e-07,4.645847777174109e-07,3.5933298558190204e-05
5.051436888584621e-07,9.62151345823303e-07,4.616141887601129e-07,3.580171669217984e-05
4.991078306306302e-07,9.658804045783052e-07,4.58673610186385e-07,3.5654550957346086e-05
4.933262639136633e-07,9.700150410340912e-07,4.55768361668132e-07,3.549544725438416e-05
4.878190416637558e-07,9.745218900847856e-07,4.5290024888808296e-07,3.532784278245143e-05
4.826090465205413e-07,9.793615721702308e-07,4.500683599919649e-07,3.5154878873646225e-05
4.777232457012783e-07,9.84494464302367e-07,4.4727078458437956e-07,3.497937411254101e-05
4.731882319710681e-07,9.898873404633534e-07,4.445068448145776e-07,3.4803821607113634e-05
4.690253002725311e-07,9.955165449325402e-07,4.4177737743386954e-07,3.4630396913158914e-05
4.6524904591384213e-07,1.0013648548224218e-06,4.3908245273845856e-07,3.446094153691476e-05
4.618677699797087e-07,1.0074138162850014e-06,4.3641910967003947e-07,3.4296897363862795e-05
4.5888446726374896e-07,1.0136379998618827e-06,4.3378125402220535e-07,3.413923525471097e-05
4.5630034158005583e-07,1.0200072637744655e-06,4.3116158568402615e-07,3.398843584406544e-05
4.541190213287641e-07,1.0264921027753299e-06,4.285534360116173e-07,3.384456215990968e-05
4.5234644752569467e-07,1.0330623676319794e-06,4.2595098062323216e-07,3.370742848819076e-05
4.5098773119543095e-07,1.039682373556592e-06,4.2334891583565075e-07,3.357678525832688e-05
4.50045170118672e-07,1.0463111442404176e-06,4.2074199115672705e-07,3.345243357690575e-05
4.4951705107121256e-07,1.0529071386799652e-06,4.181237510779289e-07,3.333427692458361e-05
4.4939672144988096e-07,1.0594315451437107e-06,4.1548594477210566e-07,3.322234632011976e-05
4.4967244616126825e-07,1.0658493413802955e-06,4.1281989101327686e-07,3.3116796737141525e-05
4.5032724886938107e-07,1.0721305719834913e-06,4.101185317759128e-07,3.3017868807824145e-05
4.5133878499700347e-07,1.0782489009612615e-06,4.0737726548653283e-07,3.292583107176672e-05
4.5268027372523394e-07,1.0841754778855111e-06,4.04592880765449e-07,3.2840907561255623e-05
4.543225314231139e-07,1.0898738459533602e-06,4.017616859089526e-07,3.276318305210189e-05
4.562357143234561e-07,1.095299901302802e-06,3.9887848818974327e-07,3.2692532341356324e-05
4.583899751545802e-07,1.1004067381456905e-06,3.959367135615278e-07,3.2628635460973325e-05
4.6075539834648675e-07,1.105151342329541e-06,3.92928822041932e-07,3.25710398111358e-05
4.6330106619867325e-07,1.1094966283102415e-06,3.8984685518298213e-07,3.251920852610447e-05
4.659938445561598e-07,1.1134096959259708e-06,3.8668368873912095e-07,3.247257016237012e-05
4.687982109978885e-07,1.11686514835395e-06,3.8343430882634686e-07,3.2430576157157567e-05
4.716771118107973e-07,1.1198522999974166e-06,3.8009586197100134e-07,3.2392711681057427e-05
4.745933475316634e-07,1.1223751923551171e-06,3.766669854313685e-07,3.2358430750852946e-05
4.775112378784622e-07,1.1244438487910394e-06,3.7314744842015315e-07,3.232712069325553e-05
4.803987232034692e-07,1.1260656419687769e-06,3.695378201325933e-07,3.2298189172956815e-05
4.832313320510317e-07,1.1272427687618821e-06,3.658387152206129e-07,3.2271172858548096e-05
4.859974754806181e-07,1.127978567578835e-06,3.620503618583746e-07,3.224575641463663e-05
4.886993607079672e-07,1.1282927673341778e-06,3.581737252388775e-07,3.2221712883927476e-05
4.91346172206035e-07,1.128234355170659e-06,3.5421353035394673e-07,3.219880902497724e-05
4.939456884007199e-07,1.127877796632907e-06,3.5018142997705174e-07,3.217671799562527e-05
4.965016764220339e-07,1.1273063025675597e-06,3.4609604908525405e-07,3.2154954427715975e-05
4.990162331937786e-07,1.1265968184830456e-06,3.41979312959842e-07,3.2132826619998244e-05
5.014921525473486e-07,1.1258130261217772e-06,3.378524622930613e-07,3.2109443447613543e-05
5.039335579717521e-07,1.125005237056022e-06,3.337345162914011e-07,3.2083796083202036e-05
5.063459160622739e-07,1.1242129117117846e-06,3.2964252209325316e-07,3.205484346408758e-05
5.08735159011502e-07,1.1234643457453982e-06,3.255917511486085e-07,3.2021533904374525e-05
5.111054053699371e-07,1.1227751383686873e-06,3.215959142813691e-07,3.198278416099159e-05
5.134579373054443e-07,1.1221504340414856e-06,3.17667833888607e-07,3.1937531278771216e-05
5.157927016374774e-07,1.1215885252236074e-06,3.13819274697668e-07,3.188492105714952e-05
5.181091479163228e-07,1.121082804659376e-06,3.1005994835213964e-07,3.1824452124362064e-05
5.204056611377969e-07,1.1206230687552306e-06,3.063972375167868e-07,3.1755917878113946e-05
5.226810124678816e-07,1.1201947297629526e-06,3.028371124289793e-07,3.167926970496809e-05
5.249376387151875e-07,1.1197775420349246e-06,2.9938553850754473e-07,3.159452640485503e-05
5.27182257611964e-07,1.1193491806622854e-06,2.960485994526588e-07,3.150172423987293e-05
5.294226677418118e-07,1.118891211285688e-06,2.928311654260436e-07,3.140089901631497e-05
5.316643757371686e-07,1.1183909329267427e-06,2.897364028006494e-07,3.129208557360803e-05
5.339101190847922e-07,1.117838449252113e-06,2.8676625041663605e-07,3.1175302373734e-05
5.361622848331861e-07,1.1172221091970494e-06,2.8392137999781973e-07,3.1050513189654776e-05
5.384254745357166e-07,1.1165250388335162e-06,2.8120110261908694e-07,3.0917589351829826e-05
5.407053889123444e-07,1.1157235975662728e-06,2.786034555666171e-07,3.07763011334851e-05
5.430053373800571e-07,1.1147873097450272e-06,2.761248479511622e-07,3.062634070422906e-05
5.453263462014322e-07,1.113680190827707e-06,2.7376040546818965e-07,3.0467347706762788e-05
5.476715931554494e-07,1.1123626141063556e-06,2.7150592399539946e-07,3.0298922416836042e-05
5.500502253992086e-07,1.1107923806189523e-06,2.693591288921871e-07,3.012065911495592e-05
5.524774401078525e-07,1.1089263240781376e-06,2.673186066853333e-07,2.9932235299329145e-05
5.549713159092573e-07,1.1067250571280365e-06,2.6538241361349286e-07,2.973351264227739e-05
5.575480304575782e-07,1.1041580250721122e-06,2.635476323027831e-07,2.9524551875146528e-05
5.602175342314265e-07,1.1012026701765391e-06,2.618106333793914e-07,2.930553716012736e-05
5.629826965340911e-07,1.097838846399633e-06,2.601689815203184e-07,2.907670370315449e-05
5.658429378331678e-07,1.0940446107024627e-06,2.5862480231443147e-07,2.8838306747019435e-05
5.687987375333067e-07,1.089795541104143e-06,2.5718618397382305e-07,2.8590587707657123e-05
5.718522150711419e-07,1.0850666031891114e-06,2.558645591905484e-07,2.833371607034811e-05
5.750030910952854e-07,1.079834833656947e-06,2.546716500735808e-07,2.806774921677288e-05
5.782450504706239e-07,1.0740824202069486e-06,2.5361902508069416e-07,2.7792656069851197e-05
5.815678357829443e-07,1.067801189351656e-06,2.527181953076704e-07,2.7508404792377557e-05
5.849620397216853e-07,1.060996717838848e-06,2.519799496087071e-07,2.7215092768398973e-05
5.884191887293795e-07,1.0536898445774162e-06,2.5141369104083826e-07,2.69130874132315e-05
5.919280436248191e-07,1.0459161558303748e-06,2.510264652768502e-07,2.6603122785629292e-05
5.954741558630049e-07,1.037723425904173e-06,2.5082182161445174e-07,2.6286311220558983e-05
5.990440933536596e-07,1.0291659979207736e-06,2.507994807622459e-07,2.596407002376306e-05
6.026285295464225e-07,1.0202976237361728e-06,2.509565206248388e-07,2.563797350388403e-05
6.062198939313547e-07,1.0111681371549902e-06,2.5128964947267807e-07,2.530955899618228e-05
6.098078942151556e-07,1.0018266625834522e-06,2.5179627540379337e-07,2.4980161903468532e-05
6.133781022976968e-07,9.92325101075687e-07,2.524742143731847e-07,2.4650851507425618e-05
6.169139953956313e-07,9.827165021565464e-07,2.53322218423721e-07,2.4322472697521315e-05
6.203996362703357e-07,9.73051786680809e-07,2.543401390145447e-07,2.399572127776755e-05
6.238204406660138e-07,9.633790582798737e-07,2.555270020756737e-07,2.3671164471294918e-05
6.271617265255991e-07,9.537464381463836e-07,2.568791877805449e-07,2.3349208703428698e-05
6.304065275822508e-07,9.442052031824671e-07,2.583916512314311e-07,2.303007803231177e-05
6.335340794016476e-07,9.348069612136772e-07,2.6006243407293875e-07,2.271384772101333e-05
6.36520084627616e-07,9.255967586826323e-07,2.618962940580855e-07,2.240057573032933e-05
6.39339715073828e-07,9.166112051817772e-07,2.6390290757579985e-07,2.2090496665427007e-05
6.419724100625124e-07,9.078849644848801e-07,2.6609151053756967e-07,2.17841194922789e-05
6.44404725468943e-07,8.99462172078678e-07,2.684672079130209e-07,2.1482139839181025e-05
6.46628358735036e-07,8.914067047295059e-07,2.710304998306799e-07,2.118525276278992e-05
6.486350670783186e-07,8.838056925489514e-07,2.7377827775323893e-07,2.0894002033537645e-05
6.5041338427855e-07,8.76765079878352e-07,2.7670503250560897e-07,2.0608737892578308e-05
6.519500749058094e-07,8.703980779762252e-07,2.7980391160484336e-07,2.032968433817456e-05
6.532335569058011e-07,8.648091900813223e-07,2.8306699646920645e-07,2.0057050578542512e-05
6.542549685725057e-07,8.600817807855007e-07,2.864843615745611e-07,1.9791112090224883e-05
6.550074735263092e-07,8.562738212692363e-07,2.90042852032681e-07,1.95323331311899e-05
6.554860224108673e-07,8.534179302540048e-07,2.937256733174272e-07,1.928158048674341e-05
6.556865000475757e-07,8.515225758662936e-07,2.9751273243346173e-07,1.9040213788832856e-05
6.556041586777788e-07,8.50574886253419e-07,3.013817785020821e-07,1.880991589530705e-05
6.552341230244487e-07,8.505446608537592e-07,3.053099358600673e-07,1.859242036984529e-05
6.545748122818042e-07,8.513887555936742e-07,3.092744856213536e-07,1.838929645521759e-05
6.536324463441957e-07,8.530569105844827e-07,3.13252544825024e-07,1.8201897699305066e-05
6.524239566371951e-07,8.554984539311206e-07,3.1722025847144256e-07,1.803158833040141e-05
6.50975316364586e-07,8.586650820728399e-07,3.211533824802741e-07,1.788011282740069e-05
6.493163327040397e-07,8.625077294230783e-07,3.250299823869931e-07,1.774975396754943e-05
6.474776491528651e-07,8.669728616169338e-07,3.288326039603823e-07,1.7643193596604497e-05
6.454905527692934e-07,8.720043516883965e-07,3.325484223772092e-07,1.756327583991189e-05
6.433847586142835e-07,8.775500476614511e-07,3.3616836379210394e-07,1.7512793462409774e-05
6.41185067452398e-07,8.835655481088953e-07,3.3968511307051713e-07,1.7494301982533935e-05
6.389110781551717e-07,8.900096715372974e-07,3.4309069927047703e-07,1.7509956316313822e-05
6.365796605050772e-07,8.968357114190962e-07,3.463756234377389e-07,1.7561391701309846e-05
6.342076734563729e-07,9.039874602364328e-07,3.4952946009330394e-07,1.7649682801127985e-05
6.318129274715366e-07,9.114020912062149e-07,3.5254208511405786e-07,1.7775369373620613e-05
6.294128677899036e-07,9.190142339052194e-07,3.5540475946337967e-07,1.7938484201039567e-05
6.270228209234909e-07,9.267575212155571e-07,3.581096239745017e-07,1.8138528774597352e-05
6.246556165043515e-07,9.34567034856163e-07,3.606479916811015e-07,1.837442515811482e-05
6.223217661512662e-07,9.423844876045255e-07,3.630096015978612e-07,1.8644528236915407e-05
6.200291342509976e-07,9.501613935910836e-07,3.651830945518119e-07,1.894673213709804e-05
6.177840204265408e-07,9.578591185459357e-07,3.671563402483565e-07,1.9278642259115358e-05
6.155944616654433e-07,9.654474573354024e-07,3.689164145046075e-07,1.963776791195004e-05
6.134717737391163e-07,9.728996695485752e-07,3.7045011254688266e-07,2.0021673469072407e-05
6.114279064462718e-07,9.80185783763669e-07,3.717454052468896e-07,2.042804745985177e-05
6.094717774613139e-07,9.872702502405537e-07,3.7279291948881593e-07,2.085471111115441e-05
6.07607565544328e-07,9.941140390952566e-07,3.735861538295532e-07,2.1299602975470085e-05
6.0583448918155e-07,1.0006762838361186e-06,3.7412071505408847e-07,2.176075925992337e-05
6.04147288034726e-07,1.0069152078810437e-06,3.7439395072085144e-07,2.223629537525565e-05
6.025371692507107e-07,1.0127926335193243e-06,3.744052714122589e-07,2.272437794440332e-05
6.009930465057237e-07,1.0182818991355947e-06,3.74156184956677e-07,2.322315961577836e-05
5.995034094283785e-07,1.0233719956662356e-06,3.7364958583092534e-07,2.373066991415315e-05
5.980575022091097e-07,1.0280619942248457e-06,3.7288903434024905e-07,2.424474285549541e-05
5.966448120532853e-07,1.032350363183455e-06,3.7187838246921726e-07,2.476304769625688e-05
5.952545645105488e-07,1.036229490681179e-06,3.7062129735676605e-07,2.5283161184188885e-05
5.938754807732953e-07,1.039687355805285e-06,3.6912092514690477e-07,2.580261552619949e-05
5.924951590601247e-07,1.0427104227764068e-06,3.6738037344364883e-07,2.631893516763999e-05
5.910999573252585e-07,1.0452850644280218e-06,3.6540496168550956e-07,2.682969767469373e-05
5.896751996624663e-07,1.0473980117746614e-06,3.6320644540604923e-07,2.7332588224798848e-05
5.882048012524065e-07,1.0490359626603552e-06,3.608052469461448e-07,2.7825376637234003e-05
5.866721985946157e-07,1.0501881872291003e-06,3.582271438934185e-07,2.83058938551498e-05
5.850652529352762e-07,1.0508547469088512e-06,3.554984972547593e-07,2.8772110525602893e-05
5.833822431072411e-07,1.0510520337607056e-06,3.52645492765831e-07,2.922220674738455e-05
5.816327695457231e-07,1.0508083531044047e-06,3.4969590758864077e-07,2.9654533619926842e-05
5.79833014594121e-07,1.0501554903518111e-06,3.466788463440119e-07,3.0067544332910603e-05
5.780003668856036e-07,1.0491227632591615e-06,3.436219131816298e-07,3.045977501233941e-05
5.761503589770696e-07,1.0477353851216473e-06,3.4054880739561487e-07,3.082987006560156e-05
5.742948514435625e-07,1.0460224051143216e-06,3.374787658430954e-07,3.1176584678989e-05
5.724406628064558e-07,1.0440310678860374e-06,3.344267467663395e-07,3.1498730591150514e-05
5.705893605272687e-07,1.041830546734073e-06,3.314036337856443e-07,3.1795142026088755e-05
5.687381018797783e-07,1.0394996731888383e-06,3.284169744896489e-07,3.2064715509302086e-05
5.668807873675211e-07,1.0371121303540712e-06,3.254727641909962e-07,3.2306462109871906e-05
5.650099077734777e-07,1.0347298330166348e-06,3.22577346327668e-07,3.251951522006593e-05
5.631195019268804e-07,1.0324031985298754e-06,3.197378297581086e-07,3.2703127402581616e-05
5.61208460573454e-07,1.0301720772122035e-06,3.1696170017067425e-07,3.2856760536818376e-05
5.592824766938747e-07,1.0280643321779465e-06,3.142571298505863e-07,3.2980278431714045e-05
5.573527117141019e-07,1.0260949133017e-06,3.1163301057209405e-07,3.3074037958879355e-05
5.554324809352318e-07,1.024269145514764e-06,3.090980260018858e-07,3.313879641804754e-05
5.535364939680447e-07,1.0225884652550308e-06,3.066602188955942e-07,3.317560589856491e-05
5.51683233934655e-07,1.0210529063095729e-06,3.043271974812304e-07,3.318574094398039e-05
5.498951143807991e-07,1.0196584683605024e-06,3.021057600685738e-07,3.3170589078509573e-05
5.481938380712375e-07,1.018393570137998e-06,3.000008715743185e-07,3.313152546890201e-05
5.465956484605482e-07,1.0172383900730889e-06,2.9801451367332377e-07,3.306981892588204e-05
5.451106100562229e-07,1.0161671276440542e-06,2.9614532966901734e-07,3.2986620199386075e-05
5.437440473555428e-07,1.0151526651667551e-06,2.943900519977626e-07,3.2883068162147025e-05
5.424970019154312e-07,1.0141715464164699e-06,2.9274510178681175e-07,3.2760427841514825e-05
5.41366090979364e-07,1.0132046218537595e-06,2.9120640044951164e-07,3.262010974380726e-05
5.403445454694834e-07,1.012232640443524e-06,2.8976877347177785e-07,3.2463551445308895e-05
5.394246806736884e-07,1.0112325692938637e-06,2.884258827693664e-07,3.229209203394524e-05
5.386008416633565e-07,1.010179671555155e-06,2.871698734634096e-07,3.210695410047244e-05
5.37871330824224e-07,1.0090530929009242e-06,2.8599185341690266e-07,3.19093030227144e-05
5.372392298136401e-07,1.0078383302118722e-06,2.848844126094893e-07,3.170025947884316e-05
5.367129943094075e-07,1.006523596454605e-06,2.838442564040618e-07,3.14808405462861e-05
5.363058740194886e-07,1.0050936764743584e-06,2.828726740487777e-07,3.1251930574757324e-05
5.360328271795255e-07,1.003526735204599e-06,2.8197451787906837e-07,3.1014330651856316e-05
5.359056310135798e-07,1.0017953206199079e-06,2.811573814134164e-07,3.076882079630016e-05
5.359293625850575e-07,9.998694042681382e-07,2.804317607988122e-07,3.051617063772433e-05
5.361027302873176e-07,9.977209168460856e-07,2.798123565300784e-07,3.025709776097308e-05
5.364201863255352e-07,9.95328504473265e-07,2.793183705566689e-07,2.999219979223165e-05
5.368734012466553e-07,9.926787023459506e-07,2.789704047197666e-07,2.9721932485222734e-05
5.374530169462936e-07,9.897631157902838e-07,2.787861599359128e-07,2.9446760405794286e-05
5.38150327417545e-07,9.865751328387272e-07,2.787785190785908e-07,2.9167485598800066e-05
5.38956321498385e-07,9.831094583120293e-07,2.789559373486034e-07,2.888549071889929e-05
5.398585665712253e-07,9.793652743217234e-07,2.793228150438044e-07,2.8602640530556897e-05
5.408396676020354e-07,9.753503042004524e-07,2.7987927446815506e-07,2.8320972325677208e-05
5.418789077732164e-07,9.710817777720714e-07,2.8062202258504445e-07,2.8042522101754076e-05
5.429546111115713e-07,9.665831925697902e-07,2.815457444902232e-07,2.7769392376371643e-05
5.440455634277001e-07,9.618791292033392e-07,2.8264273322506e-07,2.7503905423689827e-05
5.451330538227864e-07,9.569907279955596e-07,2.8390145479768425e-07,2.7248727568562063e-05
5.46202836176634e-07,9.51934244901253e-07,2.853062017147393e-07,2.700691979488493e-05
5.47244135113197e-07,9.467242393373205e-07,2.868383356603819e-07,2.6781856110545675e-05
5.482464786820369e-07,9.413794017685612e-07,2.884778194644384e-07,2.657702063333321e-05
5.491972784487354e-07,9.359258214980964e-07,2.902035572849238e-07,2.6395726349473898e-05
5.500814400161301e-07,9.303938661205813e-07,2.919929030694886e-07,2.6240787424776475e-05
5.508827421242154e-07,9.24811746510875e-07,2.938217650810889e-07,2.6114261486433608e-05
5.515868328902566e-07,9.192018144414451e-07,2.9566571450179446e-07,2.6017366111031453e-05
5.521845326401468e-07,9.135818135931143e-07,2.9750101653052267e-07,2.5950522087628078e-05
5.526727761062141e-07,9.079711493950348e-07,2.993050472275574e-07,2.5913440965408107e-05
5.530543954658231e-07,9.023969534227476e-07,3.0105753174107597e-07,2.5905259604954602e-05
5.533387789164919e-07,8.968924586511335e-07,3.027428441719192e-07,2.592474520331836e-05
5.535411108812263e-07,8.914919077005189e-07,3.0435084415805485e-07,2.5970491485699185e-05
5.536795749323663e-07,8.862296158344213e-07,3.058751513692437e-07,2.604100046226748e-05
5.537733214676003e-07,8.811407573414011e-07,3.073108252193593e-07,2.613468654191473e-05
5.538423755293666e-07,8.762595671511637e-07,3.086533752011881e-07,2.624987590441477e-05
5.53907744490906e-07,8.716155863534994e-07,3.098989337264688e-07,2.6384794904507282e-05
5.539896650189203e-07,8.672320231338154e-07,3.1104429944203896e-07,2.6537568827645346e-05
5.541059695821742e-07,8.631274682723099e-07,3.120866112153029e-07,2.670635035003821e-05
5.542731053473884e-07,8.593160407446363e-07,3.1302298678763144e-07,2.688965013656017e-05
5.545067974889802e-07,8.55805415871826e-07,3.1385040727246786e-07,2.7086628096480145e-05
5.548199881928045e-07,8.525965971380728e-07,3.1456677051505466e-07,2.729698840413441e-05
5.552201401046024e-07,8.496840091233602e-07,3.1517306157819964e-07,2.752058300218991e-05
5.557074555475234e-07,8.470547079669204e-07,3.1567497817004327e-07,2.775715594542011e-05
5.562743102825553e-07,8.446889084063501e-07,3.160824147345677e-07,2.8006378896096924e-05
5.569063198441698e-07,8.425617171754839e-07,3.164073944161573e-07,2.8268018390161543e-05
5.575856308847216e-07,8.406455680678929e-07,3.166629353223327e-07,2.8542066644554962e-05
5.58296709772064e-07,8.389128907623535e-07,3.1686298647810497e-07,2.8828779521034296e-05
5.590324248039757e-07,8.373363874651048e-07,3.170212941958515e-07,2.9128651920181744e-05
5.597953823709039e-07,8.35888015133268e-07,3.171494140246376e-07,2.944232061314443e-05
5.605928228782483e-07,8.34540457109561e-07,3.172562372861278e-07,2.9770325254736933e-05
5.614314131954207e-07,8.332692640968119e-07,3.173503995772789e-07,3.0112787395789367e-05
5.623169009606889e-07,8.320518954060398e-07,3.174442815955678e-07,3.0469221620935686e-05
5.632559548799451e-07,8.3086487517026e-07,3.1755552623949053e-07,3.0838571628569286e-05
5.642586879569943e-07,8.296815911366428e-07,3.177040346894363e-07,3.121937777706043e-05
5.653409848955032e-07,8.284713362389528e-07,3.1790810020925786e-07,3.1610003136260285e-05
5.665223321004808e-07,8.272018936626318e-07,3.1818299690959694e-07,3.200883973458693e-05
5.678201966789013e-07,8.258457833527787e-07,3.185407390036864e-07,3.2414375605719065e-05
5.692466576859482e-07,8.243834380849149e-07,3.189893429741421e-07,3.282515044173362e-05
5.708084350702972e-07,8.228009505649347e-07,3.19532510960008e-07,3.3239722922925486e-05
5.72507820371608e-07,8.210878285513406e-07,3.201715645970193e-07,3.3656705242200567e-05
5.743426358986289e-07,8.192357576252846e-07,3.209084421395448e-07,3.40748787201364e-05
5.763052344413924e-07,8.172372201703556e-07,3.2174604987534353e-07,3.449328325724541e-05
5.783822279299835e-07,8.150858253002247e-07,3.2268661014908015e-07,3.491111267257415e-05
5.80555612428851e-07,8.12776366974454e-07,3.237312172436254e-07,3.532752475984311e-05
5.828033200107031e-07,8.103027998463752e-07,3.2487968701506317e-07,3.57416478108531e-05
5.850986476592107e-07,8.076578264847686e-07,3.261298244520778e-07,3.6152779210062795e-05
5.874111471247039e-07,8.048361190052727e-07,3.274776634106098e-07,3.656049116021628e-05
5.897096458541043e-07,8.018385531729144e-07,3.289187629979892e-07,3.696448845328587e-05
5.91964540895073e-07,7.986733147910902e-07,3.304494186092506e-07,3.736433778518456e-05
5.941476917408163e-07,7.953529514550899e-07,3.320664177178209e-07,3.775928166041271e-05
5.962315546075914e-07,7.918908175430084e-07,3.3376520776580374e-07,3.8148351564785626e-05
5.981885811356195e-07,7.882991058764528e-07,3.355386133785044e-07,3.853086851570125e-05
5.999905548370365e-07,7.84589823731528e-07,3.373775749985517e-07,3.8907014588600956e-05
6.01610040395115e-07,7.807797009385835e-07,3.392725950151193e-07,3.927797639891245e-05
6.030253389206081e-07,7.768943106285506e-07,3.412134504897825e-07,3.9645587607408665e-05
6.042241546255822e-07,7.729661127260258e-07,3.4318781114592106e-07,4.001181499108545e-05
6.052011098649187e-07,7.690290005650822e-07,3.4518149053669016e-07,4.0378376586843705e-05
6.059517328077016e-07,7.651151336447559e-07,3.471795272565975e-07,4.074654349874722e-05
6.064690221179115e-07,7.612537750654328e-07,3.491659553094881e-07,4.1117043105663305e-05
6.067445922566918e-07,7.574684741005488e-07,3.5112307121705326e-07,4.148999830578964e-05
6.067708578048748e-07,7.537746888689569e-07,3.5303127110429404e-07,4.186492057485598e-05
6.065421366130269e-07,7.501822196412089e-07,3.5486933576120026e-07,4.22407821312436e-05
6.060579812743423e-07,7.467001387111315e-07,3.566154317164958e-07,4.2616124239868346e-05
6.053287085130426e-07,7.433398569562843e-07,3.5824857453936976e-07,4.298913222455268e-05
6.04376873151755e-07,7.40117405637902e-07,3.597492387132643e-07,4.335765256015543e-05
6.032322731700536e-07,7.370540947246529e-07,3.610988600123785e-07,4.371918740863847e-05
6.019252749905359e-07,7.341719131942623e-07,3.6227992972916216e-07,4.4070926400249606e-05
6.004838169260429e-07,7.314879006097016e-07,3.6327758342500156e-07,4.4409824860112574e-05
5.98933936151727e-07,7.290139602955097e-07,3.6408049824757293e-07,4.4732681419652005e-05
5.972999258048795e-07,7.267638488510603e-07,3.6467947924182634e-07,4.503621603666644e-05
5.956029650208821e-07,7.247636155745479e-07,3.650656885395506e-07,4.531720889798353e-05
5.938593853579702e-07,7.230548979400381e-07,3.652303544185347e-07,4.557269631947336e-05
5.920794655810671e-07,7.216882218627891e-07,3.6516547017015855e-07,4.580011497888608e-05
5.902684275200793e-07,7.207146333905837e-07,3.6486432125401507e-07,4.599729389410448e-05
5.884293721128529e-07,7.201791446497238e-07,3.643214256809874e-07,4.616233863623655e-05
5.865643305014525e-07,7.201164379662738e-07,3.635327243394368e-07,4.629355196589861e-05
5.846724615468185e-07,7.205501595875316e-07,3.6249647747101247e-07,4.638941760527194e-05
5.8274974917971e-07,7.214927308543894e-07,3.612136519879382e-07,4.644856313627812e-05
5.807927872411844e-07,7.229437699033165e-07,3.5968693397311047e-07,4.6469719972233726e-05
5.788041002296383e-07,7.248908694848955e-07,3.579194798162727e-07,4.645174227400563e-05
5.76794471550421e-07,7.273146916518143e-07,3.559146680143178e-07,4.639363718506584e-05
5.747795977742302e-07,7.30192908729306e-07,3.5367677331935775e-07,4.6294555013615295e-05
5.72774138775967e-07,7.33498232052713e-07,3.5121192047730233e-07,4.6153769008638795e-05
5.707889051832202e-07,7.371946590871213e-07,3.485287365511478e-07,4.5970675913435026e-05
5.688312529176622e-07,7.412368388359344e-07,3.456384335909276e-07,4.5744830751352836e-05
5.6690571552725e-07,7.455724533726871e-07,3.4255435103941765e-07,4.547605310581456e-05
5.650155675416765e-07,7.501463908687824e-07,3.392912837141009e-07,4.516458329827862e-05
5.631653215103043e-07,7.54904304342781e-07,3.35865080633786e-07,4.481116125911645e-05
5.613613046272319e-07,7.597925431204456e-07,3.3229304584817173e-07,4.4416970367998854e-05
5.596100452950416e-07,7.647563600708175e-07,3.285949860335385e-07,4.398350401941092e-05
5.57916669433199e-07,7.697410601858268e-07,3.247930455822595e-07,4.3512405364357945e-05
5.56284603829424e-07,7.746944802305383e-07,3.2090967244160037e-07,4.300533517914602e-05
5.547169355477951e-07,7.795675099815327e-07,3.16965649204449e-07,4.246391626762899e-05
5.53218309162274e-07,7.843144306980412e-07,3.129794194218689e-07,4.188973020161444e-05
5.517945842936827e-07,7.888927793672283e-07,3.0896751654091697e-07,4.1284336775130616e-05
5.504501477325473e-07,7.932614043225914e-07,3.049454524407265e-07,4.0649329648883796e-05
5.491860610849693e-07,7.97380599920827e-07,3.0092866276862676e-07,3.998641237460333e-05
5.4800068291549e-07,8.012160989429318e-07,2.969335555067294e-07,3.929742831254447e-05
5.468918214066162e-07,8.047416108867687e-07,2.929780638446221e-07,3.858431411504921e-05
5.458579830175981e-07,8.079362180315095e-07,2.890807534585408e-07,3.7849081826043936e-05
5.448978447323699e-07,8.107809692990456e-07,2.852588701357368e-07,3.709399269398705e-05
5.440101595177939e-07,8.132594503588933e-07,2.8152699514862e-07,3.632179590151009e-05
5.43194113396187e-07,8.153592499233163e-07,2.778967413281973e-07,3.5535663121853636e-05
5.424479811377051e-07,8.170706874069019e-07,2.743768129010004e-07,3.473886252988908e-05
5.417681076921648e-07,8.183854975269239e-07,2.709736797717261e-07,3.3934580962032195e-05
5.411510901403033e-07,8.192968862622541e-07,2.6769232747443925e-07,3.3125967394264005e-05
5.40595730569774e-07,8.197994384777013e-07,2.645357772405545e-07,3.231618267271565e-05
5.401017295231682e-07,8.198899356168596e-07,2.615041534035379e-07,3.150836568845492e-05
5.396687806141386e-07,8.195708748178853e-07,2.5859483718394904e-07,3.070555046705744e-05
5.392983141919621e-07,8.18854691799294e-07,2.5580360288226014e-07,2.991058069596112e-05
5.389961215308898e-07,8.177627242569926e-07,2.5312624989381764e-07,2.912604511769461e-05
5.387749588872893e-07,8.163177326641501e-07,2.505610289302352e-07,2.8354231583812263e-05
5.386547402929989e-07,8.145377752969633e-07,2.481109510520801e-07,2.759710194278099e-05
5.386573942209208e-07,8.124373444254327e-07,2.457842888363552e-07,2.6856294347464925e-05
5.388003458707107e-07,8.100324491816168e-07,2.4359382923331644e-07,2.613314247307421e-05
5.390956680668894e-07,8.073423735679235e-07,2.415557010591327e-07,2.542869653560945e-05
5.395545141118851e-07,8.04386171013631e-07,2.3968695124345823e-07,2.4743751453763445e-05
5.401901603632585e-07,8.011797623318545e-07,2.380024696602233e-07,2.407888617980871e-05
5.410161937907843e-07,7.977387010411388e-07,2.365132415232649e-07,2.343449162609711e-05
5.420439194911206e-07,7.940846405455891e-07,2.3522614689005562e-07,2.281078769878582e-05
5.432841448939249e-07,7.902515931499683e-07,2.3414460954367537e-07,2.2207842222382845e-05
5.447513165853967e-07,7.862890214047071e-07,2.3327002488942142e-07,2.162556885510796e-05
5.464641590464267e-07,7.822576162746963e-07,2.3260312004537158e-07,2.1063711468384385e-05
5.484413813064888e-07,7.782180779153856e-07,2.32143979731496e-07,2.0521857399119312e-05
5.506967436965821e-07,7.742212035304267e-07,2.3189111292498198e-07,1.999947467569179e-05
5.532377392684003e-07,7.703081557287876e-07,2.3184117550823921e-07,1.949593939652303e-05
5.560662341931324e-07,7.665219085058814e-07,2.3198992496552573e-07,1.901055741747811e-05
5.591785549990916e-07,7.629181588711907e-07,2.323331676321277e-07,1.8542604803381493e-05
5.625665258249131e-07,7.595635509238291e-07,2.3286699719609607e-07,1.809137833288279e-05
5.662183839967712e-07,7.565254401954758e-07,2.3358772733024483e-07,1.7656231592881355e-05
5.701172784129693e-07,7.538626552162053e-07,2.3449117746924052e-07,1.7236585056184213e-05
5.742400333262485e-07,7.516197999114312e-07,2.3557157601967645e-07,1.6831904117506484e-05
5.785599227610011e-07,7.498268387423444e-07,2.3682140778618053e-07,1.6441680364471732e-05
5.830534350863539e-07,7.485041697016234e-07,2.3823219083693948e-07,1.6065491444216454e-05
5.877048126240146e-07,7.476680028140319e-07,2.397954314769877e-07,1.570310166219238e-05
5.925022216250576e-07,7.473307106581958e-07,2.41503300644095e-07,1.535445173748539e-05
5.97430213256652e-07,7.474972720252275e-07,2.433484274878149e-07,1.5019536766605628e-05
6.024668531336358e-07,7.481627831488501e-07,2.4532296861495084e-07,1.46983042231096e-05
6.075851106105691e-07,7.49312005804553e-07,2.4741792175991e-07,1.4390616141811567e-05
6.12753826219514e-07,7.50919094600288e-07,2.496233462804553e-07,1.4096282323961478e-05
6.179378279341782e-07,7.529475778294584e-07,2.5192923795713224e-07,1.3815168752433567e-05
6.230984800029126e-07,7.553510764026178e-07,2.543260463929377e-07,1.3547308078907782e-05
6.281938904326757e-07,7.580749019771642e-07,2.568044015297529e-07,1.3292918980420379e-05
6.331788016366979e-07,7.610593302841066e-07,2.593548902949494e-07,1.3052308712679975e-05
6.380054154302534e-07,7.642432026320163e-07,2.619679805719425e-07,1.2825722187264616e-05
6.426248315016085e-07,7.675651762483973e-07,2.646332151378476e-07,1.2613255257203433e-05
6.469885583546954e-07,7.709641596865782e-07,2.673385630977704e-07,1.2414922110395826e-05
6.510507173081473e-07,7.743814658124107e-07,2.700706858314832e-07,1.223084555724658e-05
6.547709958261502e-07,7.777625767877034e-07,2.728149816499432e-07,1.206140517782497e-05
6.581176075957328e-07,7.810569946878933e-07,2.755553983375813e-07,1.1907208352251518e-05
6.610692559770933e-07,7.842183073970443e-07,2.782749598961437e-07,1.1768919047921296e-05
6.636141660001201e-07,7.87204454013408e-07,2.8095690265552857e-07,1.1647069114002733e-05
6.657459273982471e-07,7.899770053702416e-07,2.835856183981948e-07,1.154196080582193e-05
6.674603670484525e-07,7.925021012801603e-07,2.861468005496212e-07,1.1453691190932714e-05
6.687566707550643e-07,7.947531435768327e-07,2.886273489785332e-07,1.1382229940439712e-05
6.69640422772208e-07,7.967101433506241e-07,2.910164133587022e-07,1.132751751583736e-05
6.701249963985819e-07,7.983565341435313e-07,2.933072865473981e-07,1.1289661851983345e-05
6.702298432122877e-07,7.996781325684145e-07,2.9549782060156433e-07,1.126922259822766e-05
6.699761294251451e-07,8.006619716331843e-07,2.9758867894743576e-07,1.1267356617335708e-05
6.69382477766824e-07,8.012931391008295e-07,2.9958113799849947e-07,1.128566537892663e-05
6.684636591237027e-07,8.015533980515215e-07,3.014756021112864e-07,1.1325870983125372e-05
6.67231269559946e-07,8.014233475472981e-07,3.0327157542650124e-07,1.138950898219488e-05
6.656937789357439e-07,8.008865432976262e-07,3.049692641211437e-07,1.1477753345142067e-05
6.638564654618635e-07,7.999321807170888e-07,3.065711128929872e-07,1.1591515327395434e-05
6.617229478041784e-07,7.985558773672928e-07,3.0808212471756393e-07,1.1731788432074707e-05
6.592973420404404e-07,7.967635689669864e-07,3.095090941412945e-07,1.1899908893800368e-05
6.565852809491967e-07,7.945774973682303e-07,3.1085883257573546e-07,1.20975285579384e-05
6.535937476059924e-07,7.920364890401369e-07,3.121361936574146e-07,1.2326441615952074e-05
6.503310066949009e-07,7.891887668342323e-07,3.133429342832425e-07,1.2588424747331149e-05
6.468088101299332e-07,7.860833843131491e-07,3.144780077724177e-07,1.2885110123586487e-05
6.430459476765579e-07,7.827663762309279e-07,3.1553906139061434e-07,1.3217869970404974e-05
6.390682847511146e-07,7.792811791169855e-07,3.1652403303632336e-07,1.3587704794038334e-05
6.349057629279704e-07,7.756700075645277e-07,3.174337911328293e-07,1.3995154203583993e-05
6.305913258464842e-07,7.719753785977628e-07,3.1827621488122586e-07,1.4440258173350195e-05
6.261601131893018e-07,7.682402883697058e-07,3.1906738749209836e-07,1.4922553846819519e-05
6.216453148077273e-07,7.645075852599594e-07,3.198285573357397e-07,1.5441057396004968e-05
6.170739333381839e-07,7.608246060710594e-07,3.205834591548829e-07,1.599422720899328e-05
6.124657685540375e-07,7.57251446459943e-07,3.213569532676002e-07,1.6579951419846232e-05
6.078349762890461e-07,7.538598661567287e-07,3.221724004718244e-07,1.7195578246416323e-05
6.031940149157779e-07,7.507201443610188e-07,3.2304877327558897e-07,1.7838006530213288e-05
5.985577230790122e-07,7.478897461642602e-07,3.239997930254109e-07,1.8503855786314506e-05
5.93942975210245e-07,7.454154671316707e-07,3.250345678445114e-07,1.918966197581793e-05
5.893659734369932e-07,7.433479148865682e-07,3.261587142515358e-07,1.989202228399581e-05
5.848434217698565e-07,7.417549201998345e-07,3.27375822531169e-07,2.0607684183415883e-05
5.803966561731954e-07,7.407195177546741e-07,3.2868801151446235e-07,2.133359030872513e-05
5.760538688544532e-07,7.403252271109098e-07,3.300947919478168e-07,2.2066850814861074e-05
5.718494440924528e-07,7.406422440227833e-07,3.315917010282166e-07,2.2804651135247023e-05
5.678207015470861e-07,7.417200510642088e-07,3.3316979506750515e-07,2.354417073668171e-05
5.640028451917506e-07,7.435851524562789e-07,3.3481604267002674e-07,2.428254429037846e-05
5.604252687381087e-07,7.462430938692411e-07,3.3651504207256797e-07,2.501682478022745e-05
5.571104965196662e-07,7.496825422103489e-07,3.382514449302974e-07,2.5743960907456764e-05
5.540736984089107e-07,7.538775109370507e-07,3.400107788953609e-07,2.6460832566280123e-05
5.513221247861282e-07,7.587870422943826e-07,3.417789624663759e-07,2.71643101273014e-05
5.488554855816079e-07,7.643556093070692e-07,3.43543635829744e-07,2.7851291051544653e-05
5.466671649426589e-07,7.705162312223984e-07,3.452960200456657e-07,2.8518719197952258e-05
5.44747051397129e-07,7.771948613708822e-07,3.470292777383188e-07,2.916361408971217e-05
5.430865445211694e-07,7.843132657571776e-07,3.4873541617000013e-07,2.9783121169809063e-05
5.416809527605643e-07,7.917891748854773e-07,3.504056345206606e-07,3.03745361418703e-05
5.405264523076171e-07,7.995365986343774e-07,3.5203372652152366e-07,3.093526566168576e-05
5.396181293478465e-07,8.07471002379795e-07,3.5361844136740326e-07,3.1462782800475894e-05
5.389524925266653e-07,8.155172163716675e-07,3.551628579346749e-07,3.195464650194835e-05
5.385281891252359e-07,8.236109115286573e-07,3.5667212028402337e-07,3.2408573724956485e-05
5.383421989326179e-07,8.316927743810588e-07,3.5815131062012743e-07,3.2822545297354185e-05
5.383858906374826e-07,8.397051047550684e-07,3.5960380541997217e-07,3.3194964192721196e-05
5.386434679830274e-07,8.475932206794358e-07,3.6103022970990295e-07,3.3524806644798326e-05
5.390922178170036e-07,8.55304891186415e-07,3.624292908310229e-07,3.3811629861088394e-05
5.397047457923174e-07,8.627867901779804e-07,3.638001447893556e-07,3.405540432235344e-05
5.404540179885002e-07,8.699833897941216e-07,3.6514302858022966e-07,3.425628095837084e-05
5.41318375343255e-07,8.768401562254931e-07,3.664576661286245e-07,3.4414433931523146e-05
5.42281470304354e-07,8.833089714004455e-07,3.677426158369831e-07,3.4530029969190286e-05
5.433281268072061e-07,8.893539665729751e-07,3.6899564488566274e-07,3.460324926137273e-05
5.444417220573437e-07,8.949550159507334e-07,3.7021322777599847e-07,3.463430439541097e-05
5.456046664813329e-07,9.001057390508497e-07,3.713906970607036e-07,3.4623555013166336e-05
5.467987108601076e-07,9.048063313671785e-07,3.7252426696361773e-07,3.457180990147436e-05
5.480033117280107e-07,9.0905576177519e-07,3.736125899824636e-07,3.448063063584769e-05
5.491944926273896e-07,9.128480566916513e-07,3.7465585245659473e-07,3.4352339400579865e-05
5.503459086442131e-07,9.1617326630595e-07,3.7565343994075776e-07,3.418975119194591e-05
5.514310804363665e-07,9.190206238599108e-07,3.766028489719415e-07,3.399586257731958e-05
5.524250873338344e-07,9.213801915990005e-07,3.7750019827773354e-07,3.377363866957307e-05
5.533041259772412e-07,9.232416473492192e-07,3.7834023972478926e-07,3.352602707709707e-05
5.540438341590944e-07,9.24594461857428e-07,3.7911575478377867e-07,3.3256238070247904e-05
5.546191739018107e-07,9.254324374806744e-07,3.798174397156344e-07,3.296802324540554e-05
5.550059232418575e-07,9.257598603513338e-07,3.8043400650119903e-07,3.266568252922969e-05
5.551830353654473e-07,9.255962572312729e-07,3.8095242914600593e-07,3.235386832683308e-05
5.551373447882468e-07,9.2497740512789e-07,3.8135896523535856e-07,3.203736128535177e-05
5.54867851215521e-07,9.239494018558119e-07,3.816410666409777e-07,3.1720853492926265e-05
5.543848379827637e-07,9.225583873682592e-07,3.817890863558528e-07,3.140874283495794e-05
5.537076445416571e-07,9.208447968831095e-07,3.817968753753358e-07,3.110499064833145e-05
5.5286466660628e-07,9.188448775778747e-07,3.8166211453164784e-07,3.081306192980274e-05
5.518908030856322e-07,9.165932500697621e-07,3.813865140351351e-07,3.05359102440944e-05
5.50821453044582e-07,9.141225138859881e-07,3.809745400469142e-07,3.0275979577394542e-05
5.496888569062079e-07,9.114634942980093e-07,3.8043097557442065e-07,3.0035211602614147e-05
5.485223541486162e-07,9.086502281682157e-07,3.79759660074174e-07,2.9815034820049847e-05
5.473490160804512e-07,9.057251371609337e-07,3.7896428323853223e-07,2.961632920024195e-05
5.461927386965286e-07,9.027364937639136e-07,3.780490691050284e-07,2.9439408509239545e-05
5.450726566131403e-07,8.997310827630708e-07,3.77018391990255e-07,2.928407900733117e-05
5.440020954134493e-07,8.96750283209648e-07,3.7587684399938504e-07,2.914978655981384e-05
5.429885764022304e-07,8.938303197199188e-07,3.7462938001468156e-07,2.9035794559582106e-05
5.420349839565886e-07,8.910063385133672e-07,3.7328106452363186e-07,2.894131388377296e-05
5.411413538008673e-07,8.883198044700184e-07,3.718383260670326e-07,2.8865569872948712e-05
5.403057242495708e-07,8.858223841346355e-07,3.703105391879946e-07,2.8807853001741558e-05
5.395240196221354e-07,8.835732772418871e-07,3.6870878903444e-07,2.876756175253844e-05
5.387910376779311e-07,8.816342588027459e-07,3.6704346840665005e-07,2.874419088420407e-05
5.38103447803554e-07,8.800645419720137e-07,3.6532335233893656e-07,2.8737249415221504e-05
5.374636265875386e-07,8.78915152041089e-07,3.635556490319102e-07,2.8746147404103577e-05
5.368819114313289e-07,8.782246044000452e-07,3.617469279585678e-07,2.877009831950821e-05
5.363753379779762e-07,8.78017825085824e-07,3.599050663941729e-07,2.8808091662075146e-05
5.359646611224366e-07,8.783067045603012e-07,3.5804042596336853e-07,2.885896103314358e-05
5.356727920068996e-07,8.790900466857084e-07,3.561647458501876e-07,2.8921458672567578e-05
5.355231372549757e-07,8.80353197417338e-07,3.542885366892628e-07,2.8994251770377245e-05
5.35536493931203e-07,8.820684915404921e-07,3.524193257244439e-07,2.9075893507416888e-05
5.357303170509217e-07,8.841974194249806e-07,3.505622680687032e-07,2.916483534122773e-05
5.361203448724637e-07,8.86694172088269e-07,3.487216429339951e-07,2.9259473927972786e-05
5.367197178320318e-07,8.89509076383342e-07,3.469008451298253e-07,2.9358189350944025e-05
5.375364675287017e-07,8.925909198461096e-07,3.451011048380462e-07,2.9459321600282866e-05
5.385735445458552e-07,8.958878073101965e-07,3.433207293335114e-07,2.95611079818734e-05
5.398302724929047e-07,8.993470373578446e-07,3.4155561793560647e-07,2.966168789582365e-05
5.413024828841832e-07,9.029154062792464e-07,3.398004594798845e-07,2.9759211322116308e-05
5.4298247591346e-07,9.065416233663401e-07,3.380498633446949e-07,2.9851994126720274e-05
5.448596146800693e-07,9.101804282519049e-07,3.3629932775250413e-07,2.9938689609676906e-05
5.469197904652393e-07,9.137948839877823e-07,3.345461593016725e-07,3.0018427528391737e-05
5.491443943976848e-07,9.173547307347625e-07,3.3279036627985594e-07,3.009080472193581e-05
5.51511156291259e-07,9.208330365924549e-07,3.3103512481277944e-07,3.015568937436745e-05
5.539967655566575e-07,9.242037301817129e-07,3.292859360506289e-07,3.0212951099771997e-05
5.56579538894041e-07,9.274401471872896e-07,3.275483258262482e-07,3.0262280707565346e-05
5.59239775227525e-07,9.305166052770935e-07,3.2582596434366607e-07,3.0303167417238768e-05
5.619576234639559e-07,9.334134520739258e-07,3.241215809978058e-07,3.0334954988874958e-05
5.647129071820535e-07,9.361179961147384e-07,3.224397776422836e-07,3.0356885386244103e-05
5.674887673896095e-07,9.386180708759628e-07,3.207883245192616e-07,3.0368180930019232e-05
5.702740305659818e-07,9.408958722302383e-07,3.191763121706718e-07,3.0368301839711023e-05
5.730612686449051e-07,9.429271643997507e-07,3.176114102701434e-07,3.0357283677857068e-05
5.758441178893564e-07,9.446842495127256e-07,3.1609973745423024e-07,3.033581955134526e-05
5.786157742303006e-07,9.461409235887272e-07,3.1464724388581364e-07,3.030500996927089e-05
5.813676177117361e-07,9.472769196539959e-07,3.1325904769128463e-07,3.0266028274216743e-05
5.840897910088203e-07,9.480774223508932e-07,3.1193769962572626e-07,3.0219909795728222e-05
5.867740690661975e-07,9.48528489636586e-07,3.1068345327413465e-07,3.0167598870356213e-05
5.8941499558259e-07,9.48615751128594e-07,3.0949639366097496e-07,3.0110273127858412e-05
5.920074331223055e-07,9.483298693299295e-07,3.083778527167816e-07,3.0049663124310413e-05
5.945427401588416e-07,9.476722293256456e-07,3.0732970239957923e-07,2.998806550655957e-05
5.970064336642241e-07,9.466526999992692e-07,3.063525758424172e-07,2.9928110803269502e-05
5.993787231192593e-07,9.452828025656185e-07,3.054448791120722e-07,2.9872511758981872e-05
6.016373418426993e-07,9.435726609022962e-07,3.046041717504976e-07,2.9823880627497853e-05
6.037602224943347e-07,9.415308325371126e-07,3.038301928413733e-07,2.9784605842931275e-05
6.057255831016485e-07,9.391638202647812e-07,3.031257606659489e-07,2.9756774436752185e-05
6.07510122421565e-07,9.364769708962252e-07,3.024945248812063e-07,2.9742125864420094e-05
6.090882856686717e-07,9.334764938472454e-07,3.019392440684379e-07,2.9742019136883373e-05
6.104337728586694e-07,9.301700108975208e-07,3.0146237593321234e-07,2.9757406756195058e-05
6.115216029983211e-07,9.265662122909786e-07,3.010673040236844e-07,2.9788815551166906e-05
6.123287866255273e-07,9.226791059438145e-07,3.0075897141838586e-07,2.9836323942227196e-05
6.128334594890021e-07,9.185394820804287e-07,3.0054334973036304e-07,2.9899535827162127e-05
6.130138925487167e-07,9.142014511657469e-07,3.004259742730618e-07,2.9977578563795625e-05
6.1284992208975e-07,9.097319957623336e-07,3.004115212271038e-07,3.006916443444961e-05
6.123285672484723e-07,9.051942946093164e-07,3.005055491494089e-07,3.0172731703606367e-05
6.114503072310292e-07,9.006424582092545e-07,3.00716968032711e-07,3.028661963593658e-05
6.102290215802563e-07,8.961301367583969e-07,3.010590870099752e-07,3.040920048159633e-05
6.086847759570848e-07,8.917229095012066e-07,3.015485031005983e-07,3.053895047714637e-05
6.068361667061574e-07,8.875018985627424e-07,3.0220218234831897e-07,3.0674507610107984e-05
6.046971287874689e-07,8.835571457918716e-07,3.0303383428650605e-07,3.081472459526447e-05
6.022772392059364e-07,8.799798429733557e-07,3.0405231296485014e-07,3.095866593013547e-05
5.995829570621707e-07,8.768559286277576e-07,3.052630686631738e-07,3.1105537422477744e-05
5.966187290647003e-07,8.742580408776023e-07,3.066692922704264e-07,3.1254585114810725e-05
5.933876489066387e-07,8.722388527299316e-07,3.082705543640504e-07,3.140498387685078e-05
5.898914829718195e-07,8.708295811965534e-07,3.1006141037194163e-07,3.155574898008004e-05
5.861306031798479e-07,8.700421410161367e-07,3.120322711488596e-07,3.170572966055637e-05
5.821048846173454e-07,8.698720862681227e-07,3.141718378408941e-07,3.1853658402019565e-05
5.778156629539064e-07,8.703003961166004e-07,3.16469448315918e-07,3.1998171444831084e-05
5.732677062193077e-07,8.712946942700728e-07,3.189159374542644e-07,3.2137817171307496e-05
5.684699190863015e-07,8.728126967437407e-07,3.215028332145856e-07,3.2271119834591696e-05
5.6343413680632e-07,8.748072989167417e-07,3.2422093941290944e-07,3.2396676487757304e-05
5.58174506482315e-07,8.772287989163931e-07,3.270592816952984e-07,3.251318888675482e-05
5.527099377715551e-07,8.800239391308688e-07,3.300057383638323e-07,3.261937759206618e-05
5.470654513799139e-07,8.831368417891821e-07,3.3304943404193914e-07,3.271386443960071e-05
5.412691548462208e-07,8.86512657364551e-07,3.361818476678668e-07,3.279514677822804e-05
5.353504727817215e-07,8.901004900527806e-07,3.393946204754984e-07,3.286166712747498e-05
5.293432126376767e-07,8.938558447738663e-07,3.426763706799334e-07,3.291192465015127e-05
5.232874850710492e-07,8.977432202513266e-07,3.4601153200395735e-07,3.294463442961786e-05
5.172258016160304e-07,9.0173491643568e-07,3.493813806973328e-07,3.295891498879657e-05
5.111977184627449e-07,9.058044902286907e-07,3.5276595593179156e-07,3.295438125460488e-05
5.052380188977529e-07,9.099204153271452e-07,3.56146154305491e-07,3.293104655983458e-05
4.993768286340864e-07,9.140444134133381e-07,3.5950549440055646e-07,3.288908677357673e-05
4.936392924660504e-07,9.18132455106497e-07,3.6283038203806136e-07,3.282863851298123e-05
4.880466080544114e-07,9.221368719275387e-07,3.6610809393933064e-07,3.274974687970522e-05
4.826190342524726e-07,9.260123742175741e-07,3.6932408233749965e-07,3.2652401317951146e-05
4.773771245811318e-07,9.297252545026127e-07,3.7246086054343843e-07,3.253655665947242e-05
4.723398638944857e-07,9.332576064381392e-07,3.7549861447188676e-07,3.240217199218237e-05
4.6752352753032275e-07,9.36601985471467e-07,3.784167142253936e-07,3.224940392931981e-05
4.6294324195583755e-07,9.397524193474943e-07,3.811952235825423e-07,3.207890607953894e-05
4.5861455561285725e-07,9.426986878566313e-07,3.838154907622319e-07,3.189194488837843e-05
4.545527524030692e-07,9.454255672506701e-07,3.8625997289578925e-07,3.1690230230302965e-05
4.5077087410989855e-07,9.479169422117151e-07,3.885123580041882e-07,3.14756508151927e-05
4.4727791071850746e-07,9.501618814035794e-07,3.9055838190148957e-07,3.1250066186361154e-05
4.44077878479663e-07,9.521564451927505e-07,3.9238607063249704e-07,3.101523259005788e-05
4.411698284765045e-07,9.539007162237386e-07,3.9398495946389864e-07,3.0772965042388594e-05
4.385483563985308e-07,9.553992148722486e-07,3.9534570665425136e-07,3.0525444780460235e-05
4.36206050260073e-07,9.566668608973064e-07,3.964604483008986e-07,3.0275362517220955e-05
4.341382110141592e-07,9.577311207153314e-07,3.973233475280658e-07,3.0025801269141388e-05
4.323453040809652e-07,9.586262270228063e-07,3.9793091166636245e-07,2.978003566697959e-05
4.30830649472214e-07,9.593850679837864e-07,3.982816619369143e-07,2.9541359364724705e-05
4.295978289276887e-07,9.600330899974677e-07,3.983756492626032e-07,2.9312932207869762e-05
4.2865118526284716e-07,9.605856216206744e-07,3.9821391450159504e-07,2.909764459790957e-05
4.2799697547004156e-07,9.61048051733345e-07,3.977977113876253e-07,2.8898021992422728e-05
4.2764263040784223e-07,9.614166950589045e-07,3.971288533549096e-07,2.871617676624896e-05
4.2759413493513093e-07,9.61680285991722e-07,3.962110702033297e-07,2.8553790009521088e-05
4.278531637370722e-07,9.618230939612071e-07,3.9505045383583923e-07,2.8412096312020342e-05
4.284159377959672e-07,9.618318827093438e-07,3.936551881297678e-07,2.8291856104259333e-05
4.2927411300135104e-07,9.617104896619038e-07,3.9203572594551674e-07,2.819332448486696e-05
4.304174671361599e-07,9.61494018049346e-07,3.9020616002111615e-07,2.8116236508676494e-05
4.318363921478378e-07,9.61244498656896e-07,3.881861647398128e-07,2.8059849218036732e-05
4.335208897569706e-07,9.6102972917065e-07,3.860001596475533e-07,2.80230798360125e-05
4.3545806781287776e-07,9.609096721422343e-07,3.836729429875042e-07,2.800469439807973e-05
4.376324393062947e-07,9.609425827558175e-07,3.812259605711416e-07,2.8003444266043878e-05
4.400289519839592e-07,9.61196004531647e-07,3.786768708637065e-07,2.801812907068749e-05
4.4263607902665365e-07,9.617449837091968e-07,3.760409652523725e-07,2.8047642415113745e-05
4.45445960022852e-07,9.626611147940183e-07,3.733323232786976e-07,2.8091013432838035e-05
4.484515991184693e-07,9.64006115405676e-07,3.705642537868292e-07,2.814739830148264e-05
4.516449154637851e-07,9.658309242883369e-07,3.677493771242528e-07,2.8216000769046284e-05
4.5501750641877977e-07,9.681734734501194e-07,3.6489984483638295e-07,2.829597007053736e-05
4.585622630479989e-07,9.71055391369564e-07,3.6202925378114073e-07,2.8386320689932037e-05
4.6227356684499254e-07,9.744813903054549e-07,3.591555886617098e-07,2.848586711109657e-05
4.66146107733465e-07,9.784403379514928e-07,3.563010085767011e-07,2.859320461150808e-05
4.7017311305253965e-07,9.829059430092672e-07,3.534885424509186e-07,2.870676779864788e-05
4.7434377434018545e-07,9.878386518019753e-07,3.5074050680803927e-07,2.8824903086800237e-05
4.786413261161343e-07,9.931900521920791e-07,3.4807988712914393e-07,2.8945912615936328e-05
4.830439097168969e-07,9.98907536835015e-07,3.4553186112703443e-07,2.906810288584636e-05
4.875272088048863e-07,1.004938133407604e-06,3.431228167982983e-07,2.918984758178892e-05
4.920657686991721e-07,1.011232070344122e-06,3.408771067322499e-07,2.9309612983110607e-05
4.966319592609923e-07,1.0177436410818814e-06,3.388149856564096e-07,2.9425890858369922e-05
5.011949065845296e-07,1.02442819754044e-06,3.369530965603713e-07,2.9537085891402923e-05
5.057211213830128e-07,1.0312379873876544e-06,3.3530462999710114e-07,2.9641498476579742e-05
5.101755186042239e-07,1.0381188651985435e-06,3.3387799676536304e-07,2.9737499880408568e-05
5.145217806097153e-07,1.0450094173633785e-06,3.3267601437119343e-07,2.982382115544746e-05
5.187235496268353e-07,1.051843430676947e-06,3.316965269465397e-07,2.989973166276896e-05
5.227477211233028e-07,1.0585533946913746e-06,3.3093448266349676e-07,2.9965001567480133e-05
5.265680768011515e-07,1.0650714831270966e-06,3.3038543176955837e-07,3.0019746498740808e-05
5.301659474346788e-07,1.0713282999337186e-06,3.300487730387095e-07,3.0064234399967547e-05
5.335271513476949e-07,1.0772528866365794e-06,3.299288187544288e-07,3.0098690874942144e-05
5.3663857565203e-07,1.0827743817868034e-06,3.300329701686575e-07,3.012321427909889e-05
5.394877908243793e-07,1.0878245669601923e-06,3.303679211358486e-07,3.0137835887412956e-05
5.420646712824116e-07,1.0923436151955778e-06,3.3093693239279137e-07,3.0142585861210907e-05
5.443617277512991e-07,1.0962867135296723e-06,3.31739560592142e-07,3.0137472799298054e-05
5.463732677288257e-07,1.0996233484414213e-06,3.3277161858469745e-07,3.01224499827734e-05
5.480958355837861e-07,1.1023300623219426e-06,3.340245536051089e-07,3.009751164955996e-05
5.495293880096721e-07,1.1043865293587931e-06,3.354863288378261e-07,3.006294052308155e-05
5.506772449043545e-07,1.1057762140604722e-06,3.3714422794261124e-07,3.001948116186797e-05
5.515442887930861e-07,1.1064866175298028e-06,3.3898727847873785e-07,2.9968248242071198e-05
5.521344342703667e-07,1.1065099640713859e-06,3.410066843447103e-07,2.9910499138080565e-05
5.524503841547047e-07,1.105845044100135e-06,3.4319496866351576e-07,2.984754219572974e-05
5.524964016320156e-07,1.1044972690514946e-06,3.455457741415567e-07,2.978085268000617e-05
5.522796137723283e-07,1.1024785734510992e-06,3.4805487596298985e-07,2.9712189677974407e-05
5.51807304893987e-07,1.0998122510794522e-06,3.5071997436421037e-07,2.964354234777015e-05
5.51084013755641e-07,1.0965394394641266e-06,3.535377843061227e-07,2.9576970033484496e-05
5.501115553756642e-07,1.0927174930026436e-06,3.565007476877625e-07,2.951444791997514e-05
5.48890648055299e-07,1.088409844643586e-06,3.5959573692992895e-07,2.9457751753651174e-05
5.474226406170414e-07,1.0836758899250157e-06,3.628050833828546e-07,2.9408378415448828e-05
5.457110914082772e-07,1.0785660834485093e-06,3.66108895404736e-07,2.936749402893543e-05
5.437627583153757e-07,1.073122366627447e-06,3.6948624376026674e-07,2.933590460597771e-05
5.415873059280068e-07,1.0673815328041871e-06,3.7291442233799904e-07,2.9314048535147243e-05
5.391965708671546e-07,1.061378328191992e-06,3.7636830920616113e-07,2.9302022378775423e-05
5.366049286286449e-07,1.0551467005141126e-06,3.7982058545117176e-07,2.9299641506308708e-05
5.338290513379924e-07,1.0487200052120742e-06,3.832419294839123e-07,2.930648794452003e-05
5.308851432972208e-07,1.0421334649188505e-06,3.866011482784296e-07,2.9321892223750817e-05
5.277861034983649e-07,1.0354309609254514e-06,3.8986557255985973e-07,2.934488072831225e-05
5.245414772029911e-07,1.0286715108591006e-06,3.93002231627349e-07,2.9374181946115557e-05
5.21160350153144e-07,1.0219270296214198e-06,3.9598067591947935e-07,2.9408327117343548e-05
5.176545830655288e-07,1.0152711763073324e-06,3.9877614346545e-07,2.9445779320543764e-05
5.140387406653164e-07,1.0087722110149369e-06,4.0137003544898757e-07,2.9485016131087768e-05
5.10327656285134e-07,1.0024987480226412e-06,4.03748170075096e-07,2.9524564087371137e-05
5.065356417460617e-07,9.965277417014378e-07,4.0589949358358343e-07,2.9563020873112908e-05
5.02678368219086e-07,9.909415188137434e-07,4.0781488220756884e-07,2.9599090400699248e-05
4.987755970571318e-07,9.858176718622437e-07,4.0948559761280363e-07,2.963162903808042e-05
4.948511955923097e-07,9.812220330625231e-07,4.109034948002001e-07,2.965967357454636e-05
4.909293892988486e-07,9.772071590921535e-07,4.1206297330345933e-07,2.9682429634692973e-05
4.870332368216598e-07,9.738125586008072e-07,4.1296193151776316e-07,2.969922242551057e-05
4.831909641611832e-07,9.71063638926299e-07,4.136010232177268e-07,2.9709419625067742e-05
4.794455058334117e-07,9.68970819323732e-07,4.139827685232522e-07,2.971236839800456e-05
4.7585588964883993e-07,9.675299985825063e-07,4.141112721621204e-07,2.9707425940422322e-05
4.7248658856224096e-07,9.66723335196327e-07,4.1399240016455885e-07,2.9694072389682543e-05
4.6939430178625297e-07,9.665215100727975e-07,4.136342538800258e-07,2.967197897046237e-05
4.6662229131659183e-07,9.668868736891519e-07,4.1304725869214113e-07,2.964097285065896e-05
4.6420121145272893e-07,9.677738830252891e-07,4.122431024267452e-07,2.960093062943313e-05
4.6215052742317904e-07,9.691276140430494e-07,4.112334671468329e-07,2.9551660386589006e-05
4.604789545627181e-07,9.708833924431534e-07,4.1003046785989533e-07,2.949286800411435e-05
4.591854628111697e-07,9.729680286132158e-07,4.086485674147756e-07,2.9424215076159632e-05
4.58261872186895e-07,9.753028489874144e-07,4.071052209725017e-07,2.9345360751329326e-05
