4.124501387438776e-07,1.0808445619992059e-06,6.271886189932244e-07,2.8157560108057e-05
4.1314405748502325e-07,1.0901555338345378e-06,6.290964604773146e-07,2.7915661343763257e-05
4.141894650458754e-07,1.0993545549958095e-06,6.30931486667255e-07,2.766549040123114e-05
4.155972526147445e-07,1.1083789094088186e-06,6.326727738059961e-07,2.740732781654904e-05
4.173700176807096e-07,1.117170190095282e-06,6.343036988319949e-07,2.714150470198677e-05
4.195022654253778e-07,1.125679487591783e-06,6.358172671861326e-07,2.686833809998212e-05
4.219798063632902e-07,1.1338667105570887e-06,6.372133991593914e-07,2.6588168868867e-05
4.247801657324061e-07,1.1416949566012214e-06,6.384917073286696e-07,2.63014716338354e-05
4.278748029576189e-07,1.1491240133280858e-06,6.396493449054368e-07,2.6008872428476747e-05
4.3123166503922703e-07,1.156107785418175e-06,6.406846909303537e-07,2.571102454347468e-05
4.34816308844285e-07,1.1625970835421034e-06,6.415996490142066e-07,2.540847644195485e-05
4.3859175928524606e-07,1.1685452599123109e-06,6.423978207441043e-07,2.510164653213313e-05
4.4251842360840425e-07,1.173912447415108e-06,6.430817771294517e-07,2.479091609296671e-05
4.465546359817605e-07,1.1786663390784507e-06,6.436516597370979e-07,2.4476761544415616e-05
4.5065745503689746e-07,1.182781086380356e-06,6.441062224742254e-07,2.4159792276526005e-05
4.547832252623395e-07,1.1862357028097168e-06,6.444455781501053e-07,2.384065544517635e-05
4.588881136185913e-07,1.1890133432131444e-06,6.446711583731362e-07,2.3519912500524482e-05
4.6292908386308e-07,1.1911024795538843e-06,6.447826196604712e-07,2.319799471472521e-05
4.668651602351428e-07,1.1924970153961394e-06,6.447779394487688e-07,2.287528624731977e-05
4.706581809855611e-07,1.1931941432138427e-06,6.446588394311996e-07,2.2552318817857612e-05
4.7427275007968615e-07,1.19319291084224e-06,6.444356614469267e-07,2.222994790594436e-05
4.776762058613396e-07,1.192492977573947e-06,6.441257450152861e-07,2.19093629225356e-05
4.808385625596621e-07,1.1910920226767444e-06,6.437470474453537e-07,2.159192220775241e-05
4.837314664729694e-07,1.1889840867415713e-06,6.43313892452492e-07,2.127891893636987e-05
4.863268875880212e-07,1.186160289755357e-06,6.428376767481814e-07,2.0971411263401287e-05
4.88597258580269e-07,1.1826112757436086e-06,6.423307281280965e-07,2.067020171215047e-05
4.905170470208407e-07,1.1783302256752854e-06,6.418119305339903e-07,2.0375925633604745e-05
4.920643207851033e-07,1.1733137685329692e-06,6.413110986282125e-07,2.0089150020879905e-05
4.932218192703889e-07,1.1675599518786664e-06,6.408687919502467e-07,1.9810504157592777e-05
4.939779127630407e-07,1.1610666382623336e-06,6.405327625654834e-07,1.954091672773682e-05
4.943273772072155e-07,1.153832702247625e-06,6.403527881544932e-07,1.9281808592412107e-05
4.942717027255021e-07,1.1458621609924554e-06,6.403762622350977e-07,1.9035012426164654e-05
4.938182786695128e-07,1.137173201589282e-06,6.406487845844218e-07,1.8802493266499333e-05
4.929779540875433e-07,1.127810585893638e-06,6.412164528783499e-07,1.858608792675429e-05
4.917624434310449e-07,1.1178491898174596e-06,6.421226274244987e-07,1.8387363510302248e-05
4.901834671259771e-07,1.1073820794879578e-06,6.434034677940264e-07,1.820769889164389e-05
4.882532365177889e-07,1.0965081759423321e-06,6.450910567602558e-07,1.804860821166382e-05
4.859852368339928e-07,1.085331017967333e-06,6.472207146754103e-07,1.7912020170156568e-05
4.833945518922007e-07,1.0739584489301909e-06,6.498317928494825e-07,1.7800254541224106e-05
4.804969650439864e-07,1.0624966513262682e-06,6.529597525406831e-07,1.771581460365622e-05
4.773078930081632e-07,1.051044247720238e-06,6.56628636474344e-07,1.7661205225439208e-05
4.7384227809850857e-07,1.0396887288273328e-06,6.608514303201093e-07,1.7638803484508856e-05
4.7011499563086684e-07,1.0285055393821765e-06,6.656363958453594e-07,1.7650751554640914e-05
4.661415470874757e-07,1.0175621433018432e-06,6.709934612284536e-07,1.769886396002665e-05
4.6193794303061545e-07,1.0069236561757031e-06,6.769351246215514e-07,1.7784542097002617e-05
4.575193742237338e-07,9.966524834272646e-07,6.834712344972107e-07,1.7908715176086113e-05
4.5290019305636893e-07,9.868026089712634e-07,6.90603148704197e-07,1.8071815878743726e-05
4.480954461506404e-07,9.774156537650455e-07,6.983203824750624e-07,1.827375618161408e-05
4.431210274530965e-07,9.685205013534023e-07,7.066000444885128e-07,1.8513885614083506e-05
4.379921974831793e-07,9.601340679995035e-07,7.154106916258669e-07,1.8790955616163726e-05
4.327228551531045e-07,9.522621927409008e-07,7.247175588759198e-07,1.910312998695768e-05
4.273261183579352e-07,9.449003331442351e-07,7.344827265733396e-07,1.9448077040913035e-05
4.2181507855319795e-07,9.38034473289784e-07,7.446623174835121e-07,1.9823147305158055e-05
4.162040204305644e-07,9.31644456163312e-07,7.552097275950672e-07,2.0225580342389146e-05
4.1051014022066025e-07,9.25709573123592e-07,7.660849304860824e-07,2.0652645873358896e-05
4.0475417569451617e-07,9.202114875348313e-07,7.772579041198408e-07,2.1101699792576635e-05
3.9896007766096594e-07,9.151331476581922e-07,7.88701879224127e-07,2.157023018316952e-05
3.931548596981051e-07,9.104580927584028e-07,8.003879022252465e-07,2.2055905343088947e-05
3.873679138089076e-07,9.061718559431607e-07,8.122867665785734e-07,2.2556555016207285e-05
3.816288014905933e-07,9.022650350234512e-07,8.243700669775202e-07,2.3070071528962892e-05
3.759648412074258e-07,8.987372153386039e-07,8.36605797878012e-07,2.359428512460852e-05
3.7040077751199314e-07,8.955965631843367e-07,8.48953516997415e-07,2.412687224594038e-05
3.649607747816104e-07,8.928520116662899e-07,8.613629914758068e-07,2.4665337206621968e-05
3.5967122731119265e-07,8.90504759636766e-07,8.737757432937546e-07,2.5207056395414567e-05
3.545616358051917e-07,8.885466450722109e-07,8.861280767007819e-07,2.574931841238729e-05
3.496621736288952e-07,8.869638380507608e-07,8.983546221303787e-07,2.6289337276351045e-05
3.4500177184307947e-07,8.85740586015037e-07,9.10390898903348e-07,2.682428659589708e-05
3.406095221981984e-07,8.84860739732563e-07,9.22174156565545e-07,2.735136622688768e-05
3.365157998698852e-07,8.843066280522644e-07,9.336430595781613e-07,2.7867862800201824e-05
3.327506466804089e-07,8.840566970265534e-07,9.447363295609213e-07,2.8371161235195727e-05
3.293413670842738e-07,8.84084393664917e-07,9.553910532185724e-07,2.8858688859431927e-05
3.2631031998842176e-07,8.843583374226574e-07,9.65542056490443e-07,2.9327856739642933e-05
3.2367300329714167e-07,8.848433124594246e-07,9.751225592720185e-07,2.9776091451430092e-05
3.214375277833021e-07,8.855033193662806e-07,9.840656052097108e-07,3.0200956298693616e-05
3.1960569697706515e-07,8.863059620096468e-07,9.923057805559785e-07,3.060030078792168e-05
3.181746269126337e-07,8.872242201395604e-07,9.997812287607898e-07,3.0972397894994453e-05
3.171376906279006e-07,8.882336516755581e-07,1.0064365528302526e-06,3.131601481541575e-05
3.164854256086465e-07,8.893089943425256e-07,1.0122253591831836e-06,3.163035539018319e-05
3.1620857088987534e-07,8.904256046174955e-07,1.0171098155000524e-06,3.19148954955051e-05
3.1630225232478235e-07,8.915649710455759e-07,1.0210579765442274e-06,3.216920011468997e-05
3.167676368127547e-07,8.927170484003826e-07,1.0240425871349943e-06,3.2392801987522064e-05
3.176105496183841e-07,8.938758289895403e-07,1.0260436354638304e-06,3.2585180047970227e-05
3.188399998322993e-07,8.95035270324432e-07,1.0270526547369223e-06,3.2745798545887075e-05
3.204679511344479e-07,8.961919223833498e-07,1.0270737878310488e-06,3.2874136779855865e-05
3.225090230953893e-07,8.973483011446292e-07,1.0261209135967586e-06,3.296976173488224e-05
3.249792980890419e-07,8.98510203410672e-07,1.024214333562547e-06,3.3032571815007316e-05
3.2789382507881267e-07,8.996818771825479e-07,1.0213778093517285e-06,3.3063090744297606e-05
3.312627019344173e-07,9.008640880429505e-07,1.0176358154797785e-06,3.306249774551244e-05
3.3508849092037027e-07,9.020555119255085e-07,1.0130126302972814e-06,3.3032376264767056e-05
3.3936703268582874e-07,9.032587967599344e-07,1.0075341019692766e-06,3.297442963669638e-05
3.4408866995182426e-07,9.044887697796025e-07,1.0012303062080536e-06,3.2890318664480354e-05
3.492373853978962e-07,9.057751593076534e-07,9.941355561019205e-07,3.278172288894834e-05
3.5478953638881467e-07,9.071572763803158e-07,9.862853748414549e-07,3.2650649116334964e-05
3.607141594936207e-07,9.08675019873621e-07,9.777141963853672e-07,3.2499733002756015e-05
3.6697602975865476e-07,9.103648553374644e-07,9.684551980775298e-07,3.23322614369734e-05
3.73540908042857e-07,9.122655339268566e-07,9.585408366639998e-07,3.215196200778046e-05
3.8037840252864104e-07,9.144245240088965e-07,9.480050405936777e-07,3.196273490645094e-05
3.8745994374214847e-07,9.168939558915906e-07,9.368875839122736e-07,3.176840626277323e-05
3.947564789733768e-07,9.19718641092088e-07,9.252368289614695e-07,3.1572532106160324e-05
4.022392699653084e-07,9.229268921499358e-07,9.131073936402959e-07,3.1378269001827334e-05
4.098806570343893e-07,9.265284628165137e-07,9.00554349962706e-07,3.118831745735105e-05
4.17652712894537e-07,9.305156271671793e-07,8.876288334729534e-07,3.1004936574735724e-05
4.25526367186175e-07,9.348653016835916e-07,8.743773386827919e-07,3.082998942962404e-05
4.334726824813291e-07,9.395436390469231e-07,8.608424144853548e-07,3.066494749795839e-05
4.414646172719674e-07,9.445110607977309e-07,8.470628224261406e-07,3.0510830969109343e-05
4.4947693522769815e-07,9.497247521924187e-07,8.330740254416794e-07,3.0368151025124574e-05
4.5748437626199246e-07,9.551401516602849e-07,8.189101741982331e-07,3.023693380135073e-05
4.654606751389311e-07,9.60712861192286e-07,8.046062563049029e-07,3.0116843532282392e-05
4.733790397251579e-07,9.663990413277077e-07,7.901980504095282e-07,3.0007355852257728e-05
4.812128565518469e-07,9.72153661456934e-07,7.757212534940354e-07,2.9907903790656488e-05
4.889370617901215e-07,9.779292150292713e-07,7.612117842786409e-07,2.981796366761162e-05
4.965308418709588e-07,9.83676929637726e-07,7.467057253798773e-07,2.9737111916420894e-05
5.039802873525141e-07,9.89349167521961e-07,7.322393566607735e-07,2.9665067042836717e-05
5.112781768832092e-07,9.949012640806654e-07,7.178512251756996e-07,2.9601686997267895e-05
5.184210252303036e-07,1.000293029842982e-06,7.035839611005034e-07,2.9546918139562874e-05
5.25407037261199e-07,1.0054892097519057e-06,6.894833543993498e-07,2.950071528722015e-05
5.322354657848966e-07,1.0104583794905456e-06,6.755957366685179e-07,2.946293431868429e-05
5.389047903768975e-07,1.0151725901445226e-06,6.619659289882498e-07,2.9433228772729687e-05
5.454099467285332e-07,1.019607684868727e-06,6.486375640740041e-07,2.9411026411648767e-05
5.517404877123732e-07,1.0237420870422777e-06,6.356562982161739e-07,2.9395610212250208e-05
5.578798915037617e-07,1.0275551833583056e-06,6.230747154314524e-07,2.93862154721104e-05
5.638060683844321e-07,1.0310273168007241e-06,6.109555665867221e-07,2.938205293071209e-05
5.694928957417119e-07,1.0341417082877753e-06,5.993687305926389e-07,2.938229239094343e-05
5.749117135551015e-07,1.0368858588595251e-06,5.883829528376482e-07,2.93860852154741e-05
5.800327825427041e-07,1.0392494819180736e-06,5.780624884603736e-07,2.93926072444146e-05
5.848266905736767e-07,1.0412222463643484e-06,5.684730487309695e-07,2.940105722077853e-05
5.89264720517867e-07,1.04279535603897e-06,5.59686672552284e-07,2.9410662421188646e-05
5.933186236005946e-07,1.0439626976735195e-06,5.517776739329548e-07,2.942076122253474e-05
5.969608376213756e-07,1.04471787374324e-06,5.448138958673874e-07,2.943087286064301e-05
6.001647505037016e-07,1.0450518663099838e-06,5.388488864815496e-07,2.9440674697862486e-05
6.029049091532802e-07,1.0449540240022262e-06,5.33917159152966e-07,2.944992481638496e-05
6.051582751285025e-07,1.04441233677947e-06,5.300333893453486e-07,2.945837089779284e-05
6.069060026685025e-07,1.0434116064241227e-06,5.271952649064872e-07,2.9465678181058423e-05
6.081332562699965e-07,1.0419332846910471e-06,5.253885320822115e-07,2.947139508205454e-05
6.088273218328772e-07,1.0399609522425509e-06,5.245931281918112e-07,2.9474936684874486e-05
6.089768970546855e-07,1.037490225747397e-06,5.247901992133858e-07,2.947558374494696e-05
6.085729770978426e-07,1.0345353907435184e-06,5.259677161032107e-07,2.947252356403413e-05
6.076108752212383e-07,1.0311282439515014e-06,5.281203170422415e-07,2.946491806788996e-05
6.060944558619057e-07,1.027311780882298e-06,5.312443014060604e-07,2.945194753489577e-05
6.040401851853643e-07,1.0231314835864769e-06,5.353366995085783e-07,2.943280821191395e-05
6.0147582067501e-07,1.0186274353271262e-06,5.404018878254678e-07,2.9406710080312928e-05
5.984342571367286e-07,1.013831307545608e-06,5.464571703324482e-07,2.937296873421891e-05
5.949479704904302e-07,1.0087679701464745e-06,5.535308385925332e-07,2.9331153974162892e-05
5.910468183543771e-07,1.003458388279812e-06,5.616538309399205e-07,2.9281132419612127e-05
5.867589538929344e-07,9.979235827685666e-07,5.708487297040794e-07,2.922299804313161e-05
5.821134158426415e-07,9.921934475741186e-07,5.811217884682509e-07,2.915699485773455e-05
5.771414909053171e-07,9.863173973664136e-07,5.924605990070223e-07,2.9083444744178364e-05
5.718769413846215e-07,9.803644711475338e-07,6.048343929440618e-07,2.900266406246014e-05
5.663576888491789e-07,9.7441022096125e-07,6.181952633671961e-07,2.891489034281757e-05
5.606269465805521e-07,9.685236782242702e-07,6.324812091872527e-07,2.8820239581272137e-05
5.547308314896776e-07,9.627669923157004e-07,6.476198412959772e-07,2.871869778290172e-05
5.487142674223014e-07,9.572079740963992e-07,6.635299639199392e-07,2.861014065025432e-05
5.426180858621472e-07,9.519321611378978e-07,6.801218915417551e-07,2.849436416283099e-05
5.364778562741948e-07,9.470412047531954e-07,6.973017902156936e-07,2.837110222450217e-05
5.303236826839687e-07,9.426407779253141e-07,7.149809684153977e-07,2.824002148723293e-05
5.24181329892914e-07,9.3882689138122e-07,7.330828820588657e-07,2.810071088238575e-05
5.180746361338234e-07,9.356747249088928e-07,7.515423017725683e-07,2.795268862673412e-05
5.120271140617268e-07,9.332349931043816e-07,7.703009829303704e-07,2.7795428988668482e-05
5.060622848583481e-07,9.315389693403006e-07,7.893068871427296e-07,2.762839128538631e-05
5.002037662536931e-07,9.306054711078348e-07,8.085150795058936e-07,2.745103545078239e-05
4.944742810484818e-07,9.304437911919495e-07,8.278848690261176e-07,2.7262837560571843e-05
4.888934991461939e-07,9.310527324758604e-07,8.473745870564544e-07,2.706332097839936e-05
4.834765139817766e-07,9.324203601705481e-07,8.669380215072335e-07,2.685209600066274e-05
4.782340940362236e-07,9.345265079995136e-07,8.865228582961279e-07,2.662890042346294e-05
4.7317596169736177e-07,9.373440044161244e-07,9.060693353266424e-07,2.639361877229056e-05
4.683155518927677e-07,9.408365229219351e-07,9.255083679784777e-07,2.614625231908997e-05
4.6367025965059575e-07,9.449582884835356e-07,9.447603902800094e-07,2.5886869847772132e-05
4.5925646715219233e-07,9.49659766076047e-07,9.637363037670121e-07,2.5615601664315318e-05
4.550851768198101e-07,9.548945235441002e-07,9.823401488943042e-07,2.5332684978644684e-05
4.5116129487425395e-07,9.60619568676602e-07,1.0004723174087178e-06,2.5038509820156892e-05
4.474859548084396e-07,9.667890086138174e-07,1.018032677705036e-06,2.473361538470989e-05
4.4405945524125097e-07,9.733479307112469e-07,1.0349230081580812e-06,2.4418638013856508e-05
4.408821492541727e-07,9.802308579470351e-07,1.0510492438162086e-06,2.409424682019901e-05
4.3795388119358903e-07,9.873635783880293e-07,1.066326439349452e-06,2.376109512155379e-05
4.3527443309733064e-07,9.94666702667265e-07,1.0806862992214642e-06,2.3419832345401974e-05
4.328452424600722e-07,1.002059284311453e-06,1.0940807166927874e-06,2.3071178131930372e-05
4.306696610389906e-07,1.0094600525341343e-06,1.1064771650518083e-06,2.2715937796010486e-05
4.28750664361322e-07,1.0167872377212557e-06,1.1178499935746931e-06,2.2354910781944258e-05
4.2708921260900324e-07,1.0239602557045186e-06,1.128173863748327e-06,2.198882881149407e-05
4.256850318650208e-07,1.0309024140725702e-06,1.1374223314002696e-06,2.1618418850723665e-05
4.2453697895298217e-07,1.0375406425304722e-06,1.1455700758481257e-06,2.1244560017914984e-05
4.236410712418047e-07,1.0438026165544015e-06,1.1525949804266482e-06,2.0868455633133505e-05
4.2298837617411704e-07,1.049615985819826e-06,1.158480349649621e-06,2.0491691541986592e-05
4.2256458317127117e-07,1.0549103772443943e-06,1.1632195689136705e-06,2.011611091355255e-05
4.2235079114368784e-07,1.0596186099078809e-06,1.1668203099203312e-06,1.974359113094041e-05
4.2232548309342204e-07,1.063677395444485e-06,1.1693043293961394e-06,1.9375849282360705e-05
4.224667751642752e-07,1.0670320673474136e-06,1.1707037406977731e-06,1.9014372189486748e-05
4.227528734885149e-07,1.0696450534552442e-06,1.1710565915014635e-06,1.866051811434108e-05
4.23161692055834e-07,1.0715004009695751e-06,1.1704032229788771e-06,1.8315705704600226e-05
4.2367185575624657e-07,1.072600575995027e-06,1.168784613820455e-06,1.7981528043898574e-05
4.2426459696166357e-07,1.072960414374365e-06,1.16624320647568e-06,1.7659699799211104e-05
4.2492468933975946e-07,1.072603518537906e-06,1.1628240152820756e-06,1.7351857613150652e-05
4.2563908212330385e-07,1.0715625964450304e-06,1.1585740086257028e-06,1.7059350105145738e-05
4.263943706765454e-07,1.0698798225580064e-06,1.1535402278616752e-06,1.6783172563050473e-05
4.2717608478023077e-07,1.0676023978963123e-06,1.14776722805068e-06,1.652403765289111e-05
4.2797013091916816e-07,1.0647781541995649e-06,1.1412943097275382e-06,1.6282462039455027e-05
4.2876408889608827e-07,1.0614571581113977e-06,1.134154178684899e-06,1.6058857446937506e-05
4.295470696373533e-07,1.0576942895219804e-06,1.1263736377412331e-06,1.5853738131691866e-05
4.303091581664428e-07,1.0535473130768966e-06,1.1179747283202976e-06,1.5668022565994547e-05
4.310416261062701e-07,1.0490717043213365e-06,1.108975436482468e-06,1.5503170426378868e-05
4.3173732271569927e-07,1.0443151921449415e-06,1.0993910470092753e-06,1.5361002475918922e-05
4.3239104306712455e-07,1.0393155469542445e-06,1.0892377767299627e-06,1.5243374567060495e-05
4.33000098688344e-07,1.0341034657055606e-06,1.0785380028807804e-06,1.5151910334831586e-05
4.3356385762933673e-07,1.0287083561964344e-06,1.0673231842716676e-06,1.5087863885460674e-05
4.3408274189371253e-07,1.02316295956148e-06,1.0556316507157707e-06,1.5052219776112015e-05
4.3455841998769037e-07,1.0175036221122965e-06,1.0435028245705048e-06,1.504601147095564e-05
4.3499361808643855e-07,1.0117673199941714e-06,1.0309728713529897e-06,1.5070542432052454e-05
4.353903833670619e-07,1.005990397026683e-06,1.0180759423445792e-06,1.5127334231549146e-05
4.3574850749177685e-07,1.000211084330377e-06,1.0048493925193372e-06,1.5217957836820804e-05
4.3606504534923183e-07,9.944705731345915e-07,9.913376989084692e-07,1.534389363020055e-05
4.3633539176334097e-07,9.888077660267838e-07,9.7759234704089e-07,1.5506429943026135e-05
4.3655528454326584e-07,9.832529517299024e-07,9.636678826236e-07,1.5706569610503172e-05
4.3672178937130424e-07,9.778277176554176e-07,9.496159823924351e-07,1.5944932497883034e-05
4.3683306915638144e-07,9.72548153929614e-07,9.354811879904112e-07,1.6221682627980495e-05
4.368883252390474e-07,9.674246857947131e-07,9.21300513000186e-07,1.6536517017886225e-05
4.368890298893097e-07,9.624591302584578e-07,9.0710521131365e-07,1.6888701067355937e-05
4.368397718308907e-07,9.57643129960645e-07,8.929223387591835e-07,1.7277083682426918e-05
4.3674627713184225e-07,9.529598596821757e-07,8.78777293092383e-07,1.7700055036219197e-05
4.366124621913861e-07,9.48388582422925e-07,8.6469753309652e-07,1.815548815989661e-05
4.364393286016733e-07,9.439086954317542e-07,8.507128530424206e-07,1.8640742119067155e-05
4.362252308151036e-07,9.395012499658542e-07,8.368531583147514e-07,1.9152769796409155e-05
4.3596591831887606e-07,9.35149539252772e-07,8.231510318277718e-07,1.9688302061939526e-05
4.356543101535473e-07,9.308381437580687e-07,8.096483553234062e-07,2.0244021843127165e-05
4.3528110943806936e-07,9.265508168704396e-07,7.963998425499643e-07,2.081666385021448e-05
4.3483598848603995e-07,9.222722574914184e-07,7.834696298368279e-07,2.1403068612913384e-05
4.343084924067585e-07,9.179930725514492e-07,7.709214900270455e-07,2.200022088888696e-05
4.336891391874829e-07,9.137105445574871e-07,7.588089916904538e-07,2.260523393136355e-05
4.329701048931361e-07,9.094241638458988e-07,7.47172096970113e-07,2.321528318556083e-05
4.3214403331845577e-07,9.051319498784855e-07,7.360385009779656e-07,2.3827551852860376e-05
4.3120243229582565e-07,9.008299786580671e-07,7.254251452039383e-07,2.4439193640855467e-05
4.301360265000387e-07,8.965130197860828e-07,7.153387909712073e-07,2.504729137740506e-05
4.2893609189169433e-07,8.92175322488236e-07,7.057764829717524e-07,2.5648859056668438e-05
4.275946547698717e-07,8.878108172783421e-07,6.967267713595857e-07,2.624090161209767e-05
4.26104124318094e-07,8.834131657748027e-07,6.881712192513615e-07,2.6820451745383875e-05
4.244574786979753e-07,8.789776905596929e-07,6.800856299268889e-07,2.7384576848297892e-05
4.2264818818168717e-07,8.745034667563286e-07,6.724424377785879e-07,2.7930436702920508e-05
4.2066940335569796e-07,8.699941197680442e-07,6.652151029324916e-07,2.845539508690688e-05
4.185134528046421e-07,8.654597502214531e-07,6.583819930182568e-07,2.895709275961932e-05
4.16172482240495e-07,8.609176256228542e-07,6.519263013842144e-07,2.943340293131016e-05
4.136397425609407e-07,8.563872310948516e-07,6.458326968368068e-07,2.9882310742080145e-05
4.109106541221515e-07,8.518854125390904e-07,6.400847770588209e-07,3.0301852204382227e-05
4.079836174782133e-07,8.47428669278418e-07,6.346646689066342e-07,3.069017757324334e-05
4.0486046736044676e-07,8.43036795685483e-07,6.295535112033285e-07,3.1045678206211546e-05
4.0154618297691064e-07,8.387298849033423e-07,6.24732022365331e-07,3.136711674735165e-05
3.9804810631334603e-07,8.345219000965974e-07,6.201807677819382e-07,3.165373951041671e-05
3.943755443043761e-07,8.304174335751346e-07,6.158807450119144e-07,3.1905295852675875e-05
3.905415259034613e-07,8.264126475713786e-07,6.118140424947727e-07,3.2121912193132864e-05
3.8656625891400745e-07,8.224992621786437e-07,6.079627479706637e-07,3.230389570514234e-05
3.824777516730507e-07,8.186717338724336e-07,6.043079082147624e-07,3.245156586320041e-05
3.7830803756014853e-07,8.149356269798918e-07,6.008320069957646e-07,3.2565176407159866e-05
3.740889480887704e-07,8.113101439332798e-07,5.975215314739347e-07,3.264494650289161e-05
3.6985012401540326e-07,8.07820448428906e-07,5.943652362780904e-07,3.2691121863467264e-05
3.656183613240632e-07,8.044866948351803e-07,5.913527495016852e-07,3.270400667933876e-05
3.614171741751455e-07,8.013186773859347e-07,5.884772041410068e-07,3.268407889376082e-05
3.5726656511650134e-07,7.983161219814681e-07,5.857367191035703e-07,3.263226898659801e-05
3.531831024431079e-07,7.954722422282959e-07,5.831309436602868e-07,3.255018708697069e-05
3.49180161242633e-07,7.927803581492714e-07,5.806564072374415e-07,3.2440060539023496e-05
3.452683882365131e-07,7.902413918692219e-07,5.783067722568089e-07,3.2304470495881216e-05
3.4145703088272465e-07,7.878687433338927e-07,5.760793064559303e-07,3.2146074067887566e-05
3.377563913849413e-07,7.8568716662623e-07,5.739822723739534e-07,3.1967413648035794e-05
3.341799528561706e-07,7.837251929456584e-07,5.720381972316244e-07,3.1770982996162654e-05
3.307437199701864e-07,7.82007657057458e-07,5.702834718629447e-07,3.155955213760394e-05
3.2746299230143017e-07,7.805545748371676e-07,5.687649385750085e-07,3.1336392584416235e-05
3.243500519294085e-07,7.793852822234403e-07,5.675326632319443e-07,3.1105194950681555e-05
3.214137644966716e-07,7.785260199721855e-07,5.666326385818478e-07,3.086985010216689e-05
3.1865940731593e-07,7.780209046041027e-07,5.661033119741979e-07,3.063424974621397e-05
3.160886931268285e-07,7.779385475002809e-07,5.659738626770501e-07,3.0402113560124078e-05
3.137001532110688e-07,7.783643513432416e-07,5.662632315100833e-07,3.0176840921362733e-05
3.114893944917925e-07,7.793847898273406e-07,5.669811145475454e-07,2.996140470462906e-05
3.0945011779011266e-07,7.810774011590144e-07,5.681287978820819e-07,2.9758294986411144e-05
3.075761782748659e-07,7.835080569323484e-07,5.696996670834506e-07,2.9569502837555256e-05
3.058623998255467e-07,7.867299320415066e-07,5.71682762963631e-07,2.9396521647243902e-05
3.0430366891801855e-07,7.907808027608245e-07,5.740669787097544e-07,2.9240343446058422e-05
3.028945355296977e-07,7.95679518771738e-07,5.768396737253797e-07,2.9101451290507386e-05
3.016294306203125e-07,8.014252053934159e-07,5.79981474027027e-07,2.897982777495981e-05
3.0050326875156844e-07,8.079998121576157e-07,5.83464450534669e-07,2.8874995313230904e-05
2.9951316347177236e-07,8.153718689625949e-07,5.872555633449311e-07,2.878610419451225e-05
2.986599402547275e-07,8.234999378711861e-07,5.91323612989949e-07,2.871207336722204e-05
2.979482866429892e-07,8.323355531409687e-07,5.956476018671335e-07,2.86517497264303e-05
2.973857123588704e-07,8.418265501139903e-07,6.002210197618516e-07,2.8604031222141774e-05
2.969803005298653e-07,8.519211277296173e-07,6.050481983902457e-07,2.856792912935516e-05
2.9673804135800227e-07,8.625722892546926e-07,6.101370879774007e-07,2.8542585305574304e-05
2.966610940261812e-07,8.737401786080009e-07,6.154956229853127e-07,2.8527260693366667e-05
2.9674758504522577e-07,8.853874835748968e-07,6.211335487664337e-07,2.8521300297997583e-05
2.969923625832221e-07,8.974706571708416e-07,6.270648197180454e-07,2.8524082319960808e-05
2.9738744684897084e-07,9.099360596306142e-07,6.333064543345342e-07,2.8534947827219826e-05
2.979220135002936e-07,9.227209279997684e-07,6.39876172183193e-07,2.8553123355913238e-05
2.9858283814227145e-07,9.357539036138584e-07,6.46791101467907e-07,2.8577707837200292e-05
2.9935552057378203e-07,9.489561605521082e-07,6.54065645171043e-07,2.8607757527914477e-05
3.0022673261137646e-07,9.622455658180338e-07,6.617070552444868e-07,2.8642378953293195e-05
3.011877409504431e-07,9.755429916332664e-07,6.697112354319161e-07,2.8680751317864568e-05
3.022366087943708e-07,9.887791489801856e-07,6.780616315549685e-07,2.8722105942080162e-05
3.033765033405179e-07,1.0018985916294257e-06,6.867303787749265e-07,2.8765704800292425e-05
3.046126037513757e-07,1.0148567141964156e-06,6.956813245295796e-07,2.881080893163833e-05
3.0595050135128603e-07,1.0276120869947785e-06,7.048758339650214e-07,2.885660404036318e-05
3.0739606747053065e-07,1.040120005149895e-06,7.142779744953248e-07,2.8902102870455805e-05
3.0895697961180293e-07,1.0523293425747601e-06,7.23854011925523e-07,2.8946103623636805e-05
3.1064464215060837e-07,1.0641830014181105e-06,7.335676441488869e-07,2.8987248577771636e-05
3.124732377322056e-07,1.075620868120816e-06,7.433776170228219e-07,2.902414956006239e-05
3.144557108175023e-07,1.0865844256091677e-06,7.532400538236585e-07,2.9055536937056776e-05
3.1659978750311924e-07,1.0970238769308806e-06,7.631115025289753e-07,2.9080427178601038e-05
3.189064876028143e-07,1.1069044102743259e-06,7.729499830356109e-07,2.909825823350736e-05
3.2137157134011576e-07,1.1162065265159944e-06,7.827157278500467e-07,2.910887653277524e-05
3.23989036412878e-07,1.1249215742090756e-06,7.92373069941237e-07,2.911234975930819e-05
3.2675487225234983e-07,1.133046216550105e-06,8.018917093383534e-07,2.910872873251045e-05
3.296682160814089e-07,1.140577588784688e-06,8.112452081561932e-07,2.909790760256989e-05
3.327294329666125e-07,1.147509899062994e-06,8.204079163479399e-07,2.907961404798457e-05
3.359383604586113e-07,1.1538322248956438e-06,8.293538507929998e-07,2.9053443885073437e-05
3.392938302583914e-07,1.1595283876510948e-06,8.38058962202608e-07,2.901889011419627e-05
3.4279413165129853e-07,1.1645813684281131e-06,8.465049033845334e-07,2.89754503230236e-05
3.464386392732891e-07,1.168980897816595e-06,8.546810721225579e-07,2.8922898779655127e-05
3.5022747698349746e-07,1.1727272844789038e-06,8.625824746924689e-07,2.886156911944068e-05
3.541579537452353e-07,1.1758273592466105e-06,8.702046716992016e-07,2.8792382170706676e-05
3.5822210574854266e-07,1.178289105688099e-06,8.775404325187542e-07,2.871662228782221e-05
3.624070544559225e-07,1.1801226239569157e-06,8.845802103877629e-07,2.8635663353072826e-05
3.666961735608546e-07,1.1813428727040298e-06,8.913132831074458e-07,2.855078057469431e-05
3.710715175960033e-07,1.1819683269484871e-06,8.977271003165067e-07,2.846315938648929e-05
3.755186298643753e-07,1.18202217649883e-06,9.038079701217743e-07,2.8374141352137365e-05
3.800306664256189e-07,1.181539876781152e-06,9.095460512255396e-07,2.8285481463801032e-05
3.846083073957904e-07,1.1805726019118505e-06,9.149417662232521e-07,2.8199356738919667e-05
3.892568185357561e-07,1.1791808451463134e-06,9.200095075079672e-07,2.811818827432157e-05
3.9398300919234207e-07,1.177425444792864e-06,9.247777138288769e-07,2.804446198278667e-05
3.9879243716040134e-07,1.175361434696547e-06,9.2928508754422e-07,2.79805741542756e-05
4.0368669834111856e-07,1.1730340866225707e-06,9.335730433023071e-07,2.792867131606449e-05
4.086612002972288e-07,1.1704783920339593e-06,9.376777256107584e-07,2.789051510533471e-05
4.137042501356056e-07,1.1677229998760342e-06,9.4162527431908e-07,2.786742330686729e-05
4.1879794488371156e-07,1.1647930371035645e-06,9.454300155957443e-07,2.7860290122040118e-05
4.239197997667548e-07,1.1617076444799314e-06,9.490938791360328e-07,2.786963248367464e-05
4.290442986584621e-07,1.1584767373013851e-06,9.526071638808908e-07,2.7895605791319184e-05
4.3414515434059926e-07,1.155100854664694e-06,9.559513261644124e-07,2.7937979689843817e-05
4.391983866052125e-07,1.151572064649084e-06,9.591032684072912e-07,2.799611141615619e-05
4.4418429408758793e-07,1.1478749100975254e-06,9.620392567245147e-07,2.806894874049227e-05
4.490867479180662e-07,1.143989346766312e-06,9.647370471166196e-07,2.8155078818715285e-05
4.5389138191048146e-07,1.139895878404978e-06,9.67177526011878e-07,2.825284080837588e-05
4.5858479606444285e-07,1.135580556318813e-06,9.693478696296304e-07,2.8360471036804308e-05
4.6315390815863477e-07,1.1310376017473422e-06,9.712452582800682e-07,2.847620421743656e-05
4.675844395359479e-07,1.1262678279995935e-06,9.728786693849371e-07,2.8598320774821296e-05
4.7185970176536295e-07,1.1212733734763066e-06,9.742681547230369e-07,2.872520207480059e-05
4.759606445089846e-07,1.1160534356386073e-06,9.754419471559278e-07,2.8855397837578887e-05
4.798662756125234e-07,1.1106035911627614e-06,9.764307846862557e-07,2.898763618250079e-05
4.83554208270379e-07,1.104916231076489e-06,9.772609996608134e-07,2.9120751124581318e-05
4.87003220653355e-07,1.0989809237923105e-06,9.779505350178006e-07,2.9253574917658063e-05
4.901971372165996e-07,1.0927861241156484e-06,9.78508567250061e-07,2.938484915312395e-05
4.931265343884705e-07,1.0863211449737318e-06,9.789355361366607e-07,2.951320150909848e-05
4.957877347982522e-07,1.0795757481399522e-06,9.792228175115865e-07,2.9637210832846418e-05
4.981802092370439e-07,1.0725400419401778e-06,9.79354218186357e-07,2.9755499889461767e-05
5.003030111420118e-07,1.065209598105792e-06,9.793091759277338e-07,2.9866765111978133e-05
5.021523759493008e-07,1.0575928801433674e-06,9.790652657635904e-07,2.996974100745225e-05
5.037218620078603e-07,1.0497128254140677e-06,9.785989720571344e-07,3.006317363847427e-05
5.050036254361105e-07,1.0416005404857026e-06,9.778859226976508e-07,3.0145842898673494e-05
5.059896871470184e-07,1.0332884035393496e-06,9.769022468426523e-07,3.021657715106506e-05
5.066733352992752e-07,1.0248083236405716e-06,9.75626934246484e-07,3.0274202101366094e-05
5.070498917718147e-07,1.0161913689498523e-06,9.74044207740314e-07,3.0317488641072315e-05
5.071164447816832e-07,1.0074659493027005e-06,9.721453474917605e-07,3.0345227246993733e-05
5.068717554700699e-07,9.9865762739203e-07,9.699285441024722e-07,3.0356460814819946e-05
5.063163197547625e-07,9.897900358476576e-07,9.673956252886804e-07,3.03507341744966e-05
5.054514391691111e-07,9.808842882708167e-07,9.645482485957222e-07,3.032816096622439e-05
5.042780085562666e-07,9.719583496035726e-07,9.61386917244743e-07,3.028928616702713e-05
5.027972220925e-07,9.630274179562023e-07,9.579123527349238e-07,3.023488797068479e-05
5.010137032644028e-07,9.541044284992523e-07,9.541270382810014e-07,3.0165805153405004e-05
4.989391393328659e-07,9.452024525314433e-07,9.500351562515955e-07,3.008280430930235e-05
4.965936692466518e-07,9.36339956200732e-07,9.45640788481377e-07,2.9986522913549745e-05
4.940042871550826e-07,9.275447462601112e-07,9.409459227478985e-07,2.987749480127e-05
4.912036334174591e-07,9.188530030632723e-07,9.359490467257237e-07,2.975620274912288e-05
4.8823038576542e-07,9.103049912463082e-07,9.306455346250338e-07,2.962309085362713e-05
4.851276135744927e-07,9.019426943249979e-07,9.250319118572063e-07,2.9478565312037678e-05
4.819390687586933e-07,8.938116800683269e-07,9.191109464424929e-07,2.9323149814138136e-05
4.787060715826168e-07,8.859608621808373e-07,9.128911149721209e-07,2.9157775299985133e-05
4.754647238727147e-07,8.784360665481674e-07,9.063819662415428e-07,2.898388746120764e-05
4.722444831177101e-07,8.712761612801156e-07,8.995916724552166e-07,2.880324493947365e-05
4.690698476294075e-07,8.645182260768084e-07,8.925272375607808e-07,2.861764515225713e-05
4.659624984950839e-07,8.582026600008052e-07,8.85196249708798e-07,2.8428866347138373e-05
4.629412302110567e-07,8.523687330319721e-07,8.776100624175773e-07,2.8238834118851287e-05
4.600212007481369e-07,8.470453996563277e-07,8.697843225533415e-07,2.8049729800802004e-05
4.572145313994215e-07,8.422464955652657e-07,8.617350285715698e-07,2.7863906837599164e-05
4.545317087124491e-07,8.379710008474375e-07,8.534753761803622e-07,2.7683747463300208e-05
4.5198169081114166e-07,8.342066209624419e-07,8.450159156370131e-07,2.751156027392116e-05
4.495703969004038e-07,8.309407122536946e-07,8.363659259808618e-07,2.734952162533394e-05
4.472998853908866e-07,8.281768935678413e-07,8.275369573511582e-07,2.719962483270176e-05
4.451698035992682e-07,8.259434667917848e-07,8.185485415946096e-07,2.7063599160367898e-05
4.4318020381573e-07,8.242872194153003e-07,8.094307887977814e-07,2.6942816027546412e-05
4.413329267390482e-07,8.232604682439122e-07,8.002218621397892e-07,2.683823984388697e-05
4.396295845444235e-07,8.229080985353278e-07,7.909646351124013e-07,2.6750455032513384e-05
4.380686239678978e-07,8.232584991254686e-07,7.817049205685838e-07,2.667973484775615e-05
4.366447598197955e-07,8.243213754246413e-07,7.724894541275491e-07,2.6626069101996757e-05
4.3534963204556066e-07,8.260895145758618e-07,7.633630950690566e-07,2.658911758273596e-05
4.341721967561059e-07,8.285416514261535e-07,7.543677853053392e-07,2.656816621799356e-05
4.3310036024077284e-07,8.316468458901687e-07,7.455447800194481e-07,2.6562169401539882e-05
4.3212402758045493e-07,8.35368778593003e-07,7.369366010827936e-07,2.6569861687211967e-05
4.312368629134778e-07,8.396683750518364e-07,7.285843567726746e-07,2.658987393932661e-05
4.304353260400548e-07,8.445039765091439e-07,7.205230205998447e-07,2.662083037581578e-05
4.2971637551322715e-07,8.498291650763906e-07,7.12781388165086e-07,2.6661429432877066e-05
4.2907560963039213e-07,8.555924513551295e-07,7.053873499079618e-07,2.6710501131966212e-05
4.2850677104019754e-07,8.61741643953031e-07,6.98370752605247e-07,2.6767043599025065e-05
4.280024963776755e-07,8.682298209786993e-07,6.917593329016911e-07,2.6830236837570364e-05
4.275553001912176e-07,8.750194596487459e-07,6.8557367708887e-07,2.689941122143669e-05
4.2715797744561963e-07,8.820839745155319e-07,6.798271306420625e-07,2.697396854423317e-05
4.26803797253556e-07,8.894062717921683e-07,6.745287965047994e-07,2.7053272531329887e-05
4.264876851870365e-07,8.969741973716362e-07,6.696859862143753e-07,2.713654582401973e-05
4.2620730947263897e-07,9.047742378843576e-07,6.653061086816189e-07,2.722286292254204e-05
4.2596170657412976e-07,9.127859271642851e-07,6.613984466054265e-07,2.731127140668384e-05
4.257487830631273e-07,9.2098112505294e-07,6.579740030762335e-07,2.7400908809568445e-05
4.2556427238607343e-07,9.293304601522062e-07,6.550430802781161e-07,2.7490997393314623e-05
4.254014277971314e-07,9.37811878968936e-07,6.526118999253756e-07,2.758076276747123e-05
4.2525058218626463e-07,9.464140060921482e-07,6.506800010475987e-07,2.766934377368843e-05
4.250997659857382e-07,9.551321072472462e-07,6.492407389189232e-07,2.7755729611603648e-05
4.249358740738575e-07,9.639595734715477e-07,6.482833262588807e-07,2.7838785915777332e-05
4.2474472905912537e-07,9.72880142913607e-07,6.477946699554814e-07,2.7917346583465693e-05
4.245105314398481e-07,9.818654071378456e-07,6.47764338510361e-07,2.799025347513955e-05
4.2421624329817037e-07,9.908789933247357e-07,6.481906733504555e-07,2.80563154571156e-05
4.238465616746685e-07,9.998826613569357e-07,6.490794142994503e-07,2.811427131581303e-05
4.233927814932729e-07,1.0088374365573609e-06,6.504355947348794e-07,2.8162843866266804e-05
4.228545489791019e-07,1.0177003067319195e-06,6.52257925743612e-07,2.820090957795578e-05
4.22235771203581e-07,1.0264225151107187e-06,6.545382739228264e-07,2.822769518332033e-05
4.215394022117154e-07,1.034952656615522e-06,6.57263112334764e-07,2.8242855462627397e-05
4.2076632260062214e-07,1.043241710178599e-06,6.6041481471373e-07,2.8246381148743572e-05
4.199163973532222e-07,1.0512463853508112e-06,6.639713008012828e-07,2.8238403924020543e-05
4.18987967750232e-07,1.058932712172267e-06,6.679045824677377e-07,2.821901618658293e-05
4.179775173805232e-07,1.0662791938894605e-06,6.721795451160597e-07,2.8188202292438008e-05
4.168822011004508e-07,1.0732735702596478e-06,6.76753504932869e-07,2.8145854723155048e-05
4.1570277004054973e-07,1.0799049207473027e-06,6.815784966793936e-07,2.809178734488448e-05
4.144431295385283e-07,1.0861587798958891e-06,6.86605411754794e-07,2.8025796966093102e-05
4.131074158603564e-07,1.0920173202555022e-06,6.91785422082824e-07,2.7947890708025496e-05
4.116979576675938e-07,1.0974627818655458e-06,6.970681837201449e-07,2.785856479226557e-05
4.102147827327858e-07,1.1024804139356085e-06,7.024002442665196e-07,2.7758861946891755e-05
4.086556316763526e-07,1.1070567889009543e-06,7.077249661449434e-07,2.765016458223645e-05
4.070168827207682e-07,1.1111791293959316e-06,7.129829156999139e-07,2.7533928725316668e-05
4.0529513031882683e-07,1.114844072511734e-06,7.181124824845001e-07,2.741151871811718e-05
4.0348731583849726e-07,1.1180679643734966e-06,7.230517171157998e-07,2.7284202051892638e-05
4.015894540496991e-07,1.1208838482144224e-06,7.277418787388368e-07,2.715334588113275e-05
3.9959627130096047e-07,1.1233272738067585e-06,7.321314007042326e-07,2.7020691281034093e-05
3.975023095932342e-07,1.1254253594475833e-06,7.361782830885554e-07,2.688843315695285e-05
3.953029017690019e-07,1.127194459562644e-06,7.398502708747975e-07,2.675906163539484e-05
3.929937743236107e-07,1.1286446932382978e-06,7.431227953748028e-07,2.663514918473969e-05
3.905698835958256e-07,1.1297916694203493e-06,7.459755542506687e-07,2.651918670784583e-05
3.880251791136642e-07,1.130668674516203e-06,7.483901146963917e-07,2.641346901275312e-05
3.853540590502812e-07,1.1313286589599493e-06,7.503490347256011e-07,2.6320019283197603e-05
3.825530744354943e-07,1.131836917813298e-06,7.518353340449909e-07,2.624054557081198e-05
3.796212914108897e-07,1.1322614296650923e-06,7.528328978859943e-07,2.617642869893796e-05
3.7655996192047594e-07,1.1326640618498001e-06,7.533278117365832e-07,2.6128730364549968e-05
3.733719541443632e-07,1.1330948353508444e-06,7.533088746899806e-07,2.6098185778396647e-05
3.700610394648435e-07,1.1335903983283834e-06,7.527675336608898e-07,2.6085156450746264e-05
3.666325822318587e-07,1.1341753178721134e-06,7.516985458074459e-07,2.6089565962881924e-05
3.6309508728642814e-07,1.1348653533811993e-06,7.501010570539179e-07,2.611087290447888e-05
3.5946015843087026e-07,1.135671001622533e-06,7.479794726142365e-07,2.614813454865921e-05
3.557409398803137e-07,1.1365968969695156e-06,7.453432924691916e-07,2.620016309792079e-05
3.5195096689517045e-07,1.1376370605202551e-06,7.422054879460109e-07,2.62656904590274e-05
3.481043007796244e-07,1.1387717273713495e-06,7.385809384459471e-07,2.634345267822683e-05
3.442156189410182e-07,1.1399678193190798e-06,7.344854984981056e-07,2.643220410834942e-05
3.4029917994958427e-07,1.1411809622393105e-06,7.299352999293056e-07,2.6530732914665974e-05
3.363679273712984e-07,1.142359017663992e-06,7.249474488651835e-07,2.6637898796841785e-05
3.3243322450411125e-07,1.1434484812333194e-06,7.195417829226714e-07,2.6752650490737265e-05
3.28504724206472e-07,1.1444024248242466e-06,7.137418463164346e-07,2.687399382964285e-05
3.245909089021068e-07,1.1451850353298328e-06,7.075746931231694e-07,2.700091655601055e-05
3.206998122807627e-07,1.1457692939226236e-06,7.010693885795169e-07,2.713229510854798e-05
3.168392095766231e-07,1.14613124631059e-06,6.942550981319419e-07,2.726684950132499e-05
3.1301671477334926e-07,1.1462466244065272e-06,6.871607522353914e-07,2.7403198582320365e-05
3.0923942260295204e-07,1.146091167453731e-06,6.798160738255355e-07,2.753995082472366e-05
3.055129871912484e-07,1.1456435990399158e-06,6.722530835576294e-07,2.767573150846032e-05
3.0184103340362147e-07,1.1448888830475832e-06,6.645070044035138e-07,2.7809155374568372e-05
2.9822508039828303e-07,1.1438176539382158e-06,6.566141992385058e-07,2.793882147435102e-05
2.9466484387603934e-07,1.1424223682991709e-06,6.486083982979864e-07,2.806335977820279e-05
2.911592699572499e-07,1.140695122925134e-06,6.405191375869648e-07,2.8181469556654687e-05
2.8770809995429857e-07,1.1386277475650146e-06,6.323727004201747e-07,2.8291912371787798e-05
2.8431283014740536e-07,1.136211034436632e-06,6.241934525259561e-07,2.8393559532426892e-05
2.8097680355559587e-07,1.1334333194754615e-06,6.160052635058769e-07,2.8485543722999156e-05
2.777054977640264e-07,1.1302811563193581e-06,6.078330063024878e-07,2.856737790375897e-05
2.7450676694082237e-07,1.1267409343149806e-06,5.997032815335189e-07,2.863894099028392e-05
2.713899040089579e-07,1.1227988340471423e-06,5.916475468573879e-07,2.870037622843003e-05
2.683646648744751e-07,1.1184411622837507e-06,5.837099582578453e-07,2.875196260110318e-05
2.654410053834104e-07,1.1136567882076306e-06,5.759527873637933e-07,2.8793971170825586e-05
2.62628401392142e-07,1.1084388995478222e-06,5.684517886446494e-07,2.8826530638427124e-05
2.599358029674419e-07,1.1027846706252976e-06,5.612840301080489e-07,2.8849585713336665e-05
2.5737290215008114e-07,1.0966947801837478e-06,5.545176006593446e-07,2.886297884940162e-05
2.549500029331481e-07,1.0901730812154456e-06,5.482098139117783e-07,2.8866552885944158e-05
2.526756448677957e-07,1.0832255329549777e-06,5.424116744346104e-07,2.886018699325707e-05
2.505545102187498e-07,1.0758599277538171e-06,5.371714192413846e-07,2.8843781060119733e-05
2.4858699289784415e-07,1.0680876031656454e-06,5.325335873118163e-07,2.881724398463778e-05
2.467697410913357e-07,1.0599252467816243e-06,5.285358474877485e-07,2.8780580594329936e-05
2.450964270089334e-07,1.0513943672824065e-06,5.252070825314577e-07,2.873407669706938e-05
2.4355856954699465e-07,1.0425181098538091e-06,5.225678896858659e-07,2.8678362362192297e-05
2.421465678333372e-07,1.033317644580133e-06,5.206312469351625e-07,2.8614283749031915e-05
2.408506950247603e-07,1.0238126920171775e-06,5.194009855152385e-07,2.8542785427988092e-05
2.3966149938691946e-07,1.0140301137616815e-06,5.188705280323931e-07,2.846485179577829e-05
2.385699099246654e-07,1.004015269567522e-06,5.190270174145083e-07,2.8381429570786767e-05
2.375676309743652e-07,9.938330163600915e-07,5.198619794861286e-07,2.829336057894168e-05
2.366476437005741e-07,9.835554748845892e-07,5.213827631132188e-07,2.8201350733918762e-05
2.3580403732949072e-07,9.732481039653477e-07,5.236169071744852e-07,2.810595265199166e-05
2.3503137649858199e-07,9.629642836290779e-07,5.266064308123859e-07,2.8007549440274122e-05
2.3432548897641763e-07,9.527507064389131e-07,5.303956040073536e-07,2.790633632441857e-05
2.33685169124054e-07,9.426598698515572e-07,5.3502007457235e-07,2.780231417402794e-05
2.3311192466083678e-07,9.327589187602337e-07,5.405042389843508e-07,2.7695309367841493e-05
2.326082149461945e-07,9.231271518811541e-07,5.468669231389676e-07,2.758500319540189e-05
2.321760509477243e-07,9.138475161372455e-07,5.541300805394134e-07,2.747096047530469e-05
2.3181563910672923e-07,9.049982387849872e-07,5.623255293015108e-07,2.7352682991032127e-05
2.315241690352745e-07,8.966449236491743e-07,5.714960628694636e-07,2.722968779710809e-05
2.312957732520493e-07,8.888353725608883e-07,5.816902583892844e-07,2.710154188263526e-05
2.311227651973585e-07,8.815988725416991e-07,5.929554068531441e-07,2.6967814386938932e-05
2.309971943113386e-07,8.749479477922994e-07,6.053323433181125e-07,2.6828017081066848e-05
2.309117530321827e-07,8.688809426178266e-07,6.188513547775433e-07,2.668160011529968e-05
2.3086016667474185e-07,8.633848634621704e-07,6.335278978574686e-07,2.6527987611822132e-05
2.308370785413229e-07,8.584375829432917e-07,6.493588293465082e-07,2.63666256899418e-05
2.3083761089121012e-07,8.540092724898824e-07,6.6632123523507e-07,2.619703007434719e-05
2.308580584094206e-07,8.500644861398036e-07,6.843752426253031e-07,2.6018822252088266e-05
2.308971163827117e-07,8.465641490816896e-07,7.034673942715543e-07,2.5831753983414915e-05
2.3095581652422923e-07,8.434654704005292e-07,7.235303193174237e-07,2.5635726038826195e-05
2.310375653496355e-07,8.407224777684978e-07,7.444813757086106e-07,2.5430806526373707e-05
2.311490543119968e-07,8.382895480584366e-07,7.662245612855735e-07,2.5217235974415727e-05
2.312990522044354e-07,8.361247679885247e-07,7.886550214914549e-07,2.4995391716154542e-05
2.31494838175248e-07,8.341900988123925e-07,8.116650836745667e-07,2.476571664960379e-05
2.317403432876265e-07,8.324489223212462e-07,8.351519001145137e-07,2.452864723228597e-05
2.3203750452476463e-07,8.308636774670888e-07,8.590244950775412e-07,2.428458900215896e-05
2.323884139332056e-07,8.29395295963354e-07,8.832068261197006e-07,2.40339922765367e-05
2.327955723542699e-07,8.280035236863365e-07,9.076353994327171e-07,2.377745953506268e-05
2.3326066611321267e-07,8.26647133702462e-07,9.322519539129307e-07,2.3515717127982683e-05
2.3378491073235391e-07,8.252840690108278e-07,9.569937080832345e-07,2.3249469223556376e-05
2.343702398930601e-07,8.238734638927792e-07,9.81787127234955e-07,2.297932017702248e-05
2.3501873590689765e-07,8.223812444055305e-07,1.0065492180836911e-06,2.2705837665746016e-05
2.35732003435157e-07,8.207845608477495e-07,1.0311917945323696e-06,2.242969047158393e-05
2.3651137356197163e-07,8.190698599787716e-07,1.0556228439117457e-06,2.2151755219238822e-05
2.37357549658075e-07,8.172276537038265e-07,1.0797465197479816e-06,2.187310285834511e-05
2.3827039116783533e-07,8.152484686414053e-07,1.103464232488924e-06,2.1594868026249014e-05
2.3924979724890326e-07,8.131205375002549e-07,1.1266749126371335e-06,2.1318094198662364e-05
2.4029775291702037e-07,8.108296487011734e-07,1.149275521619684e-06,2.104367496121168e-05
2.4141961670718276e-07,8.083619468429044e-07,1.1711651784095286e-06,2.077246112297356e-05
2.426222824192985e-07,8.05708470169965e-07,1.1922499081790217e-06,2.0505458381997287e-05
2.439117631731966e-07,8.028690798859546e-07,1.212443256005167e-06,2.024393956788201e-05
2.452930139393349e-07,7.998562164636998e-07,1.231663435114179e-06,1.9989376779126627e-05
2.467699699432173e-07,7.966994629301388e-07,1.2498302488916831e-06,1.974324778102897e-05
2.4834446004493737e-07,7.934459660573834e-07,1.266864058439696e-06,1.9506828002399967e-05
2.500156024230634e-07,7.901523661668241e-07,1.2826871735046355e-06,1.9281065142195028e-05
2.517808248761685e-07,7.868735119384268e-07,1.2972259997131077e-06,1.9066579165996727e-05
2.5363844530929144e-07,7.836558562509533e-07,1.3104117931753971e-06,1.8863739731024728e-05
2.555904447251465e-07,7.805378122719474e-07,1.3221797940679102e-06,1.8672764965678102e-05
2.576434222264184e-07,7.775533399539278e-07,1.332468849435792e-06,1.8493887507746345e-05
2.598081100106626e-07,7.747345168554149e-07,1.3412235904496254e-06,1.832760597773076e-05
2.620984939904742e-07,7.721135912587608e-07,1.348399360952296e-06,1.8174847878445204e-05
2.645292536223977e-07,7.697230094503823e-07,1.3539692416032594e-06,1.8036888480749826e-05
2.671119281104932e-07,7.675918093901426e-07,1.3579312631497046e-06,1.7915111314930703e-05
2.6985305348524946e-07,7.65746078398554e-07,1.360310740203931e-06,1.781075650138248e-05
2.727549672630496e-07,7.642160280169082e-07,1.3611536850404344e-06,1.7724759281010022e-05
2.758168002018975e-07,7.630375966069377e-07,1.3605150171231777e-06,1.765783605511732e-05
2.790346316529028e-07,7.622432235736181e-07,1.3584496828875035e-06,1.7610809571344372e-05
2.824024980937809e-07,7.61852906674769e-07,1.355009085058678e-06,1.758484969112341e-05
2.859142890043363e-07,7.618761191232494e-07,1.3502398588701902e-06,1.7581426109878854e-05
2.8956383624031246e-07,7.623243618455201e-07,1.3441836579015642e-06,1.760212133143732e-05
2.9334335539369175e-07,7.63224455491323e-07,1.336878296208817e-06,1.76484642550517e-05
2.972428827974067e-07,7.64621001347215e-07,1.3283611042386962e-06,1.772178554378889e-05
3.012503166401023e-07,7.66567131398554e-07,1.3186749365829942e-06,1.7823085574086512e-05
3.053508332482707e-07,7.691108446879016e-07,1.3078742226000768e-06,1.7952957354287646e-05
3.095265061549872e-07,7.722842921309917e-07,1.2960268234593777e-06,1.8111587582900687e-05
3.137566867898036e-07,7.761010111605363e-07,1.2832099610194062e-06,1.829880624050751e-05
3.180197633486247e-07,7.805589742113007e-07,1.2695028939130159e-06,1.8514131075576143e-05
3.222966277204146e-07,7.856433703998982e-07,1.2549815470768783e-06,1.875676559762273e-05
3.2657384869977423e-07,7.913281083006511e-07,1.239718101656172e-06,1.902556052016332e-05
3.3084423356111133e-07,7.975777839354115e-07,1.223783894295843e-06,1.9318978747594304e-05
3.351038878471721e-07,8.043488243321615e-07,1.207251489124002e-06,1.963508095795972e-05
3.3934765638284867e-07,8.115888148075216e-07,1.1901938570594714e-06,1.997155173758573e-05
3.435668691112541e-07,8.192367226601556e-07,1.172683876351461e-06,2.0325796418867415e-05
3.477499850166761e-07,8.272268898541559e-07,1.1547960354048564e-06,2.069508133971043e-05
3.5188440302132637e-07,8.354954660268416e-07,1.136605810493817e-06,2.1076650437113e-05
3.559585706394891e-07,8.43984227399614e-07,1.1181853560275243e-06,2.1467812275738085e-05
3.599626755802737e-07,8.526401754769405e-07,1.0996001340688018e-06,2.1866024352816927e-05
3.638878807902713e-07,8.614144435566116e-07,1.0809085362115676e-06,2.226892992750173e-05
3.677258545924911e-07,8.702622936960038e-07,1.0621636747881935e-06,2.2674300533816674e-05
3.71467869918465e-07,8.791436503211569e-07,1.0434174062112435e-06,2.3079940801586945e-05
3.7510309203358153e-07,8.880230370233629e-07,1.0247244082365968e-06,2.3483623803977632e-05
3.786179411818888e-07,8.968669850585726e-07,1.0061415342435415e-06,2.388305879344693e-05
3.8199711058764637e-07,9.056404928808069e-07,9.87723040180358e-07,2.427590325681456e-05
3.852251634077592e-07,9.143064854469635e-07,9.69518578230802e-07,2.4659825152759416e-05
3.882885429419447e-07,9.228265827657913e-07,9.515771089849228e-07,2.5032549160863824e-05
3.9117877057551455e-07,9.311598285876169e-07,9.339515620886988e-07,2.539185445158101e-05
3.938955566983474e-07,9.392625727021669e-07,9.166980445813058e-07,2.573557850833226e-05
3.9644750202043406e-07,9.470931235763849e-07,8.998713245769234e-07,2.606165385146806e-05
3.9885015281412e-07,9.546169086140344e-07,8.835238162632657e-07,2.636816019466299e-05
4.011218923285919e-07,9.618059637277383e-07,8.677089507392584e-07,2.665341617075994e-05
4.0327961621259344e-07,9.68635067659959e-07,8.524822297217218e-07,2.691611332361237e-05
4.053372428133224e-07,9.750799395133604e-07,8.378975294849259e-07,2.7155395415726106e-05
4.073060605142353e-07,9.811168469918941e-07,8.240034172593372e-07,2.737083999513296e-05
4.0919461544055966e-07,9.86721459414269e-07,8.108419673946859e-07,2.7562396332833534e-05
4.110088048006693e-07,9.91867201205298e-07,7.984472047470595e-07,2.773027120855894e-05
4.1275249877057774e-07,9.965241727642737e-07,7.868426294566007e-07,2.787474829844057e-05
4.144286823417151e-07,1.0006615353548678e-06,7.760416200526182e-07,2.799603425530086e-05
4.1604111149782076e-07,1.0042559945409348e-06,7.660504738463114e-07,2.809420482894928e-05
4.175943798093678e-07,1.007301511251816e-06,7.568700304988038e-07,2.816922189942229e-05
4.1909220479502616e-07,1.00981024556079e-06,7.484962745947736e-07,2.822099643441737e-05
4.205368360528433e-07,1.0118032261502792e-06,7.409213459566497e-07,2.82494815713461e-05
4.2193119997252673e-07,1.0132996689221548e-06,7.341330909883066e-07,2.8254720716139666e-05
4.2328277261840273e-07,1.0143123116391423e-06,7.281127990778088e-07,2.823681378748743e-05
4.2460529061585643e-07,1.0148500680768934e-06,7.228331409492503e-07,2.8195868049218694e-05
4.2591571601148096e-07,1.0149258305294213e-06,7.182591737846056e-07,2.813201575004895e-05
4.2722948399318687e-07,1.0145638009359824e-06,7.143542669251804e-07,2.804550095357275e-05
4.2855786232249815e-07,1.0138001303155204e-06,7.110873518588752e-07,2.793674212463141e-05
4.2990782481253e-07,1.0126759442689103e-06,7.084352169853075e-07,2.780631328062553e-05
4.312831166817169e-07,1.0112290166614651e-06,7.063784956564223e-07,2.7654889027982287e-05
4.3268620240896654e-07,1.0094921543587538e-06,7.048957845661069e-07,2.748318962332329e-05
4.3412142519096353e-07,1.0074979780699558e-06,7.039606103420605e-07,2.729192508553461e-05
4.355974785129749e-07,1.0052810897271249e-06,7.035408767091503e-07,2.7081762237358945e-05
4.371263575309395e-07,1.0028760056134097e-06,7.035978969543839e-07,2.685333768879645e-05
4.3871930547148926e-07,1.0003208778550603e-06,7.040853201818102e-07,2.6607289510849635e-05
4.403836993867997e-07,9.97666942030238e-07,7.049494066491675e-07,2.6344274431252405e-05
4.4212363500720136e-07,9.949808001880936e-07,7.061306549753881e-07,2.606496770477943e-05
4.4394266259129354e-07,9.923371627696829e-07,7.075663211771293e-07,2.5770060124453893e-05
4.4584508160099707e-07,9.898088154756523e-07,7.091923552090362e-07,2.5460280638775165e-05
4.478347242977912e-07,9.87457612744367e-07,7.109444925385101e-07,2.513643877854925e-05
4.499132148357396e-07,9.853299410490856e-07,7.127605044038691e-07,2.4799430779845102e-05
4.520785927867393e-07,9.83456630740163e-07,7.14582776933293e-07,2.445019887291644e-05
4.543239660560385e-07,9.81853980119618e-07,7.16358952775504e-07,2.4089698452044454e-05
4.566370484126655e-07,9.805252598199364e-07,7.180414581350689e-07,2.371888428310431e-05
4.590010929991791e-07,9.79462010555102e-07,7.195868704726163e-07,2.333867563124509e-05
4.6139705262543366e-07,9.78644868742465e-07,7.20955773648033e-07,2.2949908799400934e-05
4.638059227433181e-07,9.78045855271552e-07,7.221137018760938e-07,2.255332062691639e-05
4.6620978215706436e-07,9.77631377234722e-07,7.230312635338368e-07,2.214956174908392e-05
4.6859292306778567e-07,9.773642306113797e-07,7.236826837742706e-07,2.1739225913109925e-05
4.7094408017554073e-07,9.772064550992576e-07,7.240453187300139e-07,2.1322903603094333e-05
4.732568767627181e-07,9.77123678005674e-07,7.241014567306704e-07,2.0901236398001457e-05
4.755279361774767e-07,9.770877344089506e-07,7.238403049176915e-07,2.0474932296821734e-05
4.777561081321246e-07,9.770765957866527e-07,7.232587516236728e-07,2.004475607772839e-05
4.799426795833247e-07,9.770749699426156e-07,7.22362895999346e-07,1.961154184829608e-05
4.820893532771311e-07,9.770758541235059e-07,7.211697114094654e-07,1.9176237013939e-05
4.841951401260978e-07,9.770784180934366e-07,7.197041563754122e-07,1.8739928986709734e-05
4.862552055316132e-07,9.770843796388849e-07,7.179922819033639e-07,1.8303802770951894e-05
4.882609449446984e-07,9.770999075849441e-07,7.160568771815929e-07,1.7869037592926928e-05
4.901997003990473e-07,9.771380466737326e-07,7.139183963368127e-07,1.743671719161847e-05
4.920550467097292e-07,9.772129663329534e-07,7.115976111209579e-07,1.7007820788219565e-05
4.938090669569393e-07,9.773311454382186e-07,7.091169488886795e-07,1.6583258464099868e-05
4.954455388476786e-07,9.774876997502295e-07,7.065010778711843e-07,1.61638718815736e-05
4.9695135370248e-07,9.776667046598835e-07,7.03777064770569e-07,1.5750409411622158e-05
4.983151704946822e-07,9.77842164034377e-07,7.009728711043262e-07,1.5343532981412736e-05
4.99524731919636e-07,9.77980658886616e-07,6.981142780641766e-07,1.4943881053078583e-05
5.005650166525338e-07,9.780475682311218e-07,6.952226605964836e-07,1.4552188921731307e-05
5.014189100048504e-07,9.780131687362414e-07,6.923155782007643e-07,1.416941805674892e-05
5.020709190969317e-07,9.778520972271573e-07,6.894084062034629e-07,1.3796787459839133e-05
5.025109906034208e-07,9.775385272181083e-07,6.865142950048865e-07,1.3435664173942999e-05
5.027342255345998e-07,9.770447450831949e-07,6.836438794907219e-07,1.3087425799385475e-05
5.027378377454346e-07,9.76342676161306e-07,6.80806380597925e-07,1.2753443819183729e-05
5.025190877796793e-07,9.754042520856435e-07,6.780100241248687e-07,1.2435165302832532e-05
5.02074644693119e-07,9.742007894557392e-07,6.752617733875171e-07,1.2134140533608255e-05
5.014010255404165e-07,9.727024818364307e-07,6.72568926744322e-07,1.185194945356176e-05
5.004950845335403e-07,9.708788409990832e-07,6.699420599003678e-07,1.1590099510646326e-05
4.993531456885593e-07,9.687014857581565e-07,6.673976044312222e-07,1.1349936117279653e-05
4.979699271331415e-07,9.661491038667039e-07,6.649601241824413e-07,1.1132562758332049e-05
4.963390521153439e-07,9.632107325414977e-07,6.626636780269157e-07,1.0938781605560789e-05
4.944552278044366e-07,9.598839827954002e-07,6.605494808583667e-07,1.0769064370562908e-05
4.923164645022186e-07,9.56172341644857e-07,6.586591103993568e-07,1.062354918929476e-05
4.899240807351035e-07,9.520867801283323e-07,6.570273643048996e-07,1.0502070930895023e-05
4.872807279081575e-07,9.476479196690984e-07,6.556786780267376e-07,1.0404278588360657e-05
4.843892936723955e-07,9.428827562796577e-07,6.546271298208449e-07,1.0329898706703607e-05
4.812538581346795e-07,9.378177771064512e-07,6.538783988721441e-07,1.0279011896823488e-05
4.778814068136371e-07,9.324738674284542e-07,6.534324229004222e-07,1.0252075361805119e-05
4.7428301894926127e-07,9.268644228131805e-07,6.532853900352249e-07,1.0249705453020683e-05
4.704737008559891e-07,9.209959942078184e-07,6.53430172434842e-07,1.0272539395943978e-05
4.6647106258537357e-07,9.148723046916864e-07,6.538565484588657e-07,1.0321319543333163e-05
4.6229388108391353e-07,9.085008301068531e-07,6.54552451639359e-07,1.0396992835036903e-05
4.579609678317776e-07,9.018965963609562e-07,6.555060457039964e-07,1.0500644044927301e-05
4.5349012432261705e-07,8.950796085807406e-07,6.567086968440445e-07,1.0633337451032522e-05
4.4889695136147253e-07,8.880689959565456e-07,6.581570033673171e-07,1.0795992746646505e-05
4.441941126816996e-07,8.808792596547537e-07,6.598510980617376e-07,1.0989319754759714e-05
4.393916252473375e-07,8.735216421608165e-07,6.617908232508584e-07,1.1213788454197162e-05
4.3449767372399634e-07,8.660089861030744e-07,6.639729340280225e-07,1.1469602618734222e-05
4.295196979870838e-07,8.583592123453901e-07,6.663888196795468e-07,1.1756651363678515e-05
4.244652763831121e-07,8.505944930778037e-07,6.690231589059249e-07,1.2074450430138427e-05
4.193421665842146e-07,8.427379398396191e-07,6.71857074642867e-07,1.2422114390850368e-05
4.1415829049155523e-07,8.348109239793645e-07,6.748744797377046e-07,1.279838337214812e-05
4.089218248371522e-07,8.26831475397214e-07,6.780656068667254e-07,1.3201676031894465e-05
4.0364074622405746e-07,8.188140319373219e-07,6.814254848141186e-07,1.3630107087393056e-05
3.983228778157017e-07,8.107718505706931e-07,6.849490802841286e-07,1.4081463444394793e-05
3.929769592182021e-07,8.027208889521523e-07,6.886259110230921e-07,1.4553223619523168e-05
3.8761303186295976e-07,7.946810289483833e-07,6.924374825478412e-07,1.5042672627936414e-05
3.8224147556644954e-07,7.866727998178887e-07,6.963585102870366e-07,1.554703632451674e-05
3.768718191231953e-07,7.78713192071863e-07,7.003590975122226e-07,1.606354456959938e-05
3.715118942512485e-07,7.708141691676184e-07,7.04405419353267e-07,1.6589443006532682e-05
3.6616789721018206e-07,7.629832782787382e-07,7.084595131150173e-07,1.7122009706556197e-05
3.6084619421878476e-07,7.552243527096353e-07,7.124793686817831e-07,1.7658579973401972e-05
3.5555533060309724e-07,7.475373759776818e-07,7.164194288241042e-07,1.819656326830279e-05
3.503056335957439e-07,7.399181931024272e-07,7.202310976915744e-07,1.8733445753741808e-05
3.451069655165237e-07,7.323592376473476e-07,7.238637359187637e-07,1.9266779018111525e-05
3.39967106589052e-07,7.24851289584536e-07,7.272674404939401e-07,1.9794161619240832e-05
3.34891618592689e-07,7.173861638735116e-07,7.303974901200189e-07,2.0313213990501788e-05
3.298844812297875e-07,7.099590878266187e-07,7.332188517916052e-07,2.082155999837294e-05
3.2494870259349106e-07,7.025682759017207e-07,7.357082021439377e-07,2.131685836482302e-05
3.2008651209794195e-07,6.952130189576925e-07,7.378510002771934e-07,2.1796891063214675e-05
3.1529916612465426e-07,6.878938899956669e-07,7.396353837085975e-07,2.2259630902144053e-05
3.10587110784185e-07,6.80615897431216e-07,7.410482445715813e-07,2.270322278494594e-05
3.059509377177588e-07,6.733915814640049e-07,7.420753155663751e-07,2.3125927748656225e-05
3.013918231156735e-07,6.662391879834871e-07,7.427029365905386e-07,2.352610689675772e-05
2.969105148339843e-07,6.591769167808244e-07,7.429200911566809e-07,2.390224110349627e-05
2.9250618685130093e-07,6.522196493049063e-07,7.42719585009785e-07,2.425297252207142e-05
2.8817679266673265e-07,6.453808209622065e-07,7.420985319145956e-07,2.4577155085673262e-05
2.839211579605985e-07,6.386764462288695e-07,7.410617038441386e-07,2.487383840199299e-05
2.7974131170453377e-07,6.321265804321712e-07,7.39627661393567e-07,2.514217314821268e-05
2.756429734939822e-07,6.257535471300174e-07,7.378316036118193e-07,2.538133465865308e-05
2.716342901221995e-07,6.195794668591168e-07,7.357205149676349e-07,2.5590530518947336e-05
2.6772454093376194e-07,6.136235270058198e-07,7.333434031148724e-07,2.576910857147589e-05
2.6392343154142584e-07,6.078992754024974e-07,7.307442258568552e-07,2.591672612906701e-05
2.602409310904289e-07,6.024132874911678e-07,7.279609825622453e-07,2.603345080779508e-05
2.566872361653624e-07,5.971652657994956e-07,7.250272733131926e-07,2.6119706448185915e-05
2.5327183183189394e-07,5.921506651793529e-07,7.219720299027292e-07,2.6176116313527906e-05
2.5000213026064854e-07,5.87367555904336e-07,7.188178123027058e-07,2.6203347465344267e-05
2.4688345009188377e-07,5.828237956992178e-07,7.155802305647341e-07,2.6202025478942565e-05
2.4392088128406854e-07,5.785383413519919e-07,7.122683603511626e-07,2.6172726389077648e-05
2.4112184550014696e-07,5.745363829774686e-07,7.088851293826527e-07,2.6116026513836247e-05
2.3849734401157944e-07,5.708431224884864e-07,7.054284619294984e-07,2.6032636700576096e-05
2.36061541833286e-07,5.674815935773185e-07,7.018940664331012e-07,2.5923659559245184e-05
2.3383092609069854e-07,5.644746915633569e-07,6.982794455027096e-07,2.579085218711915e-05
2.318227482544489e-07,5.618471289886051e-07,6.94587480987032e-07,2.5636654729450807e-05
2.3005277796641627e-07,5.596253210066572e-07,6.908292219189363e-07,2.546394820543212e-05
2.285340741976741e-07,5.578366138816102e-07,6.870264733671794e-07,2.527574527011561e-05
2.2727759220414003e-07,5.565097754018964e-07,6.832113798884863e-07,2.507496515785481e-05
2.2629409003605685e-07,5.55674562290585e-07,6.794202561039027e-07,2.4864361332525808e-05
2.2559538792622685e-07,5.553573717674891e-07,6.75685755201902e-07,2.464669050091055e-05
2.2519375626225825e-07,5.555762519826943e-07,6.72033275630429e-07,2.4425025869342544e-05
2.2510089061913762e-07,5.563390635422653e-07,6.684823207281965e-07,2.4202901069468365e-05
2.2532737281513802e-07,5.576448285319192e-07,6.650501931094839e-07,2.3984178250423823e-05
2.2588138614924745e-07,5.594908227332377e-07,6.617543019268314e-07,2.377281587717913e-05
2.267663374398511e-07,5.618879687174811e-07,6.58610820184529e-07,2.357266827449017e-05
2.2797902821645197e-07,5.648743181334279e-07,6.556311411256366e-07,2.3387332290324483e-05
2.2950962213381434e-07,5.685125450969443e-07,6.528192368725721e-07,2.3220034817924607e-05
2.313433319352075e-07,5.728758962167598e-07,6.501730259790943e-07,2.307356418529796e-05
2.3346259121525177e-07,5.780366340155365e-07,6.476903171315467e-07,2.2950248135959163e-05
2.3584801887069282e-07,5.840605174288803e-07,6.453743089739232e-07,2.285195013300121e-05
2.384783464222335e-07,5.910029784495971e-07,6.43233123018133e-07,2.2780039044975212e-05
2.413305690508687e-07,5.989044783441693e-07,6.412749203520549e-07,2.273532870922985e-05
2.443807110498289e-07,6.077860298295918e-07,6.395035987957786e-07,2.271802870740264e-05
2.476058186097949e-07,6.176466182526659e-07,6.379168133144861e-07,2.272774919064139e-05
2.5098703684464325e-07,6.284638209148504e-07,6.365067009948306e-07,2.2763587772879253e-05
2.545106393824252e-07,6.401966218657964e-07,6.352647870606046e-07,2.282429287690545e-05
2.581649626555953e-07,6.527887300264083e-07,6.341882027536064e-07,2.2908451495436105e-05
2.619369150862018e-07,6.66174443008468e-07,6.332804773395602e-07,2.301463773243581e-05
2.658125045345177e-07,6.802869566641955e-07,6.325492620628196e-07,2.314148288448e-05
2.69779538141926e-07,6.950640174253294e-07,6.320089708691664e-07,2.3287673933784595e-05
2.738274120838602e-07,7.104499889686352e-07,6.316862496840479e-07,2.3451920057984385e-05
2.7794410468305417e-07,7.263959455171557e-07,6.316200853536573e-07,2.363291814374115e-05
2.821150146277675e-07,7.428557637198136e-07,6.318540273924284e-07,2.382932421228303e-05
2.863248289153894e-07,7.597796185536252e-07,6.324262004127409e-07,2.403970765846128e-05
2.9055958549575965e-07,7.771106433905956e-07,6.333643921823947e-07,2.4262476167707033e-05
2.9480835042500855e-07,7.947854572784363e-07,6.34686010631875e-07,2.4495837638344546e-05
2.990656131342419e-07,8.127345969436993e-07,6.36398798160124e-07,2.473787001507452e-05
3.033315934269849e-07,8.308810016027268e-07,6.385019038115378e-07,2.4986642018631266e-05
3.07608235259342e-07,8.491380128977121e-07,6.40987052236603e-07,2.524027136425956e-05
3.1189512575593035e-07,8.674092065488319e-07,6.438384606431139e-07,2.549690725203761e-05
3.1618933563805816e-07,8.855909059089201e-07,6.470331394214652e-07,2.575470974191691e-05
3.204870966667518e-07,9.0357674512058e-07,6.505425699167047e-07,2.6011871999379583e-05
3.2478382267526607e-07,9.212633030986363e-07,6.543339786708857e-07,2.6266639102630364e-05
3.2907335093910585e-07,9.385548794452015e-07,6.583722652229787e-07,2.651725395716595e-05
3.333484567016873e-07,9.553657395463431e-07,6.626253865026609e-07,2.6761869188296123e-05
3.376007730096837e-07,9.71620431413613e-07,6.670708466261195e-07,2.6998534392521006e-05
3.418192248244695e-07,9.872522468734744e-07,6.716989049255797e-07,2.722529179141817e-05
3.459897378362567e-07,1.002200148809013e-06,6.765119845223032e-07,2.744032511153865e-05
3.500968610317555e-07,1.016407585735489e-06,6.815200867561029e-07,2.764212473909781e-05
3.54125703946995e-07,1.029822394068368e-06,6.867327583872454e-07,2.7829627633316478e-05
3.58063499976994e-07,1.0423944146644849e-06,6.921538945099631e-07,2.8002212735206984e-05
3.619012117869529e-07,1.0540746077678014e-06,6.977837878984559e-07,2.815951524156766e-05
3.656356676438213e-07,1.0648198740884477e-06,7.036232589786441e-07,2.8301197919968828e-05
3.6927041509889406e-07,1.074602027324663e-06,7.096747056948044e-07,2.842681082699453e-05
3.728139915415641e-07,1.083414725716443e-06,7.159410257853418e-07,2.853576125817003e-05
3.7627777531513046e-07,1.091270766131876e-06,7.22423098277662e-07,2.8627354703502863e-05
3.7967445233019617e-07,1.0981917520300263e-06,7.291169169956368e-07,2.870085239612928e-05
3.8301612694740617e-07,1.1041993817380598e-06,7.360133208978662e-07,2.875553975335672e-05
3.863125058258493e-07,1.109310891371224e-06,7.431003766840695e-07,2.8790906196693294e-05
3.8957007366554043e-07,1.113537013775041e-06,7.503665222619855e-07,2.8806957236588458e-05
3.9279196075718824e-07,1.1168831840515287e-06,7.578026528528996e-07,2.8804410018741087e-05
3.9597889174676974e-07,1.1193521242764542e-06,7.654010101164616e-07,2.8784580583701182e-05
3.99132954050875e-07,1.120945266224052e-06,7.73150688002087e-07,2.8749110200793422e-05
4.0226218849967024e-07,1.1216667226442244e-06,7.810324583893029e-07,2.8699713916325532e-05
4.053813491665981e-07,1.1215303449359504e-06,7.890159346889174e-07,2.8638024904883825e-05
4.085097408832842e-07,1.1205614446841284e-06,7.970602356446566e-07,2.856568433382881e-05
4.116690673449111e-07,1.1187914231975492e-06,8.05117802503275e-07,2.848466357854156e-05
4.148813404246057e-07,1.116252517183427e-06,8.131399140839296e-07,2.8397463322802558e-05
4.1816773157193287e-07,1.1129753320947958e-06,8.2108101219284e-07,2.830699999399814e-05
4.2154813523462354e-07,1.1089916714983659e-06,8.288994973666904e-07,2.8216357551541718e-05
4.250398632652437e-07,1.1043468608749286e-06,8.365554221022943e-07,2.812857023659135e-05
4.286558638294901e-07,1.0991124554107347e-06,8.440074660605332e-07,2.8046464658112065e-05
4.324029230302357e-07,1.0933846560314006e-06,8.512111606184219e-07,2.797254902951496e-05
4.3628049328938857e-07,1.0872712763610331e-06,8.58118748325317e-07,2.7908922590767046e-05
4.40280661250097e-07,1.0808805346754243e-06,8.646807395376381e-07,2.7857206258022466e-05
4.4438830395531426e-07,1.074315240885442e-06,8.708486623208565e-07,2.781853951878481e-05
4.485819748591141e-07,1.0676679245616735e-06,8.765768648615723e-07,2.7793643518661572e-05
4.5283658642468366e-07,1.061016054304738e-06,8.818223472297173e-07,2.7782874728249706e-05
4.5712708186679535e-07,1.054420499820235e-06,8.865435034542507e-07,2.778622883181256e-05
4.6143276852924816e-07,1.0479279602402441e-06,8.906987528547463e-07,2.780332606830291e-05
4.6574041822119283e-07,1.0415754706966796e-06,8.94246577139978e-07,2.783341141090088e-05
4.7004323504028147e-07,1.0353938741888484e-06,8.971482025979946e-07,2.7875403134215917e-05
4.743376103542122e-07,1.0294084327053844e-06,8.993719702408973e-07,2.7928020179787323e-05
4.78620380782765e-07,1.0236389723305749e-06,9.008965706956585e-07,2.7989940268449268e-05
4.828869888222166e-07,1.0181006318810698e-06,9.017117790309988e-07,2.8059899875007507e-05
4.871310623289913e-07,1.012804887500337e-06,9.018177233461756e-07,2.8136729782388677e-05
4.913448745336382e-07,1.0077632403674655e-06,9.012225678427669e-07,2.821936681763017e-05
4.955202030990886e-07,1.002992054410483e-06,8.999383868586269e-07,2.8306843581495246e-05
4.996500385010173e-07,9.98513115747406e-07,8.979774516879778e-07,2.8398253187979017e-05
5.0372991632875e-07,9.943504422074659e-07,8.953512800760346e-07,2.849270020106429e-05
5.077569239092935e-07,9.90527833790719e-07,8.920724776046416e-07,2.8589234617910864e-05
5.117270256061847e-07,9.87067389507236e-07,8.881565273699419e-07,2.8686793666453748e-05
5.15632934299315e-07,9.83987540133902e-07,8.83620736683856e-07,2.878422659459752e-05
5.194636622628141e-07,9.81300982613783e-07,8.784814646364283e-07,2.8880387725795424e-05
5.232054417740798e-07,9.79012905889803e-07,8.72753359341904e-07,2.8974172724391106e-05
5.268431168773475e-07,9.771206252180558e-07,8.664520814041952e-07,2.906447295461388e-05
5.303616895355152e-07,9.756161014661983e-07,8.595979739021176e-07,2.915013233875464e-05
5.337473835393614e-07,9.744904257713434e-07,8.522179223814298e-07,2.922995076559916e-05
5.369871351248353e-07,9.737361710341696e-07,8.443454654502656e-07,2.9302710189365112e-05
5.400678625680896e-07,9.733449182784559e-07,8.360196880685459e-07,2.9367171727158666e-05
5.429774370186286e-07,9.733036165269177e-07,8.2728213337536e-07,2.9422071399332817e-05
5.45705432301282e-07,9.735945987326869e-07,8.181727966014329e-07,2.946623106956461e-05
5.482415256043532e-07,9.741980587557155e-07,8.087280730645209e-07,2.949878270832752e-05
5.505737288200823e-07,9.750917180504152e-07,7.989809040331595e-07,2.951932685863644e-05
5.526891698107543e-07,9.762467906721441e-07,7.889615949994606e-07,2.9527909633938672e-05
5.545763141345441e-07,9.776260257484326e-07,7.786995725965661e-07,2.952489518853664e-05
5.562257360846281e-07,9.791868236020168e-07,7.682259506849602e-07,2.951083709207608e-05
5.576290263045852e-07,9.808856785684084e-07,7.575741033748301e-07,2.9486349088321552e-05
5.58777681127493e-07,9.826812282785282e-07,7.467773186608236e-07,2.945196588321383e-05
5.596631092796826e-07,9.845386519556416e-07,7.358660942818052e-07,2.940807270762148e-05
5.602774028058832e-07,9.86437459524967e-07,7.248668669055008e-07,2.935495279173554e-05
5.606140870884971e-07,9.88376235278788e-07,7.138023923109709e-07,2.92928693479487e-05
5.606686700889027e-07,9.90366482409764e-07,7.026930101978497e-07,2.9222103740286146e-05
5.604399471128086e-07,9.924199471726959e-07,6.915570581516746e-07,2.9142953359619872e-05
5.599316154821003e-07,9.945400227078731e-07,6.804100747360387e-07,2.905575509236878e-05
5.591510669333706e-07,9.96719839269392e-07,6.692644979288547e-07,2.8961039119792982e-05
5.581061425875739e-07,9.989432867079865e-07,6.581316500881031e-07,2.8859723371179436e-05
5.568048364129815e-07,1.0011860809182656e-06,6.470255452301374e-07,2.8753087227187262e-05
5.552577819894271e-07,1.0034164240145822e-06,6.359645868498789e-07,2.8642562847515307e-05
5.534790214533771e-07,1.0055961807437755e-06,6.249686194011219e-07,2.8529631122475306e-05
5.514844138248423e-07,1.0076826908161571e-06,6.140554602345963e-07,2.8415848771509522e-05
5.49290223299063e-07,1.0096300610050406e-06,6.032416908371624e-07,2.8302836557763777e-05
5.469120816537435e-07,1.0113896130763044e-06,5.925446419084647e-07,2.8192197774146046e-05
5.443635378802427e-07,1.0129107348002772e-06,5.819809885155973e-07,2.8085427144771203e-05
5.416554094124662e-07,1.0141435412633676e-06,5.715649768524798e-07,2.798383692944056e-05
5.387960336556899e-07,1.0150462343003228e-06,5.613096608792578e-07,2.7888500954264858e-05
5.3579122283515e-07,1.0155995446627485e-06,5.512289700549746e-07,2.7800211025828364e-05
5.32644570220316e-07,1.0158193198482702e-06,5.413389203237768e-07,2.771944899794041e-05
5.293581948229571e-07,1.0157524110662843e-06,5.316575514969861e-07,2.7646381611442657e-05
5.259326778254896e-07,1.0154580220001178e-06,5.222026693638479e-07,2.7580883652924908e-05
5.223666309463511e-07,1.0149913861515311e-06,5.129897360952104e-07,2.7522599385147728e-05
5.186569843242418e-07,1.0143984558472565e-06,5.040335625070914e-07,2.74710385520144e-05
5.148002078228972e-07,1.0137171930084783e-06,4.953513179708303e-07,2.7425656445216252e-05
5.10793761663072e-07,1.0129780193111005e-06,4.869616560395417e-07,2.7385852875980678e-05
5.066368452531529e-07,1.0122013003713279e-06,4.788817373616529e-07,2.7350904130097854e-05
5.023310625636895e-07,1.0113954149898027e-06,4.711266171706869e-07,2.7319922263316417e-05
4.978809782151481e-07,1.0105575419095871e-06,4.637095089685906e-07,2.729189507505184e-05
4.932935643163398e-07,1.0096753238491823e-06,4.566411015481189e-07,2.7265760368509923e-05
4.885775274527712e-07,1.0087282117267542e-06,4.4993019780871427e-07,2.724044772034141e-05
4.837426447831475e-07,1.007689578788984e-06,4.4358584183182364e-07,2.721487663351755e-05
4.787982158147675e-07,1.0065304627713406e-06,4.376182499231253e-07,2.7187950214632048e-05
4.7375185055584277e-07,1.0052248813261726e-06,4.3203757656312046e-07,2.715859271070324e-05
4.6860970768439617e-07,1.0037552254437552e-06,4.268524882885236e-07,2.712583312391484e-05
4.633781878538596e-07,1.00211479355751e-06,4.2207173229132963e-07,2.708886821055863e-05
4.58065979274148e-07,1.0003061016100712e-06,4.177076439098258e-07,2.7047050505573906e-05
4.526843356967227e-07,9.98336721466843e-07,4.137759650557583e-07,2.6999837377791128e-05
4.472463928365092e-07,9.962166383332188e-07,4.102911769586382e-07,2.69467483522881e-05
4.417681852701964e-07,9.939585339428726e-07,4.07262627993521e-07,2.6887329282056515e-05
4.3626973401642314e-07,9.915776124388745e-07,4.046935413462503e-07,2.6821159781647934e-05
4.307729512094617e-07,9.890893774981688e-07,4.0258119371312094e-07,2.674793097161468e-05
4.2529809866179326e-07,9.86506547257092e-07,4.00918787617064e-07,2.6667481338894955e-05
4.198625007455307e-07,9.838358164653384e-07,3.9969983826459923e-07,2.657970045700267e-05
4.144815253038096e-07,9.810768571764073e-07,3.98922225376212e-07,2.6484403716300532e-05
4.0916971895097314e-07,9.782248326761429e-07,3.985887360431481e-07,2.638130040506023e-05
4.039412294908997e-07,9.752720858648031e-07,3.987045310117853e-07,2.627006563609569e-05
3.9880967177235326e-07,9.72207326204923e-07,3.992746063956739e-07,2.615045992832118e-05
3.9378774840479643e-07,9.690179272084991e-07,4.0030263641845777e-07,2.6022388259528765e-05
3.888869358284336e-07,9.656969429013335e-07,4.017897471797594e-07,2.588584288422685e-05
3.8411714327488616e-07,9.622494676133809e-07,4.037338696537328e-07,2.574079567367917e-05
3.7948684980183895e-07,9.586928844686754e-07,4.0613044604074004e-07,2.5587137467859305e-05
3.750045559155539e-07,9.55049342124279e-07,4.0897129547326296e-07,2.5424744619948165e-05
3.706798297772236e-07,9.513360940945706e-07,4.1224118444853454e-07,2.5253680714514223e-05
3.665222665235025e-07,9.475611365456319e-07,4.159158370570386e-07,2.5074395705780284e-05
3.6253996005455493e-07,9.43724563556514e-07,4.199630330529217e-07,2.488775641246348e-05
3.587383121205047e-07,9.398216485577484e-07,4.2434628636718024e-07,2.46948905471775e-05
3.5511904101381165e-07,9.358460028083435e-07,4.290302704636237e-07,2.449694778172911e-05
3.5168051557791036e-07,9.317936688167185e-07,4.3398654389749725e-07,2.429490727080556e-05
3.484187625135872e-07,9.276654429285427e-07,4.391973735086286e-07,2.408950659509147e-05
3.453282896820469e-07,9.234641003538999e-07,4.4465607491319047e-07,2.3881252534546586e-05
3.424045678689669e-07,9.19190188857975e-07,4.5036403791464174e-07,2.367046772187369e-05
3.396476337960791e-07,9.148403446895452e-07,4.563248317749479e-07,2.3457431358471843e-05
3.370631286983316e-07,9.104072287101116e-07,4.625378071339917e-07,2.3242645279531626e-05
3.346603347597669e-07,9.058807092154599e-07,4.689957126073081e-07,2.302705233285505e-05
3.3244971413904825e-07,9.012509445532076e-07,4.756864426149394e-07,2.281200716837244e-05
3.304409455297378e-07,8.96512696166944e-07,4.825962177771309e-07,2.259906305837688e-05
3.286413467608813e-07,8.916708468057897e-07,4.89714686731052e-07,2.238975542242363e-05
3.2705514795520127e-07,8.867464988505812e-07,4.970425868112972e-07,2.2185471136295103e-05
3.256841081170341e-07,8.817777536835981e-07,5.045983718556312e-07,2.19874957597842e-05
3.245293409201899e-07,8.768120742320223e-07,5.124170414583649e-07,2.1797285360751845e-05
3.235931675432926e-07,8.718967818975355e-07,5.2053870521952e-07,2.1616758243499263e-05
3.228791891314848e-07,8.670728212868387e-07,5.289953650452203e-07,2.1448330277919335e-05
3.223905773657476e-07,8.623743358452865e-07,5.378054628206459e-07,2.1294706464301026e-05
3.221289894489994e-07,8.578383781133099e-07,5.469746263825547e-07,2.115863667916974e-05
3.2209588463433625e-07,8.535181384322498e-07,5.564968717269815e-07,2.104274383409205e-05
3.222952733729571e-07,8.494850286566894e-07,5.663559551778293e-07,2.0949405976712008e-05
3.22735041457986e-07,8.458196203405893e-07,5.765280843809122e-07,2.088065850820151e-05
3.234250307260872e-07,8.426028396512791e-07,5.869840696251074e-07,2.0838123230025142e-05
3.2437356848241725e-07,8.399119461831433e-07,5.97689978413719e-07,2.0822980993689105e-05
3.255851642045e-07,8.37818491170747e-07,6.086076672531542e-07,2.0835965468115285e-05
3.270596181524485e-07,8.363844477661532e-07,6.196949293328989e-07,2.0877341732794884e-05
3.2879154251462196e-07,8.356566848439689e-07,6.30904189642462e-07,2.094687961095735e-05
3.307704808537744e-07,8.356641081562165e-07,6.421818832827155e-07,2.1043853964780042e-05
3.3298219349307945e-07,8.364186161090533e-07,6.534730935797982e-07,2.1167077882984125e-05
3.3540963999179074e-07,8.379165040166407e-07,6.647309032786489e-07,2.131497618956073e-05
3.3803242428780445e-07,8.401383084657371e-07,6.759218267301531e-07,2.148571380642731e-05
3.408262894053777e-07,8.430490589107576e-07,6.870218546156127e-07,2.1677359032861448e-05
3.4376356699348714e-07,8.466010287809353e-07,6.980097048694073e-07,2.1888022759846072e-05
3.4681425149013877e-07,8.507371675598084e-07,7.08864889255938e-07,2.211592739728738e-05
3.499487667822613e-07,8.553938942115491e-07,7.195684574033647e-07,2.2359422816397048e-05
3.531419520599315e-07,8.605058542449583e-07,7.301026690746346e-07,2.261698352952506e-05
3.563751446735491e-07,8.66011630293524e-07,7.404501709894697e-07,2.2887174024513925e-05
3.596353505832269e-07,8.718548029548876e-07,7.505930156374202e-07,2.3168564545965547e-05
3.629125220372376e-07,8.779810720026004e-07,7.605114955426853e-07,2.3459627767201168e-05
3.6619596163168773e-07,8.843372500551663e-07,7.701835555087561e-07,2.375866658910437e-05
3.6947239330704424e-07,8.90872065585268e-07,7.795838583812476e-07,2.406380198311993e-05
3.7272741214046153e-07,8.975354596629032e-07,7.886819179111302e-07,2.4373013821683746e-05
3.7594801408890937e-07,9.042768633891384e-07,7.974413046406706e-07,2.4684186524193053e-05
3.7912324466202156e-07,9.110448866605629e-07,8.058208970969989e-07,2.499512268485801e-05
3.8224334347086346e-07,9.177905794732135e-07,8.137767208688439e-07,2.5303555667788558e-05
3.85299603831244e-07,9.244741889535649e-07,8.212629267621975e-07,2.560720876023912e-05
3.8828636211646367e-07,9.310695736441835e-07,8.282322563579189e-07,2.59038863746216e-05
3.9120407112703705e-07,9.37560255047983e-07,8.346376105079381e-07,2.619151881026558e-05
3.940602320880828e-07,9.439316858402399e-07,8.404347809259102e-07,2.646811563559053e-05
3.9686754304005287e-07,9.501685669583256e-07,8.455841185416191e-07,2.673169059864132e-05
3.996411177202624e-07,9.562563521523993e-07,8.50050231018472e-07,2.6980241910610737e-05
4.023953069120792e-07,9.62180641098454e-07,8.538013983200316e-07,2.7211815011472838e-05
4.0514108200435597e-07,9.679242060975104e-07,8.568097115042523e-07,2.742464835112852e-05
4.078849612124957e-07,9.734670616962148e-07,8.590515039869116e-07,2.7617358790917603e-05
4.106287645461649e-07,9.787920811546509e-07,8.605074457448082e-07,2.7789047782539082e-05
4.133701398455837e-07,9.83892230640794e-07,8.611625694271522e-07,2.7939239623212407e-05
4.1610428403249367e-07,9.88774780172343e-07,8.610077035009399e-07,2.8067704515842743e-05
4.1882542546853794e-07,9.934603497100357e-07,8.600413482660464e-07,2.8174286710149506e-05
4.2152687581606324e-07,9.979766967016615e-07,8.582692852953304e-07,2.825881312900653e-05
4.242017702530137e-07,1.0023517374790917e-06,8.557027339101166e-07,2.8321086619547173e-05
4.2684526488148396e-07,1.0066090968528823e-06,8.523568957574267e-07,2.8360911186349727e-05
4.294556418389662e-07,1.010763903953773e-06,8.48249267240399e-07,2.8378101336265363e-05
4.3203492816859637e-07,1.0148197769382569e-06,8.433976670935273e-07,2.8372526078583906e-05
4.3458988084801843e-07,1.0187701254012724e-06,8.378195344732899e-07,2.834431715346855e-05
4.3712970429255865e-07,1.0226021591894072e-06,8.31532622101598e-07,2.8294178425806187e-05
4.3966111268033455e-07,1.026300416840265e-06,8.245561034483191e-07,2.822349925855725e-05
4.421865559403579e-07,1.0298492353600911e-06,8.169126483747806e-07,2.813417739614244e-05
4.447061006786204e-07,1.0332372528382288e-06,8.086304991646218e-07,2.8028345661087823e-05
4.4721931547151964e-07,1.036463268304899e-06,7.997426042466253e-07,2.7908153760683613e-05
4.4972554558405333e-07,1.0395348512786616e-06,7.902842591535905e-07,2.777570003348856e-05
4.522224834563526e-07,1.0424588949847386e-06,7.802924962215904e-07,2.7633200414073633e-05
4.5470421481500436e-07,1.0452373402157563e-06,7.698061242111612e-07,2.748325105833994e-05
4.571604502629344e-07,1.0478766511810517e-06,7.588659408053244e-07,2.7328898497489002e-05
4.595772529717674e-07,1.0504017191951195e-06,7.475176671666147e-07,2.7173475071850063e-05
4.619382649865018e-07,1.0528592562126691e-06,7.358159302356764e-07,2.7020369687995723e-05
4.64225192924975e-07,1.055309833355258e-06,7.238243774078886e-07,2.687284192654937e-05
4.664176394185954e-07,1.0578174095303275e-06,7.116122470512653e-07,2.6733885043692206e-05
4.6849351654590175e-07,1.0604398646171402e-06,6.992520737558047e-07,2.6606136415465806e-05
4.704301019546297e-07,1.0632209444132411e-06,6.868201481398138e-07,2.6491854930657566e-05
4.722044307018093e-07,1.0661854722649137e-06,6.743956558661264e-07,2.639294283754311e-05
4.737935076788187e-07,1.0693385275095858e-06,6.620557619001077e-07,2.6310957456466958e-05
4.7517689977183206e-07,1.0726679581485714e-06,6.498710538744346e-07,2.624708928792041e-05
4.7634044776706237e-07,1.0761481231906342e-06,6.379053146300835e-07,2.620210622925645e-05
4.772762509892309e-07,1.0797425899050628e-06,6.262181352466204e-07,2.617628665079422e-05
4.779794787803507e-07,1.0834063497935415e-06,6.14869664580803e-07,2.616939749975875e-05
4.784468860604937e-07,1.0870892307988097e-06,6.039270504923646e-07,2.618076738845211e-05
4.786772192724084e-07,1.0907399595074574e-06,5.934661072949999e-07,2.6209448050392167e-05
4.786705895869097e-07,1.0943084439266416e-06,5.835632248232945e-07,2.625439198495604e-05
4.784268885706371e-07,1.0977461437345638e-06,5.742837766561185e-07,2.63145680257872e-05
4.77944983814619e-07,1.1010070530768318e-06,5.656759483872099e-07,2.638900389190541e-05
4.772234175550436e-07,1.1040498191903494e-06,5.577713077475578e-07,2.647679804722035e-05
4.7626284868133203e-07,1.1068395477237538e-06,5.505886624480331e-07,2.657712572864376e-05
4.7506826938468705e-07,1.1093481253295558e-06,5.441375190290015e-07,2.6689224594530285e-05
4.7364767864957713e-07,1.1115523242192586e-06,5.384191081982057e-07,2.6812349624712635e-05
4.720089772857277e-07,1.1134303291964826e-06,5.334260547987347e-07,2.694571908616235e-05
4.70159552361778e-07,1.1149590627702452e-06,5.291425870205071e-07,2.708845834925268e-05
4.681083027659254e-07,1.116113668244126e-06,5.255459788362065e-07,2.723954337492673e-05
4.6586721209192237e-07,1.1168688379773458e-06,5.226094070136461e-07,2.739781260363185e-05
4.634515403715867e-07,1.1172023818676833e-06,5.203046397246758e-07,2.756206815217081e-05
4.6087912091483716e-07,1.1170984042031465e-06,5.186031607879322e-07,2.7731157547990248e-05
4.581691734535104e-07,1.1165461366658434e-06,5.174778548321296e-07,2.790398097940083e-05
4.5534175415434704e-07,1.115538776290319e-06,5.169067588584169e-07,2.807948369924768e-05
4.524188580482914e-07,1.1140772851052016e-06,5.168764125120173e-07,2.825667725815741e-05
4.494249485868504e-07,1.1121736578177307e-06,5.173808862960175e-07,2.843463783189933e-05
4.4638462182193296e-07,1.1098473066815331e-06,5.184150512240249e-07,2.8612397267687903e-05
4.433198854380347e-07,1.1071175830978769e-06,5.199670403119848e-07,2.8788785709751502e-05
4.402494964975835e-07,1.1039994802516829e-06,5.220169587112627e-07,2.8962385887241637e-05
4.3718994237810144e-07,1.1005051435452593e-06,5.245417615493447e-07,2.9131633949392767e-05
4.341575121497076e-07,1.0966485311015277e-06,5.275205182561636e-07,2.9294988062445685e-05
4.311691343935972e-07,1.0924476738575035e-06,5.309364855384294e-07,2.9451116879860072e-05
4.2824039833053003e-07,1.0879221433619606e-06,5.34776948724358e-07,2.9599062087237236e-05
4.2538379510223276e-07,1.0830911839884063e-06,5.390331239272242e-07,2.9738279452280908e-05
4.226096198637388e-07,1.0779760602607401e-06,5.43699889947433e-07,2.9868521668930956e-05
4.1992844588058297e-07,1.0726022821476e-06,5.487728878316076e-07,2.9989630865070128e-05
4.1735281156016607e-07,1.0669990102166227e-06,5.542429852231948e-07,3.010133554057061e-05
4.148958994451807e-07,1.0611967540464398e-06,5.600922368371714e-07,3.020314040876239e-05
4.1256814482747325e-07,1.0552233799617323e-06,5.662952569589635e-07,3.0294339146849603e-05
4.103753966763792e-07,1.0490995799602841e-06,5.728253693997771e-07,3.03740798886296e-05
4.083196515597705e-07,1.0428373956801366e-06,5.796599167498751e-07,3.044145052059383e-05
4.064009179803283e-07,1.0364426276858408e-06,5.867790031543659e-07,3.0495699529124346e-05
4.04619651029292e-07,1.0299176612708452e-06,5.941595572836414e-07,3.0536573742294336e-05
4.0297982100233025e-07,1.0232625469049186e-06,6.017723294514302e-07,3.056446369688057e-05
4.0149179791093543e-07,1.0164756296212628e-06,6.095847696466361e-07,3.058022360767236e-05
4.001724632521942e-07,1.0095564325582963e-06,6.175662622978779e-07,3.0584880909809254e-05
3.990412126900689e-07,1.0025123944019095e-06,6.256913229289429e-07,3.0579411154772304e-05
3.981154710565066e-07,9.953640835761369e-07,6.339390219825547e-07,3.056467285189353e-05
3.9740909037463033e-07,9.881407063405023e-07,6.422897603646156e-07,3.054162297988432e-05
3.9693210548172496e-07,9.808700543534893e-07,6.507215737128425e-07,3.051167533299749e-05
3.966903171101391e-07,9.735757000670562e-07,6.592084355637593e-07,3.0476834689191487e-05
3.966850614324505e-07,9.662837270911318e-07,6.677217831383417e-07,3.0439535373188264e-05
3.9691296827513726e-07,9.59029972244403e-07,6.762332757544354e-07,3.040239738519039e-05
3.973659435221672e-07,9.518619614147293e-07,6.847157142355379e-07,3.036799959345212e-05
3.9803162104387406e-07,9.448360643638838e-07,6.931412069820125e-07,3.033867396502951e-05
3.988934997348064e-07,9.380107255691401e-07,7.014785750972822e-07,3.031636170694765e-05
3.999311914434296e-07,9.314381040466243e-07,7.096923839560679e-07,3.030256107971827e-05
4.011220180435437e-07,9.251588833033388e-07,7.177429905666441e-07,3.0298355412777124e-05
4.0244315967099845e-07,9.192012923426809e-07,7.255862898490341e-07,3.0304482014623494e-05
