1.1899157594310323e-06,9.989566542054785e-07,1.4436099051717906e-06,2.939072021132616e-05
1.182793122387574e-06,1.0083481105486327e-06,1.4677314949529252e-06,2.922805892660429e-05
1.1745933816046292e-06,1.0183621412361236e-06,1.4912630997885062e-06,2.9060187675516688e-05
1.1653451948687686e-06,1.028922833708461e-06,1.5141318885221614e-06,2.8889553794163397e-05
1.155079098551525e-06,1.0399658916134605e-06,1.5362966571572587e-06,2.871895723064035e-05
1.1438254340326445e-06,1.051443540815467e-06,1.5577492734512943e-06,2.8551319392386706e-05
1.131613804620114e-06,1.0633227953055026e-06,1.5785095214970137e-06,2.838949962151472e-05
1.1184742268310637e-06,1.0755793868740278e-06,1.5986107762276453e-06,2.8236140529434296e-05
1.1044385701238842e-06,1.0881911509078676e-06,1.6180807668617947e-06,2.809353248477018e-05
1.0895416617675295e-06,1.1011313333284169e-06,1.636928170778322e-06,2.7963522913828266e-05
1.073822038174024e-06,1.1143631761647936e-06,1.6551396830928347e-06,2.7847502612358803e-05
1.0573218598908659e-06,1.1278379728111322e-06,1.6726830799474477e-06,2.7746450446437323e-05
1.040085959548504e-06,1.1414958810772824e-06,1.6895125006636625e-06,2.766096255089336e-05
1.022161270228687e-06,1.1552688984512803e-06,1.7055750758561736e-06,2.759122345800852e-05
1.0035967392005996e-06,1.1690853837630536e-06,1.7208165150144237e-06,2.753696743567595e-05
9.844429655011544e-07,1.1828726194453994e-06,1.7351849266474606e-06,2.749749602212612e-05
9.647522644944984e-07,1.1965564127649054e-06,1.7486350264161552e-06,2.747176579878583e-05
9.445791531353005e-07,1.2100613597364667e-06,1.7611326418234061e-06,2.7458530461599102e-05
9.239802200137785e-07,1.2233128316788769e-06,1.772657217835027e-06,2.745649859551273e-05
9.030141823752151e-07,1.2362375322366876e-06,1.783199187910302e-06,2.746444968246122e-05
8.817435975597639e-07,1.2487612070807477e-06,1.792751123891692e-06,2.7481284055663668e-05
8.602373016731424e-07,1.260806575704678e-06,1.8012992359881756e-06,2.7506032802170008e-05
8.385715747230648e-07,1.2722944411714322e-06,1.8088218035420917e-06,2.7537856864730382e-05
8.168299246716731e-07,1.2831462121099114e-06,1.8152913223083442e-06,2.757603573088104e-05
7.951037453783416e-07,1.2932845018448366e-06,1.8206758609351401e-06,2.7619935386166046e-05
7.734957603172484e-07,1.302632300258639e-06,1.8249408568150192e-06,2.7668957652855128e-05
7.521221703746208e-07,1.311113151332559e-06,1.8280538693070011e-06,2.772247049247907e-05
7.311065112323945e-07,1.3186525189594818e-06,1.8299931953275002e-06,2.7779728873170484e-05
7.10567208956317e-07,1.3251799215650505e-06,1.8307554103275416e-06,2.7839840232928748e-05
6.906087347481736e-07,1.3306326200968927e-06,1.8303535021725827e-06,2.790178709700417e-05
6.713212220039003e-07,1.334960518417258e-06,1.8288080788017398e-06,2.79644474174144e-05
6.527847644216778e-07,1.3381292829355757e-06,1.8261423202661769e-06,2.802661374419223e-05
6.350731387326237e-07,1.3401192741849777e-06,1.822381647183604e-06,2.8087057805977192e-05
6.182552777516282e-07,1.3409230463794815e-06,1.8175521332302253e-06,2.814461545120377e-05
6.023963031159891e-07,1.3405459283264654e-06,1.8116788315435363e-06,2.8198208841791486e-05
5.875602682191882e-07,1.3390092386184048e-06,1.8047877537493855e-06,2.8246767877559996e-05
5.73813042274123e-07,1.3363532861296172e-06,1.7969091057699673e-06,2.8289131209385906e-05
5.612225438668983e-07,1.3326362758301606e-06,1.7880782113572109e-06,2.8324035950834942e-05
5.498576918235889e-07,1.3279257091583465e-06,1.7783338400492547e-06,2.8350204698331146e-05
5.397891516959817e-07,1.3222890542208716e-06,1.767715127819077e-06,2.8366478457248578e-05
5.310938920262599e-07,1.315791887740783e-06,1.7562606596450672e-06,2.8371967970196503e-05
5.238663700214838e-07,1.3084993994568772e-06,1.7440137681332873e-06,2.836617448552228e-05
5.182337809395673e-07,1.3004763331814951e-06,1.7310285304474883e-06,2.8348979242324903e-05
5.143628839742551e-07,1.2917853064569572e-06,1.7173672951594371e-06,2.8320480972096284e-05
5.124500437810518e-07,1.2824831640009672e-06,1.7030979338850125e-06,2.8280809559600977e-05
5.126990976617856e-07,1.2726180024141224e-06,1.6883042724901536e-06,2.823005407775445e-05
5.152959520888921e-07,1.2622294227028715e-06,1.673101588841772e-06,2.816830197902331e-05
5.203882297302504e-07,1.2513495699925984e-06,1.6576412230070684e-06,2.8095676898117603e-05
5.280768951634128e-07,1.2400035701838604e-06,1.642103922272697e-06,2.8012306104404704e-05
5.384201444352441e-07,1.2282122563450244e-06,1.6266900760412745e-06,2.7918290846649742e-05
5.514438684935609e-07,1.2159979673810278e-06,1.6116101182703897e-06,2.7813853553049437e-05
5.67154339636893e-07,1.2033884254992277e-06,1.5970747790630786e-06,2.769963765988637e-05
5.855496580306113e-07,1.190415133361174e-06,1.5832831737062681e-06,2.7576843364761848e-05
6.066248712229273e-07,1.1771102849331774e-06,1.5704075045673271e-06,2.744706706945968e-05
6.303698667288752e-07,1.163505906726956e-06,1.558582078119636e-06,2.731204924455533e-05
6.567652438683115e-07,1.1496322616514401e-06,1.547905884826306e-06,2.717348237734669e-05
6.857805747827236e-07,1.1355147377528522e-06,1.5384551212571076e-06,2.703292832637811e-05
7.17374969064112e-07,1.1211743973103759e-06,1.5302938419082467e-06,2.689193583028724e-05
7.514981419330094e-07,1.106633653935915e-06,1.5234763251034203e-06,2.675227071254008e-05
7.880906878314702e-07,1.0919219275342134e-06,1.5180457420723974e-06,2.661598856337696e-05
8.270837241940342e-07,1.0770776903211877e-06,1.514036802195902e-06,2.648530928973931e-05
8.683985819039877e-07,1.0621484612353965e-06,1.5114825279811717e-06,2.6362459704216712e-05
9.119446029528999e-07,1.0471894851356337e-06,1.510421573738184e-06,2.6249550425982464e-05
9.576143303635692e-07,1.0322602602349522e-06,1.5109035166252887e-06,2.614848001333103e-05
1.005279675032005e-06,1.0174206732506626e-06,1.512987380741836e-06,2.606087133872686e-05
1.0547904775111242e-06,1.0027275149954134e-06,1.516732192353004e-06,2.5988032720010948e-05
1.1059735032211448e-06,9.882313888015624e-07,1.5221847541312638e-06,2.593094064254725e-05
1.158631410441718e-06,9.7397663165235e-07,1.529367187608697e-06,2.5890253382254026e-05
1.212542761601679e-06,9.600029236268402e-07,1.538266487460154e-06,2.586633379132783e-05
1.267463517304036e-06,9.463449473996069e-07,1.5488319456018818e-06,2.585924165590515e-05
1.323130201923528e-06,9.33031521809257e-07,1.5609805523125506e-06,2.586868886821641e-05
1.379264290002036e-06,9.200848901885036e-07,1.5746052220893806e-06,2.589398393477081e-05
1.4355759950327375e-06,9.075192843416901e-07,1.5895848053553145e-06,2.5934021116673784e-05
1.4917671419563641e-06,8.953409141228096e-07,1.6057967318886337e-06,2.59873669860002e-05
1.5475354146954519e-06,8.835498858729656e-07,1.6231309385112341e-06,2.6052415991999718e-05
1.6025817619738415e-06,8.721423984126185e-07,1.641503454104821e-06,2.6127524674792137e-05
1.6566176974216776e-06,8.611129133267345e-07,1.660866312055666e-06,2.6211099518262355e-05
1.709367016449193e-06,8.504555597311871e-07,1.681206798276351e-06,2.6301678826642746e-05
1.760564292799757e-06,8.401635698328979e-07,1.7025321454038338e-06,2.6397996573536986e-05
1.8099572551451743e-06,8.302271792027365e-07,1.7248472595733212e-06,2.64989814896595e-05
1.8573146021837848e-06,8.20632414304128e-07,1.7481371938176555e-06,2.6603699136961885e-05
1.9024352643944959e-06,8.113645192595779e-07,1.7723581335508637e-06,2.6711276987025383e-05
1.9451536947784173e-06,8.024160224972269e-07,1.7974383850532192e-06,2.6820824121134204e-05
1.9853393721133304e-06,7.937927663627403e-07,1.8232924849375969e-06,2.693136258352699e-05
2e-07,7.855126552244266e-07,1.8498420842796768e-06,2.7041833740260046e-05
2e-07,7.775992744840614e-07,1.8770285781356723e-06,2.7151172371833412e-05
2e-07,7.700756531408597e-07,1.904809323675779e-06,2.7258349743458623e-05
2e-07,7.629603988274387e-07,1.9331435469298994e-06,2.7362375898945505e-05
2e-07,7.562652937218769e-07,1.961979982631242e-06,2.7462323926582086e-05
2e-07,7.49994779161962e-07,1.991250408660074e-06,2.755737898913849e-05
2e-07,7.441476169678441e-07,2.020865325902056e-06,2.764685686484948e-05
2e-07,7.387193557499355e-07,2.050710890497658e-06,2.773013344606406e-05
2e-07,7.337058470146457e-07,2.0806496728411357e-06,2.7806515330644813e-05
2e-07,7.291059305875873e-07,2.1105261243465185e-06,2.787515819567035e-05
2e-07,7.249185708500663e-07,2.14017470178093e-06,2.793509027350833e-05
2e-07,7.211364131768716e-07,2.169427625906303e-06,2.7985335344763013e-05
2e-07,7.177433420187855e-07,2.1981228984320372e-06,2.8025107195846075e-05
2e-07,7.147207594871042e-07,2.226113470144678e-06,2.805399564456755e-05
2e-07,7.120614742412045e-07,2.2532713358569542e-06,2.8072024277518023e-05
2e-07,7.097808334587032e-07,2.279484905890818e-06,2.8079530993308862e-05
2e-07,7.079130266200085e-07,2.3046638948614302e-06,2.807694404848439e-05
2e-07,7.064953444108509e-07,2.328757768953566e-06,2.8064588499021447e-05
2e-07,7.055546151807737e-07,2.351769794874196e-06,2.8042614781112408e-05
2e-07,7.051034828821094e-07,2.373752408138781e-06,2.8011021944801533e-05
2e-07,7.051433971238939e-07,2.39478907929501e-06,2.796968839724445e-05
2e-07,7.05669281776188e-07,2.414972332964698e-06,2.7918418987141937e-05
2e-07,7.066724606379136e-07,2.4343830479835467e-06,2.785715203337895e-05
2e-07,7.081399448919063e-07,2.453074991137401e-06,2.778630565699428e-05
2e-07,7.100516644568107e-07,2.4710693248946104e-06,2.770694353503457e-05
2e-07,7.123783819650207e-07,2.488358629257919e-06,2.7620609063900263e-05
2e-07,7.150815730287033e-07,2.5049133613151043e-06,2.7529037800615106e-05
2e-07,7.18115133738761e-07,2.520685149056313e-06,2.7433924234691987e-05
1.997295143155064e-06,7.214279912328546e-07,2.5356062803030547e-06,2.733678727204007e-05
1.9621717638475304e-06,7.249682867414273e-07,2.549588822552468e-06,2.723904930936431e-05
1.9253435094851603e-06,7.286898349470327e-07,2.5625279738667457e-06,2.7142319610033764e-05
1.8869173149025047e-06,7.325585811997501e-07,2.5743116673562563e-06,2.704858110714103e-05
1.8470023480428657e-06,7.365546363000268e-07,2.5848348133314675e-06,2.6960109375652523e-05
1.8057090754405682e-06,7.40666891720953e-07,2.594012138736808e-06,2.6879275178343814e-05
1.7631506233488362e-06,7.44884035665718e-07,2.601783272439068e-06,2.6808379694171288e-05
1.7194472464220277e-06,7.491883998129981e-07,2.608109998871589e-06,2.6749537195357195e-05
1.6747319040130694e-06,7.535537212229273e-07,2.612968642977277e-06,2.6704587811149568e-05
1.6291516608078744e-06,7.579456549318209e-07,2.616339116318337e-06,2.667503917192237e-05
1.5828629113410559e-06,7.623245726571137e-07,2.61819541201674e-06,2.66620474690938e-05
1.536025255884391e-06,7.666495823036764e-07,2.618503109790859e-06,2.666644088901597e-05
1.4887975713356855e-06,7.708825767209618e-07,2.6172220281551053e-06,2.6688743682967875e-05
1.4413344971138539e-06,7.749914928369601e-07,2.614311459670409e-06,2.6729149307076252e-05
1.3937839702511766e-06,7.789513321182766e-07,2.609739255965664e-06,2.678746285712135e-05
1.3462886055291571e-06,7.82741687313207e-07,2.6034908283114573e-06,2.6863057558642968e-05
1.298988397718523e-06,7.863441500661281e-07,2.5955709658973537e-06,2.695486332924609e-05
1.2520210110347026e-06,7.897440983476176e-07,2.585997828483404e-06,2.7061428422348183e-05
1.2055208667801532e-06,7.929333971658605e-07,2.5747963648226696e-06,2.7181075471188746e-05
1.159618519405664e-06,7.959087418329121e-07,2.562000364278456e-06,2.731207630745032e-05
1.1144392199057242e-06,7.986682487055712e-07,2.5476617982536816e-06,2.745275705482056e-05
1.070100756036748e-06,8.012091641703947e-07,2.53185568276208e-06,2.760153075549005e-05
1.026711429698461e-06,8.035255369583616e-07,2.514673580285689e-06,2.7756897792060523e-05
9.84368358922876e-07,8.056081161048665e-07,2.4962095727702764e-06,2.7917440187394317e-05
9.431579998499415e-07,8.074494934062459e-07,2.4765502390991767e-06,2.808182252518698e-05
9.031600631818016e-07,8.090521961084963e-07,2.4557777127464485e-06,2.82487890045237e-05
8.644506299939401e-07,8.104340806922088e-07,2.433980170308094e-06,2.8417114975052715e-05
8.271010409093079e-07,8.116261114207569e-07,2.4112576367064998e-06,2.858551145537622e-05
7.911772361227329e-07,8.126651093302635e-07,2.3877183725968704e-06,2.8752579422938867e-05
7.567437342810001e-07,8.135882995208954e-07,2.3634699974761374e-06,2.8916870593651697e-05
7.238682967213534e-07,8.144299989340732e-07,2.338617590885064e-06,2.9076965643327894e-05
6.926222093521079e-07,8.152189410827635e-07,2.313274715899222e-06,2.923148872287622e-05
6.630765156990419e-07,8.159773187969063e-07,2.2875739597131742e-06,2.937909871056377e-05
6.352975427735435e-07,8.167208153130373e-07,2.261664089597009e-06,2.9518529284577186e-05
6.093421466464856e-07,8.174592015569672e-07,2.23569831627598e-06,2.9648641178613866e-05
5.852521944240448e-07,8.18199574737708e-07,2.209822201317891e-06,2.976837594584785e-05
5.63051283873684e-07,8.189533513757123e-07,2.1841636331326745e-06,2.9876632643850206e-05
5.427448359637897e-07,8.197432642182991e-07,2.158828670396332e-06,2.9972210418912207e-05
5.24321663283233e-07,8.206039511815219e-07,2.133907634043468e-06,3.005388533408609e-05
5.077564533964299e-07,8.215749646832271e-07,2.1094846261356843e-06,3.0120585677529884e-05
4.930118507617521e-07,8.226918679750606e-07,2.0856379392498773e-06,3.017160111399087e-05
4.800389673499631e-07,8.239824147357675e-07,2.0624312758523515e-06,3.020674523035069e-05
4.6877836194156477e-07,8.254712009270715e-07,2.03990774548602e-06,3.0226378361864038e-05
4.5916213759905157e-07,8.271882094520963e-07,2.018092439498394e-06,3.023126147744622e-05
4.511148869032941e-07,8.291725757195869e-07,1.996997267107453e-06,3.0222311209969653e-05
4.4455389054439403e-07,8.314701034080871e-07,1.9766223102126088e-06,3.020036462755103e-05
4.393915467123379e-07,8.341281987686861e-07,1.956956818264797e-06,3.016604491432361e-05
4.3553971555453883e-07,8.371890365683205e-07,1.937984303982769e-06,3.0119749736855438e-05
4.329121954911992e-07,8.406818434385952e-07,1.919687164044725e-06,3.006171376452337e-05
4.314237439496269e-07,8.44618089848658e-07,1.902044610799183e-06,2.9992091560860527e-05
4.309881578761632e-07,8.489929994721911e-07,1.885030604323624e-06,2.9911075497304384e-05
4.315175819169932e-07,8.537920219400824e-07,1.8686212881691842e-06,2.981909207410041e-05
4.329229564931222e-07,8.589964317838768e-07,1.8528059138589431e-06,2.971695363235279e-05
4.351157563383581e-07,8.645849474057257e-07,1.8375881475207138e-06,2.9605786166877446e-05
4.380102384509757e-07,8.705340303099334e-07,1.822975776645599e-06,2.948682069127488e-05
4.415242269743264e-07,8.768187593290324e-07,1.8089689722700496e-06,2.936122950539283e-05
4.4557873320711534e-07,8.834127147133475e-07,1.7955570294166054e-06,2.9230064930685197e-05
4.500978383171873e-07,8.902865306556988e-07,1.7827232007388408e-06,2.9094404374388374e-05
4.550086014592097e-07,8.97406463615341e-07,1.7704499400920891e-06,2.8955683994620586e-05
4.6024023021210773e-07,9.047345722243216e-07,1.7587191061666263e-06,2.8815903582075872e-05
4.657233149819097e-07,9.122320368816263e-07,1.7475088207992764e-06,2.8677539791688026e-05
4.7139042863504935e-07,9.198632494768127e-07,1.7367927113051942e-06,2.854331789590797e-05
4.77177395178926e-07,9.275957088348372e-07,1.7265432301200561e-06,2.8415968541461434e-05
4.830241161124968e-07,9.35395721124144e-07,1.7167358899422717e-06,2.829801935867393e-05
4.888748842794651e-07,9.432242852115084e-07,1.707351856996851e-06,2.819166054950457e-05
4.946775377280464e-07,9.510358421740356e-07,1.6983772644706981e-06,2.8098671374925927e-05
5.003816140875231e-07,9.587810569409364e-07,1.6897995196894551e-06,2.8020378244172748e-05
5.059376251745596e-07,9.664134713003029e-07,1.6816066985827412e-06,2.7957649511772962e-05
5.112985719407444e-07,9.738945072631066e-07,1.6737956927513627e-06,2.7910927178708087e-05
5.164220542868403e-07,9.81190817523576e-07,1.6663812824832847e-06,2.788024952253476e-05
5.212716648563697e-07,9.88267179199813e-07,1.6593922547235095e-06,2.786523294443655e-05
5.258187424923648e-07,9.950823213901742e-07,1.6528598473974503e-06,2.7865051798640747e-05
5.300435620877554e-07,1.0015891609752847e-06,1.6468175840614797e-06,2.787846932985614e-05
5.339332421822476e-07,1.007737342006124e-06,1.6413131410168468e-06,2.790393482303753e-05
5.374780762611004e-07,1.0134770495350241e-06,1.6364151798132347e-06,2.7939731189777784e-05
5.406707350483095e-07,1.0187621966416037e-06,1.632206779613647e-06,2.7984129146370025e-05
5.43508154467668e-07,1.0235507761868e-06,1.628771334367913e-06,2.8035500288466448e-05
5.459918432306144e-07,1.0278036164777184e-06,1.626180494648663e-06,2.8092375067071247e-05
5.481255941474412e-07,1.0314847261530356e-06,1.6244882920082757e-06,2.8153450393082892e-05
5.499127870223723e-07,1.034565475108805e-06,1.6237282798419613e-06,2.821755658047217e-05
5.513544514753416e-07,1.037032150487616e-06,1.6239121790446957e-06,2.828361280002319e-05
5.524486876339007e-07,1.0388913901922092e-06,1.625032922666537e-06,2.8350593503594667e-05
5.531911116111036e-07,1.0401675543023372e-06,1.6270696107365215e-06,2.8417486076900067e-05
5.535758853559202e-07,1.0408928395147824e-06,1.629987667157954e-06,2.84832292163296e-05
5.535988937501089e-07,1.0410964020150784e-06,1.6337359883048228e-06,2.854669645660156e-05
5.53262267699965e-07,1.040799385215865e-06,1.6382492888720303e-06,2.860675907488999e-05
5.525756888756606e-07,1.0400193114038084e-06,1.6434563146782063e-06,2.8662339151671588e-05
5.51553237542083e-07,1.0387792398487601e-06,1.6492872106232197e-06,2.8712400086707378e-05
5.502096384226282e-07,1.0371119445085532e-06,1.6556775855694024e-06,2.875594118393249e-05
5.48559198633711e-07,1.0350563181002425e-06,1.6625712956447174e-06,2.8792036125051e-05
5.466167936710748e-07,1.0326534172187858e-06,1.6699212773550018e-06,2.881986513321311e-05
5.443986873003686e-07,1.0299463057194292e-06,1.6776862532314285e-06,2.8838676359880487e-05
5.419225807762957e-07,1.02697871272355e-06,1.6858237715263316e-06,2.884769105545412e-05
5.392067833985675e-07,1.0237911528699563e-06,1.6942833264154463e-06,2.8846050070500238e-05
5.362688675104064e-07,1.0204180389433482e-06,1.7030027557133408e-06,2.8832862966986774e-05
5.331260449309883e-07,1.0168856813822425e-06,1.7119075063504802e-06,2.8807326217085494e-05
5.29797819250332e-07,1.0132125388876647e-06,1.720913007445934e-06,2.876887213768172e-05
5.263080151370027e-07,1.0094144320290122e-06,1.7299298246302117e-06,2.871734206694005e-05
5.226846300682474e-07,1.0055117752666159e-06,1.7388663986567246e-06,2.8653113528358974e-05
5.18959119988334e-07,1.001534019674888e-06,1.7476274905989181e-06,2.8577066632270537e-05
5.151662626471337e-07,9.975195416249604e-07,1.7561132400982261e-06,2.8490367152235213e-05
5.113440168775418e-07,9.935117041036785e-07,1.7642222149160012e-06,2.8394167981517168e-05
5.075319462367655e-07,9.895525517291395e-07,1.771859328693068e-06,2.828939561700059e-05
5.037673265746294e-07,9.8567621564278e-07,1.77894632428195e-06,2.817670773254393e-05
5.000815147278885e-07,9.819055080838287e-07,1.7854271276697963e-06,2.805654362070879e-05
4.965002503711679e-07,9.782526684443842e-07,1.7912643196062104e-06,2.792918453782665e-05
4.930464282577749e-07,9.747211034693316e-07,1.7964310373979019e-06,2.779488910452271e-05
4.897403115460227e-07,9.713067037709859e-07,1.8009028160015393e-06,2.7654177238103398e-05
4.865965001361375e-07,9.679992746860694e-07,1.8046507055756424e-06,2.7508087330184887e-05
4.836223554539965e-07,9.647839424635193e-07,1.8076371654400693e-06,2.735816310301803e-05
4.808208664248765e-07,9.61643804872471e-07,1.8098162990422813e-06,2.720622800362143e-05
4.78195820348216e-07,9.585635204868515e-07,1.8111366820511883e-06,2.7054135418245616e-05
4.7575576592042534e-07,9.555295978094638e-07,1.811545451867413e-06,2.690359109615317e-05
4.7351528457041614e-07,9.525270927831407e-07,1.8109932666829216e-06,2.675617469683104e-05
4.714930846261107e-07,9.495376553152088e-07,1.809435987110347e-06,2.661359757337039e-05
4.697075064678748e-07,9.465398447790048e-07,1.8068324772809009e-06,2.647794790049436e-05
4.6817242189135674e-07,9.43509592940584e-07,1.8031436689414123e-06,2.6351688432512588e-05
4.6689550659532137e-07,9.404213488506092e-07,1.7983338104380505e-06,2.623747801975798e-05
4.658778068730129e-07,9.372495735478027e-07,1.7923731813757127e-06,2.6137983549265812e-05
4.651136521635724e-07,9.339686829990309e-07,1.7852446902026092e-06,2.605573711322389e-05
4.6459118692370274e-07,9.305524929743715e-07,1.776952777381601e-06,2.599303494800214e-05
4.64293435414145e-07,9.269757088836012e-07,1.7675276086736548e-06,2.595186169316977e-05
4.641995929491702e-07,9.23217116575868e-07,1.75702036494583e-06,2.5933828963146303e-05
4.642866837190034e-07,9.192617493279062e-07,1.7454924216146916e-06,2.5940143650206712e-05
4.645315990946312e-07,9.151004571922413e-07,1.733004329267767e-06,2.597160276645184e-05
4.6491232245211183e-07,9.10729281349275e-07,1.7196092121288085e-06,2.602857804419139e-05
4.654072368374233e-07,9.061527272439886e-07,1.705352035390361e-06,2.6110983684481312e-05
4.65994280776095e-07,9.013889013096078e-07,1.6902729651934988e-06,2.621825496690088e-05
4.666515911250928e-07,8.964688640991373e-07,1.6744134680480481e-06,2.634934628836072e-05
4.67357858634521e-07,8.914280394914015e-07,1.6578239617784597e-06,2.6502752245229142e-05
4.6809153568379743e-07,8.862964324384073e-07,1.6405673759817556e-06,2.667657670294342e-05
4.68830430349837e-07,8.810946299109594e-07,1.622716026914441e-06,2.686863974456586e-05
4.695517988531183e-07,8.758364175820938e-07,1.6043502214709734e-06,2.7076575689915867e-05
4.7023239822349977e-07,8.7053380303719e-07,1.5855617951183228e-06,2.729793299065721e-05
4.7084937018438065e-07,8.651990071060701e-07,1.5664517555589875e-06,2.7530312717063286e-05
4.713821318253111e-07,8.598439319915529e-07,1.547122107192862e-06,2.777150050451197e-05
4.718134580769681e-07,8.544834160091576e-07,1.5276766702859537e-06,2.801951917208944e-05
4.7212883305210045e-07,8.491421615415812e-07,1.5082304143745682e-06,2.8272603433588037e-05
4.723158417490287e-07,8.438563947591846e-07,1.4889123863012986e-06,2.8529133241607134e-05
4.723646526531378e-07,8.386662241528748e-07,1.4698578128472447e-06,2.87875342163983e-05
4.722686359810786e-07,8.336074696414138e-07,1.451195858771016e-06,2.9046171810613648e-05
4.7202476813556937e-07,8.287109444190387e-07,1.4330396841373257e-06,2.9303306387755574e-05
4.7163352190557574e-07,8.24003924200703e-07,1.415482754424136e-06,2.955711400539104e-05
4.7109764816182815e-07,8.195077996156496e-07,1.3986009516996632e-06,2.980571144575009e-05
4.704202590522704e-07,8.152352858308916e-07,1.3824569886372078e-06,3.0047174687105932e-05
4.696029948961933e-07,8.111901151908054e-07,1.3671034820317184e-06,3.027957883053405e-05
4.686453751254111e-07,8.073676243519522e-07,1.3525818723871674e-06,3.0501044883769605e-05
4.6754594226900366e-07,8.037562586453805e-07,1.3389177854703725e-06,3.070974550506212e-05
4.6630373873525154e-07,8.003429866997885e-07,1.3261179989905366e-06,3.090387766295205e-05
4.649183542790413e-07,7.971236126958869e-07,1.314173684044267e-06,3.108166389479511e-05
4.633891073811872e-07,7.941099211556034e-07,1.3030664132162734e-06,3.124139372965465e-05
4.6171499278007534e-07,7.913240664806973e-07,1.292769414305602e-06,3.1381487270943765e-05
4.598950378536857e-07,7.887864452701076e-07,1.2832450337433322e-06,3.15006046340445e-05
4.5792809557268887e-07,7.865126799829684e-07,1.2744450881102527e-06,3.159781041329004e-05
4.558132268215765e-07,7.84523181822318e-07,1.2663153847740009e-06,3.1672697727942125e-05
4.5355104463412037e-07,7.828530969429638e-07,1.2588017537776788e-06,3.172534419282907e-05
4.511440765208443e-07,7.815524212907206e-07,1.251854689439686e-06,3.1756110858337876e-05
4.485966030240529e-07,7.806806460987107e-07,1.2454282355695615e-06,3.176543366393078e-05
4.459159783241665e-07,7.803022610355076e-07,1.2394740038202946e-06,3.17537296628465e-05
4.431144690248356e-07,7.804811801614505e-07,1.233938565032769e-06,3.1721403181704606e-05
4.4021050182256096e-07,7.812731461532981e-07,1.2287669063781807e-06,3.1668860287257524e-05
4.3722913113221885e-07,7.82718673190171e-07,1.223905586993505e-06,3.159648654611696e-05
4.342000151253338e-07,7.848382999192096e-07,1.2193027965222493e-06,3.150466686556701e-05
4.3115284931019686e-07,7.876322434227673e-07,1.2149122427285057e-06,3.13939817704894e-05
4.281133918266238e-07,7.910849408000651e-07,1.2107043121389533e-06,3.126548353871665e-05
4.251017915003393e-07,7.951700639920749e-07,1.2066747823114538e-06,3.1120752449375235e-05
4.221327163609753e-07,7.998514863078404e-07,1.2028426592173175e-06,3.0961689583303807e-05
4.1921705759191476e-07,8.050829183375253e-07,1.199242446309952e-06,3.079026339130182e-05
4.1636383677004273e-07,8.108107692252415e-07,1.1959201283525965e-06,3.0608351073075846e-05
4.135803879473696e-07,8.169776379807669e-07,1.1929329604104228e-06,3.0417769736152422e-05
4.1087143963839434e-07,8.235232412783077e-07,1.1903456602513559e-06,3.0220536014794086e-05
4.082387160830608e-07,8.303849357399737e-07,1.1882204183959863e-06,3.0019131023296364e-05
4.0568217725497214e-07,8.374995312102097e-07,1.1866081286582416e-06,2.9816511791645427e-05
4.032033484163429e-07,8.44804544209389e-07,1.185546319861047e-06,2.961591514200985e-05
4.0080829345872737e-07,8.522377227973998e-07,1.1850594318383966e-06,2.9420631334941028e-05
3.985078716826094e-07,8.59738472492488e-07,1.1851610669810049e-06,2.9233823494175702e-05
3.9631704889243717e-07,8.672524433441591e-07,1.1858641260840117e-06,2.905839976454701e-05
3.942548611704418e-07,8.747324895613697e-07,1.1871921994880979e-06,2.8896921185156732e-05
3.923440954189399e-07,8.821333692235134e-07,1.1891792447990065e-06,2.8751542768529814e-05
3.906097168162964e-07,8.894065447087446e-07,1.1918649929071721e-06,2.8624013450313782e-05
3.890758276674578e-07,8.964999162243713e-07,1.1953056430523696e-06,2.8515719047034802e-05
3.877619625982287e-07,9.033630691627053e-07,1.1995987458760795e-06,2.8427690659470564e-05
3.8668024911092894e-07,9.099547950245192e-07,1.204902658258246e-06,2.8360540364425487e-05
3.8583457219131713e-07,9.162456687613428e-07,1.2114384189853365e-06,2.8314381510123078e-05
3.852219222888671e-07,9.222135328808969e-07,1.2194738521040518e-06,2.828879937823364e-05
3.8483504855097e-07,9.278383300691337e-07,1.2292924164153916e-06,2.8282903266164757e-05
3.846641788256562e-07,9.331015812014648e-07,1.2411534645525353e-06,2.829547914717749e-05
3.8469682477896783e-07,9.379882661297669e-07,1.2552592116523638e-06,2.8325198000044323e-05
3.849176693610872e-07,9.424860025961159e-07,1.2717411096824934e-06,2.8370777563406126e-05
3.8530899296635146e-07,9.465813727614252e-07,1.2906631912854685e-06,2.8431058914983507e-05
3.85850583409608e-07,9.502571149891708e-07,1.3120321920897446e-06,2.8505042038836102e-05
3.8651998011686797e-07,9.534920969923643e-07,1.335809334217608e-06,2.8591909620492347e-05
3.8729329708235137e-07,9.56264614119762e-07,1.361923712017207e-06,2.869102317860945e-05
3.881461360579208e-07,9.585585552149172e-07,1.3902859686374458e-06,2.8801875892296068e-05
3.8905547925319226e-07,9.603684514383029e-07,1.4207998863864675e-06,2.892400200089484e-05
3.9000189217196384e-07,9.616983502701802e-07,1.4533707715721575e-06,2.9056845925961353e-05
3.909692287957413e-07,9.625553049016079e-07,1.4879090209814502e-06,2.919962182448463e-05
3.919423525321219e-07,9.62944202047682e-07,1.524328502695855e-06,2.935124507680365e-05
3.929066881988016e-07,9.628679639313422e-07,1.5625440812916343e-06,2.951036935091105e-05
3.9384951129687866e-07,9.623310052817145e-07,1.60247277944487e-06,2.96754528966536e-05
3.9475970160638315e-07,9.613425892975223e-07,1.6440358407818312e-06,2.9844802666997614e-05
3.956260031467924e-07,9.599185439270322e-07,1.687153665867022e-06,3.0016626755239368e-05
3.964359790071006e-07,9.580804586871977e-07,1.731731568122425e-06,3.0189102637846527e-05
3.9717644718605316e-07,9.558524708485351e-07,1.777645112589299e-06,3.036040306003559e-05
3.978350247996778e-07,9.532602864690373e-07,1.8247338965569985e-06,3.052864390372165e-05
3.9840133706993157e-07,9.503375979630974e-07,1.8728043976549084e-06,3.069182277087738e-05
3.9886616686186893e-07,9.471339363532288e-07,1.9216377193339458e-06,3.084783007964605e-05
3.9921952869904743e-07,9.437121241014157e-07,1.9709989156111604e-06,3.099452028723932e-05
3.9945018705973884e-07,9.401368903556186e-07,2.020653578384065e-06,3.1129814179123765e-05
3.9954634675724135e-07,9.364685744683649e-07,2.0703989452372056e-06,3.125185265236999e-05
3.9949621380623e-07,9.327674194375721e-07,2.120096203070943e-06,3.13591606180617e-05
3.992894622440432e-07,9.290984975204106e-07,2.16967813125677e-06,3.145068810861141e-05
3.989196799776584e-07,9.255281609749314e-07,2.21912320082702e-06,3.152568518734517e-05
3.983850076510269e-07,9.221170711109413e-07,2.268413375232336e-06,3.158352287765059e-05
3.976858518303352e-07,9.189184330648789e-07,2.317503857802408e-06,3.162358936659427e-05
3.968218936002957e-07,9.159797945284261e-07,2.366318834258184e-06,3.1645286072327196e-05
3.9579076585066e-07,9.13343420373382e-07,2.414764275198077e-06,3.1648054756206885e-05
3.945886623413545e-07,9.110464760703541e-07,2.4627418380969667e-06,3.16313746858249e-05
3.9321120687405954e-07,9.091228291128077e-07,2.5101536632601465e-06,3.15947746483682e-05
3.916536660627222e-07,9.07603655624545e-07,2.5568961360680646e-06,3.1538000538634806e-05
3.8991167658045603e-07,9.065149384417057e-07,2.6028505244792582e-06,3.146130050592213e-05
3.8798284001399774e-07,9.058735940880205e-07,2.647879521077307e-06,3.136553773049728e-05
3.858682453280968e-07,9.05684065873036e-07,2.69182856015576e-06,3.125203155547005e-05
3.8357358792449927e-07,9.05936563787917e-07,2.7345270021193712e-06,3.1122320001002724e-05
3.8110903754951967e-07,9.066073299153441e-07,2.7757916900900026e-06,3.097797657057694e-05
3.78487302658954e-07,9.076601318768343e-07,2.8154372484492093e-06,3.082054212587434e-05
3.7572129185816953e-07,9.090490228230391e-07,2.8532877809405683e-06,3.065168214988637e-05
3.7282290762215024e-07,9.107225554440224e-07,2.8891795810290746e-06,3.047347929892665e-05
3.6980368505714896e-07,9.126276294839777e-07,2.9229547679967762e-06,3.0288546704796497e-05
3.666759606855093e-07,9.147118299420031e-07,2.9544568601318462e-06,3.009989035710906e-05
3.634523352872568e-07,9.169250891408188e-07,2.983534803905817e-06,2.991071750446973e-05
3.601443545534829e-07,9.192200344223921e-07,3e-07,2.9724283500972686e-05
3.5676260760977765e-07,9.215510467161795e-07,3e-07,2.9543757579331263e-05
3.5331900622333886e-07,9.238752741391185e-07,3e-07,2.9372109858463465e-05
3.4983025355259447e-07,9.261559351736166e-07,3e-07,2.9212028622698864e-05
3.463189144028462e-07,9.283640026479016e-07,3e-07,2.906586925436685e-05
3.4281073399630577e-07,9.304771976391147e-07,3e-07,2.8935642486645086e-05
3.3933174790993557e-07,9.324798347142029e-07,3e-07,2.8823026234486407e-05
3.3590740920604904e-07,9.343658200111087e-07,3e-07,2.872934886494392e-05
3.325626098587957e-07,9.361409076516024e-07,3e-07,2.8655521609534193e-05
3.293213518525932e-07,9.378189380829442e-07,3e-07,2.860195874826936e-05
3.262059099621426e-07,9.394137846035152e-07,3e-07,2.8568553878821034e-05
3.232360296647574e-07,9.409335536521604e-07,3e-07,2.8554768535777557e-05
3.204285378306193e-07,9.423816877603455e-07,3e-07,2.8559808973942494e-05
3.177978348268802e-07,9.437622692314731e-07,3e-07,2.8582793734559607e-05
3.153568252056453e-07,9.450805525639885e-07,3e-07,2.8622862963221496e-05
3.131162054712747e-07,9.463372820401785e-07,3e-07,2.867926147561867e-05
3.110823225796023e-07,9.475242794238285e-07,3e-07,2.875140227934095e-05
3.092566365523947e-07,9.486252015688671e-07,3e-07,2.8838869628191778e-05
3.0763856780107607e-07,9.496212850237972e-07,3e-07,2.894136245420681e-05
3.0623113205460444e-07,9.50499122084255e-07,2.997793867412965e-06,2.905862198942765e-05
3.050459692397037e-07,9.512536799571087e-07,2.9749294614910632e-06,2.919034578659767e-05
3.041027833382373e-07,9.518836285818451e-07,2.9507208484193438e-06,2.933605768831859e-05
3.034238231592914e-07,9.523838948226057e-07,2.9252565974243412e-06,2.949497638140116e-05
3.0303083929069573e-07,9.527416905216604e-07,2.8986137180311925e-06,2.966596265811956e-05
3.029466290882278e-07,9.529378865092718e-07,2.8708601364244407e-06,2.984753892905037e-05
3.0319539280877964e-07,9.529507358601354e-07,2.8420541840457517e-06,3.0037938750924157e-05
3.037998230858582e-07,9.527578633268787e-07,2.812243316334793e-06,3.023519185016844e-05
3.047777091591949e-07,9.523367601800829e-07,2.781466251269481e-06,3.0437253492255968e-05
3.061397735440136e-07,9.516660522178284e-07,2.7497591480780117e-06,3.06421083245488e-05
3.078891194744721e-07,9.507275730200979e-07,2.7171644102633416e-06,3.0847750870343724e-05
3.100217034518445e-07,9.495114094353876e-07,2.683738767323519e-06,3.1052083150943745e-05
3.1252676009673874e-07,9.480240767748138e-07,2.649555422247676e-06,3.125286840301257e-05
3.15387288067281e-07,9.462907803051479e-07,2.6146991338704867e-06,3.14477947362802e-05
3.185818010549695e-07,9.443475648036423e-07,2.579257428971414e-06,3.1634610984789396e-05
3.2208781383149466e-07,9.422315823670358e-07,2.543312743978086e-06,3.18112970736963e-05
3.258851952850332e-07,9.399775048188759e-07,2.506941360106815e-06,3.197622312912195e-05
3.2995672179023345e-07,9.376217343875899e-07,2.4702186116160703e-06,3.212819846590238e-05
3.342858988489483e-07,9.352083183799456e-07,2.4332224236173858e-06,3.2266344139267273e-05
3.3885418808052895e-07,9.327881419169394e-07,2.396030731708203e-06,3.238987226871803e-05
3.436394950828584e-07,9.304125569929592e-07,2.358714482581794e-06,3.249793920489649e-05
3.4861652651549674e-07,9.281266935908779e-07,2.3213307734688897e-06,3.258963466775149e-05
3.53757488712857e-07,9.259638255403427e-07,2.2839203597155545e-06,3.2664027305700437e-05
3.5903220064053594e-07,9.239425742653154e-07,2.246509050532737e-06,3.272019294325027e-05
3.6440821176329436e-07,9.22069022135718e-07,2.209110963297956e-06,3.275725105817944e-05
3.698506512404586e-07,9.203428649121092e-07,2.171733541230444e-06,3.277451975207362e-05
3.753228507299566e-07,9.187622685809409e-07,2.134381694199488e-06,3.277179588320508e-05
3.8078958852153613e-07,9.173227760878479e-07,2.0970577298096268e-06,3.274951366949554e-05
3.8622045521750116e-07,9.160139835821205e-07,2.0597604933710016e-06,3.2708602315078576e-05
3.9158968201294927e-07,9.148195851209824e-07,2.022488823043404e-06,3.2650196941373055e-05
3.968735997857683e-07,9.137202084376328e-07,1.9852475339038155e-06,3.2575411604287924e-05
4.020483516271592e-07,9.126952172868513e-07,1.9480507606073973e-06,3.248526175045391e-05
4.070887426443746e-07,9.117217481080026e-07,1.910920089849941e-06,3.2380823683227065e-05
4.1196899985395704e-07,9.107734507845136e-07,1.8738788692439087e-06,3.226355896301546e-05
4.1666500753774313e-07,9.098208828860217e-07,1.8369481647590999e-06,3.2135491381391465e-05
4.211556513662836e-07,9.088318181952557e-07,1.8001511785467327e-06,3.1999105663709055e-05
4.2542294932433353e-07,9.077712023444615e-07,1.7635269186804524e-06,3.18571266145125e-05
4.294533511968373e-07,9.066027039320274e-07,1.727142387397546e-06,3.171230702696941e-05
4.332397824525219e-07,9.052906083484043e-07,1.6910900126122303e-06,3.1567261814942194e-05
4.367820170284629e-07,9.03799649606572e-07,1.655474668325529e-06,3.142436329614866e-05
4.4008528979418823e-07,9.020951217683127e-07,1.6204085050478563e-06,3.128568254527024e-05
4.4315720855137614e-07,9.001456749587845e-07,1.586015734110634e-06,3.115296416516668e-05
4.460038876521297e-07,8.979252515650398e-07,1.552433140890978e-06,3.102763586999787e-05
4.4862816687700995e-07,8.954119805462839e-07,1.519801034221251e-06,3.091082606249991e-05
4.5102982479989967e-07,8.925883258543881e-07,1.4882491137250284e-06,3.080334482235423e-05
4.532060635046779e-07,8.894457344444027e-07,1.4578849992301854e-06,3.070563291994183e-05
4.5515262610794926e-07,8.859910202003014e-07,1.428795765577861e-06,3.061772224607191e-05
4.568652911047553e-07,8.822485403654033e-07,1.4010638829547794e-06,3.053923159944184e-05
4.5834056736783656e-07,8.782542430779913e-07,1.3747855429884993e-06,3.0469416657407563e-05
4.595755219322523e-07,8.74044942744224e-07,1.350076231901513e-06,3.040728787715215e-05
4.605670009411753e-07,8.696515656401377e-07,1.327057656098551e-06,3.035175039665324e-05
4.6131052127284687e-07,8.650996862291273e-07,1.3058365597347179e-06,3.030170735429801e-05
4.617996796249527e-07,8.604132113765394e-07,1.2864923483943977e-06,3.025613691966155e-05
4.620267744129946e-07,8.556186047601873e-07,1.2690798620617676e-06,3.0214155492729816e-05
4.619839124090061e-07,8.507483715055495e-07,1.2536413590032689e-06,3.0175028543492438e-05
4.616636150536021e-07,8.458416622072226e-07,1.2402177511631772e-06,3.0138119846848115e-05
4.610601078750933e-07,8.409428864271548e-07,1.2288532539089093e-06,3.0102824094998094e-05
4.6017205397270453e-07,8.360984339876532e-07,1.21959393599098e-06,3.0068503484608196e-05
4.5900430559294346e-07,8.313510089411522e-07,1.2124813049693432e-06,3.003442501689245e-05
4.5756719107469996e-07,8.267369522917079e-07,1.2075420065915898e-06,2.9999748330303992e-05
4.558745253308012e-07,8.222900532902494e-07,1.2047786643617277e-06,2.9963586046566504e-05
4.539416330286797e-07,8.180467916923493e-07,1.2041683006945973e-06,2.992504898057154e-05
4.5178462645104847e-07,8.14046658340076e-07,1.2056715017422484e-06,2.988323014871446e-05
4.4942114550749723e-07,8.103266968218966e-07,1.209248722172025e-06,2.983718590767987e-05
4.4687133791873027e-07,8.069156106884538e-07,1.2148710757090833e-06,2.9785953150571864e-05
4.441588565365578e-07,8.038316562176348e-07,1.2225144513127355e-06,2.9728569064544548e-05
4.4131207587431184e-07,8.010837767782075e-07,1.2321451473194411e-06,2.9664050802289068e-05
4.383633358301829e-07,7.986781982353414e-07,1.243718245390157e-06,2.959136283775396e-05
4.3534453489497757e-07,7.966295579584969e-07,1.257196058669359e-06,2.9509431077349152e-05
4.3228268687804786e-07,7.949657061276467e-07,1.2725734083256331e-06,2.9417213484885846e-05
4.29199273035144e-07,7.937243096853492e-07,1.2898927908176954e-06,2.931381636845797e-05
4.2611178440721994e-07,7.929493467894433e-07,1.309239535333085e-06,2.9198661206825146e-05
4.2303516100709e-07,7.926860027783002e-07,1.3307148573310906e-06,2.907166475527956e-05
4.199828125134823e-07,7.929722155520359e-07,1.354399022865063e-06,2.8933316003002332e-05
4.1696706741889634e-07,7.938337007046576e-07,1.3803304803619416e-06,2.8784560475433772e-05
4.139997198625637e-07,7.952838474779322e-07,1.4085132403425057e-06,2.8626538094481367e-05
4.1109260686307955e-07,7.973229653609598e-07,1.4389350363140111e-06,2.8460323666944e-05
4.0825764380015005e-07,7.999357927061431e-07,1.4715729511828234e-06,2.8286793290751366e-05
4.0550755255405383e-07,8.030911197385766e-07,1.5063818512658163e-06,2.8106612495649737e-05
4.0285771495499213e-07,8.067452421027636e-07,1.5432779784208632e-06,2.792026792254266e-05
4.0032777665980396e-07,8.108477242280768e-07,1.5821313721746653e-06,2.7728114607220808e-05
3.9794127824846346e-07,8.153462252836493e-07,1.6227711544630415e-06,2.7530506311709056e-05
3.9572245456100565e-07,8.201871861684686e-07,1.6650002976360286e-06,2.7328046386790523e-05
3.9369231682419684e-07,8.253142013964569e-07,1.7086121696237077e-06,2.7121787349991435e-05
3.918669812279393e-07,8.306697492178711e-07,1.753400120794212e-06,2.691318072986559e-05
3.902577794584037e-07,8.361995648693375e-07,1.7991599875352864e-06,2.670385251388729e-05
3.8887086319240853e-07,8.418538325748167e-07,1.8456922245589803e-06,2.649538306384628e-05
3.8770675176883676e-07,8.475860708455262e-07,1.892804518382e-06,2.6289177938996025e-05
3.867621773351504e-07,8.533521219290729e-07,1.9403098415856567e-06,2.608655258972051e-05
3.860335989403585e-07,8.591076784688933e-07,1.9880185512024933e-06,2.5889043054338265e-05
3.855188541065038e-07,8.648062186921579e-07,2.035732522884245e-06,2.5698648770378132e-05
3.852155571747994e-07,8.703988103303532e-07,2.083252546194872e-06,2.5517788792484837e-05
3.8511885477688313e-07,8.758335984992329e-07,2.130397069681099e-06,2.5349091792332643e-05
3.852217859433472e-07,8.81055182579698e-07,2.1770182264608015e-06,2.519520469353017e-05
3.855174083006953e-07,8.860054646968985e-07,2.223006943255684e-06,2.5058666322192104e-05
3.8599900205183357e-07,8.906265575751148e-07,2.268289007398524e-06,2.494181157517681e-05
3.866582991250336e-07,8.948650739265551e-07,2.3128170941099043e-06,2.484668770003581e-05
3.8748471008877023e-07,8.986754428744655e-07,2.35656117237171e-06,2.4775004823770966e-05
3.8846619122985725e-07,9.020210138907795e-07,2.399495843172116e-06,2.472813531789589e-05
3.895908460126461e-07,9.048731901032477e-07,2.441585350700494e-06,2.470712681517341e-05
3.908483864730515e-07,9.072093424466229e-07,2.4827716113792546e-06,2.471267104477616e-05
3.9222991017089255e-07,9.090118719771921e-07,2.522970710404047e-06,2.4745020721486604e-05
3.9372636250131397e-07,9.102684926843408e-07,2.562077706153835e-06,2.4803902909838865e-05
3.95327973042451e-07,9.10971532706138e-07,2.599973980396481e-06,2.4888479354443562e-05
3.970246425895712e-07,9.111180392283991e-07,2.6365337923469784e-06,2.499739223825765e-05
3.9880564138325247e-07,9.107111474001358e-07,2.671630195149263e-06,2.512890411987029e-05
4.0065902896289404e-07,9.097590489355093e-07,2.7051399890654158e-06,2.528107309791926e-05
4.025720214764589e-07,9.082736672691059e-07,2.736947733541369e-06,2.5451892674173927e-05
4.0453157224153295e-07,9.062717392085691e-07,2.7669487119873384e-06,2.5639400545506813e-05
4.065254884124813e-07,9.037738383025524e-07,2.7950494560962587e-06,2.584177836915889e-05
4.085454674530823e-07,9.008020513352484e-07,2.821165108040472e-06,2.6057403858486165e-05
4.1058896847134365e-07,8.973830264506821e-07,2.845215283061272e-06,2.6284822184830622e-05
4.126572476998107e-07,8.935551518371801e-07,2.8671197939559387e-06,2.652266558963804e-05
4.147534675640615e-07,8.893732159733476e-07,2.8867940295174633e-06,2.6769553367650284e-05
4.1688340679744846e-07,8.849092479915989e-07,2.904146909304881e-06,2.702399048399078e-05
4.1905551746423937e-07,8.802503058990203e-07,2.9190860066138765e-06,2.7284318774586644e-05
4.212783268354565e-07,8.754900253028212e-07,2.9315270153514925e-06,2.7548748140974303e-05
4.235569480794379e-07,8.70716233589497e-07,2.941398310193283e-06,2.7815395818817186e-05
4.258909516960347e-07,8.660048186654718e-07,2.948638023801726e-06,2.808228137429391e-05
4.282748651329983e-07,8.614204310695772e-07,2.9531922456693306e-06,2.834732807936518e-05
4.3070028447980577e-07,8.570156952586148e-07,2.955020848009692e-06,2.860841887551397e-05
4.331564767977393e-07,8.528291724320655e-07,2.9541048451699766e-06,2.8863469017816804e-05
4.35629002860726e-07,8.488862181124759e-07,2.950446981032979e-06,2.9110442150899705e-05
4.3809940910753386e-07,8.452017307608519e-07,2.9440660895225164e-06,2.9347311746127287e-05
4.4054714891914424e-07,8.417843977489763e-07,2.934988628164466e-06,2.9572077685946862e-05
4.429517074162175e-07,8.38640557514765e-07,2.9232409298592386e-06,2.9782942624002112e-05
4.452933045206442e-07,8.357731754445542e-07,2.9088483417267576e-06,2.997857780687102e-05
4.4755264297010467e-07,8.33179578202355e-07,2.8918424579291686e-06,3.0158262571047114e-05
4.497104730231e-07,8.308542758490619e-07,2.8722702669138697e-06,3.0321814401686042e-05
4.5174704139996347e-07,8.287941329380895e-07,2.8502010296920438e-06,3.0469431307859693e-05
4.5364203084359064e-07,8.270039460946373e-07,2.8257301110720884e-06,3.06015417527046e-05
4.553754712362465e-07,8.255037739022106e-07,2.7989769235028217e-06,3.071864609521501e-05
4.569284105696581e-07,8.243315222582374e-07,2.7700752891298006e-06,3.082115355420529e-05
4.582822326673941e-07,8.235361556259156e-07,2.739160674447495e-06,3.09092942770534e-05
4.5941763352798757e-07,8.231672213089827e-07,2.7063629855810916e-06,3.098314265015246e-05
4.603148276119624e-07,8.232657209825578e-07,2.671810565563055e-06,3.104268282132739e-05
4.609555897242969e-07,8.238589396270679e-07,2.635638587608573e-06,3.1087845333143344e-05
4.6132624340476294e-07,8.249606901163991e-07,2.597989555637353e-06,3.1118555431239504e-05
4.614192740816026e-07,8.265729302730307e-07,2.559008316987017e-06,3.113491094481413e-05
4.6123225185228155e-07,8.286851040027233e-07,2.518844765926826e-06,3.113741094405434e-05
4.607650963766647e-07,8.312733576274277e-07,2.477665232834525e-06,3.112694169785889e-05
4.600175515851726e-07,8.343020652025217e-07,2.4356596217905344e-06,3.1104527586945566e-05
4.5898792390810793e-07,8.377272671239295e-07,2.393036614347996e-06,3.1071239327685966e-05
4.5767317099789455e-07,8.415007751868952e-07,2.3500125731521357e-06,3.1028363111736685e-05
4.5607023035934295e-07,8.45574450133603e-07,2.306802474364884e-06,3.097750939158824e-05
4.541782650819069e-07,8.499032111428053e-07,2.2636164175004194e-06,3.092052712252243e-05
4.52000536321768e-07,8.544440624993373e-07,2.220661506555172e-06,3.085936201719792e-05
4.4954400093367006e-07,8.591539449268173e-07,2.1781463284190084e-06,3.079593274806902e-05
4.4681706212404566e-07,8.639904937367819e-07,2.1362855609972766e-06,3.073202402041897e-05
4.4382847326079815e-07,8.689126437634493e-07,2.0953016182995314e-06,3.0669201823365665e-05
4.4058823760772455e-07,8.738808266712601e-07,2.0554178797148115e-06,3.0608761595375424e-05
4.371086112464287e-07,8.788602177470484e-07,2.016842962339428e-06,3.055171531217497e-05
4.3340419692489653e-07,8.83822339746044e-07,1.979754748633765e-06,3.0498801454988867e-05
4.294915019732478e-07,8.887400050648853e-07,1.9442954019805333e-06,3.045049410962832e-05
4.25388340857084e-07,8.935808628838413e-07,1.910580105439154e-06,3.0407010960273076e-05
4.2111300902759755e-07,8.983064568742069e-07,1.8787111211279682e-06,3.0368331074199266e-05
4.1668317437728856e-07,9.0287711028081e-07,1.8487873556336941e-06,3.033419829166637e-05
4.121151805829684e-07,9.072574134427952e-07,1.8209044594249088e-06,3.0304086796054742e-05
4.074242631513242e-07,9.114167949799522e-07,1.795146982044389e-06,3.027718173954275e-05
4.026248154702523e-07,9.153259746377363e-07,1.7715809362468868e-06,3.0252432211954345e-05
3.977305024465497e-07,9.18953541223947e-07,1.7502533356979664e-06,3.022863840276267e-05
3.927551648041893e-07,9.222640926557836e-07,1.7311976473054527e-06,3.020451763121034e-05
3.8771378555732824e-07,9.252181856089962e-07,1.7144405512030237e-06,3.0178760437998603e-05
3.826221228060769e-07,9.277748846038731e-07,1.7000058084358488e-06,3.0150098853528425e-05
3.7749532387106477e-07,9.298960705458664e-07,1.6879146510511153e-06,3.0117377560280762e-05
3.7234672192343186e-07,9.315489386175251e-07,1.6781854938251931e-06,3.0079617235909086e-05
3.671876617175696e-07,9.327048733076132e-07,1.6708321775938386e-06,3.003606446354216e-05
3.620280773248141e-07,9.333384039887436e-07,1.6658565746312088e-06,2.99862145766026e-05
3.5687717289238946e-07,9.334305469449859e-07,1.6632396789076013e-06,2.992979656165458e-05
3.517442603030437e-07,9.329744649617088e-07,1.6629421741999325e-06,2.9866708495397192e-05
3.466399722442479e-07,9.31976308836458e-07,1.664913748925067e-06,2.979690954452756e-05
3.415779867129734e-07,9.304491124816332e-07,1.669098865971037e-06,2.97203425845544e-05
3.3657652639433106e-07,9.284060894005241e-07,1.6754330418209462e-06,2.9636950361311022e-05
3.3165840568765785e-07,9.258597657961941e-07,1.6838334330742872e-06,2.9546712556264635e-05
3.268506153034057e-07,9.228261832594507e-07,1.6941923116430837e-06,2.944960975386632e-05
3.221844230879888e-07,9.19326881300428e-07,1.7063788461908331e-06,2.934555909866208e-05
3.1769369592017e-07,9.153851939662681e-07,1.7202438466775737e-06,2.923439795218399e-05
3.134106821859757e-07,9.110224624309565e-07,1.7356226961838192e-06,2.911590907328402e-05
3.0936228235388796e-07,9.062580991544974e-07,1.7523402912516106e-06,2.8989850677424237e-05
3.055684089198611e-07,9.011126045868052e-07,1.7702177777040057e-06,2.8855962660536156e-05
3.0204240360135565e-07,8.956141135680151e-07,1.789075401931229e-06,2.871397777226378e-05
2.9879415325162005e-07,8.898051586176069e-07,1.8087329777236588e-06,2.8563687282698242e-05
2.958336014806981e-07,8.837421541026336e-07,1.8290129224069981e-06,2.840500681629175e-05
2.931705631484743e-07,8.774880870235806e-07,1.84974308715224e-06,2.8237964368133314e-05
2.908122164099148e-07,8.711076530696268e-07,1.8707544042534233e-06,2.806262174890308e-05
2.8876223999342107e-07,8.646718798116179e-07,1.891875080033366e-06,2.787898961796685e-05
2.870214058651206e-07,8.582652266511335e-07,1.9129277329263256e-06,2.7686984872841913e-05
2.8558825822169037e-07,8.519817529443599e-07,1.933732927597941e-06,2.748645245114137e-05
2.844603296070661e-07,8.459141145656339e-07,1.9541141697491e-06,2.7277268562720666e-05
2.8363489883823057e-07,8.401479047800974e-07,1.973898429473175e-06,2.7059486222522242e-05
2.831080036622712e-07,8.347601507885862e-07,1.9929146328958645e-06,2.6833417080400946e-05
2.8287417376992477e-07,8.298162599938394e-07,2.010993883199616e-06,2.659959839605184e-05
2.829281247151305e-07,8.253674471884258e-07,2.027970011244235e-06,2.6358674781742222e-05
2.8326569051178737e-07,8.214503859906077e-07,2.0436798323882982e-06,2.6111314781969548e-05
2.83883804821388e-07,8.180869702293402e-07,2.0579647629908167e-06,2.585831920184635e-05
2.847815910772496e-07,8.152848525166437e-07,2.0706744931237566e-06,2.560081200713948e-05
2.859617250682228e-07,8.130401633811763e-07,2.081673859981513e-06,2.534024236326561e-05
2.874298020120244e-07,8.113399411419679e-07,2.0908525334066133e-06,2.507824660864383e-05
2.891916739001504e-07,8.101622760217507e-07,2.098131604329863e-06,2.481656052930485e-05
2.912510257709606e-07,8.094765470597395e-07,2.1034626506443847e-06,2.455695250904117e-05
2.9360938185325146e-07,8.092468280379386e-07,2.106822489868021e-06,2.4301125642683225e-05
2.96268372086382e-07,8.094366868268743e-07,2.108206458768812e-06,2.4050623053426528e-05
2.992321854781468e-07,8.100113141174817e-07,2.1076214483408044e-06,2.3806747962320903e-05
3.025079724595566e-07,8.109357234080945e-07,2.1050868196584187e-06,2.357050659566373e-05
3.061030855162759e-07,8.121711290789982e-07,2.1006475947751117e-06,2.3342587933928435e-05
3.100220061161149e-07,8.136734785096885e-07,2.0943877529524706e-06,2.312337022300406e-05
3.1426649487998285e-07,8.153953607400951e-07,2.086429771302656e-06,2.291293737128421e-05
3.1883677054284377e-07,8.172891907415805e-07,2.076919225813388e-06,2.271110439084399e-05
3.2373052494201324e-07,8.193096041232875e-07,2.066002575808277e-06,2.2517453864959845e-05
3.2894097275785797e-07,8.214136446546553e-07,2.053810277128044e-06,2.2331376247006112e-05
3.344565395205141e-07,8.235596989529973e-07,2.040453089230188e-06,2.2152119532334745e-05
3.402629632831916e-07,8.257070780166723e-07,2.0260291317154752e-06,2.1978847335428346e-05
3.463455588152926e-07,8.278161114251026e-07,2.010635423623716e-06,2.181067122552644e-05
3.5268858224364454e-07,8.298480081530156e-07,1.994380591092529e-06,2.164666116923879e-05
3.5927237263944655e-07,8.317647417816125e-07,1.977396968580134e-06,2.1485883399742966e-05
3.6607235408693095e-07,8.335300424933773e-07,1.9598483351299492e-06,2.1327467564470066e-05
3.7306188176128116e-07,8.351101249481125e-07,1.9419303526061287e-06,2.117066516296505e-05
3.8021551603157923e-07,8.364730331119774e-07,1.9238643802289952e-06,2.1014866077686407e-05
3.875086610965454e-07,8.375904183965376e-07,1.9058840599619289e-06,2.0859560943678132e-05
3.949155806847435e-07,8.384410406508269e-07,1.8882220185958458e-06,2.0704289522844928e-05
4.024100214791612e-07,8.390097710792665e-07,1.871117430260717e-06,2.0548637470680982e-05
4.0996838288265356e-07,8.392839980624985e-07,1.8548451296653062e-06,2.039229558417531e-05
4.1757332787360723e-07,8.392528294964474e-07,1.839736473444967e-06,2.023512268167993e-05
4.252153178194139e-07,8.389075502649325e-07,1.8261725511505646e-06,2.00771427743201e-05
4.328904864937729e-07,8.382426984755739e-07,1.814555940933313e-06,1.9918481906644165e-05
4.405970960344798e-07,8.372607452373148e-07,1.8052749856144744e-06,1.9759285010633124e-05
4.483323706741802e-07,8.359779040518418e-07,1.798674351824018e-06,1.9599654170222295e-05
4.5608957071667683e-07,8.344242802190998e-07,1.7950379761134883e-06,1.9439682846512974e-05
4.6385687939990223e-07,8.326366407589073e-07,1.794579503713118e-06,1.9279565601277923e-05
4.716181540035968e-07,8.306500103671689e-07,1.7974362253116104e-06,1.911962178745356e-05
4.793533548881374e-07,8.284946765858151e-07,1.8036683740315658e-06,1.896019007227917e-05
4.870387713484776e-07,8.261966987837312e-07,1.813264644175661e-06,1.8801525299119488e-05
4.946478740687213e-07,8.237774871942611e-07,1.826150683374657e-06,1.8643788533403365e-05
5.021522727153981e-07,8.212554220187341e-07,1.842196563982094e-06,1.8487139629717976e-05
5.09522726832202e-07,8.186501810517766e-07,1.8612236862801068e-06,1.8331874706338026e-05
5.167302420461657e-07,8.159831662805613e-07,1.883015755914848e-06,1.817848471398962e-05
5.237462736535522e-07,8.132753625897594e-07,1.9073343160873851e-06,1.802758629611421e-05
5.305418611785569e-07,8.105479122507196e-07,1.933932562808285e-06,1.7879795963230686e-05
5.370878128958903e-07,8.078210436919401e-07,1.9625636578192844e-06,1.77356325938395e-05
5.433577971247351e-07,8.051095117434238e-07,1.9929855557931727e-06,1.7595520332115343e-05
5.493324589700945e-07,8.024214325664111e-07,2.0249631208294517e-06,1.745992397620963e-05
5.550010224971607e-07,7.997645724282826e-07,2.058266800181078e-06,1.732951399606607e-05
5.603600145179868e-07,7.9715754152715e-07,2.0926704976684897e-06,1.7205196925100052e-05
5.654105277065856e-07,7.946370851002733e-07,2.127950720388632e-06,1.708798588136909e-05
5.701542450944243e-07,7.922538628394516e-07,2.1638840012804853e-06,1.6978811989566807e-05
5.745897281841521e-07,7.900605175443832e-07,2.2002406094579e-06,1.687838052652726e-05
5.787116944299967e-07,7.881013943594631e-07,2.2367785317422957e-06,1.6787142802048747e-05
5.825134200331786e-07,7.864093240215576e-07,2.273242369975628e-06,1.670535389816367e-05
5.85989525761703e-07,7.850078980706856e-07,2.3093674253380332e-06,1.6633124914940287e-05
5.89136304247614e-07,7.839136145510675e-07,2.344886816271973e-06,1.657050282475843e-05
5.919499947131465e-07,7.831356820785317e-07,2.3795391939635377e-06,1.6517686605809803e-05
5.944253602317141e-07,7.82674690806819e-07,2.4130737054980347e-06,1.6475288527347932e-05
5.965553858747615e-07,7.825212099979558e-07,2.445252964579927e-06,1.6444385935452992e-05
5.983334026484672e-07,7.826552044933895e-07,2.475862928980138e-06,1.642631585032493e-05
5.997577632831649e-07,7.830464190252252e-07,2.504732590232788e-06,1.642239879942927e-05
6.008338372996523e-07,7.836553955444369e-07,2.53175006857686e-06,1.6433733684501618e-05
6.01570033349213e-07,7.844352198812325e-07,2.5568613181451625e-06,1.6461167711090973e-05
6.019730116975133e-07,7.85333851693214e-07,2.580052204856387e-06,1.6505541156599074e-05
6.02047785063765e-07,7.862962298003578e-07,2.6013243176779232e-06,1.6568051595206827e-05
6.018011773336211e-07,7.872653252038244e-07,2.6206760279098202e-06,1.6650403575826158e-05
6.012439696878395e-07,7.8818326986172e-07,2.638097361888885e-06,1.6754670137789457e-05
6.003900239769006e-07,7.889955468683894e-07,2.6535787031162284e-06,1.6883044556007535e-05
5.992536869094037e-07,7.896575706283167e-07,2.66712482014903e-06,1.703762096977354e-05
5.978477385880721e-07,7.901388076447234e-07,2.678766290374868e-06,1.7220246962325327e-05
5.961836025677486e-07,7.904223120893696e-07,2.6885646966102367e-06,1.7432425317231797e-05
5.942737051880793e-07,7.905014306132423e-07,2.6966097967574813e-06,1.7675226011894847e-05
5.921333079031953e-07,7.903759125409902e-07,2.7030097151396257e-06,1.79492193560588e-05
5.897790271933257e-07,7.900483440838631e-07,2.7078802760398033e-06,1.825445744240671e-05
5.8722550982013e-07,7.895208842659218e-07,2.711340405307788e-06,1.8590476633756965e-05
5.844843883827457e-07,7.88793624632581e-07,2.713511003354071e-06,1.895627824053777e-05
5.815669676667076e-07,7.878657810044045e-07,2.7145077627932387e-06,1.935030783035536e-05
5.784875669616178e-07,7.867379390210564e-07,2.714427729384584e-06,1.9770477092541304e-05
5.752633800061966e-07,7.854127089817703e-07,2.7133390355025452e-06,2.02142426174565e-05
5.719112087757124e-07,7.838941720787755e-07,2.7112795125326363e-06,2.067874983900521e-05
5.684452088937857e-07,7.821878210961305e-07,2.7082631575082507e-06,2.1161022342975207e-05
5.648776811544306e-07,7.80299882277617e-07,2.7042903360315314e-06,2.1658118231133087e-05
5.612208188093364e-07,7.782351657798694e-07,2.699356406553365e-06,2.216721003243684e-05
5.574876343445657e-07,7.759951749898915e-07,2.6934566393325943e-06,2.2685632814506204e-05
5.53692388342131e-07,7.735777755337119e-07,2.686590098482545e-06,2.3210914518468925e-05
5.498493929990388e-07,7.709780670696047e-07,2.678763474317489e-06,2.3740741541676746e-05
5.459701085424465e-07,7.681897221254681e-07,2.6699915754804188e-06,2.4272869508965114e-05
5.4206144743241e-07,7.652084325534613e-07,2.6602924644675367e-06,2.4805041747417223e-05
5.38126055777114e-07,7.620377334136848e-07,2.6496807597144693e-06,2.5334933626281163e-05
5.341631539325425e-07,7.586921923295569e-07,2.6381649453660883e-06,2.586011879233928e-05
5.301698654342854e-07,7.55195307425231e-07,2.6257494509439184e-06,2.637809292146991e-05
5.261441300163888e-07,7.51575569021403e-07,2.6124372561610784e-06,2.688635357198303e-05
5.220884709284937e-07,7.478636285252435e-07,2.5982292954465355e-06,2.7382455589186185e-05
5.18011002194891e-07,7.440892300636043e-07,2.5831205020298807e-06,2.78640078303471e-05
5.139225828784871e-07,7.402766850557098e-07,2.5670970697162157e-06,2.8328671952487e-05
5.098343267513914e-07,7.364414057554341e-07,2.5501388318343087e-06,2.8774209505229303e-05
5.057584756745357e-07,7.325901347640483e-07,2.532224756406644e-06,2.919854053096498e-05
5.017097611879779e-07,7.287257556693315e-07,2.5133387056240484e-06,2.9599799035352253e-05
4.977036618820471e-07,7.248566317927891e-07,2.4934745203896595e-06,2.9976426550637482e-05
4.937531952593776e-07,7.210057446218043e-07,2.4726384980692483e-06,3.032725507761017e-05
4.898678426374289e-07,7.172107466952808e-07,2.4508485399418785e-06,3.0651498956453664e-05
4.860548723349042e-07,7.135135433897255e-07,2.4281322290651813e-06,3.094867365977353e-05
4.823210680854843e-07,7.099498826432917e-07,2.4045251661790768e-06,3.121847658569968e-05
4.786731486856192e-07,7.065497187721966e-07,2.3800680774286927e-06,3.1460650561246726e-05
4.751167352126458e-07,7.033490733943815e-07,2.354801878400924e-06,3.1674880068463894e-05
4.716553894295701e-07,7.004019878102768e-07,2.328764075188435e-06,3.186078045898448e-05
4.6829017206006486e-07,6.977804102708774e-07,2.3019904414772413e-06,3.201799378111304e-05
4.6501924695113317e-07,6.955637093704668e-07,2.2745207384468218e-06,3.214631557086645e-05
4.618383536366212e-07,6.938270550800566e-07,2.2464024524247453e-06,3.224575732857924e-05
4.5874248647798007e-07,6.926341653405391e-07,2.217688000999454e-06,3.231652348235824e-05
4.557273827776912e-07,6.920342038261457e-07,2.188430506241306e-06,3.2358934102667135e-05
4.5278965898103287e-07,6.920599763461225e-07,2.158686028577217e-06,3.237336168949332e-05
4.499267402655347e-07,6.927279810616951e-07,2.128516949093167e-06,3.236029596548527e-05
4.471374741075678e-07,6.940419110221041e-07,2.09798711257342e-06,3.2320501488984144e-05
4.4442157027487546e-07,6.959968541927218e-07,2.067154660580268e-06,3.225503044845774e-05
4.417778484006093e-07,6.98580417093721e-07,2.0360744489378416e-06,3.216505743192359e-05
4.3920381053000203e-07,7.017711558975252e-07,2.0048089089724323e-06,3.205175440250277e-05
4.366967556700448e-07,7.055373392288511e-07,1.973437314817885e-06,3.191626213561572e-05
4.342549592092e-07,7.098374234583355e-07,1.9420572560530767e-06,3.175966668084972e-05
4.3187846383122425e-07,7.14622115121164e-07,1.9107775724128214e-06,3.1582969889854834e-05
4.295696966881525e-07,7.198384732663669e-07,1.8797070959430583e-06,3.138707241304084e-05
4.273337919461913e-07,7.25434217295237e-07,1.8489493767937664e-06,3.117275481222866e-05
4.2517790890475113e-07,7.313575614742812e-07,1.818609171540604e-06,3.094066545313574e-05
4.231094718925549e-07,7.375538018077437e-07,1.7888021199766437e-06,3.069133016139073e-05
4.2113487069912024e-07,7.439648546931854e-07,1.7596557228102276e-06,3.0425165386042742e-05
4.192590662205925e-07,7.505323178625495e-07,1.7313012276483937e-06,3.014249297382503e-05
4.174849686157016e-07,7.572005165917038e-07,1.7038629955748154e-06,2.9843576690425152e-05
4.158129645224272e-07,7.639176941048602e-07,1.677448742775584e-06,2.9528664034302e-05
4.142410978467688e-07,7.706348707545242e-07,1.652141900119449e-06,2.9198001783599842e-05
4.127649359159782e-07,7.773043624552938e-07,1.627998364874697e-06,2.8851834246029437e-05
4.113773637214061e-07,7.838815790707924e-07,1.6050479858537599e-06,2.8490411380350042e-05
4.1006954101189117e-07,7.903299122261807e-07,1.5832989178714486e-06,2.8114018334420752e-05
4.0883190891826405e-07,7.96624563765623e-07,1.5627443636468153e-06,2.7723017996068596e-05
4.076535458104989e-07,8.027507189644056e-07,1.543370665070432e-06,2.7317879292426142e-05
4.0652117878767034e-07,8.086962497854528e-07,1.5251631085049342e-06,2.689917152984162e-05
4.0542017538897133e-07,8.144462569187087e-07,1.5081074232972844e-06,2.646753414440321e-05
4.043379186459749e-07,8.199829907788145e-07,1.4921883294933363e-06,2.6023651255692625e-05
4.0326759999450775e-07,8.252865715959904e-07,1.4773895242569446e-06,2.5568260179641994e-05
4.02210091162892e-07,8.303342302166826e-07,1.4636998044403597e-06,2.5102206808355178e-05
4.011743462880776e-07,8.3510024769769e-07,1.4511212527327855e-06,2.4626527309419814e-05
4.0017728432285256e-07,8.395573601970066e-07,1.439668087879955e-06,2.414249246601049e-05
3.992414286751919e-07,8.436790988147527e-07,1.4293530176977527e-06,2.3651558925190728e-05
3.983901476339697e-07,8.474446875646305e-07,1.420172006923069e-06,2.315525457497644e-05
3.9764401677319705e-07,8.508464700166644e-07,1.4120983478076163e-06,2.265507476198543e-05
3.9701985609784453e-07,8.538936830375634e-07,1.4050844262227527e-06,2.215242884127487e-05
3.9653047183971726e-07,8.566091116663444e-07,1.3990656093614196e-06,2.1648670709624047e-05
3.961843251495821e-07,8.59022873067828e-07,1.3939658188219858e-06,2.11452162368948e-05
3.95985642494093e-07,8.61165984381975e-07,1.3897053593152346e-06,2.0643608272438046e-05
3.959342358399042e-07,8.630655713377718e-07,1.3862120410457136e-06,2.014542960165552e-05
3.960250724057855e-07,8.647461066579593e-07,1.3834360935913534e-06,1.965219181868652e-05
3.9624934917259724e-07,8.662336737260157e-07,1.3813629135013913e-06,1.9165329045029403e-05
3.965970998432261e-07,8.675548175849816e-07,1.3800168462011422e-06,1.868627657203848e-05
3.970590656981774e-07,8.687303764562447e-07,1.379454807337518e-06,1.821658444294385e-05
3.97627612479774e-07,8.697729183391857e-07,1.3797501079932023e-06,1.7758004431321658e-05
3.982990692881836e-07,8.706928271211085e-07,1.3809705325392134e-06,1.731248263426373e-05
3.990775274595353e-07,8.715080406402408e-07,1.3831608417349716e-06,1.6882053760933732e-05
3.999765200305644e-07,8.722469178755943e-07,1.3863376797460056e-06,1.64686740767721e-05
4.010153079692426e-07,8.72941775374762e-07,1.3904964449947054e-06,1.6074065083467128e-05
4.022113491965437e-07,8.736218211950426e-07,1.3956214230480769e-06,1.5699697576786154e-05
4.0357473692844524e-07,8.743136763490914e-07,1.4016899273780522e-06,1.534695382834663e-05
4.0510739041489353e-07,8.750503294394895e-07,1.4086710048063282e-06,1.501729437814429e-05
4.0680450998419147e-07,8.758808282198757e-07,1.4165241140128628e-06,1.471224873814614e-05
4.086558777331707e-07,8.768704654230305e-07,1.4251991226383396e-06,1.4433240182738238e-05
4.1064670733599156e-07,8.7809035155243e-07,1.434637528527473e-06,1.418137759353696e-05
4.1275821324844024e-07,8.796035470115204e-07,1.4447736318387897e-06,1.395734642634611e-05
4.1496815123502886e-07,8.814555723956419e-07,1.4555338530213903e-06,1.376142729127465e-05
4.172517000755394e-07,8.836727703784973e-07,1.466837137301866e-06,1.359357544203239e-05
4.1958324900835744e-07,8.86265365984902e-07,1.4786011748560587e-06,1.3453545342688425e-05
4.219386328146014e-07,8.892306072988369e-07,1.4907574274338768e-06,1.3341120025767999e-05
4.242955923154676e-07,8.925546223152154e-07,1.5032724339501166e-06,1.3256408582118725e-05
4.266323155721493e-07,8.962139659548983e-07,1.516159356010185e-06,1.320000321259407e-05
4.289266629767741e-07,9.001774465438991e-07,1.5294637151248591e-06,1.3172866668251395e-05
4.311567094806391e-07,9.04407346796789e-07,1.5432338146806576e-06,1.3176076371686148e-05
4.33301786605065e-07,9.088594174541924e-07,1.5575038447089497e-06,1.3210580423911944e-05
4.353438687035993e-07,9.134819079179565e-07,1.5722983584962954e-06,1.3277030856222113e-05
4.3726841991155757e-07,9.182156560742588e-07,1.587641991543029e-06,1.3375812149428958e-05
4.3906466369621713e-07,9.22998586485679e-07,1.6035623689444822e-06,1.3507289151804242e-05
4.4072629138791287e-07,9.277738023177622e-07,1.6200877252061522e-06,1.3672025468113127e-05
4.4225121397137223e-07,9.324940235392464e-07,1.6372404293226122e-06,1.3870781303463183e-05
4.4363888519843187e-07,9.371175637025759e-07,1.6550274290810449e-06,1.4104385230479282e-05
4.448872824934461e-07,9.416012490314449e-07,1.6734334534474412e-06,1.4373604408129312e-05
4.4599169644864714e-07,9.458976328477344e-07,1.6924196512553975e-06,1.4679023326862268e-05
4.4694505123505583e-07,9.499571811582457e-07,1.711926208604762e-06,1.5020930254755036e-05
4.477389862052457e-07,9.537326338370328e-07,1.7318787872350933e-06,1.5399237502014498e-05
4.4836478778780854e-07,9.571817260865656e-07,1.7521978471018863e-06,1.5813447557298262e-05
4.4881350413030184e-07,9.602659405996905e-07,1.772809543653299e-06,1.6262651962715742e-05
4.4907572078034237e-07,9.629483901660417e-07,1.7936560117437638e-06,1.6745535819935377e-05
4.49141810999613e-07,9.65195451925412e-07,1.8146967927353641e-06,1.7260362921206194e-05
4.4900263257361926e-07,9.669805454154714e-07,1.83589647186274e-06,1.7804948709284703e-05
4.4864982125593473e-07,9.682840136530478e-07,1.8572104552153008e-06,1.837665093749689e-05
4.480761308437409e-07,9.6908949801501e-07,1.8785852949491897e-06,1.8972394377539547e-05
4.472766187545599e-07,9.693831198264766e-07,1.899972056021972e-06,1.958874884766054e-05
4.4624910708173636e-07,9.69155576388141e-07,1.921335809845562e-06,2.022207163656837e-05
4.4499331386227924e-07,9.684014210615982e-07,1.94265074121178e-06,2.0868669649347127e-05
4.435105696641205e-07,9.671151631482097e-07,1.9638864043451047e-06,2.1524929164112045e-05
4.4180483373945606e-07,9.652890871912736e-07,1.9849956150420073e-06,2.218741199952085e-05
4.3988342837776673e-07,9.62914001261833e-07,2.005909086731314e-06,2.285291955852848e-05
4.3775575180676496e-07,9.599803680742948e-07,2.026536281794793e-06,2.351848599315608e-05
4.354310415627818e-07,9.564800228465849e-07,2.0467689663520852e-06,2.4181290225490505e-05
4.3291733377690725e-07,9.52411907385454e-07,2.066484660173604e-06,2.4838556326869905e-05
4.3022112417714863e-07,9.477908943625157e-07,2.0855492401707628e-06,2.548748988182716e-05
4.273471732935347e-07,9.426517689608265e-07,2.1038200588895627e-06,2.61252409951242e-05
4.242994171186417e-07,9.370435858056051e-07,2.1211522296885767e-06,2.67489242171432e-05
4.2108242330987134e-07,9.310195550860901e-07,2.1374067578103318e-06,2.7355697917359198e-05
4.177019929206985e-07,9.246308292992028e-07,2.1524545700815048e-06,2.79428214509388e-05
4.141656106355469e-07,9.179264193229945e-07,2.1661750015948432e-06,2.8507672005874212e-05
4.1048481006524296e-07,9.109539158302543e-07,2.1784544145917787e-06,2.904777314667899e-05
4.066789832565036e-07,9.037564717348663e-07,2.1891875618669287e-06,2.9560847205910005e-05
4.0277627629019947e-07,8.963685545823389e-07,2.1982799680049682e-06,3.0044861317842572e-05
3.988102220987363e-07,8.888147675400041e-07,2.205653111438748e-06,3.049801549570556e-05
3.9481614630951747e-07,8.811137832532232e-07,2.211252539810055e-06,3.091865624264912e-05
3.908291726854995e-07,8.732882530057369e-07,2.21505291999869e-06,3.130519939848455e-05
3.868826807676305e-07,8.653752138340739e-07,2.217057360065921e-06,3.1656186618165836e-05
3.830068523124747e-07,8.574271642714199e-07,2.2172931764129563e-06,3.1970491710112826e-05
3.7922781310395243e-07,8.495038731778849e-07,2.2158067671084407e-06,3.2247526634485774e-05
3.7556755937377034e-07,8.416649543160962e-07,2.212662567540384e-06,3.2487282145927e-05
3.72043589732261e-07,8.339717009626478e-07,2.207945921455104e-06,3.269019733965238e-05
3.686684635873676e-07,8.264966771949669e-07,2.2017596498678398e-06,3.285696679423726e-05
3.654510659836932e-07,8.193283688887005e-07,2.1942106840511954e-06,3.298836327527097e-05
3.623988782011802e-07,8.125642019738086e-07,2.1853984134610218e-06,3.308510915449416e-05
3.595195322277132e-07,8.062999080185158e-07,2.17541531442612e-06,3.314782826876545e-05
3.568225169419169e-07,8.006216461774952e-07,2.1643564924784353e-06,3.317706259148149e-05
3.5432219304801896e-07,7.956008190163274e-07,2.15232903965284e-06,3.317329045781092e-05
3.520406608946852e-07,7.912917195803375e-07,2.139457722060827e-06,3.3136941490751404e-05
3.500071741000936e-07,7.877316109025041e-07,2.1258878596537497e-06,3.306850933667929e-05
3.482523444675186e-07,7.849424097196284e-07,2.111784819369693e-06,3.296883624931886e-05
3.468007717734977e-07,7.829326416588038e-07,2.0973272104295254e-06,3.283939544976972e-05
3.456672756923095e-07,7.816977135273947e-07,2.0826938767035403e-06,3.2682299596032976e-05
3.448569567449201e-07,7.812197312425811e-07,2.068051321926109e-06,3.250004944108708e-05
3.443668868868961e-07,7.81469032359165e-07,2.053546230137789e-06,3.229525761518953e-05
3.4418809809578534e-07,7.824059951587136e-07,2.039300709081329e-06,3.2070566257637395e-05
3.44306963528392e-07,7.83981651847528e-07,2.025408871428214e-06,3.182880405536495e-05
3.447062792871657e-07,7.86138230504833e-07,2.011935758880999e-06,3.1573141010357434e-05
3.4536650518721017e-07,7.888103923641978e-07,1.998917869992256e-06,3.130703362030629e-05
3.462667140877649e-07,7.919272170584059e-07,1.9863655379255173e-06,3.103405098956582e-05
3.473852645039052e-07,7.954145784431495e-07,1.9742691237009848e-06,3.0757713219167425e-05
3.487003418785016e-07,7.991967758903831e-07,1.962608811324733e-06,3.0481365578642725e-05
3.5019002007559034e-07,8.031987441203742e-07,1.9513645547282934e-06,3.0208091917435932e-05
3.518319534924601e-07,8.073508020247305e-07,1.940522099772223e-06,2.994066584650805e-05
3.53603457840261e-07,8.115926164157664e-07,1.93007381456221e-06,2.9681523890331953e-05
3.5548195299050724e-07,8.158718019165085e-07,1.920015578960445e-06,2.9432740464679927e-05
3.574450721744195e-07,8.201390321072709e-07,1.9103411051816903e-06,2.9196004783516102e-05
3.594706724933277e-07,8.243454827136764e-07,1.901035285808181e-06,2.897262819862949e-05
3.6153753899054633e-07,8.284442754551618e-07,1.892068759718381e-06,2.8763571147857225e-05
3.636272807273842e-07,8.323938518942005e-07,1.8833956488871875e-06,2.8569445836105586e-05
3.657265863715457e-07,8.361607860347981e-07,1.8749547502712219e-06,2.839050155584464e-05
3.6782815086549524e-07,8.397178690987154e-07,1.8666729208009064e-06,2.8226621607008458e-05
3.699301345884269e-07,8.430379806779575e-07,1.8584692929121563e-06,2.8077356018767797e-05
3.720351076791209e-07,8.460904497535284e-07,1.8502586761398715e-06,2.794201529676619e-05
3.7414864682635567e-07,8.488414373508317e-07,1.8419534145369163e-06,2.7819788832020665e-05
3.7627659935559256e-07,8.512554930540459e-07,1.8334647905387429e-06,2.770981877826349e-05
3.7842134321221476e-07,8.532984582952616e-07,1.824704887560149e-06,2.7611224225864984e-05
3.805796447363571e-07,8.549426768682338e-07,1.8155893022958519e-06,2.752311970110841e-05
3.8274332722721134e-07,8.561718356400089e-07,1.8060399306391788e-06,2.744464800298985e-05
3.8490175338208536e-07,8.569802028918221e-07,1.795985399127726e-06,2.7375004323922e-05
3.870441559937696e-07,8.57366406427109e-07,1.7853592038974774e-06,2.731343565020069e-05
3.891601655739449e-07,8.573283369748921e-07,1.7740990001435433e-06,2.7259217054456146e-05
3.9123904975623006e-07,8.568624178230376e-07,1.762148391511527e-06,2.721160044742821e-05
3.932688204765182e-07,8.559645313170901e-07,1.749460231965344e-06,2.716977601127299e-05
3.9523634223751005e-07,8.546298538444488e-07,1.7360008153287651e-06,2.713289755928501e-05
3.971290889956234e-07,8.528520932836905e-07,1.7217518604610405e-06,2.710012341256025e-05
3.989360808065542e-07,8.506239435167455e-07,1.70670692894757e-06,2.707060854458541e-05
4.006466845668192e-07,8.479381685148009e-07,1.6908650950630757e-06,2.7043464926870652e-05
4.022506686189322e-07,8.4478740167075e-07,1.674227102390317e-06,2.70177114116117e-05
4.037401733161065e-07,8.411636461078999e-07,1.6567944792939246e-06,2.699223857080792e-05
4.051100253220517e-07,8.370606265319598e-07,1.6385689350553482e-06,2.696584038371332e-05
4.063558014867829e-07,8.324805505767641e-07,1.6195518063725319e-06,2.6937278710577475e-05
4.0747182496151367e-07,8.27441105250583e-07,1.5997460914713276e-06,2.690532466909668e-05
4.084502884105125e-07,8.219750864385209e-07,1.5791608886415297e-06,2.686886724959347e-05
4.092816438663928e-07,8.161236826103493e-07,1.5578137536660211e-06,2.6827130934348927e-05
4.099558721984493e-07,8.099301604792644e-07,1.5357300294197412e-06,2.677982194687917e-05
4.104636077063575e-07,8.034349739705519e-07,1.5129440995882918e-06,2.672707598999632e-05
4.1079622807249493e-07,7.966723425110949e-07,1.489502827892171e-06,2.666929876543472e-05
4.109451310268661e-07,7.896692880650713e-07,1.46546459611302e-06,2.660701215385357e-05
4.1090113803586656e-07,7.824459293685777e-07,1.4408937889124762e-06,2.654072426546304e-05
4.106549946434261e-07,7.750167987226162e-07,1.4158601313760818e-06,2.647083267696892e-05
4.1019853411365206e-07,7.67393144109979e-07,1.3904450186178342e-06,2.6397594619605136e-05
4.095255646061008e-07,7.595842098762845e-07,1.3647439349312045e-06,2.632115359975816e-05
4.086334489202565e-07,7.515973961388094e-07,1.3388597040493398e-06,2.6241578604656644e-05
4.0752488798928507e-07,7.434406826679381e-07,1.3128951650715198e-06,2.6158891700850673e-05
4.062072477353435e-07,7.351272972562522e-07,1.286953128703838e-06,2.6073128356669964e-05
4.0469013575534186e-07,7.266770820317868e-07,1.2611406965432265e-06,2.598453215816988e-05
4.029839641288201e-07,7.181123096002712e-07,1.2355696451204015e-06,2.589380032625641e-05
4.0109990236549527e-07,7.094524933062887e-07,1.2103506903238446e-06,2.5802097232056226e-05
3.990504853919829e-07,7.007124931783326e-07,1.1855878801088331e-06,2.571081262691742e-05
3.9685032980633724e-07,6.919037474127041e-07,1.1613771902006766e-06,2.5621400695216896e-05
3.945163149645858e-07,6.830365319515173e-07,1.137810659745936e-06,2.553546213660627e-05
3.920668292548482e-07,6.741218644697096e-07,1.1149895113799786e-06,2.5454836856485195e-05
3.895208153988043e-07,6.651726059964513e-07,1.0930411797282585e-06,2.538152536818038e-05
3.8689850133013847e-07,6.562040268938721e-07,1.0721265175396566e-06,2.5317529285843024e-05
3.842246948017911e-07,6.472349315864209e-07,1.0524330225888122e-06,2.5264716271635957e-05
3.815324207875188e-07,6.382886202572496e-07,1.0341616783854162e-06,2.5224708150542184e-05
3.788631913169392e-07,6.293906623748495e-07,1.0175133144996362e-06,2.5198781138491667e-05
3.7626260368548076e-07,6.205646328299784e-07,1.0026753000312686e-06,2.518781295116236e-05
3.7377374966595857e-07,6.118309220918843e-07,9.898107162083952e-07,2.5192286553899013e-05
3.7143232074011726e-07,6.032086643405695e-07,9.790550479059515e-07,2.5212293929251918e-05
3.692653798792722e-07,5.947165226206725e-07,9.705192929711385e-07,2.524753196312251e-05
3.6729293735941637e-07,5.863718020743175e-07,9.642898062060673e-07,2.5297352829111192e-05
3.6553033718796585e-07,5.781906560446647e-07,9.604252400948112e-07,2.5360863623181704e-05
3.6399022585083775e-07,5.701906629099542e-07,9.589634193314722e-07,2.543699452689899e-05
3.626829812060311e-07,5.62392926614625e-07,9.5993616185326e-07,2.5524497537039805e-05
3.616150457969389e-07,5.548208596715268e-07,9.633761807953982e-07,2.5621928568207112e-05
3.6078734281577286e-07,5.474994048283683e-07,9.693158855097657e-07,2.5727694134049508e-05
3.601955643964018e-07,5.404560334251752e-07,9.777915534313593e-07,2.584015297375705e-05
3.59831363236196e-07,5.337183407319239e-07,9.88855987377628e-07,2.5957685569991472e-05
3.5968374727424946e-07,5.273101045654126e-07,1.0025906199279071e-06,2.607870243793929e-05
3.597415608174598e-07,5.212513472905676e-07,1.0191097887640786e-06,2.620162544909176e-05
3.599971415055535e-07,5.15559902681152e-07,1.038557167291856e-06,2.632487512480672e-05
3.6044834448704744e-07,5.102508193990878e-07,1.0610957629334193e-06,2.644688373343317e-05
3.61096283829756e-07,5.05335462757197e-07,1.0868897617495286e-06,2.656612893401304e-05
3.619408760486646e-07,5.008216285900722e-07,1.1160787911069805e-06,2.6681158886557005e-05
3.6297906629250344e-07,4.967130126067398e-07,1.1487518398530266e-06,2.6790578915649288e-05
3.642071326170885e-07,4.930078852726118e-07,1.1849308960173378e-06,2.6893001432122024e-05
3.656231345791232e-07,4.896987193236091e-07,1.2245722105896663e-06,2.6987024827964928e-05
3.672261631061347e-07,4.867741577736728e-07,1.2675832413486055e-06,2.707131775066832e-05
3.69014599798862e-07,4.842216273260597e-07,1.3138427645959848e-06,2.7144769660912385e-05
3.709866445801826e-07,4.820280077079125e-07,1.3632147295837528e-06,2.7206564293903783e-05
3.7314310607820296e-07,4.801801069416166e-07,1.4155537145243437e-06,2.7256101132741377e-05
3.75491551115953e-07,4.786651677279155e-07,1.4707020564366508e-06,2.7292843995702955e-05
3.780494995356252e-07,4.774687216896101e-07,1.5284833354349244e-06,2.731622916516576e-05
3.808424207828521e-07,4.765727131870921e-07,1.5886996051490504e-06,2.7325684258460846e-05
3.83896161037256e-07,4.7595773833989773e-07,1.6511357184955396e-06,2.7320710541878203e-05
3.872291382934553e-07,4.756077860350176e-07,1.7155704546141003e-06,2.730093524275123e-05
3.9084979973989894e-07,4.755155710827341e-07,1.781789383697119e-06,2.726607125279099e-05
3.947599874661917e-07,4.7568561007124024e-07,1.8495892648829269e-06,2.7215838432928306e-05
3.989596528289354e-07,4.761301804265977e-07,1.918769413884789e-06,2.7149953256680186e-05
4.034490867026094e-07,4.768614607454974e-07,1.98911595687372e-06,2.706821944619993e-05
4.082293163542512e-07,4.778886275943747e-07,2.060388131928036e-06,2.697069745953887e-05
4.1330223810258066e-07,4.79219550704453e-07,2.132314272089811e-06,2.685789040174344e-05
4.18670544075445e-07,4.80861982879234e-07,2.204600153849304e-06,2.673081075129141e-05
4.243358500877888e-07,4.828258885728113e-07,2.276942620836763e-06,2.6590834061154826e-05
4.302951979904743e-07,4.851287922995389e-07,2.349036401460681e-06,2.643941388305209e-05
4.365395363514223e-07,4.877981768499672e-07,2.4205715026486696e-06,2.6277831753871303e-05
4.430560404956169e-07,4.908673140846016e-07,2.491229526423769e-06,2.6107099778094603e-05
4.4983361907057817e-07,4.943698252605787e-07,2.560684206798179e-06,2.592798875519274e-05
4.568687382421709e-07,4.983368414326952e-07,2.6286040550504003e-06,2.574108309384511e-05
4.641666230685314e-07,5.027953816432355e-07,2.694654706268064e-06,2.5546878008452953e-05
4.7173646790638456e-07,5.077663693413658e-07,2.7585014993337458e-06,2.5346023442138958e-05
4.795836335722109e-07,5.132627299512734e-07,2.819813889728368e-06,2.5139611661320214e-05
4.877036491647464e-07,5.192904214084036e-07,2.87827235560772e-06,2.4929226922786647e-05
4.960828864568364e-07,5.258522734982497e-07,2.933577158028835e-06,2.4716718344707386e-05
5.04704402264548e-07,5.329487823313025e-07,2.9854555413979437e-06,2.4503929597446162e-05
5.135517970993767e-07,5.405739863827039e-07,3e-07,2.429254071644437e-05
5.226093269636567e-07,5.487108995495053e-07,3e-07,2.408406186272828e-05
5.318623683002211e-07,5.573294132950099e-07,3e-07,2.388002832382767e-05
5.4129978209295e-07,5.663883432940725e-07,3e-07,2.368228901924519e-05
5.50916192177394e-07,5.758423154306354e-07,3e-07,2.349312220863491e-05
5.60710877133976e-07,5.856484129522138e-07,3e-07,2.3315114599464785e-05
5.706817714104429e-07,5.957672495678966e-07,3e-07,2.31509563647917e-05
5.808186747376807e-07,6.06160544745456e-07,3e-07,2.3003251459256995e-05
5.911011688994722e-07,6.167898484344756e-07,3e-07,2.287436832629517e-05
6.015011974357222e-07,6.276173791784793e-07,3e-07,2.2766334454669565e-05
6.119863126216722e-07,6.386069340166466e-07,3e-07,2.2680753856723237e-05
6.225210096805287e-07,6.49723850415366e-07,3e-07,2.2618749854077884e-05
6.330662585034182e-07,6.609348311166197e-07,3e-07,2.2580964904615444e-05
6.435790556713854e-07,6.722070981095197e-07,3e-07,2.2567598855997312e-05
6.540131506030804e-07,6.835069294057682e-07,3e-07,2.2578423196323443e-05
6.643199034936285e-07,6.94799395761954e-07,3e-07,2.261276935842033e-05
6.744491865181535e-07,7.060485446354262e-07,3e-07,2.266953626787641e-05
6.843518201726758e-07,7.172161784485041e-07,3e-07,2.274723489941805e-05
6.939824878847151e-07,7.282599855088751e-07,3e-07,2.284407976726182e-05
7.033004929938845e-07,7.391332238099589e-07,3e-07,2.295812301095487e-05
7.12268695792128e-07,7.497875667913844e-07,3e-07,2.308737677577652e-05
7.20852743110155e-07,7.601771025757845e-07,3e-07,2.322988390772741e-05
7.290213185758111e-07,7.70259281348953e-07,2.9915866238264388e-06,2.3383764518379447e-05
7.367469334804276e-07,7.799942261446874e-07,2.943621837455227e-06,2.354727040755588e-05
7.440058743823712e-07,7.893467030601485e-07,2.892768476002618e-06,2.3718827885939787e-05
7.507763772845304e-07,7.982885875523369e-07,2.8392153234244068e-06,2.3897030987364715e-05
7.570362498825805e-07,8.067970877044155e-07,2.783152793164726e-06,2.408056461360002e-05
7.627615380757119e-07,8.148511187542854e-07,2.724778554687386e-06,2.426808529887072e-05
7.679263844461862e-07,8.224321740914595e-07,2.664300395240148e-06,2.445816432744904e-05
7.725038773846577e-07,8.295268270866619e-07,2.6019328503127516e-06,2.4649349593421202e-05
7.764686235982067e-07,8.361241415927702e-07,2.537891744630301e-06,2.4840234541672345e-05
7.798003601241532e-07,8.422127745803975e-07,2.472392132102866e-06,2.502942842376975e-05
7.82485118000538e-07,8.477835003378278e-07,2.4056483606802293e-06,2.521548811063304e-05
7.84513186131802e-07,8.528328098053528e-07,2.3378738277698303e-06,2.5396914312203492e-05
7.858772563815676e-07,8.573641982707012e-07,2.2692806501683e-06,2.5572214897233185e-05
7.865717637117585e-07,8.613878659615774e-07,2.2000783356558743e-06,2.5739946994525337e-05
7.865923694517333e-07,8.64917463503777e-07,2.130470757576136e-06,2.589867697600154e-05
7.859365344176644e-07,8.679659667893681e-07,2.060653444009454e-06,2.6046920728296883e-05
7.846052993031895e-07,8.705476795997971e-07,1.9908124476307096e-06,2.618316888833836e-05
7.826040455232231e-07,8.726834625325268e-07,1.9211234149337604e-06,2.630599317532601e-05
7.799414424323191e-07,8.743988838199888e-07,1.851750137622219e-06,2.641414661181132e-05
7.766285156619692e-07,8.757174636757837e-07,1.7828436712066032e-06,2.6506652486979645e-05
7.726791024162599e-07,8.766577013969042e-07,1.7145425007902284e-06,2.658291436592749e-05
7.6811005500862e-07,8.772352133200317e-07,1.6469734887642838e-06,2.664273777335593e-05
7.629402339693677e-07,8.774712492472773e-07,1.5802534445317019e-06,2.6686164982918367e-05
7.57189532191008e-07,8.774062078326204e-07,1.5144906988338931e-06,2.671325226087104e-05
7.508783931123091e-07,8.771052860823081e-07,1.4497873435173669e-06,2.672397249382157e-05
7.440282471162993e-07,8.766484858528509e-07,1.3862447740852858e-06,2.671824707872623e-05
7.366631215994791e-07,8.761145325463455e-07,1.3239706019982382e-06,2.6695998191720644e-05
7.288104266566272e-07,8.755703746347074e-07,1.2630799120506214e-06,2.665716109165149e-05
7.204994284494635e-07,8.75067344948259e-07,1.203689523745157e-06,2.6601694059538806e-05
7.117590325548209e-07,8.746404418872419e-07,1.1459105588555485e-06,2.6529707547700767e-05
7.026171779823271e-07,8.743102573816549e-07,1.0898437167345191e-06,2.6441730975266017e-05
6.931018025799734e-07,8.740867840245615e-07,1.0355780208923687e-06,2.633888206079044e-05
6.832417751916965e-07,8.739723358634703e-07,9.831909218757958e-07,2.622276725992906e-05
6.730670451270624e-07,8.739632547970382e-07,9.327485951484637e-07,2.609523990612961e-05
6.626083009418511e-07,8.740509846577829e-07,8.843069496285362e-07,2.595816718578647e-05
6.51896020143947e-07,8.742213987824259e-07,8.379147137868022e-07,2.5813281969988e-05
6.409587322543214e-07,8.744532304446957e-07,7.936196519491842e-07,2.566227197230221e-05
6.298216465370051e-07,8.747186764628744e-07,7.514755860137849e-07,2.550709149664026e-05
6.185070829069808e-07,8.749857347652443e-07,7.115479061791711e-07,2.5350151142783693e-05
6.070368067241659e-07,8.752195131872411e-07,6.739165372051862e-07,2.519419695027567e-05
5.954343699533879e-07,8.753830792151844e-07,6.3867474878518e-07,2.504206191215553e-05
5.837255661151348e-07,8.754398332402107e-07,6.059246018833751e-07,2.489646946491639e-05
5.719382694875164e-07,8.7535668891648e-07,5.757704855704679e-07,2.475990957342424e-05
5.601031654453951e-07,8.751054829199822e-07,5.48311051680323e-07,2.4634557124456e-05
5.482544647501691e-07,8.746617395952069e-07,5.236341142622944e-07,2.4522204204190185e-05
5.364308161004336e-07,8.740042241287082e-07,5.018215562330043e-07,2.442421328042315e-05
5.246771276117803e-07,8.731188037235931e-07,4.829620738551237e-07,2.4341524743688957e-05
5.130446829765536e-07,8.720030793987831e-07,4.6715804726626684e-07,2.4274699099525782e-05
5.015876863475853e-07,8.706650366502191e-07,4.545156587410695e-07,2.422392473507809e-05
4.903590796011157e-07,8.691163398431465e-07,4.451235735377968e-07,2.418898309615705e-05
4.794082307227392e-07,8.673678718488623e-07,4.390353142640267e-07,2.416923609731566e-05
4.6878009108093204e-07,8.654298412401587e-07,4.362626057981693e-07,2.416368385453472e-05
4.585151097229632e-07,8.633113225387268e-07,4.367772345653325e-07,2.417108656760592e-05
4.486499952387153e-07,8.610181719602388e-07,4.40519392907945e-07,2.4190109192074772e-05
4.392189604090339e-07,8.585523320558411e-07,4.4741008013524637e-07,2.421943934594436e-05
4.3025382655643044e-07,8.559127960746256e-07,4.5736231054736347e-07,2.4257850921715548e-05
4.217826999529846e-07,8.530984541443499e-07,4.7028728252193344e-07,2.4304232140361648e-05
4.138295312378131e-07,8.501113697667387e-07,4.86093979431674e-07,2.435760582566552e-05
4.06415274205568e-07,8.469564997958562e-07,5.04683163600046e-07,2.441712576316369e-05
3.995583115727839e-07,8.43640319825518e-07,5.259417525427071e-07,2.448202733680772e-05
3.9327345587038396e-07,8.401723497983632e-07,5.497471599032651e-07,2.4551552670164983e-05
3.875719558687155e-07,8.365658728525878e-07,5.759836010412709e-07,2.4624876673594603e-05
3.824637059248645e-07,8.328350715593239e-07,6.045588684542414e-07,2.470106174441371e-05
3.7795872324028986e-07,8.289914886923328e-07,6.354095374912629e-07,2.477910748642842e-05
3.740646018017817e-07,8.250433245929389e-07,6.684922162547285e-07,2.485808445740197e-05
3.707819874844351e-07,8.209995398033311e-07,7.037663046774154e-07,2.49372132737438e-05
3.6810266340147757e-07,8.168767426754764e-07,7.411775423969003e-07,2.5015841774424555e-05
3.6601075406070745e-07,8.127029674892962e-07,7.806470748394719e-07,2.509340780585321e-05
3.6448431493704706e-07,8.085154777915321e-07,8.220642949637438e-07,2.516942686822127e-05
3.63495991260064e-07,8.043549397096382e-07,8.652836047774756e-07,2.524346123186713e-05
3.630135367204211e-07,8.002583633808635e-07,9.101267756217738e-07,2.5315035296461426e-05
3.6300059449112187e-07,7.962542794233448e-07,9.563894410963218e-07,2.538353327361201e-05
3.6341715730528996e-07,7.923644536082455e-07,1.0038485723565658e-06,2.5448159662526372e-05
3.6421978026915e-07,7.886087702377131e-07,1.052268660599665e-06,2.5507998083562163e-05
3.6536224842070045e-07,7.850061588483131e-07,1.1014078131245666e-06,2.556213205496426e-05
3.6679679187793523e-07,7.815719288313253e-07,1.1510258114530172e-06,2.560979663830508e-05
3.684753245526498e-07,7.783163659289698e-07,1.2008925772388814e-06,2.5650551721790467e-05
3.703502119680104e-07,7.75247041079288e-07,1.2507935747487732e-06,2.5684386267766518e-05
3.7237478593835394e-07,7.723741334569331e-07,1.3005292083719046e-06,2.5711637963552288e-05
3.745039660316712e-07,7.697156973726753e-07,1.3499086026095656e-06,2.5732765846662e-05
3.766947567850626e-07,7.672991505929252e-07,1.398743444211726e-06,2.574812455466552e-05
3.7890695829052274e-07,7.651576416405606e-07,1.4468481686416663e-06,2.5757848372343595e-05
