3.467736792840214e-07,8.715244946204452e-07,4.88845603673943e-07,2.6346413680377685e-05
3.486853402215899e-07,8.69942472971286e-07,4.867609403923032e-07,2.6231591942657465e-05
3.5082906035126854e-07,8.681873327640631e-07,4.843044869964922e-07,2.613499388963449e-05
3.5319530335840174e-07,8.662519610287247e-07,4.81488959775596e-07,2.6055896864275853e-05
3.557752643131733e-07,8.641361937786872e-07,4.783271180407855e-07,2.5993511987589826e-05
3.5855978877576606e-07,8.618452271191837e-07,4.7483434298188456e-07,2.5947058610576096e-05
3.6153742709532364e-07,8.593839704774283e-07,4.710301543776203e-07,2.591582433687693e-05
3.6469340706052277e-07,8.567576216781486e-07,4.669368499629135e-07,2.589919600138156e-05
3.680089884542936e-07,8.539774205183261e-07,4.6257695211949815e-07,2.589663070633113e-05
3.714614865927594e-07,8.51061355049591e-07,4.5797214603460703e-07,2.590758580797344e-05
3.7502474628103965e-07,8.480281001043309e-07,4.5314349264567136e-07,2.593142234863723e-05
3.78669752876937e-07,8.448917111054589e-07,4.4811183678121176e-07,2.5967303606204305e-05
3.8236580860113467e-07,8.416613182293798e-07,4.428994884320956e-07,2.601417856662792e-05
3.8608224978280687e-07,8.383448443936594e-07,4.3753233555408287e-07,2.607086522983033e-05
3.897890520058417e-07,8.349526588466031e-07,4.320389161769576e-07,2.613610632155055e-05
3.934561894168409e-07,8.314972479594782e-07,4.2644695104033366e-07,2.620855686327541e-05
3.970546413325184e-07,8.27991124268308e-07,4.207808425518625e-07,2.628679021915571e-05
4.0055881752646616e-07,8.244458621703732e-07,4.1506102266279504e-07,2.6369331727570968e-05
4.039471897135589e-07,8.208748181686979e-07,4.0930426512110406e-07,2.645466803528626e-05
4.072016271543489e-07,8.173034969137541e-07,4.035245696991296e-07,2.654128053786136e-05
4.103078276382173e-07,8.137800527443016e-07,3.977343329423549e-07,2.6627746849530443e-05
4.1325705187454477e-07,8.103728333519062e-07,3.919451459016264e-07,2.671281057624741e-05
4.1604703050580027e-07,8.071569459647925e-07,3.861678134402226e-07,2.679535475919034e-05
4.1867924143888783e-07,8.042021874224641e-07,3.8041230836735243e-07,2.6874342031151198e-05
4.2115412061690606e-07,8.015715170502949e-07,3.7468841411315433e-07,2.694877536687082e-05
4.234688276715588e-07,7.993287783101124e-07,3.690061085756704e-07,2.701768021472504e-05
4.256186007439764e-07,7.975426513314449e-07,3.6337499380193745e-07,2.7080085436924162e-05
4.2759950597016575e-07,7.962806664849318e-07,3.578042408314973e-07,2.713498745860245e-05
4.294105964239898e-07,7.956020791450373e-07,3.5230307545462056e-07,2.718132816640051e-05
4.310543260400916e-07,7.955542813876131e-07,3.468801603969641e-07,2.721803474844835e-05
4.325350273520669e-07,7.961698007769759e-07,3.415431117977777e-07,2.7244108228504333e-05
4.338573045247899e-07,7.974644389041728e-07,3.362998044968928e-07,2.725869306116565e-05
4.3502588408414266e-07,7.994383338968539e-07,3.311601971541498e-07,2.7261081594833028e-05
4.3604557524048216e-07,8.02079631743438e-07,3.261371527284506e-07,2.7250672028221684e-05
4.369202933549364e-07,8.053709677788646e-07,3.212453753432451e-07,2.722696317845813e-05
4.3765204947371157e-07,8.092964961734564e-07,3.164986287201847e-07,2.718960859827573e-05
4.382412592669322e-07,8.138437631566544e-07,3.119077544338222e-07,2.713842755005883e-05
4.386889032811086e-07,8.189988659990646e-07,3.074812445352595e-07,2.707333400028299e-05
4.3899837441479683e-07,8.247393200206074e-07,3.0322674897331524e-07,2.69942561398595e-05
4.3917560059074076e-07,8.310295587437618e-07,2.991517641377179e-07,2.6901086309032355e-05
4.392299209763547e-07,8.378206314342105e-07,2.952635920704939e-07,2.6793658906934462e-05
4.3917518397826634e-07,8.450526067241912e-07,2.915687005644327e-07,2.6671750856324483e-05
4.390274154504858e-07,8.526584529559414e-07,2.880720093125091e-07,2.6535098786148464e-05
4.388011037349647e-07,8.605679336556414e-07,2.847770129564095e-07,2.638342310467557e-05
4.3850849643914526e-07,8.687089481265678e-07,2.816864432976152e-07,2.621644010950443e-05
4.381614238776679e-07,8.770068548268814e-07,2.788025362939787e-07,2.6033865398046358e-05
4.377737052062874e-07,8.853848145749525e-07,2.761265273592669e-07,2.5835429525009587e-05
4.373637075723201e-07,8.937651838458626e-07,2.7365853386708386e-07,2.5620898876382e-05
4.369561643226271e-07,9.02070789510076e-07,2.713984128229082e-07,2.53900852044572e-05
4.3658160279726584e-07,9.102272391948605e-07,2.693457018734921e-07,2.5142853096815772e-05
4.362722302280386e-07,9.181661436311598e-07,2.674984416694612e-07,2.48791442697726e-05
4.3605653863749096e-07,9.258265654500557e-07,2.6585302081605485e-07,2.4599013661717705e-05
4.359573716374606e-07,9.331533652655977e-07,2.644057019345288e-07,2.430264082927068e-05
4.3599322269104825e-07,9.400940695201609e-07,2.631548742133131e-07,2.3990294736253164e-05
4.361782346355473e-07,9.465971384424359e-07,2.6210214107485557e-07,2.366228517274419e-05
4.365209837572856e-07,9.52613351739109e-07,2.612508069615813e-07,2.3318948401532847e-05
4.370265787267272e-07,9.580989612451624e-07,2.606027613763902e-07,2.2960666918832805e-05
4.377019965622616e-07,9.630178167412692e-07,2.6015628113723816e-07,2.258788397658637e-05
4.385580030469346e-07,9.673416805432577e-07,2.599065465661519e-07,2.220109627503603e-05
4.396045267602372e-07,9.71048819947262e-07,2.598476748745441e-07,2.180085607706559e-05
4.4084539038164566e-07,9.741227749163263e-07,2.5997321354301204e-07,2.1387802285690174e-05
4.4227940000295155e-07,9.765551198307115e-07,2.60274642007407e-07,2.0962693817758133e-05
4.4390823622918786e-07,9.783503179953828e-07,2.6074024146501645e-07,2.052642486315665e-05
4.4574445707618075e-07,9.795273485726135e-07,2.613555016636465e-07,2.008002276343909e-05
4.478121899664818e-07,9.80117474712428e-07,2.621038223898478e-07,1.9624625288236364e-05
4.5014066018826217e-07,9.801588860157604e-07,2.6296657106866444e-07,1.9161435290102223e-05
4.5275662085420076e-07,9.79689105091762e-07,2.6392313527539676e-07,1.869166588748088e-05
4.5568029006818245e-07,9.787392449761696e-07,2.649515193750463e-07,1.821651717306892e-05
4.5892448690587246e-07,9.773330455477714e-07,2.660294030795336e-07,1.773719854897524e-05
4.624945423376173e-07,9.754891975735568e-07,2.67135217429198e-07,1.7254931438768282e-05
4.663883893962578e-07,9.732237780340163e-07,2.682484401444129e-07,1.6770903824239027e-05
4.705969314583765e-07,9.705510435812745e-07,2.6934936504419827e-07,1.6286240172227754e-05
4.751042567557531e-07,9.67483410225192e-07,2.7041945598125124e-07,1.5802017021399578e-05
4.798875899359375e-07,9.640317383643709e-07,2.714417205212639e-07,1.531932049119378e-05
4.849176092499315e-07,9.602059921406488e-07,2.724001812842084e-07,1.4839365644996509e-05
4.901598756091086e-07,9.56017534416421e-07,2.73279519990303e-07,1.4363621776405228e-05
4.955768667981755e-07,9.514822501590256e-07,2.740655589488079e-07,1.3893813211231641e-05
5.011299041448718e-07,9.466193886792248e-07,2.747459152275853e-07,1.3431778230250576e-05
5.067821029766694e-07,9.414467988323091e-07,2.753106262330892e-07,1.2979298607120413e-05
5.125024783217336e-07,9.35980912508124e-07,2.7575308164874483e-07,1.2537999759960637e-05
5.18267706736703e-07,9.30244848299482e-07,2.760712823771938e-07,1.2109377014422615e-05
5.240594152636604e-07,9.24278505428533e-07,2.762681519492077e-07,1.1694937547581484e-05
5.298596542956264e-07,9.181412756122684e-07,2.763502834359057e-07,1.129633805959034e-05
5.356487758551111e-07,9.119039867963876e-07,2.763270679627685e-07,1.0915391030830994e-05
5.414070916101214e-07,9.056369023851307e-07,2.762105391717413e-07,1.0553926915948793e-05
5.471163029520407e-07,8.994013285932222e-07,2.7601415156953e-07,1.021359961449112e-05
5.527570170402187e-07,8.932458453444146e-07,2.7575206247682876e-07,9.895748231059672e-06
5.583059176207368e-07,8.872062655776924e-07,2.754406521938836e-07,9.601359298152106e-06
5.637376277590555e-07,8.813078635636526e-07,2.750993990143808e-07,9.33108109806586e-06
5.690294550460878e-07,8.755679213373108e-07,2.747499025368287e-07,9.08526492724259e-06
5.741638344070539e-07,8.699988838566381e-07,2.7441550372336395e-07,8.864114337940578e-06
5.791276958694428e-07,8.646113879030695e-07,2.7412118933211245e-07,8.667990266808021e-06
5.839115085903308e-07,8.594144361071483e-07,2.738915059987657e-07,8.497672012985107e-06
5.885086666268022e-07,8.544132766576297e-07,2.737476150688593e-07,8.354324439006453e-06
5.929140646507765e-07,8.496074605469114e-07,2.737062804325174e-07,8.239250480659113e-06
5.971221558905065e-07,8.449899046373441e-07,2.737800388461893e-07,8.153661409209873e-06
6.011252895278491e-07,8.405480852678518e-07,2.739769548846872e-07,8.098546126830691e-06
6.049131213931338e-07,8.362675825790325e-07,2.743013166157916e-07,8.074697862506516e-06
6.084738672626561e-07,8.321355076255366e-07,2.747554236103736e-07,8.082945491616476e-06
6.117953003655794e-07,8.28141309808743e-07,2.7534034879880784e-07,8.124402547877057e-06
6.148645753830681e-07,8.242744041655202e-07,2.760554483338441e-07,8.200493803301097e-06
6.176702187280512e-07,8.205211756006414e-07,2.768981057151097e-07,8.312795906378995e-06
6.202058225164332e-07,8.168640505092387e-07,2.7786394875692823e-07,8.462859433667372e-06
6.224709278377756e-07,8.132819120960892e-07,2.789471711466473e-07,8.652064552212836e-06
6.244687470532725e-07,8.09750785562874e-07,2.8014112555655107e-07,8.881492482296509e-06
6.262032194322889e-07,8.062441828702932e-07,2.814384184543242e-07,9.15181979936991e-06
6.276768997712703e-07,8.027331200913317e-07,2.8283019050099145e-07,9.463257066501468e-06
6.288912711770178e-07,7.991884189974534e-07,2.8430566822841566e-07,9.81553277122464e-06
6.298499143761542e-07,7.955862785631862e-07,2.85852214506779e-07,1.0207907001103293e-05
6.30562708829055e-07,7.919142425886214e-07,2.87456035087858e-07,1.0639189454795526e-05
6.310484732467818e-07,7.88174201172064e-07,2.8910368753465984e-07,1.1107736331374553e-05
6.313339873220857e-07,7.843807479933099e-07,2.907829231979134e-07,1.1611430778552047e-05
6.314496040501179e-07,7.80555856689367e-07,2.924819026725404e-07,1.2147684557909698e-05
6.314237304810988e-07,7.767233717373844e-07,2.9418819478346337e-07,1.2713508561862309e-05
6.312792156511305e-07,7.729073800172218e-07,2.958897310873203e-07,1.3305672558639205e-05
6.310340123020082e-07,7.691337529609412e-07,2.975776693613899e-07,1.392090619972584e-05
6.307042211709867e-07,7.654293587778709e-07,2.992482619929494e-07,1.4556050626843991e-05
6.303052725375505e-07,7.618178164010018e-07,3.009025519746173e-07,1.5208117571469256e-05
6.298509952399339e-07,7.583160487068813e-07,3.0254553456232555e-07,1.5874279162775694e-05
6.293524783642728e-07,7.549353109368473e-07,3.041843327936461e-07,1.655181700263775e-05
6.28817178737229e-07,7.516885548444938e-07,3.058248831152453e-07,1.7238057344352807e-05
6.282488329913384e-07,7.485991282908067e-07,3.074699523024134e-07,1.7930320089048314e-05
6.276481864444081e-07,7.456998473506241e-07,3.0911993398841357e-07,1.8625876802034707e-05
6.270135624348215e-07,7.430228768240702e-07,3.1077448502464854e-07,1.9321913815842983e-05
6.263414407797591e-07,7.40593705931056e-07,3.124331762271985e-07,2.0015539838938106e-05
6.256274019996913e-07,7.38433649147246e-07,3.1409525601027343e-07,2.070385089338776e-05
6.248661407675028e-07,7.365616518833261e-07,3.1576004616659176e-07,2.138398784950646e-05
6.2405066459414e-07,7.349908075537502e-07,3.174287151978544e-07,2.2053142946578728e-05
6.231731450690994e-07,7.337249490483849e-07,3.1910500399467146e-07,2.270855238278197e-05
6.222264308766322e-07,7.327584430005957e-07,3.207926087037919e-07,2.334752233881348e-05
6.21203627097794e-07,7.320783573534985e-07,3.224919579025055e-07,2.396749275765652e-05
6.20097296203681e-07,7.31669347011307e-07,3.2420093377208297e-07,2.4566077713863128e-05
6.189002791864665e-07,7.315194114870131e-07,3.259196551194158e-07,2.5141016602022625e-05
6.176076319717479e-07,7.316218226844237e-07,3.276543930101285e-07,2.5690094604626944e-05
6.16218492216221e-07,7.319719799400501e-07,3.29416282945589e-07,2.621115528002836e-05
6.147370103344656e-07,7.325635805902954e-07,3.3121653903413137e-07,2.670220846002293e-05
6.131714718498683e-07,7.333902134487015e-07,3.330634687806528e-07,2.716155081125794e-05
6.115315252788215e-07,7.344527516774612e-07,3.3496330894038303e-07,2.7587889233422755e-05
6.098256974233138e-07,7.357643543565392e-07,3.3692140907212036e-07,2.7980455471279792e-05
6.080617666609568e-07,7.373478152693722e-07,3.389410241794499e-07,2.8339000742061578e-05
6.062496401662884e-07,7.392292294410737e-07,3.4102236790024163e-07,2.866362244061119e-05
6.044024157681862e-07,7.414314692326963e-07,3.431638818236093e-07,2.8954525424089465e-05
6.02533519750794e-07,7.439686226392098e-07,3.453638686073658e-07,2.921185863904341e-05
6.006541403637633e-07,7.468435757815165e-07,3.4762128701515733e-07,2.943569200477405e-05
5.987739377603924e-07,7.500484146057351e-07,3.499355573180206e-07,2.962607425721524e-05
5.969033453232866e-07,7.535653661738859e-07,3.5230517732725026e-07,2.978307674553861e-05
5.950553905068853e-07,7.573675595489305e-07,3.547257211206455e-07,2.990685781003158e-05
5.932460363595036e-07,7.614210614268298e-07,3.5718833072354773e-07,2.9997889127319605e-05
5.914922920697998e-07,7.656888507354892e-07,3.5967946180115034e-07,3.0057261904998303e-05
5.898090292373253e-07,7.701331689095666e-07,3.621815807379685e-07,3.008675056597825e-05
5.882079985581873e-07,7.747146632665693e-07,3.64674112472924e-07,3.008857204386913e-05
5.867007991337869e-07,7.793945984733478e-07,3.6713444003166976e-07,3.006507418990964e-05
5.853025949638028e-07,7.841431200875668e-07,3.6953891273074023e-07,3.0018515633379066e-05
5.840320203495245e-07,7.889445406070581e-07,3.718642427207973e-07,2.995105440434164e-05
5.829075238433797e-07,7.937930133336988e-07,3.7408952060162976e-07,2.9865014673688903e-05
5.819447219893461e-07,7.98684977802676e-07,3.7619728809224327e-07,2.97631995288471e-05
5.811566347948266e-07,8.036159181515199e-07,3.781724088914641e-07,2.9648931591977003e-05
5.805541022027229e-07,8.085810964094602e-07,3.800003420654589e-07,2.952585165457765e-05
5.801442975508635e-07,8.135770615633293e-07,3.81666876282296e-07,2.9397681707479512e-05
5.799288976270042e-07,8.186021107321752e-07,3.831590288137804e-07,2.9268028833068323e-05
5.799038301435675e-07,8.236540485752476e-07,3.8446533443072045e-07,2.914023948404574e-05
5.800594415634498e-07,8.28725998115659e-07,3.8557496160094587e-07,2.901731129813647e-05
5.803802098222012e-07,8.338042491950132e-07,3.864768784678043e-07,2.8901850740129077e-05
5.808466890065942e-07,8.388687134654182e-07,3.871602507257362e-07,2.8796069586063508e-05
5.814412139050045e-07,8.438945070823388e-07,3.876160508570601e-07,2.8701813481361433e-05
5.821528548693719e-07,8.488555814886751e-07,3.8783856010839033e-07,2.8620573738063752e-05
5.829764311921728e-07,8.537292436225446e-07,3.878252902037246e-07,2.8553437375184063e-05
5.839083921883991e-07,8.584992075013265e-07,3.8757533181326697e-07,2.8501011954895373e-05
5.849453015331617e-07,8.631567892829959e-07,3.87087946712945e-07,2.846338381412403e-05
5.860839236567797e-07,8.676995909567595e-07,3.8636328329420797e-07,2.844013819737561e-05
5.873199506822246e-07,8.72127950155542e-07,3.854042445571224e-07,2.8430468340356548e-05
5.886473341049675e-07,8.76440996106817e-07,3.8421723340838095e-07,2.8433350230691606e-05
5.900606989201548e-07,8.806336767087567e-07,3.828120555290722e-07,2.8447689652427038e-05
5.915588471600049e-07,8.846952839998184e-07,3.812015426944304e-07,2.8472405635813897e-05
5.931451841280162e-07,8.886085222191555e-07,3.794004098112915e-07,2.8506500155720752e-05
5.948235326608113e-07,8.923497016372101e-07,3.7742429344200213e-07,2.8549126636562487e-05
5.965927048882556e-07,8.958939246166469e-07,3.752898024354517e-07,2.859962467198186e-05
5.984443386064658e-07,8.992233238644882e-07,3.730147639319637e-07,2.8657501960191346e-05
6.003640527681199e-07,9.023295145175995e-07,3.7061748268270563e-07,2.872235430385264e-05
6.023328777771051e-07,9.052087155320404e-07,3.681150021311372e-07,2.879373527931547e-05
6.043282730297703e-07,9.07856277303589e-07,3.6552180564464e-07,2.8871035036905762e-05
6.063263178424287e-07,9.102635488574276e-07,3.6284979601718725e-07,2.8953459110264002e-05
6.083040726529763e-07,9.12416187016561e-07,3.601091125528652e-07,2.9040111042658504e-05
6.102397228430425e-07,9.142946243775964e-07,3.573094763607908e-07,2.9130062250108643e-05
6.121119580974105e-07,9.158770321129816e-07,3.54461281285612e-07,2.9222350906545723e-05
6.139011361848853e-07,9.17142538705184e-07,3.515752501722449e-07,2.9315963101659418e-05
6.155905806422923e-07,9.18072848509322e-07,3.486615117023028e-07,2.940983409050903e-05
6.17165460180147e-07,9.186548283117971e-07,3.45729657072491e-07,2.9502842099304547e-05
6.186105634420999e-07,9.188860767353446e-07,3.427896658555499e-07,2.959375972962255e-05
6.1991001028707e-07,9.187773506081636e-07,3.398526312419025e-07,2.9681201044983185e-05
6.210498315022106e-07,9.183467477025477e-07,3.369300470104537e-07,2.976363766112273e-05
6.220204130138972e-07,9.176121111758587e-07,3.3403189134324005e-07,2.983948303762616e-05
6.228148863964194e-07,9.165911481249176e-07,3.311657465611765e-07,2.9907210583038397e-05
6.23425469729653e-07,9.153109028367552e-07,3.2833792933827827e-07,2.996552211410268e-05
6.238433296760398e-07,9.138178683546478e-07,3.2555473300430977e-07,3.001354167152415e-05
6.240621278878364e-07,9.121775256563557e-07,3.228221565584336e-07,3.005089874784101e-05
6.240805818339521e-07,9.104644384321176e-07,3.201451461382668e-07,3.007761048281926e-05
6.239013828459404e-07,9.087521301258556e-07,3.1752756320018767e-07,3.0093832385410803e-05
6.235277685749793e-07,9.071058454622921e-07,3.149724993786534e-07,3.009961916902661e-05
6.229604403211367e-07,9.055781669219336e-07,3.124826002689527e-07,3.0094797335344678e-05
6.221967182103082e-07,9.042088758629768e-07,3.100599625996455e-07,3.007896178469196e-05
6.21232322185032e-07,9.030272026786565e-07,3.0770514508346876e-07,3.005153519933679e-05
6.200641685075112e-07,9.020528171000191e-07,3.0541648679817106e-07,3.0011873583922063e-05
6.186924277246739e-07,9.012963334484959e-07,3.031911207670197e-07,2.995951446362059e-05
6.171217300463863e-07,9.007610259089049e-07,3.0102694569881714e-07,2.989453279317776e-05
6.153609203816365e-07,9.004437713801479e-07,2.989233488608691e-07,2.9817706679921333e-05
6.1342109685601e-07,9.003347148314398e-07,2.968803598811256e-07,2.9730337702457942e-05
6.11314368326726e-07,9.004181789140476e-07,2.9489832034714853e-07,2.96339166683914e-05
6.090541007534821e-07,9.006748912342043e-07,2.9297811721303574e-07,2.952986344424009e-05
6.066537848971136e-07,9.010839265834306e-07,2.911203291522356e-07,2.9419479984675853e-05
6.041249170756659e-07,9.016248298068951e-07,2.893239247605527e-07,2.930419357516416e-05
6.014773983891186e-07,9.022794614319971e-07,2.8758589390396e-07,2.9185914560451048e-05
5.987216003880925e-07,9.030318360418373e-07,2.8590152510889785e-07,2.9067164384632088e-05
5.958700450412534e-07,9.038670451724949e-07,2.842650714527236e-07,2.8950911088297802e-05
5.92938781647754e-07,9.047704403679993e-07,2.826715731962216e-07,2.884032165618245e-05
5.899465818733849e-07,9.057257524875151e-07,2.811189293777119e-07,2.873855730102955e-05
5.869115165685341e-07,9.067120181156359e-07,2.796076668547153e-07,2.864861399220531e-05
5.838486371947778e-07,9.077016924745316e-07,2.7813888494540354e-07,2.8573190499384888e-05
5.807712452616313e-07,9.086623339471592e-07,2.767135785564396e-07,2.8514575358447645e-05
5.776950779169175e-07,9.095624230178785e-07,2.753342471627001e-07,2.8474587188084016e-05
5.746425731186022e-07,9.103792694315695e-07,2.740065037062694e-07,2.8454597230257093e-05
5.716435286759557e-07,9.111038031069613e-07,2.727383062945188e-07,2.845556416883248e-05
5.687309096569233e-07,9.11738227418795e-07,2.715371325425329e-07,2.8477994552115802e-05
5.659343237038832e-07,9.122899195945896e-07,2.7040785011588933e-07,2.8521860133148852e-05
5.632753287259017e-07,9.127668436203224e-07,2.6935298826897356e-07,2.8586571394281788e-05
5.60766451327951e-07,9.131740175192801e-07,2.683742162174343e-07,2.8671051002947163e-05
5.584119840581709e-07,9.13509844735824e-07,2.674731501575551e-07,2.8773876532721257e-05
5.562091874720943e-07,9.137643312255192e-07,2.666511272704196e-07,2.889344023872491e-05
5.541513701111096e-07,9.139215995329531e-07,2.659087398652412e-07,2.902808026207113e-05
5.522319853631411e-07,9.13966501235528e-07,2.6524531403742416e-07,2.9176168747625512e-05
5.504458418720274e-07,9.138908325553978e-07,2.64658369852355e-07,2.9336182108462023e-05
5.487875002920412e-07,9.136954048220323e-07,2.641446893688885e-07,2.950675770366961e-05
5.47250246565464e-07,9.133880370935436e-07,2.637029447706743e-07,2.9686700363200513e-05
5.458265012469025e-07,9.129791122585138e-07,2.633345948369762e-07,2.9874930189233608e-05
5.445083881506626e-07,9.124790262080328e-07,2.630426707003737e-07,3.007040176288626e-05
5.432869930843871e-07,9.118984210954236e-07,2.6283096799244923e-07,3.0272003609156123e-05
5.421511549266976e-07,9.112465485909993e-07,2.627035430425483e-07,3.047845490148485e-05
5.410879499062246e-07,9.105287790953642e-07,2.6266444684692223e-07,3.0688279571437454e-05
5.400832226575986e-07,9.097469123798149e-07,2.627183897220922e-07,3.0899891800969657e-05
5.39120251067928e-07,9.088998583810272e-07,2.62870339564293e-07,3.111170356774189e-05
5.381787409087036e-07,9.079822114933792e-07,2.631238169212125e-07,3.1322179093377826e-05
5.37236123000017e-07,9.069828052970327e-07,2.6348035800984697e-07,3.1529855715094204e-05
5.362701490064696e-07,9.058862443341151e-07,2.639396898074764e-07,3.173336377362612e-05
5.352610742417913e-07,9.046784611549331e-07,2.644993291741272e-07,3.1931419830792184e-05
5.341930595619173e-07,9.033544346103519e-07,2.651543693070898e-07,3.212274360568373e-05
5.330543459749466e-07,9.019229434811951e-07,2.658979868252344e-07,3.23059326141226e-05
5.31835476117729e-07,9.004064636735243e-07,2.667225457059702e-07,3.247940164924437e-05
5.305269415976321e-07,8.988414476309082e-07,2.676204251935235e-07,3.26414434370352e-05
5.291181717999059e-07,8.972790869554975e-07,2.685841555488916e-07,3.279038629235199e-05
5.275978355315959e-07,8.95779393353434e-07,2.6960745088790806e-07,3.2924799001373024e-05
5.259543645988695e-07,8.944002749196129e-07,2.7068727115954464e-07,3.3043666771641896e-05
5.241764959925632e-07,8.931904919249969e-07,2.718251676975981e-07,3.3146428392137096e-05
5.222552842547545e-07,8.921880835799431e-07,2.730272360388189e-07,3.323283249499969e-05
5.201890354553443e-07,8.914205299768156e-07,2.7430247120839126e-07,3.330270452033187e-05
5.179886909315494e-07,8.909043258241574e-07,2.756607957998424e-07,3.3355771563992325e-05
5.156780593260718e-07,8.906433002073705e-07,2.771123594407145e-07,3.339161748555064e-05
5.132885263490716e-07,8.906282576491669e-07,2.786664184250392e-07,3.340971603320699e-05
5.108532905636155e-07,8.908414834541212e-07,2.803288938670617e-07,3.3409462042382156e-05
5.08403442794868e-07,8.912631869923887e-07,2.821009100326321e-07,3.3390213802161776e-05
5.059656200604528e-07,8.918729621812754e-07,2.8397905590229586e-07,3.3351473980328645e-05
5.035609929232926e-07,8.926474147622751e-07,2.859565105074615e-07,3.3293230839186106e-05
5.012047404813838e-07,8.935609397291259e-07,2.8802458969071215e-07,3.3216188055291874e-05
4.989062599543539e-07,8.94589245419812e-07,2.9017364261829073e-07,3.3121665693067825e-05
4.966715351183481e-07,8.957107661584499e-07,2.923930649961987e-07,3.301130846407494e-05
4.945073781851767e-07,8.969058206265705e-07,2.946715145723161e-07,3.288680704067847e-05
4.924247047828461e-07,8.981557261880745e-07,2.969974253290592e-07,3.274975361434497e-05
4.904385936718695e-07,8.994422868106443e-07,2.993598545817945e-07,3.2601767644918844e-05
4.885661761183382e-07,9.0074630197276e-07,3.017502818782094e-07,3.2444809998207914e-05
4.868241188601717e-07,9.020447856900264e-07,3.0416372931616714e-07,3.22813417816322e-05
4.852259863129738e-07,9.033095622371077e-07,3.065968198865294e-07,3.2114205325532345e-05
4.837800165174946e-07,9.045091586907841e-07,3.090445162028276e-07,3.194641416555237e-05
4.824884804122492e-07,9.056119459481941e-07,3.114989323192206e-07,3.178098482475203e-05
4.813484028339095e-07,9.065877229631136e-07,3.139500898484343e-07,3.16208009111024e-05
4.803520048758992e-07,9.074075966930895e-07,3.163865612822647e-07,3.146848139085965e-05
4.794873811315199e-07,9.080438594809727e-07,3.1879565696779125e-07,3.132626842871886e-05
4.787411734735793e-07,9.08471764188174e-07,3.2116398370668297e-07,3.119597744935877e-05
4.781008296454861e-07,9.086735900053734e-07,3.234781275676466e-07,3.1079014967415835e-05
4.775540217960885e-07,9.086430057280793e-07,3.25724711769133e-07,3.097641466112531e-05
4.770876263273892e-07,9.0838546223832e-07,3.278905379841248e-07,3.088884413211081e-05
4.766874502225621e-07,9.079123171085621e-07,3.2996389048188117e-07,3.081657833182669e-05
4.76337437615647e-07,9.07234649995443e-07,3.319355856566924e-07,3.0759461277832176e-05
4.76018788552575e-07,9.063624684241005e-07,3.337987227798196e-07,3.071689391422141e-05
4.757101300515236e-07,9.05306041832312e-07,3.3554904683244565e-07,3.0687907196508005e-05
4.753889109830536e-07,9.040776354174759e-07,3.371855414706021e-07,3.0671334191559244e-05
4.750329320056967e-07,9.026943648702736e-07,3.387095693557518e-07,3.066599402997625e-05
4.7462072286406347e-07,9.011767736268741e-07,3.401240811084527e-07,3.0670799656294235e-05
4.741315776674174e-07,8.995421079328934e-07,3.414332823491973e-07,3.068480579439301e-05
4.735462941588121e-07,8.978008641118206e-07,3.426414606504457e-07,3.070724797274427e-05
4.7284731714720497e-07,8.959607905514671e-07,3.4375172249715e-07,3.073756184853799e-05
4.72017876135217e-07,8.940344458930392e-07,3.447654817189412e-07,3.077534718204151e-05
4.710417987788003e-07,8.920459430643341e-07,3.456825048461709e-07,3.082027897611586e-05
4.699044555013916e-07,8.900339642438096e-07,3.465010381857912e-07,3.087198555167463e-05
4.685939969359956e-07,8.88047720773245e-07,3.4721742270955074e-07,3.0929926913075484e-05
4.6710239432065184e-07,8.861360762593788e-07,3.4782644481013077e-07,3.099335577199884e-05
4.6542697976691047e-07,8.843371721902365e-07,3.483244896456681e-07,3.10613848896761e-05
4.635724248911872e-07,8.826746300247413e-07,3.487132029197075e-07,3.113305070016465e-05
4.6155032218436366e-07,8.811586578516449e-07,3.4899926425230014e-07,3.1207318054635886e-05
4.593770520271721e-07,8.797888224040768e-07,3.4919171815217874e-07,3.128309419264709e-05
4.570740233100896e-07,8.785587843719291e-07,3.493001981900907e-07,3.13592742460879e-05
4.5466842408670026e-07,8.774635421765987e-07,3.493333938034449e-07,3.143476417497548e-05
4.521918668335554e-07,8.765066517147611e-07,3.4929792685681896e-07,3.150844319743158e-05
4.4967894876831863e-07,8.757021221978073e-07,3.491984066471203e-07,3.1579083102417224e-05
4.471649082203273e-07,8.750674777709039e-07,3.4903769718944725e-07,3.164529149546507e-05
4.4468171832490587e-07,8.746135941723117e-07,3.4881816451524017e-07,3.1705536337306235e-05
4.422569466755003e-07,8.743414424581137e-07,3.4854406721095706e-07,3.175824527779077e-05
4.3991581312444427e-07,8.742500342461641e-07,3.4822220386801684e-07,3.180195792232902e-05
4.376814565536024e-07,8.74350965974017e-07,3.4786038344379805e-07,3.1835504379798435e-05
4.355724236418288e-07,8.746760576331621e-07,3.474660351350482e-07,3.185810550183095e-05
4.3360082214661466e-07,8.752709056979964e-07,3.470454235288492e-07,3.1869302807363564e-05
4.317727605298851e-07,8.761850439070561e-07,3.4660326516234644e-07,3.18687789936737e-05
4.30089852696656e-07,8.774672940965022e-07,3.4614357452788967e-07,3.1856206650175265e-05
4.2855024226320007e-07,8.791623357463812e-07,3.4567269763995207e-07,3.1831197804589806e-05
4.2714904021533496e-07,8.813060150785992e-07,3.452030404045383e-07,3.179332593821186e-05
4.2587855212388025e-07,8.839222548181835e-07,3.4475343276301397e-07,3.174214614195809e-05
4.247281085092284e-07,8.870236062409998e-07,3.443459132720584e-07,3.1677197529892544e-05
4.236840931010106e-07,8.906129478105294e-07,3.440022364763578e-07,3.1598101971429217e-05
4.2273078275766076e-07,8.946824483562834e-07,3.437415960907328e-07,3.150483019837978e-05
4.2185115572577366e-07,8.992120864501627e-07,3.435799722735691e-07,3.139792087824221e-05
4.2102701722187047e-07,9.041732457275488e-07,3.435300045509962e-07,3.127841923165407e-05
4.202387529218515e-07,9.09535948584164e-07,3.4360018578837307e-07,3.114763937321953e-05
4.194656507825539e-07,9.15271682819049e-07,3.437949663482524e-07,3.10069454733519e-05
4.1868743012826206e-07,9.213493882795448e-07,3.441162176450319e-07,3.085762299710169e-05
4.178858981117418e-07,9.277328842313355e-07,3.4456420283926397e-07,3.070094867460475e-05
4.17046488547628e-07,9.343847377678988e-07,3.4513759351652396e-07,3.0538467548727834e-05
4.1616014442502274e-07,9.412695941736799e-07,3.458335215810881e-07,3.0372187789476836e-05
4.152246081612493e-07,9.483534845586201e-07,3.466485105967004e-07,3.020448235891811e-05
4.1424570904884547e-07,9.556054017382343e-07,3.4757966723554695e-07,3.003784121024097e-05
4.132381340398157e-07,9.630022540000157e-07,3.486240692030212e-07,2.9874664744425648e-05
4.122231496787424e-07,9.705322047127386e-07,3.4977665661849826e-07,2.9717121288808533e-05
4.112245299856497e-07,9.781941275727078e-07,3.5102974862485014e-07,2.956704118636285e-05
4.1026449184423155e-07,9.859923363647687e-07,3.523745706710028e-07,2.9425857935667188e-05
4.09360122072729e-07,9.939280500581895e-07,3.538019663931253e-07,2.9294614654975274e-05
4.085231092311757e-07,1.0019938001991235e-06,3.5530176688269506e-07,2.9174025190791705e-05
4.077643446108714e-07,1.0101735906620683e-06,3.568636260521935e-07,2.906454062492391e-05
4.070999880434454e-07,1.018444345052431e-06,3.584802082269174e-07,2.8966362370995386e-05
4.06553113111393e-07,1.0267768271056641e-06,3.601490408140747e-07,2.8879406274202837e-05
4.0614916970768435e-07,1.035136798630551e-06,3.6187074776447355e-07,2.8803269416738483e-05
4.0591062125373993e-07,1.0434841003031224e-06,3.636468233408848e-07,2.873722478913448e-05
4.058551860047024e-07,1.0517703369113763e-06,3.654787550178629e-07,2.868027465955189e-05
4.059955786075126e-07,1.0599387549509872e-06,3.6736629699505e-07,2.863128961376209e-05
4.063389423802536e-07,1.0679265832550522e-06,3.693051929777542e-07,2.8589166232103112e-05
4.068882682395461e-07,1.0756676046268632e-06,3.712868413803239e-07,2.855290602536745e-05
4.076464583273351e-07,1.0830939888436542e-06,3.73299883201536e-07,2.8521618032412848e-05
4.086193049065883e-07,1.0901384739268902e-06,3.7533179027230023e-07,2.8494508359706603e-05
4.098139697305821e-07,1.0967370728205691e-06,3.773692755834357e-07,2.8470864205484278e-05
4.112349730573286e-07,1.1028313779012082e-06,3.79398598442746e-07,2.8449996490548604e-05
4.1288212435905685e-07,1.1083694301369236e-06,3.814068682364751e-07,2.843116267559741e-05
4.147505031678538e-07,1.1133045366638573e-06,3.833828272864465e-07,2.8413518735427287e-05
4.168300331306856e-07,1.117594050576625e-06,3.8531594913209636e-07,2.8396105889472352e-05
4.1910538833207566e-07,1.121199620329514e-06,3.8719489672333547e-07,2.837789979020396e-05
4.2155903129805385e-07,1.124086664694765e-06,3.890064639247839e-07,2.8357926360030432e-05
4.241764452798249e-07,1.126221932194251e-06,3.907360179775418e-07,2.833534312978835e-05
4.2694809997950295e-07,1.1275718339362295e-06,3.923695201878722e-07,2.830944134467915e-05
4.298660807680729e-07,1.1281032502567232e-06,3.938951804169787e-07,2.8279636666916603e-05
4.329209985507355e-07,1.1277851767198874e-06,3.9530347994484267e-07,2.824548258467844e-05
4.3610320293355807e-07,1.126591105892858e-06,3.965864910985655e-07,2.8206677587457396e-05
4.394047467307641e-07,1.1245040555917423e-06,3.977375106991162e-07,2.8163018248397887e-05
4.428189475845155e-07,1.1215208243276958e-06,3.9875055440770405e-07,2.8114289621074958e-05
4.463387591955954e-07,1.1176496944318578e-06,3.996192053586485e-07,2.806016562731876e-05
4.4995541352118607e-07,1.1129054520995093e-06,4.003363256098875e-07,2.8000190879937043e-05
4.5365798944658384e-07,1.1073107967840276e-06,4.0089577471230724e-07,2.7933856848361688e-05
4.574339325158205e-07,1.1009057720443313e-06,4.0129362272592934e-07,2.7860769528471345e-05
4.6126986726554726e-07,1.093759544350179e-06,4.015269085569618e-07,2.778086500960852e-05
4.651524332915202e-07,1.0859750275704515e-06,4.015920826579778e-07,2.7694543293938032e-05
4.6906964065144607e-07,1.0776807884050794e-06,4.014847901975793e-07,2.7602618280801703e-05
4.730125225342698e-07,1.069016230680068e-06,4.012000915169645e-07,2.75061175972359e-05
4.769748849685474e-07,1.0601181665821226e-06,4.007328321846778e-07,2.7406029404103282e-05
4.809506658619976e-07,1.0511119363752192e-06,4.000789765532077e-07,2.7303095075845284e-05
4.849325300065328e-07,1.042108096455133e-06,3.9923684902122905e-07,2.7197720004436647e-05
4.889131623519173e-07,1.0332020890825152e-06,3.982066153431664e-07,2.7089986704490358e-05
4.928852020802758e-07,1.0244734890018514e-06,3.969896275975313e-07,2.697972399383808e-05
4.968382296067467e-07,1.015985424921233e-06,3.955898612443746e-07,2.686667789286262e-05
5.007569903057999e-07,1.0077850930671713e-06,3.940158808270425e-07,2.6750839373803383e-05
5.046230554165549e-07,9.999049698561005e-07,3.9228015148547003e-07,2.663275858775975e-05
5.084175887095539e-07,9.923658262306472e-07,3.903960725064474e-07,2.651357571821296e-05
5.121227898656571e-07,9.851811902284605e-07,3.883759786976226e-07,2.6394783608223968e-05
5.157214451689927e-07,9.783606603128167e-07,3.862310827271317e-07,2.6277936856617372e-05
5.191961759323545e-07,9.71912400475816e-07,3.8397167916062896e-07,2.6164447464845856e-05
5.225307200794312e-07,9.65846253103487e-07,3.8160696063610673e-07,2.6055589222581734e-05
5.257117471279149e-07,9.601762956490551e-07,3.7914513353625077e-07,2.5952740303530647e-05
5.287276926494702e-07,9.549211250893404e-07,3.765934134110584e-07,2.585762042728104e-05
5.315661924316109e-07,9.501008059253514e-07,3.7395756938450104e-07,2.577230098344457e-05
5.342138987439896e-07,9.457311450110059e-07,3.7124199411329824e-07,2.569907219407057e-05
5.366580930644262e-07,9.418188474951644e-07,3.684503041258101e-07,2.5640308570482973e-05
5.3888755084151e-07,9.383612190094877e-07,3.6558639591282955e-07,2.5598338821444918e-05
5.408926301077315e-07,9.35349809997069e-07,3.626566769659561e-07,2.557530921290181e-05
5.426658856067404e-07,9.327729113648664e-07,3.596716371747199e-07,2.5573063097104426e-05
5.442023670440922e-07,9.306139501467427e-07,3.566451207791193e-07,2.559305691605501e-05
5.45498321108548e-07,9.288492918479756e-07,3.535935195387053e-07,2.5636337715460462e-05
5.465500935482067e-07,9.274504415986105e-07,3.505356044489379e-07,2.570357759787748e-05
5.473551516796234e-07,9.263904165457399e-07,3.474912827710177e-07,2.5795087824980208e-05
5.479140749139437e-07,9.256484044685345e-07,3.44479547621174e-07,2.5910759706626185e-05
5.482313887004859e-07,9.252080907057257e-07,3.415176912133886e-07,2.604998308712903e-05
5.483139836643146e-07,9.250525200622719e-07,3.386234680501884e-07,2.6211614444189265e-05
5.481685820466332e-07,9.251608799819557e-07,3.358187318721473e-07,2.639403206352972e-05
5.478021372316767e-07,9.255071189078993e-07,3.3313110711921656e-07,2.6595275560805004e-05
5.472242828250317e-07,9.260584205419468e-07,3.3059212708183305e-07,2.681319876110344e-05
5.464469715472316e-07,9.26775499293452e-07,3.2823250372393174e-07,2.704557095540824e-05
5.454829847241812e-07,9.276174648009968e-07,3.2607775842731265e-07,2.729016314550973e-05
5.443474159302781e-07,9.285498036774679e-07,3.241474197006753e-07,2.7544868699441082e-05
5.430582458160243e-07,9.295495009694591e-07,3.2245658751555306e-07,2.7807799544364984e-05
5.416327872580809e-07,9.306021104275013e-07,3.2101680506675054e-07,2.807727658558764e-05
5.400848922772156e-07,9.316930709657886e-07,3.198358966468475e-07,2.8351744523727626e-05
5.384258063378222e-07,9.328009055167801e-07,3.1891802255676584e-07,2.8629679787850813e-05
5.366671142165299e-07,9.338962773514204e-07,3.1826433620732486e-07,2.8909499428568092e-05
5.348245523445811e-07,9.34945194004423e-07,3.178734723207643e-07,2.9189496309390254e-05
5.329198907692845e-07,9.359136191566065e-07,3.177407267135463e-07,2.9467857724598663e-05
5.309785604981151e-07,9.367718199108518e-07,3.1785708316890093e-07,2.9742739990962072e-05
5.290251711916214e-07,9.374964491687159e-07,3.182099867665808e-07,3.001232614610724e-05
5.270817374257115e-07,9.38068409637059e-07,3.1878438354854586e-07,3.0274860615507185e-05
5.251708521458107e-07,9.384690055096792e-07,3.1956257969798296e-07,3.0528689358869945e-05
5.233203337246589e-07,9.386811042364649e-07,3.205246980065929e-07,3.0772300013873136e-05
5.215641863265347e-07,9.386970385373356e-07,3.216506005430121e-07,3.1004305053997115e-05
5.199382830875383e-07,9.385252659818148e-07,3.229211009661496e-07,3.1223334254997035e-05
5.184744518293229e-07,9.381873212100441e-07,3.243173112074521e-07,3.1427929938222465e-05
5.171984548133304e-07,9.377093003003784e-07,3.258201061421463e-07,3.1616591972337676e-05
5.161318317707878e-07,9.371211372573908e-07,3.2741090478392385e-07,3.1787998339718124e-05
5.152931912021922e-07,9.364641656614e-07,3.290724956629758e-07,3.194125297475727e-05
5.146980488246718e-07,9.357936981775762e-07,3.307892464653439e-07,3.207597578790036e-05
5.143587402165222e-07,9.351722422877934e-07,3.3254714781263147e-07,3.219220624118375e-05
5.142842309540684e-07,9.346590014789393e-07,3.343343251574356e-07,3.2290226284927656e-05
5.144804518950141e-07,9.34300356716022e-07,3.361421090139529e-07,3.237037599549188e-05
5.149524330714578e-07,9.341254830066687e-07,3.3796503750492804e-07,3.2432897305725664e-05
5.157071580251477e-07,9.3414894780089e-07,3.397993565262757e-07,3.247786764389045e-05
5.16754959787303e-07,9.343763141161113e-07,3.416418496958487e-07,3.2505232517903885e-05
5.181088536587968e-07,9.348061736641131e-07,3.4348938818718525e-07,3.2514856080404524e-05
5.197823810368817e-07,9.354274568890062e-07,3.453382343203288e-07,3.250653665098713e-05
5.217861194805104e-07,9.36217370009133e-07,3.471832106491642e-07,3.2480062223699935e-05
5.241244237583836e-07,9.371426854957399e-07,3.49018214939038e-07,3.2435444955366135e-05
5.267944069503423e-07,9.381618915745399e-07,3.508381521729523e-07,3.2373244116728354e-05
5.297860792778865e-07,9.392263829375685e-07,3.526391755606968e-07,3.229465356089197e-05
5.330823816072868e-07,9.402813833994979e-07,3.544162557121565e-07,3.220126032103537e-05
5.366603293038926e-07,9.412674777449032e-07,3.5616162979186173e-07,3.209472947499225e-05
5.404935936356966e-07,9.421229870950916e-07,3.578657953791864e-07,3.1976722201910444e-05
5.445536963827186e-07,9.427871362116722e-07,3.595192451598896e-07,3.184907135637125e-05
5.488085171756694e-07,9.432036995775692e-07,3.6111392794943006e-07,3.171391527319961e-05
5.532213081342603e-07,9.433235487662437e-07,3.626445852559699e-07,3.1573629568519676e-05
5.577520628531963e-07,9.431038073735166e-07,3.6410956098688136e-07,3.14306769363128e-05
5.623592020995132e-07,9.425047992158993e-07,3.6551015230694226e-07,3.1287470878232375e-05
5.670009749051482e-07,9.414889998208286e-07,3.668484217706322e-07,3.114627621275696e-05
5.716375008370722e-07,9.400227635790628e-07,3.681246920113172e-07,3.1009149188792885e-05
5.762316907958283e-07,9.380773037719444e-07,3.6933600618765296e-07,3.0877889386371844e-05
5.807494266163713e-07,9.356272327819357e-07,3.7047614995762186e-07,3.075397923441285e-05
5.851626447607329e-07,9.326494333724305e-07,3.715376901515866e-07,3.063852472467041e-05
5.894528021737545e-07,9.291253034034261e-07,3.725150935553874e-07,3.053224730833509e-05
5.936094373221331e-07,9.250456219978839e-07,3.7340538667224e-07,3.04355433999744e-05
5.976255786473683e-07,9.20414145248728e-07,3.742056316470247e-07,3.0348541024609944e-05
6.014939328011397e-07,9.152472037506708e-07,3.749113685671308e-07,3.027108933395182e-05
6.052041477138117e-07,9.095701816001312e-07,3.755174038045074e-07,3.020271974221376e-05
6.087419530268562e-07,9.034136543344408e-07,3.7601827002143065e-07,3.0142649332281707e-05
6.120921309235329e-07,8.968111562011371e-07,3.764079391859282e-07,3.0089841133005853e-05
6.152426881647097e-07,8.897980756637508e-07,3.7668059490559405e-07,3.0043088373441303e-05
6.181849999229047e-07,8.824107131253633e-07,3.768317979046787e-07,3.000109052222517e-05
6.209106947917519e-07,8.746851570998924e-07,3.768581988439544e-07,2.9962529845180543e-05
6.2340996241754e-07,8.666549695769031e-07,3.7675697679878313e-07,2.99261653974141e-05
6.256712087676082e-07,8.583484217045495e-07,3.7652640559718865e-07,2.989092362583512e-05
6.276799255935581e-07,8.497880615269157e-07,3.761658849433475e-07,2.985594845885505e-05
6.294185152655531e-07,8.409937328028311e-07,3.756747949831408e-07,2.9820601903446124e-05
6.308690385733906e-07,8.319882749158769e-07,3.750521471430701e-07,2.978443470094698e-05
6.320167381959466e-07,8.228032038316859e-07,3.7429696983763313e-07,2.974712145321956e-05
6.32851297136216e-07,8.134795092998801e-07,3.734078400528846e-07,2.970834955457794e-05
6.333678246133307e-07,8.040633317741023e-07,3.723824424063101e-07,2.966773161409285e-05
6.335705019066053e-07,7.946019261090992e-07,3.712188298832797e-07,2.962482214300932e-05
6.334743471197412e-07,7.851414674375381e-07,3.699174807642147e-07,2.9579192215428584e-05
6.331005611337794e-07,7.757245486483786e-07,3.684816607959774e-07,2.953046310787011e-05
6.32470353671444e-07,7.663876280479664e-07,3.669166682730278e-07,2.947827186694076e-05
6.316025418854949e-07,7.571606069281887e-07,3.652302521811007e-07,2.9422181204114306e-05
6.305133094858658e-07,7.48071273759338e-07,3.634329006669402e-07,2.936159305501676e-05
6.292161048861451e-07,7.391547498081028e-07,3.615367558928183e-07,2.9295756528701026e-05
6.277216662997728e-07,7.304610800588584e-07,3.5955472599011677e-07,2.922384524840161e-05
6.260379755780113e-07,7.220539324680988e-07,3.5750061321158684e-07,2.9145003853702283e-05
6.241705163260089e-07,7.14002259511265e-07,3.5538931812766525e-07,2.9058349047346245e-05
6.221234342632015e-07,7.063705462737738e-07,3.5323582759705463e-07,2.8962972884801635e-05
6.199008647063257e-07,6.99211183150154e-07,3.510542464808115e-07,2.8857997600707037e-05
6.175067147041515e-07,6.925626753279625e-07,3.488590402605107e-07,2.8742715199874303e-05
6.149435657028142e-07,6.864571476718156e-07,3.466664106252645e-07,2.8616754155822527e-05
6.12213013684447e-07,6.809333797545507e-07,3.4449298152992747e-07,2.848013825715033e-05
6.093169241301603e-07,6.760435907663592e-07,3.423533811634209e-07,2.833317591421181e-05
6.06259083623364e-07,6.718501387020971e-07,3.402588680725416e-07,2.8176257322686626e-05
6.030477507797614e-07,6.684195213007428e-07,3.3821680178522576e-07,2.80097089122698e-05
5.99696462451425e-07,6.658150769277172e-07,3.362306748460805e-07,2.7833780127685094e-05
5.96221686805983e-07,6.640866612576546e-07,3.3430077595408137e-07,2.7648677387421563e-05
5.926400680622199e-07,6.632631053258513e-07,3.324254596730927e-07,2.7454561111617705e-05
5.889664454974445e-07,6.633516370574424e-07,3.306024488236055e-07,2.7251594369018986e-05
5.852120578120521e-07,6.643411118215948e-07,3.28829134876334e-07,2.704016027406083e-05
5.813835298168701e-07,6.662050744991701e-07,3.27102414491096e-07,2.682112817043858e-05
5.774832560163751e-07,6.689035254528193e-07,3.2541948392383124e-07,2.6595917720601886e-05
5.735111065701072e-07,6.723843928233638e-07,3.237788713811905e-07,2.636632529512033e-05
5.694661297319536e-07,6.765859192094785e-07,3.221801824712984e-07,2.6134276822921906e-05
5.653467786229096e-07,6.814391688972753e-07,3.2062326271271845e-07,2.5901624570124004e-05
5.611508574117104e-07,6.868695327089449e-07,3.1910763727631804e-07,2.5670068437082973e-05
5.568763459677049e-07,6.927978703105268e-07,3.1763195063498693e-07,2.544132206958297e-05
5.525215668021478e-07,6.991427750646784e-07,3.1619429995455426e-07,2.521744108921301e-05
5.480839686354298e-07,7.058250956681852e-07,3.147937547625489e-07,2.500097460896485e-05
5.435591904140002e-07,7.127722772141344e-07,3.134310864004243e-07,2.4794813772125586e-05
5.389419468148136e-07,7.199191517634422e-07,3.121080469365169e-07,2.460193731150947e-05
5.342284015685699e-07,7.272062841878691e-07,3.1082621105298964e-07,2.4425207533767207e-05
5.294176612382693e-07,7.345774613705397e-07,3.095860131847617e-07,2.4267212567830373e-05
5.245110948301673e-07,7.41977499500762e-07,3.0838702692191874e-07,2.413013425732352e-05
5.195115074558626e-07,7.49352498039708e-07,3.0722902295886504e-07,2.4015670206733985e-05
5.144230006153537e-07,7.566522467000324e-07,3.0611213128873737e-07,2.392503002256608e-05
5.092502205395782e-07,7.638342737599296e-07,3.050370833784268e-07,2.385896957508634e-05
5.039977374500983e-07,7.70869172196814e-07,3.040058871244828e-07,2.3817817577425048e-05
4.986703262726987e-07,7.777435394782161e-07,3.0302105993003323e-07,2.380147310036293e-05
4.932733804840519e-07,7.844567000455225e-07,3.0208449401411746e-07,2.38093774750835e-05
4.878134725571294e-07,7.910120025315002e-07,3.01198176061624e-07,2.384050285832748e-05
4.82298859147619e-07,7.974091976939133e-07,3.0036535057082874e-07,2.389341146353746e-05
4.767390851863218e-07,8.036438282506471e-07,2.995903426450512e-07,2.3966396763379168e-05
4.711440724459332e-07,8.09710945327623e-07,2.988783569228768e-07,2.4057664479515e-05
4.6552371254723863e-07,8.15605633481715e-07,2.982377292712474e-07,2.416548525931794e-05
4.598878653854051e-07,8.213186839407558e-07,2.9768334953803e-07,2.428827975566954e-05
4.5424624052049894e-07,8.26833516124852e-07,2.9723583645885894e-07,2.442465106864056e-05
4.486086098455167e-07,8.321296520697506e-07,2.9691605227104e-07,2.457337563613934e-05
4.429853170695382e-07,8.37190721250287e-07,2.967408069112064e-07,2.4733341108880405e-05
4.373870977343257e-07,8.420109472274395e-07,2.9672213416061374e-07,2.490345483991117e-05
4.3182455626295346e-07,8.465968030037002e-07,2.968680589692365e-07,2.5082559952589397e-05
4.263079676299093e-07,8.509640836748221e-07,2.971833392184759e-07,2.5269363551837186e-05
4.2084680960327527e-07,8.551319199838995e-07,2.976702688934423e-07,2.5462405892258858e-05
4.1544910621539457e-07,8.591160684447193e-07,2.9832993266280303e-07,2.5660114582940505e-05
4.101216448347793e-07,8.629241701570648e-07,2.99163004089925e-07,2.5860897867211678e-05
4.048708186434191e-07,8.665540012328525e-07,3.0016892635438555e-07,2.606319826868061e-05
3.997027584023737e-07,8.699934143703016e-07,3.013442050694087e-07,2.6265510726278526e-05
3.9462300827673406e-07,8.7322117983048e-07,3.0268154823443136e-07,2.646639828324514e-05
3.8963649893151606e-07,8.762103910090988e-07,3.041703653733809e-07,2.666451211964899e-05
3.847470628744834e-07,8.789374687432524e-07,3.0579758682837575e-07,2.6858595745871552e-05
3.7995649996895495e-07,8.813940360637983e-07,3.0754813282629856e-07,2.704742990064911e-05
3.7526413086772595e-07,8.835908758146141e-07,3.094053970684534e-07,2.722972829211439e-05
3.7066718945278616e-07,8.855507410551235e-07,3.113517848534495e-07,2.74040699361305e-05
3.66162177013096e-07,8.872992880806255e-07,3.133691579327373e-07,2.7568932151828413e-05
3.617460128984829e-07,8.888603068353843e-07,3.154391185976272e-07,2.7722822983074843e-05
3.574167079040192e-07,8.902567859017565e-07,3.175431734987229e-07,2.7864481794937184e-05
3.531754551252893e-07,8.915200832611216e-07,3.196635896342934e-07,2.799306249825761e-05
3.490282045300687e-07,8.927014143332754e-07,3.2178517212796146e-07,2.8108152402849512e-05
3.4498388494859036e-07,8.93874434046966e-07,3.238969707658961e-07,2.8209580546736102e-05
3.410523847080357e-07,8.951272092846874e-07,3.25992556803582e-07,2.8297165825055158e-05
3.372444617506705e-07,8.965493586530122e-07,3.2806819214625485e-07,2.837058345924903e-05
3.335708288881343e-07,8.982198227629055e-07,3.301203562040369e-07,2.8429374996554718e-05
3.300398167849552e-07,9.001998290927885e-07,3.321451608963144e-07,2.8473007968401143e-05
3.266563243957512e-07,9.025313032748266e-07,3.341408534763197e-07,2.8500911406566755e-05
3.234232179328691e-07,9.052372719096471e-07,3.361107335921926e-07,2.8512508811679866e-05
3.203436605102905e-07,9.083234017484924e-07,3.380623583667119e-07,2.8507368415253908e-05
3.1742162843647827e-07,9.11781131881663e-07,3.4000412335548125e-07,2.848550746766355e-05
3.146605824795784e-07,9.155906650247812e-07,3.419426595924531e-07,2.8447611660292e-05
3.120633213166446e-07,9.197231959261364e-07,3.4388168271976645e-07,2.839493977812741e-05
3.0963265326189236e-07,9.241431525647169e-07,3.4582181001913554e-07,2.8329035267107268e-05
3.073705810391972e-07,9.288092076149448e-07,3.4776069871808555e-07,2.8251480454627307e-05
3.052775205039168e-07,9.336739623676417e-07,3.496932241740552e-07,2.8163780246786493e-05
3.033533202979331e-07,9.386847006201599e-07,3.5161181698794644e-07,2.806744248874881e-05
3.015984792893969e-07,9.437851586257894e-07,3.5350693289928533e-07,2.796422914868145e-05
3.000137718468783e-07,9.489167009886568e-07,3.553677859264853e-07,2.78563112683778e-05
2.985985565884535e-07,9.540201353921087e-07,3.5718301147648593e-07,2.774617056284265e-05
2.9734914163149573e-07,9.590397115972427e-07,3.5894081959574063e-07,2.763639636367312e-05
2.9625837366671383e-07,9.639266139066034e-07,3.6062898372186994e-07,2.752952902060129e-05
2.9531627775694106e-07,9.68637790655329e-07,3.622351620237324e-07,2.742795880602095e-05
2.945109451668894e-07,9.731311055979959e-07,3.63746958018027e-07,2.733384368124208e-05
2.9382963644966013e-07,9.773617990417708e-07,3.651514085549691e-07,2.724903428367112e-05
2.932600268471956e-07,9.812823462948259e-07,3.664362719898226e-07,2.7175028191294032e-05
2.9279125613379057e-07,9.848442883475088e-07,3.6759458308394644e-07,2.711296566430273e-05
2.924145290899611e-07,9.880004347940944e-07,3.6862851141340606e-07,2.706363915531475e-05
2.921231623156301e-07,9.90706873984984e-07,3.6954808360596865e-07,2.7027478556329527e-05
2.919128410657153e-07,9.92924849084584e-07,3.703661614707792e-07,2.7004513814925117e-05
2.917819240434455e-07,9.946216267369134e-07,3.7109390007802463e-07,2.6994350089905788e-05
2.9172997438771127e-07,9.95769429273445e-07,3.717390635675844e-07,2.699618656063757e-05
2.917551335995571e-07,9.96343657797458e-07,3.7230738695414463e-07,2.70089050709316e-05
2.918540678425794e-07,9.96321847496305e-07,3.728054862738588e-07,2.703122451718442e-05
2.920248303265025e-07,9.956829769194834e-07,3.732432568178324e-07,2.706185088704317e-05
2.9226793090920693e-07,9.944066790742398e-07,3.736349214882013e-07,2.709955518735502e-05
2.9258443558297946e-07,9.924729903454978e-07,3.7399915147017224e-07,2.714318873150077e-05
2.9297476219254237e-07,9.898646086611289e-07,3.743583002769844e-07,2.719168191462577e-05
2.9343874747343373e-07,9.86573635972098e-07,3.7473598363543635e-07,2.7244054668947485e-05
2.9397559782621145e-07,9.826093502342429e-07,3.751538101630438e-07,2.7299432670741612e-05
2.945844528297185e-07,9.779995682090445e-07,3.7562997699577077e-07,2.7357035048224718e-05
2.9526518872999055e-07,9.727843004383197e-07,3.761802000024642e-07,2.741610777967481e-05
2.960175273271046e-07,9.670069913409378e-07,3.7681839217708e-07,2.747583278536532e-05
2.9683928674452127e-07,9.60708208191315e-07,3.7755590260739045e-07,2.753531742754944e-05
2.977262305808945e-07,9.53924209396293e-07,3.784006168697681e-07,2.7593701629847475e-05
2.9867333687255113e-07,9.46690011968726e-07,3.793571491616229e-07,2.7650244055838562e-05
2.996761368608126e-07,9.390432165443037e-07,3.8042846795131824e-07,2.770428866941192e-05
3.007318747554605e-07,9.310239503798441e-07,3.816171142315016e-07,2.775520258456327e-05
3.018410607106565e-07,9.226716297381007e-07,3.829235662239806e-07,2.7802391620606013e-05
3.030091703990386e-07,9.14026038738768e-07,3.843433313678302e-07,2.784534891807462e-05
3.042460132041157e-07,9.051363599977995e-07,3.858663575673332e-07,2.7883615600741075e-05
3.055624773851422e-07,8.960700330814186e-07,3.874796316012014e-07,2.791665446051865e-05
3.0696764748273905e-07,8.869112908703625e-07,3.8916992360750396e-07,2.794376454064645e-05
3.084676355550782e-07,8.77750213104912e-07,3.909235071158025e-07,2.7964115277749933e-05
3.100657174840566e-07,8.686735579416775e-07,3.92724562471962e-07,2.7976874878449052e-05
3.1176264716749785e-07,8.597675318569678e-07,3.945551117400822e-07,2.7981386493514776e-05
3.1355639490844284e-07,8.511280228307722e-07,3.963959438798927e-07,2.7977348528592322e-05
3.1544226187303746e-07,8.428636001814727e-07,3.982275150933319e-07,2.7964905249107203e-05
3.174137389916849e-07,8.35088203949404e-07,4.000304203849228e-07,2.794456631537093e-05
3.194628214169415e-07,8.279129234807013e-07,4.017851449014695e-07,2.7916991631101697e-05
3.2157918461083543e-07,8.214413946978361e-07,4.0347294543537704e-07,2.788274931127165e-05
3.237500025134774e-07,8.157667870992274e-07,4.050787910207492e-07,2.7842156997615814e-05
3.259618466886445e-07,8.109679800627054e-07,4.0659240823662076e-07,2.7795264375243425e-05
3.282030490783129e-07,8.071050441316861e-07,4.080052487015732e-07,2.774192481759854e-05
3.304655954316261e-07,8.042175887331119e-07,4.093072945835928e-07,2.768187696301504e-05
3.327479977798784e-07,8.023278335547346e-07,4.104865262205828e-07,2.7614876993041444e-05
3.350572884368901e-07,8.014450286147979e-07,4.1153025261819614e-07,2.7540950046361345e-05
3.374064062061495e-07,8.015663747809042e-07,4.1242700160175436e-07,2.746060868839905e-05
3.398094034437852e-07,8.026743960345723e-07,4.1316692102792566e-07,2.737483104382641e-05
3.422791429157437e-07,8.047355509686781e-07,4.1374094769836786e-07,2.728486915264157e-05
3.4482686694598907e-07,8.077020323031332e-07,4.1414241233666065e-07,2.719204699118349e-05
3.474614903880698e-07,8.115148558347063e-07,4.1437033116602455e-07,2.709761207202984e-05
3.501884803454807e-07,8.161084648833495e-07,4.1442976603746155e-07,2.7002775312249704e-05
3.5300853051670473e-07,8.21417373574063e-07,4.1432934906805476e-07,2.69089811774501e-05
3.559165761496596e-07,8.273815185144421e-07,4.1407904812489686e-07,2.681812929867485e-05
3.589017593063586e-07,8.339484865625383e-07,4.136885410118826e-07,2.673252078886505e-05
3.6194821141199863e-07,8.410741986090003e-07,4.131652663343115e-07,2.6654644862514583e-05
3.6503666931609616e-07,8.487208523405863e-07,4.125130629065464e-07,2.6586981190540688e-05
3.68147235302081e-07,8.568510867196812e-07,4.1173332643280773e-07,2.6531847573537383e-05
3.7126273384704244e-07,8.654225894793319e-07,4.108283037104216e-07,2.649127285941592e-05
3.743708823129132e-07,8.74386453100841e-07,4.0980286510402813e-07,2.6466896390326265e-05
3.774642837668714e-07,8.836874106600758e-07,4.086630640443906e-07,2.6459913010373653e-05
3.8053930512640523e-07,8.932642252189249e-07,4.074148135123532e-07,2.6471080294561694e-05
3.835944764863121e-07,9.030524563169556e-07,4.060646051940917e-07,2.6500765204598443e-05
3.866283368524564e-07,9.1299081284883e-07,4.046203991250612e-07,2.6548977581307924e-05
3.89637565243241e-07,9.23026086662644e-07,4.030912352886158e-07,2.66153629184966e-05
3.9261651454165844e-07,9.331112124498992e-07,4.014859900559714e-07,2.669916685912788e-05
3.955591085442307e-07,9.431983754746427e-07,3.998130306388147e-07,2.6799210321085572e-05
3.9846280231833365e-07,9.532335759962013e-07,3.980807492170978e-07,2.6913934591863035e-05
4.0133257788887403e-07,9.631570757196246e-07,3.9629729342841613e-07,2.7041549933622407e-05
4.0418210373378884e-07,9.729089884470759e-07,3.9446990972340176e-07,2.7180223328130952e-05
4.070295958610111e-07,9.82434301231744e-07,3.9260483012446975e-07,2.732819719979524e-05
4.0989123640276434e-07,9.916824834569292e-07,3.907074589902794e-07,2.748382919496289e-05
4.1277906183378133e-07,1.0006042305025136e-06,3.887823167255513e-07,2.7645618473624213e-05
4.157038014878855e-07,1.0091532401861514e-06,3.8683216076579257e-07,2.7812227705490277e-05
4.186769310918047e-07,1.0172947492007029e-06,3.8485725864089946e-07,2.798245855433686e-05
4.2170976843753184e-07,1.0250117356515933e-06,3.828565128426393e-07,2.8155173546503137e-05
4.248122424158712e-07,1.032302118259021e-06,3.808290492907305e-07,2.8329195574675804e-05
4.27993085340549e-07,1.0391704029297941e-06,3.7877378470409705e-07,2.850322967539364e-05
4.312598007410104e-07,1.0456187814624195e-06,3.7668843692609957e-07,2.8675868317116332e-05
4.34616748298806e-07,1.0516408336502695e-06,3.745706456536787e-07,2.8845676346032927e-05
4.3806268343441655e-07,1.0572200671238056e-06,3.724196613167872e-07,2.901125287566436e-05
4.415899377967648e-07,1.06233146448921e-06,3.7023624120328567e-07,2.9171226738480346e-05
4.4518555568684615e-07,1.0669429279875285e-06,3.680219109285623e-07,2.9324244355461462e-05
4.488329149852349e-07,1.0710172228710334e-06,3.6577858943536774e-07,2.946899488811585e-05
4.525137766144887e-07,1.0745174378459666e-06,3.6350862529370157e-07,2.9604261188930516e-05
4.5621218396020286e-07,1.0774173110965828e-06,3.612160435558581e-07,2.972893054945569e-05
4.5991728034439744e-07,1.0797105044106956e-06,3.589074791777013e-07,2.984192202101555e-05
4.636211948422821e-07,1.0814090144457814e-06,3.565908751883667e-07,2.994209860139185e-05
4.673159443493243e-07,1.0825317210407512e-06,3.542741394897454e-07,3.002825626389525e-05
4.7099409105570536e-07,1.0830954606239646e-06,3.5196575832064576e-07,3.0099200617647584e-05
4.746504404568044e-07,1.0831173096083014e-06,3.496752307341972e-07,3.015388824278703e-05
4.782819372075005e-07,1.0826255109785043e-06,3.474121922144608e-07,3.019161550538531e-05
4.818865737296656e-07,1.0816681515234483e-06,3.4518627098087416e-07,3.02121686720672e-05
4.854613232929355e-07,1.0803113329037294e-06,3.430076266878633e-07,3.021580980516765e-05
4.889999733142918e-07,1.078630923014689e-06,3.4088622955159676e-07,3.020309286317695e-05
4.924932840808465e-07,1.076706686111113e-06,3.388303515506896e-07,3.017462073692857e-05
4.959304728105784e-07,1.0746202839090398e-06,3.368457876609221e-07,3.0130864673833678e-05
4.992991141119462e-07,1.072451974487567e-06,3.3493607889670896e-07,3.0072116176619122e-05
5.025845302035422e-07,1.0702729222849732e-06,3.331033380007836e-07,2.9998529297234114e-05
5.057721015535263e-07,1.0681376159778684e-06,3.3134851493445895e-07,2.9910164800201727e-05
5.08852879427777e-07,1.066081567957336e-06,3.2967036554264304e-07,2.9807076741938878e-05
5.118287156464433e-07,1.0641229010217665e-06,3.2806493571694515e-07,2.9689558192346264e-05
5.147116995316036e-07,1.0622645874065016e-06,3.265276311560748e-07,2.9558433996519702e-05
5.175173023450904e-07,1.060497180157987e-06,3.2505648766686395e-07,2.9415117438036572e-05
5.202573238465828e-07,1.058803776508044e-06,3.236533504762475e-07,2.926140154924477e-05
5.229373766856047e-07,1.0571666586577005e-06,3.2232313329619644e-07,2.9099186732784736e-05
5.255572821353466e-07,1.0555706835714622e-06,3.210732447133897e-07,2.893028693555571e-05
5.281117929476765e-07,1.0540009074749714e-06,3.199124109410915e-07,2.8756428136780383e-05
5.305911027660382e-07,1.0524389405771446e-06,3.1884882667563345e-07,2.85794859890612e-05
5.329812936919492e-07,1.0508626118032566e-06,3.1788905403618324e-07,2.840174033545319e-05
5.352655470006596e-07,1.0492490225335264e-06,3.170370953298513e-07,2.822588009569671e-05
5.374256496759536e-07,1.0475791541301385e-06,3.162938912714375e-07,2.805481058997769e-05
5.394423524446732e-07,1.0458410454822012e-06,3.156589117658644e-07,2.7891465802904326e-05
5.41295565445073e-07,1.0440286218252649e-06,3.15132503918709e-07,2.7738679424434724e-05
5.429661775658797e-07,1.0421369500877206e-06,3.1471601050792043e-07,2.7599068315634096e-05
5.444381213403072e-07,1.0401576510549509e-06,3.144096842927556e-07,2.747492478576571e-05
5.45698303857171e-07,1.038077365435267e-06,3.142113063712062e-07,2.736815279815108e-05
5.467368374864404e-07,1.0358795184771412e-06,3.141178720968956e-07,2.7280252579020785e-05
5.475510457896612e-07,1.0335477303704887e-06,3.141284138602373e-07,2.7212330868857346e-05
5.481492629830262e-07,1.0310689793961569e-06,3.1424400808147157e-07,2.71651101467599e-05
5.48549085629995e-07,1.0284349264984832e-06,3.1446585522594073e-07,2.7138908978386928e-05
5.487726697409078e-07,1.0256416238396393e-06,3.1479503473152087e-07,2.7133594958236146e-05
5.488429676258128e-07,1.022688329755277e-06,3.1523333376191425e-07,2.7148550483231906e-05
5.487808014385522e-07,1.0195743535623837e-06,3.15782531308078e-07,2.71827116669492e-05
5.486033679862386e-07,1.0162954176886491e-06,3.164427745554248e-07,2.7234712593931444e-05
5.483247581845232e-07,1.0128432116964864e-06,3.172118963902397e-07,2.7303072278083898e-05
5.479567820460719e-07,1.0092079595959323e-06,3.180857966078473e-07,2.7386318777626856e-05
5.475087747236097e-07,1.005381807166455e-06,3.190593376072133e-07,2.74830288081043e-05
5.4698717575926e-07,1.0013630403145072e-06,3.2012724106016347e-07,2.7591840876038623e-05
5.463962056626894e-07,9.971602202057933e-07,3.2128465023839e-07,2.771147754014401e-05
5.457386365435832e-07,9.927919806858258e-07,3.2252674677061805e-07,2.7840757762690362e-05
5.450153270823338e-07,9.882809300392638e-07,3.2384768190770225e-07,2.7978573543321155e-05
5.4422457106226e-07,9.83646737745407e-07,3.252413290391954e-07,2.8123832838637598e-05
5.433619005402235e-07,9.789045057754049e-07,3.267036547986769e-07,2.827538447486651e-05
5.424205888225884e-07,9.740675849662402e-07,3.282328304038851e-07,2.8431958322011108e-05
5.413932029308492e-07,9.691487464379395e-07,3.29826592316816e-07,2.8592174061645228e-05
5.402726966273974e-07,9.64158108229771e-07,3.31480243769429e-07,2.875460207805376e-05
5.390519961743072e-07,9.59100981598343e-07,3.331871654062954e-07,2.8917794599972803e-05
5.377230384030228e-07,9.539771326269985e-07,3.349399210646177e-07,2.908028087488349e-05
5.362762876661572e-07,9.487815535115749e-07,3.367297339431268e-07,2.9240583003836327e-05
5.347007779695972e-07,9.435080131096914e-07,3.3854570115104984e-07,2.939726750059584e-05
5.329847512638004e-07,9.381577081825425e-07,3.4037502842043237e-07,2.954897443409218e-05
5.311171644805067e-07,9.327494830876524e-07,3.422033083515195e-07,2.9694352810855452e-05
5.290885751303111e-07,9.273209976052248e-07,3.440152757249699e-07,2.983197584344665e-05
5.268904331561889e-07,9.219212094731987e-07,3.457962438733898e-07,2.996042374014608e-05
5.245146103862508e-07,9.16606421589036e-07,3.4753239074533746e-07,3.007854173754777e-05
5.219544914329642e-07,9.114406249411608e-07,3.492098502055529e-07,3.0185638543916747e-05
5.19206700841224e-07,9.064918864973437e-07,3.508139896188459e-07,3.0281459108770702e-05
5.162713897471465e-07,9.018251736100388e-07,3.523293841263189e-07,3.036600191245623e-05
5.131514118681029e-07,8.974959452175602e-07,3.5374095082161507e-07,3.043932027991773e-05
5.098530739938747e-07,8.935459430286215e-07,3.5503582184251854e-07,3.0501380292402917e-05
5.063878187496783e-07,8.900020975716942e-07,3.5620470027262224e-07,3.05520026545443e-05
5.027725750607562e-07,8.868775044908257e-07,3.572415630059269e-07,3.0590885687953605e-05
4.990284322791646e-07,8.84172003452434e-07,3.581413660061669e-07,3.061766514832817e-05
4.951783173810521e-07,8.818725105653027e-07,3.5889766559568827e-07,3.063196005391947e-05
4.912450352220873e-07,8.799544521435309e-07,3.595018897280818e-07,3.063337693761594e-05
4.872497081525781e-07,8.783835528849581e-07,3.5994384611071775e-07,3.062152086112835e-05
4.832100375771072e-07,8.771170395336396e-07,3.6021286658252133e-07,3.059616208082609e-05
4.791396226950992e-07,8.761054609399695e-07,3.602996286044073e-07,3.0557527839209006e-05
4.7504969860115995e-07,8.752958542841444e-07,3.6019820201693626e-07,3.050640213091533e-05
4.709523310338096e-07,8.746341157775038e-07,3.5990691156938975e-07,3.0443924234883772e-05
4.668620881865089e-07,8.74066158448987e-07,3.5942849956528675e-07,3.0371371829757313e-05
4.627961109387581e-07,8.735416797901794e-07,3.5877144182328226e-07,3.029013180285897e-05
4.58776351186123e-07,8.730198443715773e-07,3.5795036401156274e-07,3.020173716152478e-05
4.548331110994586e-07,8.724704507678983e-07,3.5698320269871894e-07,3.0107818259946442e-05
4.510033712181468e-07,8.718694270070789e-07,3.5588843091834493e-07,3.000999502442219e-05
4.473237030635227e-07,8.711933926089899e-07,3.546847231737797e-07,2.9909786020194066e-05
4.438251964474023e-07,8.704167901422106e-07,3.533901836585286e-07,2.9808553367054717e-05
4.4053269800149896e-07,8.695121342586863e-07,3.5202022164427037e-07,2.970746973503012e-05
4.3746497344675063e-07,8.68451445736752e-07,3.50586514199022e-07,2.9607487738092406e-05
4.3463484223284026e-07,8.67206609702014e-07,3.4909761716410925e-07,2.950930491603897e-05
4.3204931556757286e-07,8.657493956894941e-07,3.475600919357976e-07,2.9413337759102172e-05
4.2970932728764725e-07,8.640527225444756e-07,3.459793462427286e-07,2.931972523414095e-05
4.276102347608029e-07,8.620922702298557e-07,3.4436024090983617e-07,2.922836969647257e-05
4.2574384464393527e-07,8.598490104567455e-07,3.427081889978409e-07,2.9138998819571754e-05
4.2410024933542975e-07,8.573147285743969e-07,3.410306808319085e-07,2.9051209886477613e-05
4.226677131220866e-07,8.544957237508836e-07,3.3933855524916604e-07,2.8964471300894483e-05
4.2143188051522216e-07,8.514084903318474e-07,3.376461868508764e-07,2.887809852964385e-05
4.203771133461585e-07,8.480718678419932e-07,3.359701532982531e-07,2.8791238452665283e-05
4.194898682670606e-07,8.445024839227985e-07,3.343277439313217e-07,2.8702885972224737e-05
4.1876014862834845e-07,8.407130381958691e-07,3.327362629703471e-07,2.8611937197217518e-05
4.1817923995581283e-07,8.367117384815719e-07,3.3121248773621714e-07,2.8517259130132928e-05
4.177376209300151e-07,8.325034405623497e-07,3.2977234786821466e-07,2.8417749219293928e-05
4.1742552249612753e-07,8.280916676442376e-07,3.2843091772308373e-07,2.831238523355357e-05
4.172339229663152e-07,8.234789581865274e-07,3.272022107921369e-07,2.820029052084552e-05
4.171548984307168e-07,8.186667074456092e-07,3.2609848290788987e-07,2.8080798429412208e-05
4.1718165839338546e-07,8.136601657481056e-07,3.25129430825482e-07,2.7953459212851784e-05
4.173077847793018e-07,8.084776223799607e-07,3.2430269642295214e-07,2.78179886173594e-05
4.175270446396772e-07,8.031529437759951e-07,3.236254659008503e-07,2.76742011110981e-05
4.178348935072925e-07,7.977271557792719e-07,3.2310542446565034e-07,2.7521951657161528e-05
4.182289922810751e-07,7.922383585663287e-07,3.2275068846060874e-07,2.736113847163924e-05
4.187073003968557e-07,7.86718472705361e-07,3.2256842936073717e-07,2.719180549427269e-05
4.1926674949890826e-07,7.811947638723553e-07,3.225628340227484e-07,2.7014242144324868e-05
4.199047075137251e-07,7.756902455916873e-07,3.227344996266847e-07,2.682894011157768e-05
4.2062090035935563e-07,7.702225000398986e-07,3.230805497769793e-07,2.6636432592041612e-05
4.214162177254042e-07,7.648040040976773e-07,3.2359435947865497e-07,2.643717020676612e-05
4.2228885018911685e-07,7.594439844612255e-07,3.242670074165204e-07,2.623152229637277e-05
4.23231424627814e-07,7.541510670422547e-07,3.250900739904263e-07,2.601986083447762e-05
4.242309212869987e-07,7.489390112691521e-07,3.260563289956478e-07,2.580261564070683e-05
4.252705609713918e-07,7.438335337031495e-07,3.2715889315551364e-07,2.5580220402582448e-05
4.2633283534048575e-07,7.38871852668106e-07,3.283909769516498e-07,2.535300941597189e-05
4.2740293994874503e-07,7.340947238263513e-07,3.297447629412035e-07,2.5121188476823072e-05
4.28470323576323e-07,7.295425559898486e-07,3.312092971488497e-07,2.4884910081602568e-05
4.295270275880048e-07,7.25262498304457e-07,3.3277022088358675e-07,2.464442537774426e-05
4.3056633147997244e-07,7.213174564165803e-07,3.3441169529979074e-07,2.4400254923812108e-05
4.3158429832937917e-07,7.177824608614474e-07,3.361180407301732e-07,2.4153263370366105e-05
4.325803823074561e-07,7.147289677507759e-07,3.3787428655630533e-07,2.3904578992722948e-05
4.3355510455579613e-07,7.122117172008726e-07,3.396668076860764e-07,2.365540775442659e-05
4.3450841718820973e-07,7.102662469235016e-07,3.414842481157494e-07,2.340682532704479e-05
4.354399910374697e-07,7.089140474292815e-07,3.4331757925316765e-07,2.315964487294162e-05
4.3634985556765386e-07,7.081688823787846e-07,3.451586778522047e-07,2.291440848298359e-05
4.3723887791312705e-07,7.080386633430874e-07,3.469985676970037e-07,2.2671448600418745e-05
4.38108533544226e-07,7.085230781690534e-07,3.488267625074288e-07,2.243100815123666e-05
4.389605251455015e-07,7.096121816242616e-07,3.506315972701016e-07,2.219348638499046e-05
4.397976094788888e-07,7.112889511631229e-07,3.524012304492491e-07,2.195972043415753e-05
4.406239138180234e-07,7.135324169307235e-07,3.5412551837770406e-07,2.173105645984418e-05
4.414430099561662e-07,7.163172646041715e-07,3.5579698990917343e-07,2.150915133617024e-05
4.4225577692956886e-07,7.196143468616598e-07,3.57409153937896e-07,2.129569013675368e-05
4.4306003288069886e-07,7.233973701525425e-07,3.589543201845241e-07,2.1092176678561854e-05
4.438516172579953e-07,7.276486579068556e-07,3.604236320670651e-07,2.0899880431112667e-05
4.4462559436656323e-07,7.323557994911338e-07,3.618084032575079e-07,2.0720031835148685e-05
4.4537782901732616e-07,7.375048264124278e-07,3.6310060219548613e-07,2.055416247228185e-05
4.4610929350990726e-07,7.430772047998884e-07,3.6429271657133457e-07,2.0404270385895568e-05
4.468318032682762e-07,7.490491039713317e-07,3.653787680711842e-07,2.0272710166781672e-05
4.4756894751736785e-07,7.55391885049158e-07,3.663570417304175e-07,2.016199012581705e-05
4.4834972709056024e-07,7.620748286611032e-07,3.672320634635296e-07,2.0074599653762014e-05
4.492002378260213e-07,7.690673237511309e-07,3.6801250258977363e-07,2.001286582372507e-05
4.501389904651853e-07,7.763374277276426e-07,3.6870642119548934e-07,1.9978824081410347e-05
4.5117620393356963e-07,7.838486968364933e-07,3.6931818106433077e-07,1.9974116761950906e-05
4.5231599766569976e-07,7.9155923816819e-07,3.69848277489738e-07,1.9999947220116212e-05
4.535608682114565e-07,7.99422776960023e-07,3.70294802158436e-07,2.0057079991454583e-05
4.549150902819585e-07,8.073908866735687e-07,3.7065481559708596e-07,2.0145838955354228e-05
4.5638341015547115e-07,8.154187444806665e-07,3.7092461176322e-07,2.0266072502060384e-05
4.579673113284758e-07,8.234710041341925e-07,3.7110033953928104e-07,2.041710306348872e-05
4.596637655821333e-07,8.315219820796448e-07,3.7118052134830974e-07,2.059770614447268e-05
4.614660351055973e-07,8.395526685219506e-07,3.7116776736384116e-07,2.0806162871132668e-05
4.633632349735718e-07,8.475468333115554e-07,3.7106712049773825e-07,2.1040403283341128e-05
4.6533967130146896e-07,8.554858899344986e-07,3.708839583874694e-07,2.129819667577192e-05
4.6737746834860966e-07,8.633451311776968e-07,3.7062379792540406e-07,2.157730525756438e-05
4.6946180338364346e-07,8.710925206641467e-07,3.702924787125465e-07,2.1875565901749272e-05
4.715835211257654e-07,8.786898152390366e-07,3.698964836528024e-07,2.219093482426797e-05
4.7373636712645673e-07,8.860957400713446e-07,3.6944344680174433e-07,2.252151883455928e-05
4.759124593319025e-07,8.932700959903194e-07,3.6894104852650383e-07,2.286557707279063e-05
4.781009040755572e-07,9.001783622044287e-07,3.6839458863052757e-07,2.3221477513672463e-05
4.802896088079056e-07,9.067940521571831e-07,3.678056843281681e-07,2.3587603221599624e-05
4.824674344269011e-07,9.130954207780199e-07,3.6717263451281e-07,2.396222523363284e-05
4.84625729079658e-07,9.190599385119026e-07,3.6649125383537824e-07,2.434340451478352e-05
4.867584354036098e-07,9.246615437709181e-07,3.6575565275026665e-07,2.4728998845765563e-05
4.888622053883697e-07,9.298713080840531e-07,3.6495920801697453e-07,2.511679389268084e-05
4.909446251989903e-07,9.346626463022458e-07,3.640954018171465e-07,2.5504722850295417e-05
4.930396724374368e-07,9.39018020129475e-07,3.6315791102905924e-07,2.5891068359209782e-05
4.952135435559996e-07,9.429294123041763e-07,3.621405318117118e-07,2.6274482153749854e-05
4.975539204766352e-07,9.463949184908323e-07,3.6103752486856593e-07,2.665381032075193e-05
5.001526459966011e-07,9.494192795681156e-07,3.598442897649844e-07,2.702788877165361e-05
5.030916345450364e-07,9.52016769080188e-07,3.585586668786687e-07,2.739543692567765e-05
5.064386139436609e-07,9.542111886483078e-07,3.571817005903904e-07,2.7755061408815307e-05
5.102515750042461e-07,9.560346729968979e-07,3.557164078905019e-07,2.81053033618234e-05
5.145814094147166e-07,9.575292106803636e-07,3.541660395206351e-07,2.8444686042165118e-05
5.194687115136186e-07,9.58747019559288e-07,3.525332460946009e-07,2.877175128298741e-05
5.249402128029343e-07,9.597450936647236e-07,3.508197667605401e-07,2.908505189749556e-05
5.310078312581779e-07,9.605788994728195e-07,3.490263958005657e-07,2.9383124018689198e-05
5.376695588204707e-07,9.612993457555596e-07,3.4715327657528054e-07,2.96645026571336e-05
5.449120427692976e-07,9.619498150985991e-07,3.452008366645864e-07,2.9927771624796424e-05
5.527136840784174e-07,9.625634291329896e-07,3.431708728303626e-07,3.0171591688777143e-05
5.610459126339446e-07,9.631639135609186e-07,3.410663383365349e-07,3.039470649091226e-05
5.698807828584493e-07,9.63771746684115e-07,3.3889012366533735e-07,3.059607957315344e-05
5.792182521021604e-07,9.64416785696899e-07,3.366446724768802e-07,3.0775278308820165e-05
5.891160741225861e-07,9.651488454686677e-07,3.343338586925868e-07,3.093281067657813e-05
5.996887648057998e-07,9.660336095985764e-07,3.3196763941977877e-07,3.107003938756519e-05
6.11079760038901e-07,9.671390542246486e-07,3.295665101544024e-07,3.118881669976173e-05
6.234324661189653e-07,9.685247162447658e-07,3.271601510016029e-07,3.1291187860885054e-05
6.368693504712455e-07,9.70235621833761e-07,3.2478044650084264e-07,3.137921603558961e-05
6.514803503740086e-07,9.72300402158949e-07,3.2245531770299287e-07,3.1454835992357534e-05
6.673203585793176e-07,9.747340958312272e-07,3.202065285584736e-07,3.1519718615365586e-05
6.844122089328071e-07,9.775427427631045e-07,3.1805009834706657e-07,3.1575198259495194e-05
7.027516428809157e-07,9.80726085090814e-07,3.159980681012211e-07,3.162234012396307e-05
7.223111357097358e-07,9.84277470078281e-07,3.140601672216714e-07,3.1662169076301424e-05
7.430430309883722e-07,9.881834882874522e-07,3.1224424117248733e-07,3.1695881499241054e-05
7.648841963584142e-07,9.924259436948995e-07,3.105560848643859e-07,3.17247968144708e-05
7.877616333984438e-07,9.969859123692842e-07,3.0899919309215217e-07,3.1750120691327774e-05
8.115973434461997e-07,1.0018470903456085e-06,3.075744978301311e-07,3.177285955265563e-05
8.363115106038448e-07,1.0069951099108008e-06,3.062808296492279e-07,3.179407613939719e-05
8.618268924231523e-07,1.0124145702022937e-06,3.051166192423286e-07,3.1815301556278774e-05
8.880767848329546e-07,1.0180892500263857e-06,3.04081562033133e-07,3.1838765970914926e-05
9.150088351907972e-07,1.0240038033554087e-06,3.031767602755893e-07,3.186734678035185e-05
9.425782512106399e-07,1.0301404698161614e-06,3.024043566758951e-07,3.1904363464374434e-05
9.70738044842536e-07,1.0364728334078406e-06,3.0176762925689785e-07,3.195334106036101e-05
9.994335402944124e-07,1.0429636764196866e-06,3.012704821771556e-07,3.2017787206928605e-05
1.0285999709553582e-06,1.0495670553403523e-06,3.0091585176021965e-07,3.2100984348915774e-05
1.0581624821199927e-06,1.0562307875169151e-06,3.0070414583345277e-07,3.2205800977585555e-05
1.0880363849893144e-06,1.0628993393476031e-06,3.00632750442798e-07,3.233453202532101e-05
1.1181248768380959e-06,1.0695170032355178e-06,3.0069681006637817e-07,3.248877537924577e-05
1.1483172391046226e-06,1.0760281955094186e-06,3.0089067127260764e-07,3.266937283140362e-05
1.1784906565358246e-06,1.082375308861728e-06,3.0120819195405946e-07,3.2876430960252444e-05
1.2085142153381251e-06,1.0884975546230237e-06,3.01641660970644e-07,3.310936712183604e-05
1.2382523377328428e-06,1.0943313525637994e-06,3.0218188432775694e-07,3.336694207877285e-05
1.2675672211073307e-06,1.099811331933646e-06,3.028197983457215e-07,3.364734911071136e-05
1.2963208959434014e-06,1.1048715982766457e-06,3.035468752280816e-07,3.3948413542255515e-05
1.3243771342776524e-06,1.109446660777593e-06,3.043540444384483e-07,3.426779562739197e-05
1.35160636829823e-06,1.113471911470291e-06,3.05231594208137e-07,3.460302456011629e-05
1.3778930610463468e-06,1.1168851937579168e-06,3.061700044325745e-07,3.4951389224311796e-05
1.4031371171821138e-06,1.1196292650932429e-06,3.0715993150188605e-07,3.5309903883387764e-05
1.4272480455608768e-06,1.1216528487124384e-06,3.081922498978976e-07,3.567541251481532e-05
1.4501390148917438e-06,1.1229116165138965e-06,3.09258955110313e-07,3.604469450275808e-05
1.4717235173573874e-06,1.1233724226006006e-06,3.10352879208513e-07,3.6414509218170676e-05
1.491914915351097e-06,1.123018252717085e-06,3.1146599317836126e-07,3.6781637989315456e-05
1.5106303109917655e-06,1.1218483165668276e-06,3.125887510102702e-07,3.7142954787548636e-05
1.5277965170978331e-06,1.1198741014706505e-06,3.137105513926106e-07,3.749546795216977e-05
1.5433521664321116e-06,1.1171150167428798e-06,3.1481968010997824e-07,3.783628519230636e-05
1.5572439557972496e-06,1.1135948276008127e-06,3.159030768262944e-07,3.81625497039178e-05
1.5694217913296552e-06,1.109340139897454e-06,3.169471354972309e-07,3.8471408028252094e-05
1.579837886456955e-06,1.104379416599856e-06,3.179393413003126e-07,3.876000697998965e-05
1.5884506000229138e-06,1.098740448832369e-06,3.1886904357535747e-07,3.9025513547537625e-05
1.5952294186701403e-06,1.0924489233485143e-06,3.1972685599284124e-07,3.926520310957321e-05
1.6001581280166945e-06,1.08552998018509e-06,3.2050435654020317e-07,3.947662787602102e-05
1.6032362394424625e-06,1.0780126049305333e-06,3.211944918919194e-07,3.9657739443751343e-05
1.604476093849944e-06,1.0699376270222335e-06,3.21791907802673e-07,3.980682905427752e-05
1.603895627123583e-06,1.0613650405096802e-06,3.222930206213885e-07,3.9922353608836976e-05
1.6015135912186619e-06,1.0523730731643127e-06,3.226957990121356e-07,4.0002824099303454e-05
1.5973494262878937e-06,1.0430494934126447e-06,3.229993417670577e-07,4.0046808778969926e-05
1.591424728911458e-06,1.0334807116910958e-06,3.232029393574575e-07,4.005298681527268e-05
1.583765124306619e-06,1.0237427645368865e-06,3.233055284579541e-07,4.0020207932082095e-05
1.574401309481881e-06,1.0138989439076149e-06,3.2330724333274906e-07,3.994757623826644e-05
1.5633690260456953e-06,1.0040081089274924e-06,3.2321100505482377e-07,3.9834551542015264e-05
1.550709638818954e-06,9.941391807193251e-07,3.230212389278452e-07,3.968098351342053e-05
1.536470785624987e-06,9.843783326177325e-07,3.2274155513990694e-07,3.948703601424477e-05
1.5207069733666946e-06,9.748243284064449e-07,3.2237400293106323e-07,3.92530777654303e-05
1.503481076103383e-06,9.655805118548642e-07,3.2191933049212034e-07,3.897962467900645e-05
1.4848639703086064e-06,9.567462063439966e-07,3.213769770787841e-07,3.8667332748001286e-05
1.4649309898123919e-06,9.4840652203113e-07,3.207450368794805e-07,3.8316994027865e-05
1.4437590822370452e-06,9.406257834330591e-07,3.200215980833818e-07,3.79295381152756e-05
1.421426096173786e-06,9.334472576827782e-07,3.192066973999241e-07,3.750613077492771e-05
1.3980100685127108e-06,9.268960971572173e-07,3.183022920144225e-07,3.704842865133111e-05
1.3735880796083142e-06,9.209824523434609e-07,3.173111943755692e-07,3.6558841034832955e-05
1.3482353120817978e-06,9.15703352446734e-07,3.162378203171235e-07,3.604056111866528e-05
1.3220249588731598e-06,9.110436730913292e-07,3.1508967669136967e-07,3.549734138898242e-05
1.295029479252443e-06,9.069772939990239e-07,3.1387687532860606e-07,3.493317121889741e-05
1.2673217350604242e-06,9.034695886416994e-07,3.126103741155286e-07,3.4351989386184414e-05
1.2389747633044422e-06,9.004814460610541e-07,3.113007792713997e-07,3.3757574064019345e-05
1.2100611547122543e-06,8.979716920788637e-07,3.0995766355927875e-07,3.315374986362599e-05
1.1806526664320959e-06,8.958963285901638e-07,3.085894977411827e-07,3.2544758714285706e-05
1.1508200587936874e-06,8.942089825815785e-07,3.072046311386878e-07,3.1935413574507315e-05
1.120633554214453e-06,8.928638103278008e-07,3.058122574917494e-07,3.1330925085787866e-05
1.0901643904015251e-06,8.918167368921619e-07,3.0442231070629e-07,3.073660549986658e-05
1.0594874575213074e-06,8.910242603573332e-07,3.030444949828604e-07,3.0157607410862154e-05
1.0286831481474323e-06,8.904412764130561e-07,3.016871593568569e-07,2.959871941470657e-05
9.978366471381441e-07,8.90019435649747e-07,3.003572070816479e-07,2.9064213442108587e-05
9.670359175454506e-07,8.897080402937927e-07,2.990606754975841e-07,2.855775865720499e-05
9.363698284291414e-07,8.894571351631546e-07,2.978028119340087e-07,2.8082396779055266e-05
9.059268467073557e-07,8.892228974557993e-07,2.9658877618527733e-07,2.7640521512804803e-05
8.75795017857136e-07,8.889750554712212e-07,2.954246724751562e-07,2.7233831943828408e-05
8.460617112432881e-07,8.887009852140461e-07,2.943167411030001e-07,2.6863309862131945e-05
8.168114956592477e-07,8.8840215637995e-07,2.932701660517749e-07,2.6529270399316896e-05
7.881239076181545e-07,8.880858111462348e-07,2.922897586466492e-07,2.6231468262490486e-05
7.600718458518615e-07,8.877582532047146e-07,2.9138095958050063e-07,2.5969218642416e-05
7.327196235477841e-07,8.874226717747156e-07,2.905496810649156e-07,2.574152716998022e-05
7.06121741916177e-07,8.870800198083578e-07,2.898025195307621e-07,2.5547232985026723e-05
6.803236260608562e-07,8.867296498372896e-07,2.8914932408232e-07,2.538513033498869e-05
6.553631617028344e-07,8.863670516686174e-07,2.886063630008374e-07,2.525403213676681e-05
6.312714008171195e-07,8.859812146068087e-07,2.881950143436836e-07,2.515278571702709e-05
6.080726226865962e-07,8.855564660356576e-07,2.87936145165784e-07,2.5080253168000853e-05
5.857844454413533e-07,8.850784167779702e-07,2.8784600565650066e-07,2.5035246598331117e-05
5.644177701718027e-07,8.845396877958816e-07,2.879355831893397e-07,2.501643739327049e-05
5.439766065627911e-07,8.839424870891504e-07,2.882112829540889e-07,2.5022273238042718e-05
5.244586234064038e-07,8.832977152096462e-07,2.886758029085889e-07,2.5050928782714965e-05
5.058574317735853e-07,8.826211978005969e-07,2.893293320052687e-07,2.510033851867724e-05
4.881658509018299e-07,8.819280051118129e-07,2.9017112034714104e-07,2.516830708826751e-05
4.7137697101968404e-07,8.812273291240668e-07,2.912003437320612e-07,2.525260116135359e-05
4.5548227796221344e-07,8.805198383114807e-07,2.924152589265159e-07,2.535098114831285e-05
4.404703672825841e-07,8.79796681526415e-07,2.938115740964337e-07,2.5461209574792263e-05
4.2632810234606815e-07,8.790396047466001e-07,2.9538170413353684e-07,2.5581053742977426e-05
4.130417417086163e-07,8.782243015192909e-07,2.9711530073752085e-07,2.5708295368303446e-05
4.0059587822483405e-07,8.773301604187162e-07,2.9899993692756354e-07,2.5840747425973405e-05
3.889717024295792e-07,8.763528000231203e-07,3.0102128154999233e-07,2.5976233392795748e-05
3.781463312029516e-07,8.75307720395611e-07,3.0316338827099144e-07,2.611253069173768e-05
3.680931841060563e-07,8.742223052374384e-07,3.0540921477622103e-07,2.624735386839148e-05
3.5878371478404976e-07,8.73125987438362e-07,3.07741040882308e-07,2.6378412385168132e-05
3.501894547097981e-07,8.720448392133194e-07,3.1014077504936963e-07,2.6503523514529958e-05
3.4228347301560914e-07,8.71002744658627e-07,3.125901634616003e-07,2.662077380873169e-05
3.3504294363231374e-07,8.700313522386581e-07,3.150713524694282e-07,2.672867164187903e-05
3.284506208153852e-07,8.691817275175449e-07,3.175681315026516e-07,2.682614501358405e-05
3.224918144992461e-07,8.68526310172187e-07,3.200674976914364e-07,2.691234990815892e-05
3.1715106822388025e-07,8.68150795984164e-07,3.225603357426129e-07,2.6986466268740522e-05
3.124120582941768e-07,8.681420968898965e-07,3.2504008353666413e-07,2.7047633394075847e-05
3.08257476356265e-07,8.685765799287348e-07,3.275005009485457e-07,2.7094988403951223e-05
3.046675471740857e-07,8.695124787031037e-07,3.2993500497162306e-07,2.7127708785892584e-05
3.016192742079123e-07,8.709877537840395e-07,3.3233896072649943e-07,2.7145015238295928e-05
2.9908757786663854e-07,8.730206519634457e-07,3.347125370560603e-07,2.714618088840615e-05
2.97047664822614e-07,8.75611469425583e-07,3.370599947233557e-07,2.713068962426548e-05
2.954758886242229e-07,8.787454877460636e-07,3.3938639930000375e-07,2.7098567782962892e-05
2.943487372095717e-07,8.82395756088513e-07,3.416952201531534e-07,2.7050613584096845e-05
2.9364289351130947e-07,8.865257696447077e-07,3.439874055236865e-07,2.6988288619739555e-05
2.9333572710148806e-07,8.910925287336305e-07,3.462613332238658e-07,2.691340551301484e-05
2.93404098908661e-07,8.960476179400677e-07,3.485128686766907e-07,2.6827848542463364e-05
2.9382349765526183e-07,9.013363048253745e-07,3.5073531535748393e-07,2.6733420373085384e-05
2.9456929408523587e-07,9.068981442838476e-07,3.529197246246933e-07,2.663190235576569e-05
2.956182720892903e-07,9.126692060514105e-07,3.5505569069495775e-07,2.6525310540029927e-05
2.969486101729193e-07,9.185835949813558e-07,3.5713242466123217e-07,2.641606596082455e-05
2.985386324582068e-07,9.245749496157243e-07,3.591393997220367e-07,2.630690776039968e-05
3.0036562018437607e-07,9.305798356141001e-07,3.6106616638127066e-07,2.620069607590499e-05
3.0240560948613675e-07,9.365410798717749e-07,3.629019446953368e-07,2.6100257737699585e-05
3.046336121223742e-07,9.424068855638045e-07,3.646356148305615e-07,2.600828133203302e-05
3.0702355664239825e-07,9.48126484332674e-07,3.6625560079531436e-07,2.592722146561112e-05
3.0954866796895307e-07,9.536470356514616e-07,3.677494405394584e-07,2.5859199519574992e-05
3.121825718104184e-07,9.58913062727358e-07,3.691053215716534e-07,2.580592654273372e-05
3.1490052302577266e-07,9.638672150012413e-07,3.7031687187049203e-07,2.5768672758378064e-05
3.176801023558616e-07,9.68452158532329e-07,3.713871917504439e-07,2.5748265656126933e-05
3.2050105267132533e-07,9.72613100924676e-07,3.723276422396546e-07,2.5745074929440987e-05
3.233453210922343e-07,9.763000365374172e-07,3.731526944998035e-07,2.5758980535077327e-05
3.2619759363237913e-07,9.79468749202843e-07,3.738751609842114e-07,2.5789365072138704e-05
3.2904451103068577e-07,9.820798729962428e-07,3.7450440389017637e-07,2.58351670814434e-05
3.318728626760414e-07,9.84097313210192e-07,3.7504771466335526e-07,2.589500547126502e-05
3.346701367935817e-07,9.854878431925913e-07,3.755132299429533e-07,2.596735076227685e-05
3.3742752312194965e-07,9.862213912822936e-07,3.7591233838137224e-07,2.6050675740596328e-05
3.401406101870905e-07,9.862705932251614e-07,3.7626080194157406e-07,2.614352837735174e-05
3.4280660836857237e-07,9.85609941430479e-07,3.765789135709497e-07,2.6244535412324602e-05
3.454220450433275e-07,9.842174957594528e-07,3.768906585021258e-07,2.635237866179776e-05
3.4798264234440796e-07,9.82081642534025e-07,3.772211710821009e-07,2.646578284084961e-05
3.5048424224520924e-07,9.792088250626851e-07,3.775933754112272e-07,2.658352573107828e-05
3.5292395743040134e-07,9.75624476965584e-07,3.780265642645046e-07,2.670443516215307e-05
3.5530062878859505e-07,9.713663847977726e-07,3.785373437562103e-07,2.6827338307739505e-05
3.576134559733205e-07,9.66476483126223e-07,3.7914033116363213e-07,2.695099331003204e-05
3.5985986084269684e-07,9.60995516980518e-07,3.798474239755836e-07,2.707410309743077e-05
3.620350442995389e-07,9.549615926899858e-07,3.806669534516887e-07,2.719543633312641e-05
3.6413330507523324e-07,9.484122126296328e-07,3.816039344780026e-07,2.731391263731476e-05
3.6614968140467993e-07,9.413872918614741e-07,3.826616588385462e-07,2.7428560010169987e-05
3.680814435739117e-07,9.339289948537069e-07,3.838428324164606e-07,2.753844351794725e-05
3.699300178432578e-07,9.260789225458235e-07,3.8514793316370256e-07,2.764267523713625e-05
3.717030611777455e-07,9.178797756686256e-07,3.865723665347928e-07,2.7740460123577388e-05
3.734138895621333e-07,9.093845944874924e-07,3.881059768479422e-07,2.783106034094344e-05
3.750777263908586e-07,9.00665284528135e-07,3.897357087128875e-07,2.791369003290357e-05
3.767083293403414e-07,8.918104825288584e-07,3.914483016576902e-07,2.7987460364288e-05
3.7831690637579095e-07,8.829140202926464e-07,3.932299028194597e-07,2.805142088648009e-05
3.799124456116482e-07,8.740655609666436e-07,3.950643930908925e-07,2.8104663701521446e-05
3.8150177099041094e-07,8.653534341388348e-07,3.9693333414305854e-07,2.814647239628332e-05
3.830888937334009e-07,8.568750573993063e-07,3.9881699412981904e-07,2.8176490139349544e-05
3.8467516025000023e-07,8.487402893036899e-07,4.0069530135835294e-07,2.8194804967069318e-05
3.862602905450687e-07,8.410646356262945e-07,4.0254826166726424e-07,2.820186365124242e-05
3.8784262440359256e-07,8.339615379589388e-07,4.043556941247546e-07,2.819825699618885e-05
3.894181774220972e-07,8.275379154480411e-07,4.0609817507612985e-07,2.8184492830129272e-05
3.90980349972218e-07,8.218908141213766e-07,4.0776001410032024e-07,2.8160861179539875e-05
3.92521580026531e-07,8.171031125578847e-07,4.093303083337829e-07,2.812743101540891e-05
3.9403540307127385e-07,8.132386879354605e-07,4.107999065949322e-07,2.808411793178529e-05
3.955181678157737e-07,8.103405089628738e-07,4.1215818606700003e-07,2.803075345747562e-05
3.969718526127003e-07,8.084334295381234e-07,4.133925392495855e-07,2.796721096965883e-05
3.98406015678028e-07,8.075284714963713e-07,4.144898045374912e-07,2.789366064318076e-05
3.9983528147359316e-07,8.076238435748616e-07,4.154382594946222e-07,2.7810794412100294e-05
4.012751626202791e-07,8.087025103600994e-07,4.162280550059661e-07,2.7719807638421368e-05
4.0274064451745007e-07,8.107310075577863e-07,4.1685031694575576e-07,2.762220567272941e-05
4.0424593310137465e-07,8.136615310053341e-07,4.172986118282933e-07,2.7519591471897246e-05
