4.4323184887316006e-07,7.26797262094458e-07,2.526772618337759e-07,2.484392467038489e-05
4.428286365936178e-07,7.252703295840541e-07,2.527291863354373e-07,2.493478060775653e-05
4.4228896992416715e-07,7.235942456261829e-07,2.5301346238452397e-07,2.505324713720041e-05
4.4161476356080856e-07,7.21775906294051e-07,2.535254935355773e-07,2.5197873635143066e-05
4.4080695063799706e-07,7.198220800100611e-07,2.5425680206584924e-07,2.536684234061931e-05
4.398650418015172e-07,7.177386854921336e-07,2.551947302947724e-07,2.5557989315903023e-05
4.387879646918786e-07,7.155311642172176e-07,2.563231915453791e-07,2.576887156177654e-05
4.375771679855016e-07,7.132049237092218e-07,2.576240671140734e-07,2.599688335218379e-05
4.36240056680465e-07,7.107637722859079e-07,2.590784872738804e-07,2.623940641796064e-05
4.3478976104076746e-07,7.082073282931231e-07,2.6066808173325937e-07,2.649404285752452e-05
4.3324255162271816e-07,7.055306351206963e-07,2.623755095769807e-07,2.675892035154093e-05
4.316169354928849e-07,7.027267804368637e-07,2.6418363128789037e-07,2.70328205880586e-05
4.2993330960390026e-07,6.997905163319713e-07,2.66074556082735e-07,2.731492692498479e-05
4.28212637620063e-07,6.967203547523629e-07,2.6802984490384733e-07,2.760445680735092e-05
4.2647509218564456e-07,6.935190969348804e-07,2.700317471666437e-07,2.7900529165392823e-05
4.2473856223420504e-07,6.901932747474277e-07,2.720640272583037e-07,2.8202176095745318e-05
4.230177392164826e-07,6.867509214611968e-07,2.7411145945351204e-07,2.85082974179908e-05
4.213252411828277e-07,6.831991533651081e-07,2.761595589458483e-07,2.881757941846465e-05
4.19673490512484e-07,6.795429415318595e-07,2.7819527612583215e-07,2.9128447517875848e-05
4.1807497231197157e-07,6.757839478021807e-07,2.802069337786998e-07,2.943906165508919e-05
4.1654135129510456e-07,6.719196656061396e-07,2.821837525779994e-07,2.9747347744066522e-05
4.150835178945377e-07,6.679450086995011e-07,2.841165325731092e-07,3.0051054392745635e-05
4.1371274298747954e-07,6.638571855130429e-07,2.859979209539897e-07,3.034780765653668e-05
4.124423341342608e-07,6.596615903470954e-07,2.878208170091516e-07,3.0635145969995836e-05
4.1128930342867595e-07,6.553735522640403e-07,2.895771456225985e-07,3.0910548851218604e-05
4.102739303394836e-07,6.510133934046393e-07,2.912588090099354e-07,3.1171475200465624e-05
4.094164962583856e-07,6.465995387145916e-07,2.928591000759787e-07,3.141541986839506e-05
4.087340925019578e-07,6.421463217150798e-07,2.943728052727862e-07,3.163997810195335e-05
4.082387752007066e-07,6.376662652707392e-07,2.957952838109984e-07,3.1842872170976016e-05
4.079359328806819e-07,6.331707415286455e-07,2.971216889897877e-07,3.202192857610086e-05
4.0782339285273573e-07,6.286676274052681e-07,2.98347641114678e-07,3.217505585439561e-05
4.0789201614102457e-07,6.241604798679633e-07,2.9947054952758014e-07,3.23002539561573e-05
4.0812724240518106e-07,6.196497828163269e-07,3.004891495329042e-07,3.2395647491943685e-05
4.0851092076195886e-07,6.15134212812927e-07,3.014019415278698e-07,3.245952993137417e-05
4.0902334902516817e-07,6.106131481616879e-07,3.022076749744383e-07,3.249039532771056e-05
4.09645576900361e-07,6.060896125586949e-07,3.0290775873346036e-07,3.248694169851535e-05
4.1036026379658534e-07,6.015703199976098e-07,3.0350723187166817e-07,3.244807456832153e-05
4.111503419112732e-07,5.970635492163886e-07,3.040130295823356e-07,3.237295002968137e-05
4.1199862887767133e-07,5.92578180246116e-07,3.044317257427345e-07,3.2261046426588236e-05
4.1289008259062296e-07,5.881267034868796e-07,3.047689535056281e-07,3.211221624263725e-05
4.138134522373671e-07,5.837313385132946e-07,3.050306776076909e-07,3.192668699934388e-05
4.1475962819216707e-07,5.794262073747348e-07,3.05225280538022e-07,3.1705002768006685e-05
4.1571941137984706e-07,5.752521600647519e-07,3.0536437440556426e-07,3.144793226218003e-05
4.166837955023387e-07,5.712498198658625e-07,3.0546060532661983e-07,3.115642868513076e-05
4.1764478305618477e-07,5.674552204611675e-07,3.055242594394902e-07,3.083166734955533e-05
4.185950023020301e-07,5.638975706095965e-07,3.055619138584383e-07,3.0475055230853527e-05
4.1952722771185104e-07,5.605988278664083e-07,3.0557795921548637e-07,3.008817502616612e-05
4.204338922059854e-07,5.575750465396254e-07,3.055774541238864e-07,2.967274352595549e-05
4.213071670378829e-07,5.548376181080768e-07,3.0556724222296465e-07,2.923058949421717e-05
4.221399666858642e-07,5.523926363091606e-07,3.055538578816264e-07,2.876363241192071e-05
4.229256151961963e-07,5.50239755755634e-07,3.0554103742985373e-07,2.827389420253952e-05
4.236563398305832e-07,5.483727895716963e-07,3.0553024358634674e-07,2.7763499277347718e-05
4.2432329653688286e-07,5.467809922580094e-07,3.0552380280209205e-07,2.723460276527072e-05
4.24917497008951e-07,5.454490966700465e-07,3.05526989505066e-07,2.6689302401329927e-05
4.254295107541378e-07,5.443575172657271e-07,3.055466941901446e-07,2.612961879909543e-05
4.258486470792882e-07,5.434839357396443e-07,3.055888642756632e-07,2.5557571189451334e-05
4.2616320847866657e-07,5.428044430573262e-07,3.056573115777459e-07,2.497531850153475e-05
4.2636133340485616e-07,5.422935847746651e-07,3.0575320119594806e-07,2.438526721941453e-05
4.264317310871193e-07,5.41924912522723e-07,3.058745268895436e-07,2.379004039699853e-05
4.2636502129329216e-07,5.416735258564559e-07,3.060162993737789e-07,2.319232105326307e-05
4.2615489526800563e-07,5.415198739620868e-07,3.061716060294794e-07,2.2594687132276904e-05
4.2579719931708326e-07,5.414509117731678e-07,3.0633301656731445e-07,2.199951471558466e-05
4.252878096571364e-07,5.41456489718255e-07,3.0649354207241075e-07,2.140893753442676e-05
4.246215248090951e-07,5.415243079139595e-07,3.066463345222966e-07,2.0824855717303822e-05
4.237922461156594e-07,5.416374510623986e-07,3.0678361030803234e-07,2.024902120620539e-05
4.2279339049766797e-07,5.417746609079862e-07,3.0689636494424466e-07,1.9683214687192663e-05
4.216180973657088e-07,5.419118593159291e-07,3.06975226034624e-07,1.912948694428061e-05
4.2025958877918563e-07,5.420251898925421e-07,3.0701123793235943e-07,1.8590314954706118e-05
4.1871254462725594e-07,5.420950162199199e-07,3.069958801769426e-07,1.806850669217021e-05
4.169760488520338e-07,5.421074658378624e-07,3.0692064393303363e-07,1.7566925780760156e-05
4.150554834910688e-07,5.420528195375875e-07,3.0677665131738004e-07,1.7088232449530473e-05
4.129602517697185e-07,5.419237406865511e-07,3.06554739080437e-07,1.663474317086997e-05
4.107001171532393e-07,5.41714389174197e-07,3.062459308134514e-07,1.6208485955960793e-05
4.082844344741066e-07,5.41420583704826e-07,3.058422106702095e-07,1.5811466660246065e-05
4.0572335211151363e-07,5.410415063885291e-07,3.0533762101325745e-07,1.5445925182453674e-05
4.030284245118928e-07,5.405802874214198e-07,3.047285805098386e-07,1.5114336144336407e-05
4.002123061002246e-07,5.400413330129818e-07,3.040131194853704e-07,1.4819207991375186e-05
3.9728815451770575e-07,5.394268531137624e-07,3.0319077718577726e-07,1.4562878480549896e-05
3.9426875095598607e-07,5.387349220372725e-07,3.022636079917781e-07,1.4347375584339527e-05
3.9116610124607384e-07,5.379590851395444e-07,3.0123723757222444e-07,1.4174315364044702e-05
3.8799392180756603e-07,5.370895432374104e-07,3.001211043303189e-07,1.4044825722773615e-05
3.8477139691071093e-07,5.36115350207998e-07,2.989273266105061e-07,1.3959504319867285e-05
3.815222961851214e-07,5.350265230613107e-07,2.9766925118988554e-07,1.3918406121716116e-05
3.782702456260807e-07,5.338161440763147e-07,2.9636037832671573e-07,1.3921053306544547e-05
3.7503715097307223e-07,5.324812372244026e-07,2.950130851404352e-07,1.3966462195746079e-05
3.7184495598009526e-07,5.310207528894118e-07,2.9363783014682606e-07,1.4053184728989745e-05
3.687150488918538e-07,5.294336011256072e-07,2.922429618768804e-07,1.417937433988995e-05
3.6566542336043283e-07,5.277192312064508e-07,2.908351058042409e-07,1.4342874604234488e-05
3.6271028525515494e-07,5.258792710428484e-07,2.8942099352468673e-07,1.454129111731228e-05
3.5986238547329423e-07,5.239214524046886e-07,2.880086487203383e-07,1.4772003632569028e-05
3.571346307992393e-07,5.21865385462242e-07,2.866061801788297e-07,1.5032143792534906e-05
3.545392927010375e-07,5.197434902390615e-07,2.85220638927841e-07,1.5318607113387078e-05
3.5208610085243295e-07,5.17597230994345e-07,2.838582011275723e-07,1.5628114321407182e-05
3.497811764512296e-07,5.154753026936721e-07,2.8252436707255047e-07,1.5957295602230983e-05
3.476271385388845e-07,5.134317908179418e-07,2.812234874262218e-07,1.6302781487916592e-05
3.4562405920728283e-07,5.115192445067127e-07,2.7995789897654987e-07,1.6661262342797888e-05
3.437710985729481e-07,5.097812345737714e-07,2.787278706609128e-07,1.702947897366029e-05
3.420678546318249e-07,5.082511173476625e-07,2.775334963123098e-07,1.7404196069976456e-05
3.405141741178877e-07,5.069542189191536e-07,2.7637756685740217e-07,1.7782252226834545e-05
3.3910845387370694e-07,5.059077841765169e-07,2.7526695775732816e-07,1.816069876919754e-05
3.378470704942153e-07,5.051204374110115e-07,2.742114438136907e-07,1.853693831480918e-05
3.367276945198532e-07,5.045941035284168e-07,2.732211850471109e-07,1.890875332471492e-05
3.3575394827784444e-07,5.043255398527919e-07,2.723048000267492e-07,1.9274205421884163e-05
3.349358821809761e-07,5.043056615219851e-07,2.714685041726058e-07,1.96314842431258e-05
3.3428568142406674e-07,5.045195317178524e-07,2.7071572176127496e-07,1.997878853366957e-05
3.338127340558044e-07,5.049482244075138e-07,2.700472937439983e-07,2.031428832006463e-05
3.335211085909459e-07,5.055709511967174e-07,2.69461944648588e-07,2.063620634274829e-05
3.3340969925528047e-07,5.063656877249633e-07,2.6895612074299364e-07,2.094304043902289e-05
3.3347405417482254e-07,5.073078442669735e-07,2.685242217684893e-07,2.123385111245037e-05
3.3370867969084575e-07,5.08369475534628e-07,2.6816040403887444e-07,2.1508449490995722e-05
3.3410885795122674e-07,5.095205775724186e-07,2.678605966256661e-07,2.176739708299299e-05
3.346712051464997e-07,5.107303893305582e-07,2.676241891846408e-07,2.201183992716409e-05
3.353933588437592e-07,5.119675017152995e-07,2.674567571521891e-07,2.2243231292827563e-05
3.362755610794517e-07,5.132002728608514e-07,2.673716695493004e-07,2.246303441734664e-05
3.373235240652648e-07,5.14398317869064e-07,2.6738724115158826e-07,2.2672506400948155e-05
3.3854723703914754e-07,5.155340810917854e-07,2.675215512443999e-07,2.287258697459017e-05
3.399560534749496e-07,5.165836354071474e-07,2.677892853359518e-07,2.3063853513147934e-05
3.4155538638577506e-07,5.175262487244078e-07,2.682016790591355e-07,2.324652750539092e-05
3.4334635116017945e-07,5.183430403001452e-07,2.687671414814924e-07,2.3420543320890783e-05
3.453272091130233e-07,5.190160400366537e-07,2.6949115581293804e-07,2.35856631112874e-05
3.4749518065983575e-07,5.195280319915461e-07,2.7037687509549265e-07,2.374158555855756e-05
3.498462339126708e-07,5.198626974369072e-07,2.714259929025843e-07,2.3888009996221376e-05
3.5237359145824305e-07,5.200058333753044e-07,2.7263887913511705e-07,2.402468648097024e-05
3.5506857195457613e-07,5.199483333199406e-07,2.7401524585008245e-07,2.415149379654128e-05
3.5792291799909e-07,5.196883484499122e-07,2.75555330005466e-07,2.4268568580265205e-05
3.609283885813702e-07,5.192296879026025e-07,2.7726043045354173e-07,2.437650289616827e-05
3.640740679128008e-07,5.18579192888571e-07,2.791322433731801e-07,2.447649235442969e-05
3.6734553686490886e-07,5.177467860744579e-07,2.8117059147886854e-07,2.4570269476742306e-05
3.707262873413255e-07,5.167452131719808e-07,2.833713610052157e-07,2.465987634669971e-05
3.741983346110543e-07,5.155871559947426e-07,2.8572711891599157e-07,2.4747445611644862e-05
3.777420999126576e-07,5.142833791102289e-07,2.882287269842513e-07,2.4835061199385032e-05
3.813379107628419e-07,5.128434748773516e-07,2.9086584078800693e-07,2.4924687293735268e-05
3.849685567828415e-07,5.11276424405745e-07,2.9362780927713685e-07,2.5018115806461056e-05
3.8862028020066116e-07,5.095894194694175e-07,2.965049063900017e-07,2.511687614660957e-05
3.922811648818226e-07,5.07786348850995e-07,2.994881416232509e-07,2.5222103723584053e-05
3.9593946366236467e-07,5.05867790752451e-07,3.0256905971142924e-07,2.5334426346226534e-05
3.995849936477944e-07,5.038333376140579e-07,3.057412719845281e-07,2.545393684787075e-05
4.032118259378026e-07,5.01685605702431e-07,3.0900243873667104e-07,2.5580265033459272e-05
4.0681787684280727e-07,4.994326780298003e-07,3.123543595621952e-07,2.5712701059067248e-05
4.104013735043825e-07,4.970860420683086e-07,3.158004678023491e-07,2.5850323233719126e-05
4.1395802398600544e-07,4.946562087523919e-07,3.193424878354813e-07,2.5992135450536967e-05
4.174802882781022e-07,4.921509907028262e-07,3.2297848254922664e-07,2.613723649961591e-05
4.209574080385829e-07,4.895781170395566e-07,3.267026114462658e-07,2.628497116430459e-05
4.2437567449552346e-07,4.869486399698613e-07,3.305055208764633e-07,2.643496877399165e-05
4.2771912467070654e-07,4.842761846077232e-07,3.3437511067053966e-07,2.658706655015881e-05
4.3097092814741823e-07,4.815732858582416e-07,3.38298019735638e-07,2.6741203719621373e-05
4.341154072107802e-07,4.788518445997096e-07,3.42260354494185e-07,2.6897349758135974e-05
4.3713944007908497e-07,4.761289438995349e-07,3.4624651106010733e-07,2.705548291713211e-05
4.400320836951497e-07,4.734308577730767e-07,3.502384556168183e-07,2.7215603860980672e-05
4.4278300929763833e-07,4.7079098866553505e-07,3.542173359884999e-07,2.737774874939696e-05
4.453810054938303e-07,4.68244160827392e-07,3.581652405560461e-07,2.754197202638217e-05
4.478129020335845e-07,4.6582112699038325e-07,3.620646069781118e-07,2.7708294935448713e-05
4.5006288464183924e-07,4.635475992413683e-07,3.6589641897579703e-07,2.7876655182807166e-05
4.521126432259741e-07,4.61450125365701e-07,3.696398720850992e-07,2.8046887461410968e-05
4.539425725252114e-07,4.59564336830036e-07,3.732739914300258e-07,2.8218694677777284e-05
4.5553308412873966e-07,4.579382909735632e-07,3.767792902653971e-07,2.839158434628772e-05
4.5686565773790044e-07,4.5663031970159255e-07,3.801379421720897e-07,2.856484000028125e-05
4.5792437212640245e-07,4.5570655411631286e-07,3.8333325932790725e-07,2.873754626788913e-05
4.5869678860438796e-07,4.552383423014318e-07,3.863492593725297e-07,2.8908599871402397e-05
4.591730000568408e-07,4.5529673088906394e-07,3.891699476461589e-07,2.9076705443633533e-05
4.5934467155583365e-07,4.559470484671937e-07,3.9177881386493156e-07,2.9240402743775566e-05
4.592048345129218e-07,4.57245465242706e-07,3.941590308453743e-07,2.9398172061725316e-05
4.587474454286083e-07,4.592345279928456e-07,3.962936275619529e-07,2.954861716386379e-05
4.5796762003904135e-07,4.619391837701837e-07,3.9816544202821187e-07,2.9690600082461046e-05
4.5686326842700606e-07,4.653671789516871e-07,3.997575757169166e-07,2.9823236886287013e-05
4.5543752003761976e-07,4.6951246441230003e-07,4.0105429463586135e-07,2.994581815345672e-05
4.5370041403661613e-07,4.743579769774252e-07,4.0204160802729995e-07,3.005773954300783e-05
4.516672248221473e-07,4.798770283578071e-07,4.027073217085254e-07,3.015845927401703e-05
4.493545701748722e-07,4.86034697309727e-07,4.030410357962996e-07,3.0247441271183246e-05
4.4677838421045465e-07,4.927906805285719e-07,4.0303436887067326e-07,3.0324064947309747e-05
4.4395397267947433e-07,5.001037779231467e-07,4.0268096435117436e-07,3.0387575013541748e-05
4.408967018764923e-07,5.079352968345029e-07,4.019764745353501e-07,3.0437141952743146e-05
4.376231496830557e-07,5.162505125729439e-07,4.0091920070595704e-07,3.047201490487085e-05
4.3415156586443727e-07,5.250201114560142e-07,3.995103377269465e-07,3.049168054185299e-05
4.3050177866498994e-07,5.342188234793877e-07,3.977529553227365e-07,3.0495918100743164e-05
4.26696632973316e-07,5.438193953716372e-07,3.956508478081451e-07,3.048471605237581e-05
4.2276321766517527e-07,5.537872302445172e-07,3.932084819386377e-07,3.0458127130400745e-05
4.187308906319775e-07,5.64079037834276e-07,3.904328123855061e-07,3.0416197600071063e-05
4.1462900036637026e-07,5.746437874210979e-07,3.873357390945248e-07,3.0359097877932e-05
4.1048687066870005e-07,5.854242734988656e-07,3.839339327703847e-07,3.028738540782045e-05
4.063332748391546e-07,5.963591589172164e-07,3.802459388950369e-07,3.020212759322944e-05
4.021947063959385e-07,6.073861903072355e-07,3.762899657924025e-07,3.0104771303355266e-05
3.980941176421873e-07,6.184458229543246e-07,3.720840558897747e-07,2.9996900662467352e-05
3.9404997219614204e-07,6.294829448449255e-07,3.676471830951337e-07,2.9880009120422088e-05
3.900759430356918e-07,6.404461343572605e-07,3.6299948603721423e-07,2.9755369477266266e-05
3.861814717118804e-07,6.512867143569995e-07,3.5816218217100224e-07,2.9624124837997083e-05
3.823719885782528e-07,6.619596498126374e-07,3.531578433020735e-07,2.9487535775904986e-05
3.7864915841509975e-07,6.724241973881845e-07,3.480100032326517e-07,2.9347111013455602e-05
3.750130601892078e-07,6.826410228654739e-07,3.427426677073093e-07,2.920453178230516e-05
3.714653323993532e-07,6.925695291748962e-07,3.3738095565343143e-07,2.9061488688284136e-05
3.68009471528352e-07,7.021730109845908e-07,3.3195135918325765e-07,2.891950457089057e-05
3.646487435952194e-07,7.114288740230644e-07,3.264807282688454e-07,2.877978382033552e-05
3.613859181568226e-07,7.203317977761785e-07,3.20995404573881e-07,2.8643143395187505e-05
3.582243092389594e-07,7.288868303859465e-07,3.15520764182652e-07,2.8510031547956023e-05
3.5516777983665707e-07,7.371007557272537e-07,3.1008102809927767e-07,2.8380570320472637e-05
3.5222137064513397e-07,7.449768233993445e-07,3.046998500089509e-07,2.825457525492961e-05
3.4939252408297813e-07,7.52513097278939e-07,2.994006371191508e-07,2.813159709575424e-05
3.466908329905656e-07,7.597042696616076e-07,2.942056221959521e-07,2.801103548924432e-05
3.441278667395671e-07,7.665441892190264e-07,2.891347331911191e-07,2.7892289140157844e-05
3.417172967021111e-07,7.73027029170742e-07,2.8420549292152106e-07,2.7774872740429078e-05
3.3947248243665534e-07,7.791476951493997e-07,2.7943346423382485e-07,2.765847737572743e-05
3.374030554400372e-07,7.849005693444071e-07,2.748319737736485e-07,2.754299792270913e-05
3.355140932780481e-07,7.902784204309345e-07,2.7041198839982264e-07,2.7428531653313614e-05
3.3380704571075405e-07,7.952759992320012e-07,2.661835835285448e-07,2.731532119491477e-05
3.3227996931204297e-07,7.998945788721105e-07,2.621573497395512e-07,2.7203661846302607e-05
3.3092709330866643e-07,8.041403908448288e-07,2.583439444093206e-07,2.709382789113076e-05
3.297390080844017e-07,8.08020233140318e-07,2.5475294329173753e-07,2.6986008916562288e-05
3.287038264415852e-07,8.115424550749268e-07,2.5139228427557e-07,2.6880236294079088e-05
3.2780847663658983e-07,8.14724396431074e-07,2.4826840298569326e-07,2.677636006191121e-05
3.2703919591861283e-07,8.175985201975295e-07,2.453868813465274e-07,2.6674113049231752e-05
3.26381443499162e-07,8.20208357689144e-07,2.427528922626921e-07,2.6573216747470152e-05
3.258200509891192e-07,8.225967442302488e-07,2.403708814945233e-07,2.647350520703274e-05
3.2533978970284555e-07,8.247975393397735e-07,2.382434952137812e-07,2.6375048160691026e-05
3.249269663106814e-07,8.268345802069282e-07,2.363703789031838e-07,2.62781959186932e-05
3.245717598714036e-07,8.287229485691123e-07,2.347479407377325e-07,2.618351593639004e-05
3.242681886424901e-07,8.30469181952552e-07,2.333696517525424e-07,2.6091683112786296e-05
3.240111725530148e-07,8.320713785128512e-07,2.3222590677813058e-07,2.6003377740470286e-05
3.237944706698928e-07,8.335202144330751e-07,2.3130411508403243e-07,2.591921223090241e-05
3.236113046684386e-07,8.348000681428652e-07,2.3058966657647425e-07,2.5839671753273254e-05
3.234560892143289e-07,8.358899038354579e-07,2.3006748137215294e-07,2.5765031448001096e-05
3.233254677967393e-07,8.367644395973645e-07,2.2972316254091329e-07,2.5695298302818838e-05
3.2321820468466864e-07,8.373958845935104e-07,2.2954279868407078e-07,2.563026454837731e-05
3.231347909884305e-07,8.377557004750895e-07,2.29512605963352e-07,2.556965247029873e-05
3.230773313239746e-07,8.378154728172058e-07,2.296199242573341e-07,2.551327262063819e-05
3.230488276948069e-07,8.37547316594332e-07,2.2985445959069548e-07,2.546115025617255e-05
3.230514941184043e-07,8.36924586737502e-07,2.302083915251564e-07,2.5413590882784845e-05
3.2308508934381257e-07,8.35922352575734e-07,2.30675483116964e-07,2.5371145747076275e-05
3.231461617548201e-07,8.345173095269217e-07,2.3124959960408255e-07,2.533446097275165e-05
3.232294567677384e-07,8.326872927807999e-07,2.3192342549924112e-07,2.53040696408462e-05
3.233322511822872e-07,8.304105462740552e-07,2.3268788433596482e-07,2.5280228969198065e-05
3.234588593689448e-07,8.276655874281517e-07,2.3353200601007538e-07,2.526286597193555e-05
3.236209112843674e-07,8.244319502789681e-07,2.3444357921944928e-07,2.5251616384638652e-05
3.2383356152247227e-07,8.206919095832194e-07,2.354106292613563e-07,2.5245877037146896e-05
3.241114928572549e-07,8.164338249134292e-07,2.3642299701899385e-07,2.524484109346717e-05
3.2446625875136214e-07,8.116549612302888e-07,2.37472893100987e-07,2.52476335871844e-05
3.249050154757228e-07,8.063602577847594e-07,2.385542793978095e-07,2.525361650932301e-05
3.254314832977241e-07,8.005582247885611e-07,2.396638957073134e-07,2.526265171980331e-05
3.260483040623693e-07,7.942584924338744e-07,2.4080359152418125e-07,2.527508812176124e-05
3.2675835424164506e-07,7.874723644226744e-07,2.419788577342714e-07,2.529154926235303e-05
3.2756482388004984e-07,7.802139642213155e-07,2.4319421292430763e-07,2.531270843121412e-05
3.2847177697375534e-07,7.725003435022895e-07,2.444510313141693e-07,2.5339133498926024e-05
3.2948508023004215e-07,7.643511735547127e-07,2.4574827028285205e-07,2.5371309757280333e-05
3.306126469370061e-07,7.557886216592849e-07,2.470827823550926e-07,2.540986275360809e-05
3.3186395211369585e-07,7.468369992081118e-07,2.4844861117742574e-07,2.5455725439419205e-05
3.3324927376563176e-07,7.375221433603569e-07,2.4983688446900843e-07,2.5510070656307344e-05
3.34779625656425e-07,7.27870981649664e-07,2.512368573709516e-07,2.557415210334501e-05
3.364671376702944e-07,7.179114616524066e-07,2.5263806467758425e-07,2.564920976245857e-05
3.383249449041936e-07,7.076734123291291e-07,2.540329429165521e-07,2.5736428779268373e-05
3.4036770439525427e-07,6.971898001598575e-07,2.5541736502586533e-07,2.5836903510927155e-05
3.426126339867107e-07,6.864961384774234e-07,2.567885124236056e-07,2.595159580995572e-05
3.450785443140353e-07,6.756282351270186e-07,2.5814317743257194e-07,2.608129435144266e-05
3.4778284400175124e-07,6.646214227489504e-07,2.5947752124382e-07,2.6226595172649584e-05
3.507390763602285e-07,6.535124156162967e-07,2.6078685885780576e-07,2.6387908754091533e-05
3.5395550605194454e-07,6.423417466478283e-07,2.6206599777064424e-07,2.656545635226037e-05
3.574336725645921e-07,6.311546071386444e-07,2.6331067541816604e-07,2.675924086178663e-05
3.611676048298186e-07,6.199989000163203e-07,2.6451796506227213e-07,2.6969027020906704e-05
3.651447482875983e-07,6.08921148598432e-07,2.656846829688702e-07,2.719433551297359e-05
3.693480853806903e-07,5.979634667010472e-07,2.6680599242644304e-07,2.743440284163369e-05
3.7375799068511576e-07,5.871649590974128e-07,2.678754475561989e-07,2.7688102041479253e-05
3.78352804183251e-07,5.765681798235121e-07,2.688855895789873e-07,2.7953924898029883e-05
3.831087899842911e-07,5.662253021339631e-07,2.6982846027735305e-07,2.823010096502291e-05
3.880002190714218e-07,5.561959763969434e-07,2.706962254620304e-07,2.851478504881579e-05
3.9299923958849147e-07,5.465382083068082e-07,2.714826181787644e-07,2.8806212365875538e-05
3.980763517261856e-07,5.373016620727769e-07,2.721845723204515e-07,2.9102786576710585e-05
4.032021611811105e-07,5.285275522008835e-07,2.728020905411722e-07,2.9403106142606897e-05
4.0834789494209547e-07,5.202516722244878e-07,2.733371553689336e-07,2.970595604923637e-05
4.134842701454676e-07,5.125058245568882e-07,2.737934442136198e-07,3.0010281471222444e-05
4.1858218906385705e-07,5.053168186706879e-07,2.741755428704407e-07,3.031511147179577e-05
4.2361423665688187e-07,4.987055797331642e-07,2.744875850089957e-07,3.0619402846888077e-05
4.2855407561116865e-07,4.926871128391834e-07,2.747340333290354e-07,3.092186785749809e-05
4.3337570053394347e-07,4.872699708833747e-07,2.7492205030554607e-07,3.1220906542129426e-05
4.380536670344183e-07,4.824554634206257e-07,2.750617054440473e-07,3.151468666783058e-05
4.4256372218241417e-07,4.782379371619636e-07,2.7516366752333645e-07,3.180130414804505e-05
4.468846789867972e-07,4.7460707726151e-07,2.752373201700646e-07,3.2078935730475154e-05
4.5100022826234684e-07,4.7155201539713485e-07,2.7529019659578534e-07,3.2345959762477205e-05
4.5489922374829333e-07,4.69064407640074e-07,2.753280608274487e-07,3.260105594214131e-05
4.585750790446714e-07,4.67138053620638e-07,2.7535560569043005e-07,3.2843237278703274e-05
4.620240713871894e-07,4.6576583018756934e-07,2.7537686053762305e-07,3.307175877386072e-05
4.6524299724198103e-07,4.6493640573685033e-07,2.753944801712323e-07,3.328596538976272e-05
4.6822748015715465e-07,4.646325705780819e-07,2.7540887210068367e-07,3.348520146328727e-05
4.709710017048888e-07,4.648310923456519e-07,2.754178603789085e-07,3.3668831380644873e-05
4.7346445019876004e-07,4.655036027982293e-07,2.754165716586077e-07,3.3836326562081534e-05
4.756964556016547e-07,4.666181269882189e-07,2.753981903967893e-07,3.398729614079791e-05
4.776552189545503e-07,4.6814096325237903e-07,2.753562889448719e-07,3.412138619281025e-05
4.793311335741216e-07,4.7003935156663616e-07,2.7528699080531807e-07,3.4238166875425784e-05
4.80717614098748e-07,4.7228390052429217e-07,2.751900425320671e-07,3.4337168786201114e-05
4.818101767618903e-07,4.7484803144720497e-07,2.750695729223943e-07,3.44180316788218e-05
4.826058396773366e-07,4.777041501918528e-07,2.7493316139351866e-07,3.448062223130425e-05
4.831025235027538e-07,4.808207478234286e-07,2.747890836842641e-07,3.452507612578302e-05
4.832984391222774e-07,4.841647718022969e-07,2.746444228939838e-07,3.455176795838055e-05
4.831925708213701e-07,4.87706924410259e-07,2.745052994657524e-07,3.4561207298079964e-05
4.827852524054263e-07,4.914229165285098e-07,2.743785109579898e-07,3.455396272042759e-05
4.820782177094053e-07,4.952898246447764e-07,2.74272261294117e-07,3.4530682061034614e-05
4.8107515695432e-07,4.992833613259991e-07,2.741946097679719e-07,3.4492091408796576e-05
4.797828547706044e-07,5.033779429402889e-07,2.741522169723009e-07,3.443891057551776e-05
4.782126685283896e-07,5.0754641918682e-07,2.741514255442252e-07,3.43717550350714e-05
4.7638137428720324e-07,5.117587138614919e-07,2.741995520733105e-07,3.429108908834049e-05
4.743094301663208e-07,5.159813949343726e-07,2.743041975878308e-07,3.419733436908482e-05
4.720175332204317e-07,5.201797998845758e-07,2.744716458545094e-07,3.409115460088928e-05
4.695242711692523e-07,5.243228480439823e-07,2.7470635324632614e-07,3.3973699388811386e-05
4.6684535301926153e-07,5.283867053330829e-07,2.750116615675826e-07,3.384663011002158e-05
4.6399383836519594e-07,5.323528555794097e-07,2.7539104883499277e-07,3.3711991020404326e-05
4.6098154301094655e-07,5.362033121658521e-07,2.7584900618987193e-07,3.357203711959767e-05
4.5782010312179975e-07,5.39918791967594e-07,2.763904719386865e-07,3.342907042392583e-05
4.5451995229978064e-07,5.434800769459503e-07,2.770195977792319e-07,3.3285327000194965e-05
4.5108953270803595e-07,5.468693317674911e-07,2.7773896364719193e-07,3.314293593856831e-05
4.475371865605049e-07,5.50070112893316e-07,2.785495018191307e-07,3.3003931851010325e-05
4.43873889269742e-07,5.530661607047971e-07,2.794517199217239e-07,3.2870286172615616e-05
4.401155031035821e-07,5.558392744246672e-07,2.804476796699181e-07,3.274390678279822e-05
4.362849837328786e-07,5.583683722986536e-07,2.815424361010101e-07,3.262655333166253e-05
4.3241207417773705e-07,5.606317476677715e-07,2.827445228939521e-07,3.251967648974417e-05
4.285291239328427e-07,5.626111017839054e-07,2.840650465231681e-07,3.242425813978143e-05
4.246667221729397e-07,5.642938138236151e-07,2.855152433498552e-07,3.234073469602259e-05
4.2085194482406345e-07,5.656724516093425e-07,2.8710348855156014e-07,3.2269039637119994e-05
4.171083931041986e-07,5.667455405423489e-07,2.888330242811378e-07,3.2208738533462644e-05
4.134573261251242e-07,5.675222633165266e-07,2.907013782651495e-07,3.2159191670229196e-05
4.0991937396886647e-07,5.680253819711696e-07,2.927018740407112e-07,3.2119685821740505e-05
4.0651417217683475e-07,5.682860879789851e-07,2.9482628279317485e-07,3.2089513114946905e-05
4.0325782162134203e-07,5.683347802443356e-07,2.970662870224384e-07,3.206801021173065e-05
4.0016233359648436e-07,5.681961067375171e-07,2.9941314191778266e-07,3.205457873336842e-05
3.9723744659159473e-07,5.678908277586625e-07,3.018575539856943e-07,3.204870239115397e-05
3.9449180018401325e-07,5.674414156755589e-07,3.043899030642813e-07,3.204996892914415e-05
3.9193323366076714e-07,5.668753995534395e-07,3.069991509507636e-07,3.20580838189866e-05
3.8956858113955937e-07,5.662234506486789e-07,3.0967116872987664e-07,3.207282097122453e-05
3.874021901141722e-07,5.655161400973503e-07,3.123883847395024e-07,3.209386927006166e-05
3.854337930245768e-07,5.647823899564166e-07,3.151308863869641e-07,3.2120664828614325e-05
3.83657763377756e-07,5.640482492740789e-07,3.17878452937192e-07,3.2152332823087544e-05
3.8206468608621655e-07,5.633356151499335e-07,3.2061293690831734e-07,3.2187717997324005e-05
3.806434477527438e-07,5.626620937057035e-07,3.233191371877564e-07,3.222542849871451e-05
3.793821455915599e-07,5.620424688171257e-07,3.259832944084807e-07,3.226388354167061e-05
3.7826902372909326e-07,5.614907571415322e-07,3.285913877284946e-07,3.230136880113684e-05
3.77293703450556e-07,5.610208115566657e-07,3.3112920470327356e-07,3.2336083153954774e-05
3.7644649139136203e-07,5.606443930598928e-07,3.3358311079901645e-07,3.236620196043682e-05
3.757163589029287e-07,5.603679706456832e-07,3.359401206412089e-07,3.239000240861555e-05
3.7509066241323135e-07,5.601909083201149e-07,3.3818784954705694e-07,3.240602619979479e-05
3.7455686380069314e-07,5.601066761181201e-07,3.403149006113126e-07,3.241322594071091e-05
3.7410419160137243e-07,5.601064254867457e-07,3.423117120386881e-07,3.2411079523308096e-05
3.737237215162096e-07,5.601836014214048e-07,3.4417115621239145e-07,3.239965578831317e-05
3.734076284653898e-07,5.603382640712672e-07,3.4588733323108313e-07,3.2379573560706555e-05
3.73149309699529e-07,5.605787868098445e-07,3.474535181492974e-07,3.235182574882659e-05
3.7294382941333156e-07,5.609197982822426e-07,3.488617707515201e-07,3.2317528044691464e-05
3.727885918653429e-07,5.613779184195729e-07,3.501039907269868e-07,3.2277671355795354e-05
3.72684414502596e-07,5.619678778572665e-07,3.5117269437147283e-07,3.223295136065121e-05
3.726346522292485e-07,5.627011212184953e-07,3.5206117044087546e-07,3.218373475943981e-05
3.726425661428061e-07,5.635870884039828e-07,3.527634784109906e-07,3.2130136634476674e-05
3.7270968984963433e-07,5.64636203344127e-07,3.532744539751697e-07,3.207210320361334e-05
3.7283577205532423e-07,5.658620790916153e-07,3.535900020635593e-07,3.200945786967022e-05
3.7302006996559477e-07,5.672798359244622e-07,3.5370726843809476e-07,3.1942027469204056e-05
3.732630391510015e-07,5.689022948174285e-07,3.536243542779983e-07,3.1869854452865805e-05
3.735666839834967e-07,5.707371328493227e-07,3.5334072621095255e-07,3.1793256718883475e-05
3.7393358310173103e-07,5.7278461222013e-07,3.528576539259865e-07,3.17126643820274e-05
3.743653163159904e-07,5.7503677906947e-07,3.521772141906774e-07,3.162841509177806e-05
3.748614381597114e-07,5.774792042341338e-07,3.513013390393473e-07,3.154068349633665e-05
3.754210148314675e-07,5.800941167944973e-07,3.50231862765662e-07,3.14496733144989e-05
3.7604567445493045e-07,5.828641959166175e-07,3.489707052362666e-07,3.135597229549983e-05
3.7674102779612456e-07,5.85774741940473e-07,3.4752023034273025e-07,3.126074477068937e-05
3.775161776054313e-07,5.888120642525185e-07,3.4588403221273406e-07,3.116566469384636e-05
3.7838163496210844e-07,5.91960286655316e-07,3.440674738061781e-07,3.107275721805063e-05
3.793456708224555e-07,5.951989688899015e-07,3.4207762680843966e-07,3.0984250106412164e-05
3.8041138651169255e-07,5.985018793359387e-07,3.399232989213109e-07,3.090244010289972e-05
3.8157611154366654e-07,6.018373314409008e-07,3.376154618951157e-07,3.0829574284055436e-05
3.828326181395297e-07,6.051698242753627e-07,3.3516738484440433e-07,3.076773781376469e-05
3.8417129246518e-07,6.084622378254573e-07,3.3259442438876747e-07,3.0718757638390616e-05
3.8558143021786475e-07,6.116779556195475e-07,3.299144282719709e-07,3.0684163281354827e-05
3.8705074028443043e-07,6.147816604125192e-07,3.271481150749574e-07,3.066520209559359e-05
3.8856502025744717e-07,6.17739267197726e-07,3.243173463091279e-07,3.066284201762484e-05
3.9010918145728607e-07,6.205192134152069e-07,3.2144189883174845e-07,3.067772372686705e-05
3.9166852621534866e-07,6.230937120421392e-07,3.18537755475395e-07,3.0710094779843264e-05
3.932292206280911e-07,6.254376668765394e-07,3.1561759520654467e-07,3.0759763922090626e-05
3.947778863747791e-07,6.275281779201633e-07,3.126918490152441e-07,3.082608415767449e-05
3.9630143753148924e-07,6.293476583819746e-07,3.0976949290978497e-07,3.0907981823380044e-05
3.977880823176592e-07,6.30887951702199e-07,3.068584943497796e-07,3.1004041084172925e-05
3.992295627856415e-07,6.32151171925535e-07,3.03965666769476e-07,3.111262029347036e-05
4.006243983194997e-07,6.331481329847376e-07,3.010962762966608e-07,3.123198976089377e-05
4.019791003876756e-07,6.338965032211407e-07,2.9825466363713044e-07,3.136047998353692e-05
4.03304444125693e-07,6.344164463818757e-07,2.954461758905797e-07,3.149659511345413e-05
4.0460974845229273e-07,6.347253181861793e-07,2.926784810315348e-07,3.163905934658413e-05
4.058997373048017e-07,6.34836360032488e-07,2.899607820511299e-07,3.1786801163580624e-05
4.071753805695845e-07,6.347596341191843e-07,2.8730260750571125e-07,3.193889141743547e-05
4.084373124866601e-07,6.345018540631446e-07,2.847139445551045e-07,3.209444664405765e-05
4.096881553106237e-07,6.34066148577444e-07,2.822056332981505e-07,3.225250157584706e-05
4.109319458295541e-07,6.334525643465292e-07,2.797888614168933e-07,3.241187712027552e-05
4.1217430703728853e-07,6.326586924013603e-07,2.7747400923366716e-07,3.257110248500112e-05
4.1342572815510976e-07,6.316803343742515e-07,2.752695575053875e-07,3.27284167360571e-05
4.147033170254462e-07,6.305124257812594e-07,2.731817085087376e-07,3.2881822468251124e-05
4.1602738482599957e-07,6.291499721071047e-07,2.712147334669639e-07,3.302917074454089e-05
4.1741679237095607e-07,6.275880182908568e-07,2.69371562264693e-07,3.316827912627813e-05
4.1888787446596995e-07,6.25820776134416e-07,2.676539144497817e-07,3.329708373979604e-05
4.204556798545396e-07,6.238412006056922e-07,2.660620637459392e-07,3.3413798326773984e-05
4.2213407953573744e-07,6.21641142835824e-07,2.6459491707120647e-07,3.351700212286097e-05
4.239342039234724e-07,6.19211791982406e-07,2.632498497207448e-07,3.360561219398414e-05
4.258621736257438e-07,6.165441695055902e-07,2.6202211992854057e-07,3.367881024371588e-05
4.279177406717897e-07,6.136297263688187e-07,2.609050644633515e-07,3.3735990017574954e-05
4.3009491433185813e-07,6.104623638466835e-07,2.598910329192419e-07,3.3776703670976186e-05
4.323839905521309e-07,6.070407872549469e-07,2.5897219240114713e-07,3.380058128712131e-05
4.34775497171967e-07,6.033683983092146e-07,2.581415150590517e-07,3.380724348630242e-05
4.37265028346164e-07,5.994523061290216e-07,2.5739432811715057e-07,3.3796279068909914e-05
4.3985386051933897e-07,5.953042599637953e-07,2.5672937176133406e-07,3.376737035919437e-05
4.425452691066695e-07,5.909414692495472e-07,2.561480625521513e-07,3.372051168404677e-05
4.453445048911355e-07,5.863839167663284e-07,2.556528882574748e-07,3.365613895566583e-05
4.4826533065741136e-07,5.816498029611914e-07,2.5524694691502036e-07,3.3575094407829986e-05
4.5133411415096366e-07,5.767534829619622e-07,2.549341739961777e-07,3.347850031873988e-05
4.545839141767458e-07,5.717068481271971e-07,2.547186991765876e-07,3.336760609469423e-05
4.5804490353311406e-07,5.665220700047953e-07,2.546037829927465e-07,3.324363373166426e-05
4.61740440486171e-07,5.612142307461835e-07,2.5459109837136213e-07,3.310767019509112e-05
4.6568812902400245e-07,5.558036470419898e-07,2.546801279033988e-07,3.2960656719676506e-05
4.699033106054862e-07,5.503173247103004e-07,2.548676848118545e-07,3.2803436636767965e-05
4.744045065825592e-07,5.447882352639859e-07,2.551476363022047e-07,3.2636768558729886e-05
4.792148549667475e-07,5.392519555123935e-07,2.5551126795066905e-07,3.246129173170776e-05
4.843561798091516e-07,5.33742588741446e-07,2.5594880700747054e-07,3.2277505692333144e-05
4.898425445961107e-07,5.282908429318956e-07,2.564506515464045e-07,3.2085799412835775e-05
4.956778078290235e-07,5.22925028363829e-07,2.570072012138913e-07,3.188650742636795e-05
5.018549418433372e-07,5.176726327917615e-07,2.576089012553488e-07,3.1679950877584245e-05
5.083561911532612e-07,5.125595054230136e-07,2.582471889725565e-07,3.1466419505461686e-05
5.151544693784571e-07,5.076073429351077e-07,2.589153135671514e-07,3.124609048788175e-05
5.222149812286879e-07,5.028325584778148e-07,2.596084947285839e-07,3.1018959090534476e-05
5.294959944436485e-07,4.982470320416311e-07,2.6032354585996665e-07,3.0784839471079356e-05
5.369491070591315e-07,4.938595511717322e-07,2.6105845221292373e-07,3.054341310457207e-05
5.445201015264525e-07,4.896776594637418e-07,2.618117899280139e-07,3.029428740772412e-05
5.52150538842364e-07,4.857085928643979e-07,2.625819205228799e-07,3.0037057210712456e-05
5.597801107038854e-07,4.8195760362754e-07,2.6336620801246877e-07,2.9771365416787852e-05
5.673498700474249e-07,4.784253215628565e-07,2.6416055447496727e-07,2.9496932234258057e-05
5.74804384190148e-07,4.751068976228509e-07,2.649608166134164e-07,2.921353068182224e-05
5.820910601902968e-07,4.7199284681295595e-07,2.657662437613573e-07,2.892093617550681e-05
5.891586854623328e-07,4.690700536361499e-07,2.6658143554799444e-07,2.861890480970389e-05
5.959571999283085e-07,4.6632266856148596e-07,2.6741397483438447e-07,2.830722130012921e-05
6.024376295937317e-07,4.637334650668235e-07,2.682700681409358e-07,2.798581970617412e-05
6.085515935199981e-07,4.61285932297392e-07,2.691526714888051e-07,2.765493838560788e-05
6.142512913557497e-07,4.589667695700545e-07,2.7006207002704657e-07,2.731526031931976e-05
6.19490571169643e-07,4.567668732256488e-07,2.709965293640541e-07,2.6968014150703595e-05
6.242269378396971e-07,4.5467979966272594e-07,2.719534406278504e-07,2.6615030610728228e-05
6.284229730306393e-07,4.5269953778845203e-07,2.729310795083019e-07,2.6258746799858043e-05
6.320466861958397e-07,4.5081913773820293e-07,2.7392943027086093e-07,2.590214394915628e-05
6.350726591328589e-07,4.490318771726883e-07,2.7494978402667536e-07,2.554862018105991e-05
6.374835771841979e-07,4.4733786401920395e-07,2.759934400931289e-07,2.520181221211153e-05
6.392696344891979e-07,4.4575264600277043e-07,2.7706041174185557e-07,2.486535066935657e-05
6.404258073511819e-07,4.443071953498036e-07,2.781492639764424e-07,2.454254912187427e-05
6.409497055566355e-07,4.430374898861084e-07,2.7925734011409223e-07,2.4236139208974897e-05
6.408418145411157e-07,4.4197429780819596e-07,2.803813780103791e-07,2.3948179920652936e-05
6.401064864115903e-07,4.411395884256774e-07,2.815199163773067e-07,2.368010228547761e-05
6.387520630537578e-07,4.405469031950617e-07,2.8267558950526984e-07,2.3432788282223583e-05
6.367914055282351e-07,4.402026455235443e-07,2.838539592504744e-07,2.3206695983624578e-05
6.3424300459555e-07,4.4010744361471635e-07,2.850599865645164e-07,2.300206750076329e-05
6.31130356719203e-07,4.4025649970921116e-07,2.8629586602489875e-07,2.2819159508474906e-05
6.274795458269475e-07,4.4063912162677145e-07,2.875614058030686e-07,2.2658366223175672e-05
6.233184823129496e-07,4.412393854401102e-07,2.888551604748588e-07,2.252014340179339e-05
6.186792232420522e-07,4.420374917102449e-07,2.901747558633311e-07,2.240478662946195e-05
6.13599638803675e-07,4.4301010283382643e-07,2.915168857678473e-07,2.2312235707352785e-05
6.081213507105818e-07,4.4413129407127764e-07,2.9287746123469617e-07,2.224202542833584e-05
6.022866538424617e-07,4.453763587440182e-07,2.9425170952855373e-07,2.2193356145979267e-05
5.961369485041862e-07,4.467265890087754e-07,2.9563441464331324e-07,2.216519973280021e-05
5.89711165513131e-07,4.481706202351986e-07,2.9702002248960577e-07,2.21563892832877e-05
5.83045026820098e-07,4.4970087874047754e-07,2.984022639218872e-07,2.216568054447151e-05
5.761732174964959e-07,4.5130942127524203e-07,2.997741384410801e-07,2.2191782400176607e-05
5.691311307952619e-07,4.5298686198954103e-07,3.0112869404591927e-07,2.2233327829371758e-05
5.619532312902505e-07,4.547224188085921e-07,3.0245966978474176e-07,2.2288786830753243e-05
5.546718146482122e-07,4.565039721268701e-07,3.037619161920218e-07,2.235640079835912e-05
5.473191415131993e-07,4.5831925277522057e-07,3.0503203187671746e-07,2.2434206268594245e-05
5.399296146773643e-07,4.6015676064998885e-07,3.062685473639688e-07,2.252016362204283e-05
5.32539495833059e-07,4.620055011228522e-07,3.074711710081411e-07,2.261238008186944e-05
5.251858203862515e-07,4.6385433529697114e-07,3.086393536438713e-07,2.2709313789160785e-05
5.179046964613857e-07,4.65690930788297e-07,3.0977143838043625e-07,2.280978474328178e-05
5.107282292114904e-07,4.6750117139797095e-07,3.108658746781881e-07,2.2912858431803546e-05
5.036820309060685e-07,4.6927042484834005e-07,3.119231485174661e-07,2.301787877147368e-05
4.967848651104491e-07,4.7098496824401904e-07,3.129455307006736e-07,2.312463356623316e-05
4.90049476993912e-07,4.7263148885724924e-07,3.1393488089223425e-07,2.3233361959618083e-05
4.834838610057154e-07,4.7419636362014563e-07,3.1489113226680253e-07,2.334457139727872e-05
4.770932638529341e-07,4.756665163257498e-07,3.1581191776451287e-07,2.345884648135245e-05
4.7088233486615476e-07,4.770314679557889e-07,3.1669233385331783e-07,2.357670873050961e-05
4.6485589257656783e-07,4.782850769859969e-07,3.1752576491890226e-07,2.3698502292963088e-05
4.590180793385321e-07,4.794250122060113e-07,3.183064437339879e-07,2.38243066448748e-05
4.5337142091228276e-07,4.804502346244689e-07,3.190310193842751e-07,2.395388718090929e-05
4.4791659453522004e-07,4.813587810858565e-07,3.196976580817881e-07,2.408668465639465e-05
4.426527680460553e-07,4.821470929303313e-07,3.203058126928193e-07,2.4221841437360185e-05
4.3757911369002543e-07,4.828109974236183e-07,3.208576032382625e-07,2.4358260778986292e-05
4.3269676995256254e-07,4.833483652669218e-07,3.213579264755983e-07,2.449467507914534e-05
4.28009195398749e-07,4.837611095793754e-07,3.218128268414466e-07,2.462968863622209e-05
4.2352091220648476e-07,4.840534505659421e-07,3.222279137369775e-07,2.4761796426927482e-05
4.1923622166551436e-07,4.842289275565618e-07,3.226075239269629e-07,2.488942434331039e-05
4.1515915849691546e-07,4.842906946567835e-07,3.229541676127821e-07,2.501100374356984e-05
4.1129368684284977e-07,4.842438736371018e-07,3.232681411213779e-07,2.512502749226821e-05
4.076419372092479e-07,4.840955339463121e-07,3.235480299135961e-07,2.523005780677663e-05
4.042019206559394e-07,4.8385229842088e-07,3.2379205872426e-07,2.532472129223436e-05
4.009674576050429e-07,4.835192059506422e-07,3.239986528315985e-07,2.540772414601081e-05
3.979301626153304e-07,4.831005170304618e-07,3.241654351875324e-07,2.547788956776149e-05
3.950838188903615e-07,4.826004753252618e-07,3.242885812401647e-07,2.5534221508226793e-05
3.924305227735893e-07,4.820230856768352e-07,3.243640884225523e-07,2.55759823996024e-05
3.899829805896982e-07,4.813713038374631e-07,3.243894318070493e-07,2.5602728114373386e-05
3.877601043325985e-07,4.806467069545068e-07,3.2436369651803734e-07,2.5614270859186763e-05
3.85780991557039e-07,4.798523930779372e-07,3.2428720730492157e-07,2.5610619027518617e-05
3.84062094686037e-07,4.790021034875167e-07,3.2416234094872225e-07,2.559194184872257e-05
3.826166416119434e-07,4.781312641420429e-07,3.239938740516137e-07,2.555853776630329e-05
3.814544678969081e-07,4.77299872214815e-07,3.237872879488712e-07,2.5510768549654332e-05
3.8058231920094965e-07,4.765843032559975e-07,3.235474358326988e-07,2.544899143216908e-05
3.800032665878488e-07,4.760637566848078e-07,3.23278686258878e-07,2.537354752263089e-05
3.7971495000935295e-07,4.7580826818983706e-07,3.229846526140929e-07,2.5284779194493904e-05
3.7970984293450203e-07,4.758730813250197e-07,3.226676441998533e-07,2.5183028575158803e-05
3.799776886277842e-07,4.7629929526233704e-07,3.223291869674263e-07,2.5068632032563463e-05
3.8050686091967243e-07,4.771163632917565e-07,3.2197126744590504e-07,2.494192357787801e-05
3.812846044014842e-07,4.783429565377197e-07,3.215967672664015e-07,2.480325071884989e-05
3.8229753509210354e-07,4.799868821016841e-07,3.2120887989691484e-07,2.4652993713322064e-05
3.835314641220474e-07,4.820468565087963e-07,3.2081181791498516e-07,2.449154587503796e-05
3.8497065659209227e-07,4.845160104794829e-07,3.2041326370334585e-07,2.431927204078924e-05
3.8659761457453605e-07,4.873845845254542e-07,3.200259146467267e-07,2.413650118150482e-05
3.8839293758784e-07,4.906417254962501e-07,3.196664552505074e-07,2.3943536220760642e-05
3.903359845504845e-07,4.942777731258334e-07,3.1935257840186424e-07,2.374065631113423e-05
3.9240665077674666e-07,4.9828725629582e-07,3.191009880210164e-07,2.352815143628649e-05
3.945855774960932e-07,5.026714429424196e-07,3.1892826521854304e-07,2.330637324180921e-05
3.968524764804547e-07,5.07437767299254e-07,3.188524190326037e-07,2.3075715366486427e-05
3.9918540083105823e-07,5.125952989501543e-07,3.188927941251169e-07,2.283655513440378e-05
4.015616469015633e-07,5.181489149350072e-07,3.190682359434964e-07,2.258925272216229e-05
4.039596126088429e-07,5.240945266672661e-07,3.193948361234841e-07,2.23341773923678e-05
4.0636168890004723e-07,5.304164192473839e-07,3.1988459751044606e-07,2.2071703124803385e-05
4.0875595999949106e-07,5.370874876992929e-07,3.205451661201644e-07,2.180223167511417e-05
4.111337195959986e-07,5.440719679585177e-07,3.213806106679335e-07,2.152631669229397e-05
4.13485527467457e-07,5.513290227384457e-07,3.2239234198753855e-07,2.124487691637957e-05
4.1580029544629257e-07,5.588165744567047e-07,3.2357860488931885e-07,2.0959401064518663e-05
4.18066086101812e-07,5.664961741271231e-07,3.249333894592513e-07,2.0671971899137734e-05
4.202700510394027e-07,5.74336467538801e-07,3.264465133559897e-07,2.038504753143428e-05
4.223994300097621e-07,5.823114290567712e-07,3.281043349520933e-07,2.010115763923839e-05
4.244451297923613e-07,5.9039681228401e-07,3.2989052743694026e-07,1.982266694128417e-05
4.26404151201907e-07,5.985703746203693e-07,3.3178815777421233e-07,1.9551698655234966e-05
4.2827755175948725e-07,6.068128868241024e-07,3.337823317458767e-07,1.9290333625417267e-05
4.3006636533073045e-07,6.15104751253885e-07,3.3586042545652736e-07,1.9040984871308226e-05
4.3176971292254e-07,6.234210132686901e-07,3.380102202792449e-07,1.880659336814517e-05
4.333855661754322e-07,6.317310780707332e-07,3.4021855853932607e-07,1.8590498192408137e-05
4.349112503380361e-07,6.400034036263717e-07,3.424711428444364e-07,1.8396168031936955e-05
4.3634277858734685e-07,6.482100142744692e-07,3.4475331786744647e-07,1.822695834401949e-05
4.376744721408243e-07,6.563269835344485e-07,3.470510586155489e-07,1.808591469063147e-05
4.3889914473547247e-07,6.643317825350506e-07,3.4935069379790913e-07,1.797563247681171e-05
4.4000831214978973e-07,6.722023095929188e-07,3.5163796571739e-07,1.7898192066031672e-05
4.409920042244819e-07,6.799189227616975e-07,3.538980722027308e-07,1.7855151110824118e-05
4.4183846031576855e-07,6.874648341799776e-07,3.561163413677567e-07,1.784755959919094e-05
4.425342264427642e-07,6.948234780217139e-07,3.582786978216175e-07,1.7875967250719238e-05
4.4306436755953923e-07,7.019760391618328e-07,3.603725255908733e-07,1.7940399502910653e-05
4.434128123363266e-07,7.08901004833646e-07,3.6238794796363844e-07,1.8040325059636167e-05
4.4356345776235133e-07,7.155754538579905e-07,3.64318093309737e-07,1.817468492080068e-05
4.435019783246252e-07,7.219768430541891e-07,3.6615833822685617e-07,1.834201921895528e-05
4.432165244274332e-07,7.280840616221342e-07,3.6790594788137455e-07,1.8540651741259948e-05
4.426967928352593e-07,7.338768292073289e-07,3.6955955795347843e-07,1.8768860930820362e-05
4.4193401382189596e-07,7.393356204213368e-07,3.711177618039222e-07,1.9024986322662446e-05
4.4092156890838527e-07,7.444445564361048e-07,3.725778809705689e-07,1.9307463808462648e-05
4.396539008515256e-07,7.49192802610296e-07,3.739351028872472e-07,1.9614829681615537e-05
4.381252495127207e-07,7.53571852892854e-07,3.751819807259319e-07,1.994572513930144e-05
4.363302121849933e-07,7.575729101290644e-07,3.763091170332152e-07,2.0298881114388287e-05
4.342649443555479e-07,7.61186018012633e-07,3.773066394979104e-07,2.067306177938205e-05
4.319275611220706e-07,7.644027467888073e-07,3.7816505054034905e-07,2.106699490029429e-05
4.293183482078075e-07,7.672250532767809e-07,3.788750940760757e-07,2.147932383255492e-05
4.2644039493433547e-07,7.696732388707861e-07,3.7942777345247687e-07,2.1908557254836785e-05
4.232995635568701e-07,7.717836071827155e-07,3.7981503082427724e-07,2.235297409478825e-05
4.1990344322504616e-07,7.735981759827366e-07,3.8003004212048005e-07,2.2810516566521725e-05
4.162604701269575e-07,7.751548361436815e-07,3.800668022896313e-07,2.3278751395420432e-05
4.123799360715883e-07,7.764826806855077e-07,3.799205044142483e-07,2.3754926423210745e-05
4.082731031722076e-07,7.776029677501178e-07,3.795888078876669e-07,2.423608747798201e-05
4.0395497442677274e-07,7.785323484802331e-07,3.79071551648412e-07,2.4719190300077984e-05
3.994454598220512e-07,7.792834519021786e-07,3.7836882972883184e-07,2.520116696685063e-05
3.9476959660188753e-07,7.798624800917834e-07,3.7748038214229076e-07,2.567899944444339e-05
3.8995718336607534e-07,7.802677425248936e-07,3.7640751339296315e-07,2.6149833486619143e-05
3.8504141039497797e-07,7.804908227147594e-07,3.751563783283138e-07,2.6611045144818703e-05
3.800558282459513e-07,7.80519249828091e-07,3.7374050704601924e-07,2.7060218319158608e-05
3.750306568207874e-07,7.80339392453308e-07,3.7218002489420217e-07,2.749508755311483e-05
3.699907576957117e-07,7.799380697070694e-07,3.7049789171216906e-07,2.7913474754902446e-05
3.649557440504178e-07,7.793025709538355e-07,3.687175940374717e-07,2.83132660706802e-05
3.599411012218842e-07,7.784218145522718e-07,3.668642737922847e-07,2.869250014674962e-05
3.549597152147193e-07,7.772903407555079e-07,3.6496532491202287e-07,2.9049530961295946e-05
3.5002368777462803e-07,7.759115377736291e-07,3.6304755970538347e-07,2.938315540345533e-05
3.4514773646249125e-07,7.742966100791144e-07,3.611337584111613e-07,2.9692671154894447e-05
3.403534750033292e-07,7.724610808444177e-07,3.5924225824867454e-07,2.9977880974386602e-05
3.3566886951989825e-07,7.704216398594968e-07,3.573889552510805e-07,3.023903145598905e-05
3.311218896595621e-07,7.681941563805923e-07,3.555886104478075e-07,3.0476687349217156e-05
3.2673522905115447e-07,7.657926692335455e-07,3.5385431470913454e-07,3.069156688148377e-05
3.2252539098899606e-07,7.632282719429605e-07,3.5219677523721427e-07,3.088435623652806e-05
3.185036386026645e-07,7.605080368358549e-07,3.50625030015836e-07,3.1055569556976194e-05
3.146771554115146e-07,7.576356923687934e-07,3.491474180827455e-07,3.120553904149266e-05
3.1105035365516054e-07,7.546134745092431e-07,3.477709743891506e-07,3.1334490344132324e-05
3.0762573379539717e-07,7.514427794978112e-07,3.465000372214835e-07,3.144258252155849e-05
3.0440451148675606e-07,7.481242869877099e-07,3.4533577055127027e-07,3.152988578545117e-05
3.013893335303125e-07,7.446602105416397e-07,3.442764540334225e-07,3.159634118675321e-05
2.985895775104962e-07,7.410569299130424e-07,3.43317758038152e-07,3.1641731526195946e-05
2.960248579440135e-07,7.37323356777113e-07,3.424531940454443e-07,3.166568408220421e-05
2.93723016477739e-07,7.334659014354751e-07,3.41675120625407e-07,3.166770534597367e-05
2.9171462355809217e-07,7.294854805899976e-07,3.409764069903927e-07,3.164721845115068e-05
2.9002862482951466e-07,7.25378287247668e-07,3.4035197443863417e-07,3.1603588095643034e-05
2.886921168807344e-07,7.211375529652489e-07,3.397995367603461e-07,3.153614595448895e-05
2.877320610010263e-07,7.167545357494699e-07,3.3931995435445517e-07,3.1444234102993303e-05
2.871743546913543e-07,7.122198071476973e-07,3.389167237978743e-07,3.1327259348212455e-05
2.8704226888262017e-07,7.075258751243984e-07,3.385942774951574e-07,3.1184727883879606e-05
2.873574055104043e-07,7.026695341292338e-07,3.383564616964109e-07,3.10162531753588e-05
2.8813925687063387e-07,6.976513897473112e-07,3.382061606968326e-07,3.0821558159192404e-05
2.8940213241081854e-07,6.924736941350785e-07,3.381456241464149e-07,3.060048042046889e-05
2.9115389516743327e-07,6.871398193838918e-07,3.381763636251266e-07,3.035297763673e-05
2.93396000745878e-07,6.816555375644347e-07,3.3829820390689673e-07,3.0079127670719087e-05
2.9612200940510946e-07,6.760295610048645e-07,3.385085925726231e-07,2.9779123598890705e-05
2.9931721052428587e-07,6.702725352403482e-07,3.388029122243546e-07,2.9453283954323485e-05
3.029620439038872e-07,6.643977288500493e-07,3.391750964728142e-07,2.9102074566307746e-05
3.07036665320649e-07,6.584238763978214e-07,3.396182201792219e-07,2.8726107447170094e-05
3.115219840598636e-07,6.523756524036946e-07,3.40125607364226e-07,2.8326116067563604e-05
3.163968306789876e-07,6.462824132500996e-07,3.4069238023099236e-07,2.7902939980927454e-05
3.216363405042603e-07,6.401779137150953e-07,3.413164368281725e-07,2.74575367863854e-05
3.272137395220798e-07,6.340980855020088e-07,3.419980679795052e-07,2.699101567313724e-05
3.331016903896227e-07,6.280760621570276e-07,3.4273828203324205e-07,2.650467276458828e-05
3.392717895063225e-07,6.221392146616945e-07,3.435363453641305e-07,2.599999482769329e-05
3.456952925133953e-07,6.163123708394389e-07,3.443876067421437e-07,2.547861986764349e-05
3.5234480270791614e-07,6.106263792390225e-07,3.452829689170875e-07,2.4942290015809005e-05
3.5919377837516156e-07,6.051251215502698e-07,3.462105324907703e-07,2.439281065521251e-05
3.662148202382656e-07,5.99863660670094e-07,3.471582934361896e-07,2.38319902408712e-05
3.733789487244887e-07,5.948987943968456e-07,3.481157666745925e-07,2.3261575026244712e-05
3.8065549997415655e-07,5.902816745245154e-07,3.490745213842974e-07,2.2683221901667396e-05
3.8801271411038077e-07,5.860578495816452e-07,3.500285814184826e-07,2.209850393095453e-05
3.954190099243619e-07,5.822685383877685e-07,3.509736070591893e-07,2.150892259541379e-05
4.0284349181175777e-07,5.789472052905665e-07,3.5190590580484e-07,2.091595242135568e-05
4.102553488848511e-07,5.761148920770602e-07,3.5282404982788225e-07,2.0321139261365078e-05
4.1762340185765453e-07,5.737786995688124e-07,3.5373095064985155e-07,1.9726174903908926e-05
4.249161257679522e-07,5.719330268419101e-07,3.5463296242017434e-07,1.9132848084314075e-05
4.3210129550389683e-07,5.705622870545058e-07,3.555383961946569e-07,1.854290422312557e-05
4.3914537025146105e-07,5.696440153831879e-07,3.564582507209459e-07,1.7957944043878604e-05
4.4601372587361535e-07,5.691507244509915e-07,3.5740607523385576e-07,1.737942820511597e-05
4.526724771261882e-07,5.690505255426061e-07,3.5839460031169725e-07,1.680877814659788e-05
4.5909090142312287e-07,5.693087302633035e-07,3.594325748320457e-07,1.624754443928985e-05
4.652417594588536e-07,5.698912757507538e-07,3.605246699625626e-07,1.5697548680576958e-05
4.710994872115486e-07,5.707677670580039e-07,3.616732328217028e-07,1.5160868515185434e-05
4.7663917763068474e-07,5.719125744540087e-07,3.628802995390565e-07,1.4639664290776007e-05
4.818368639336679e-07,5.733056265097458e-07,3.6414859680294253e-07,1.413597859088948e-05
4.866703051775025e-07,5.749345712557553e-07,3.654803690369426e-07,1.3651618440057585e-05
4.91120256165007e-07,5.767967044379159e-07,3.66875252383899e-07,1.3188128659420775e-05
4.951710230401075e-07,5.788971207610907e-07,3.683290548858233e-07,1.2746788352011675e-05
4.988094843612813e-07,5.812422460118379e-07,3.698340615388945e-07,1.2328602666799025e-05
5.020238664094799e-07,5.838330900998775e-07,3.713814576311561e-07,1.19343760703966e-05
5.048036530178507e-07,5.866632505971656e-07,3.7296384858039005e-07,1.1564924095706047e-05
5.071404611687721e-07,5.89721319710212e-07,3.745742728954898e-07,1.1221268987415876e-05
5.090295366328283e-07,5.929928913902851e-07,3.7620336545116265e-07,1.0904614294925841e-05
5.104731445675351e-07,5.964591775150671e-07,3.7783871802580497e-07,1.0616144132935153e-05
5.114846084095258e-07,6.000943530923782e-07,3.794660182885737e-07,1.035682786399305e-05
5.120879569633714e-07,6.03865211200195e-07,3.810697077724553e-07,1.0127338027512663e-05
5.123126285668109e-07,6.077337634048471e-07,3.8263288708985794e-07,9.928198833927896e-06
5.121877167690393e-07,6.116608301383782e-07,3.8413749264889204e-07,9.760183574099167e-06
5.117387058809278e-07,6.156085921710121e-07,3.8556547303147884e-07,9.624682989277344e-06
5.109871800025001e-07,6.195428393361338e-07,3.868999200736457e-07,9.523770096377887e-06
5.099521503386125e-07,6.234355096682739e-07,3.881253343895425e-07,9.46001511901588e-06
5.086508607186287e-07,6.27264160789473e-07,3.89228258847108e-07,9.43623373185412e-06
5.070988870967659e-07,6.310087122855337e-07,3.901979256690011e-07,9.455240937751933e-06
5.053108285572686e-07,6.346504869595511e-07,3.9102527959741954e-07,9.51961418828128e-06
5.033009202353167e-07,6.381732335703896e-07,3.9170143026365705e-07,9.631475344237728e-06
5.010825452506522e-07,6.415622586643165e-07,3.92217322569136e-07,9.792317334845129e-06
4.986682911642534e-07,6.448020819879379e-07,3.9256476723007214e-07,1.0002901422942112e-05
4.960710629559843e-07,6.47876370540478e-07,3.927380053054051e-07,1.0263221700118533e-05
4.933044295352336e-07,6.507708106378634e-07,3.927343742276418e-07,1.057251638627234e-05
4.903823988259625e-07,6.5347504593353e-07,3.9255374095808073e-07,1.092933528784783e-05
4.873200127873883e-07,6.559813010813436e-07,3.9219794726384594e-07,1.1331680323795766e-05
4.841336220362215e-07,6.582815727168004e-07,3.9167077040912316e-07,1.1777178695241968e-05
4.80840066823125e-07,6.603656720416566e-07,3.909775491865791e-07,1.2263229555908095e-05
4.774567616740807e-07,6.622210901110821e-07,3.901239106716952e-07,1.2787129880159046e-05
4.740022146243372e-07,6.638358397379907e-07,3.891145095176517e-07,1.3346208588930761e-05
4.7049475759277803e-07,6.65202556721448e-07,3.8795289267065e-07,1.3937935717065476e-05
4.6695114773403776e-07,6.663193605523167e-07,3.866420478483765e-07,1.4559956446943613e-05
4.6338747747320044e-07,6.671888408677897e-07,3.851845708936978e-07,1.52100574704022e-05
4.5982216404665596e-07,6.678195396111968e-07,3.835825455320657e-07,1.58860949152478e-05
4.5627837795195825e-07,6.682278335272321e-07,3.818377906187039e-07,1.658589782242573e-05
4.5278267879984504e-07,6.684371306586163e-07,3.799526019883685e-07,1.730716817093588e-05
4.4936196967535095e-07,6.684755871286336e-07,3.7793067455359713e-07,1.804740054075846e-05
4.460424348850874e-07,6.683731582552196e-07,3.757777433550246e-07,1.8803828458810244e-05
4.428484686210808e-07,6.681580081122765e-07,3.7350202080691993e-07,1.9573417075066426e-05
4.3980122063060283e-07,6.678540548293367e-07,3.711148092571538e-07,2.0352930139967748e-05
4.3691961089081495e-07,6.674813298589925e-07,3.6863113938466846e-07,2.113903264775052e-05
4.3422194331529816e-07,6.670591010063481e-07,3.66068943933336e-07,2.192835650217394e-05
4.317248372976786e-07,6.666088513349444e-07,3.634465590383833e-07,2.271752955971252e-05
4.2944065491301703e-07,6.661531170069835e-07,3.6078152451474256e-07,2.3503210447981505e-05
4.273763483138538e-07,6.657121025563337e-07,3.5809072200215075e-07,2.428213713235072e-05
4.2553574759879757e-07,6.653023058379934e-07,3.5538947438336204e-07,2.505114285065617e-05
4.239248350417833e-07,6.649357826422106e-07,3.526903432078742e-07,2.580709272008708e-05
4.2255594847570684e-07,6.646184257130759e-07,3.500026840294545e-07,2.654680030838117e-05
4.2144761562033097e-07,6.643495851491195e-07,3.473329321652803e-07,2.726702963332716e-05
4.206204996234346e-07,6.641256350632072e-07,3.4468588476869394e-07,2.796457296686677e-05
4.200919026491557e-07,6.639465301235238e-07,3.420668190597621e-07,2.8636331364364226e-05
4.1987190490151256e-07,6.63819862469071e-07,3.394832491320552e-07,2.9279402973178334e-05
4.199629439050288e-07,6.637589638199681e-07,3.369446985149591e-07,2.989118989716513e-05
4.203620270627383e-07,6.637785677566612e-07,3.344608135975367e-07,3.0469440720938042e-05
4.2106372394856784e-07,6.638923695864932e-07,3.320400242103924e-07,3.101218171689052e-05
4.2206178717671593e-07,6.641131357381544e-07,3.296890388450915e-07,3.1517627639147696e-05
4.23347741185377e-07,6.644547976237959e-07,3.2741242074206575e-07,3.1984162585147626e-05
4.249082840661703e-07,6.649349006181842e-07,3.252138021287169e-07,3.2410361154084255e-05
4.267248841986788e-07,6.655746630740012e-07,3.230986433450973e-07,3.279499214906813e-05
4.287752813300826e-07,6.663955243684607e-07,3.210751587564132e-07,3.313699849296605e-05
4.3103440918952073e-07,6.674139599209123e-07,3.1915270746215057e-07,3.3435498924423525e-05
4.334749980623765e-07,6.686386019134519e-07,3.173397204931933e-07,3.368992644641878e-05
4.360708868078229e-07,6.7007179741222e-07,3.15642084480905e-07,3.390028547305281e-05
4.388022983346932e-07,6.717132401803529e-07,3.1406231043843697e-07,3.406726974644289e-05
4.416567832566666e-07,6.735624910914226e-07,3.125993974439129e-07,3.419212085011468e-05
4.446241521217169e-07,6.756186067037837e-07,3.112490306604701e-07,3.427637982508738e-05
4.476918407635169e-07,6.778777393258382e-07,3.100052139679402e-07,3.432168334443143e-05
4.508448029621493e-07,6.80332268921655e-07,3.0886323113232184e-07,3.432971415428194e-05
4.540667386034644e-07,6.829723059381118e-07,3.078207847700555e-07,3.430237549431385e-05
4.573397795743304e-07,6.857860634612726e-07,3.068765105899122e-07,3.4242034167524104e-05
4.6064498934778397e-07,6.887574168005483e-07,3.060286678930076e-07,3.41515796298794e-05
4.6396534851014825e-07,6.918639888217264e-07,3.052751049355963e-07,3.403428274681078e-05
4.6728971460815956e-07,6.950786014392226e-07,3.0461338557334683e-07,3.3893592282206795e-05
4.706161052534261e-07,6.983722464347257e-07,3.04040069968137e-07,3.373294646099806e-05
4.7395187563321754e-07,7.01716627398238e-07,3.035502178985645e-07,3.3555634119273936e-05
4.773099580716114e-07,7.050857287510032e-07,3.0313943576746105e-07,3.336471265029538e-05
4.807041462244885e-07,7.084546911184944e-07,3.028063609604616e-07,3.3162961407534664e-05
4.841458708737212e-07,7.117966758106046e-07,3.025522612961368e-07,3.295285761863085e-05
4.876422381891516e-07,7.150816261460059e-07,3.0237950685624236e-07,3.273656701298129e-05
4.911950595595102e-07,7.182782958912232e-07,3.0229022574024376e-07,3.2515925257116085e-05
4.948012402250739e-07,7.2135665039143e-07,3.022844275682007e-07,3.229239233602287e-05
4.984537681992621e-07,7.242878259222364e-07,3.023592161353502e-07,3.206702113815673e-05
5.021421588316017e-07,7.27042534830443e-07,3.025103658879077e-07,3.184050769211356e-05
5.058523187777121e-07,7.295900824439279e-07,3.02734451109964e-07,3.161332849192617e-05
5.0956706662731e-07,7.318986894296173e-07,3.030289342683025e-07,3.1385913653561714e-05
5.132683859641695e-07,7.3393778764037e-07,3.033902411599145e-07,3.1158788463656306e-05
5.169401228174936e-07,7.356815369200159e-07,3.038125787184693e-07,3.093261580885771e-05
5.205692905384528e-07,7.371104072513324e-07,3.042887514083545e-07,3.0708144768656106e-05
5.241464280628915e-07,7.382100422369302e-07,3.048113175741415e-07,3.048616010862691e-05
5.27665356478995e-07,7.389694062968946e-07,3.053730287994759e-07,3.026747433948624e-05
5.31120669096517e-07,7.393802995523328e-07,3.059672183781645e-07,3.0052901787547447e-05
5.345049572163109e-07,7.394399461511949e-07,3.0658835548761877e-07,2.9843179746704712e-05
5.37810849973048e-07,7.391544443999278e-07,3.0723166798786323e-07,2.963887166180211e-05
5.410351593320179e-07,7.385380867537841e-07,3.078915425311781e-07,2.9440295578776007e-05
5.441783210133548e-07,7.376086135015752e-07,3.08560936116961e-07,2.924752221189141e-05
5.472397461412788e-07,7.363824352287419e-07,3.0923314859253487e-07,2.906047257017304e-05
5.502138490040428e-07,7.34871907650732e-07,3.09903878976302e-07,2.887905732185387e-05
5.53089079071313e-07,7.330852039470211e-07,3.1057125011892855e-07,2.8703254025657808e-05
5.558489506523268e-07,7.310278288100177e-07,3.112346372852568e-07,2.853309530258711e-05
5.584732778082351e-07,7.287041409850949e-07,3.118954925837453e-07,2.8368616808993506e-05
5.609397752026862e-07,7.261193076525112e-07,3.1256044989987957e-07,2.820981920452803e-05
5.632258729025219e-07,7.232805170666796e-07,3.1324233332383177e-07,2.8056641044298743e-05
5.653097450658317e-07,7.201950678345599e-07,3.139570259327908e-07,2.7908911581627448e-05
5.67171091512053e-07,7.168686663896776e-07,3.147198223393417e-07,2.7766367025648377e-05
5.687923640440549e-07,7.133078872389134e-07,3.1554404629071345e-07,2.762882579942909e-05
5.701596685059034e-07,7.095230506167284e-07,3.1644015231985787e-07,2.7496398785922865e-05
5.71262720081514e-07,7.055269345166419e-07,3.1741391939162125e-07,2.736955152325781e-05
5.720945945989902e-07,7.013314196641763e-07,3.184659441943277e-07,2.724901612472636e-05
5.726527923875095e-07,6.969465925908416e-07,3.19593896115526e-07,2.7135648545608412e-05
5.729419649058141e-07,6.923835261839282e-07,3.207957158353133e-07,2.7030289992628093e-05
5.729750985960628e-07,6.876577677107636e-07,3.2207134912200646e-07,2.693363321487113e-05
5.727703330460458e-07,6.827906507262774e-07,3.234219275873274e-07,2.684610368361569e-05
5.723460602675355e-07,6.77809270633106e-07,3.2484727566449196e-07,2.6767836088447627e-05
5.717185847752765e-07,6.727460496515094e-07,3.263439411169944e-07,2.6698768251795348e-05
5.709028804666728e-07,6.676361012798246e-07,3.279052634533952e-07,2.663874395031017e-05
5.699134507439464e-07,6.625121700786978e-07,3.2952335399039305e-07,2.6587555332221324e-05
5.687643813016436e-07,6.57400823958936e-07,3.3119179437816346e-07,2.6544948702950863e-05
5.674704006231086e-07,6.523217970227611e-07,3.329079087385337e-07,2.6510646492812563e-05
5.66047224477339e-07,6.472883845009426e-07,3.346732989685196e-07,2.648441574302544e-05
5.645098789178182e-07,6.423080363492676e-07,3.3649175485385535e-07,2.646610085519472e-05
5.628723882940445e-07,6.373832868766059e-07,3.383662066802107e-07,2.6455592287227866e-05
5.611486410357035e-07,6.32512256313861e-07,3.4029666649168486e-07,2.645286191379729e-05
5.593509896934528e-07,6.276896083723226e-07,3.422788801268763e-07,2.645804896530943e-05
5.574879913110711e-07,6.229081126592434e-07,3.4430401028268244e-07,2.647145153611305e-05
5.555647394264222e-07,6.181586349880142e-07,3.463601984657195e-07,2.6493420357387054e-05
5.535852874908614e-07,6.134293812638974e-07,3.4843437667576177e-07,2.652421497562185e-05
5.515535559632511e-07,6.08707266265458e-07,3.5051279096613413e-07,2.656385287891911e-05
5.494717659326712e-07,6.039799687883074e-07,3.5258130896093705e-07,2.6611997291202962e-05
5.473393845277894e-07,5.992360392749941e-07,3.5462569537892103e-07,2.6667921983302835e-05
5.451542503478158e-07,5.944655624532739e-07,3.566308063694544e-07,2.673054505284888e-05
5.429150679771862e-07,5.896645627183446e-07,3.5857980855698146e-07,2.679848898732844e-05
5.406238238084053e-07,5.848400350639527e-07,3.6045467794734357e-07,2.687013321086281e-05
5.382873322637977e-07,5.800095725718766e-07,3.622372447232856e-07,2.694366227914886e-05
5.359180722282082e-07,5.751957979981025e-07,3.6391042972879186e-07,2.701713192786952e-05
5.335332828388712e-07,5.704231889913121e-07,3.654595463271397e-07,2.708855294197374e-05
5.311515749078541e-07,5.657208705154932e-07,3.668731246757247e-07,2.7155955520296868e-05
5.287893659057136e-07,5.611248980760403e-07,3.6814392248311953e-07,2.7217402516796035e-05
5.264588987274617e-07,5.566744676119874e-07,3.692700869429353e-07,2.727097945910395e-05
5.241671964949867e-07,5.524055195563522e-07,3.702545080005005e-07,2.731481053916926e-05
5.219162962210597e-07,5.483473239701541e-07,3.71102944164261e-07,2.7347095532891328e-05
5.19704686175087e-07,5.445224105275705e-07,3.7182393260444507e-07,2.7366140058309736e-05
5.175280136278117e-07,5.409485390795538e-07,3.724292316482752e-07,2.737037849434339e-05
5.15379219422874e-07,5.37641939554533e-07,3.729316368836138e-07,2.735838818927857e-05
5.132496471881782e-07,5.346178610313701e-07,3.733422389778246e-07,2.7328890566274977e-05
5.111304357318146e-07,5.318873914652317e-07,3.736698237406885e-07,2.728075633700014e-05
5.090129961213196e-07,5.294580414964651e-07,3.7392105864625647e-07,2.721303439160589e-05
5.068887355088588e-07,5.273419650831108e-07,3.741004766823935e-07,2.7124994919275675e-05
5.047487209502484e-07,5.255621491311668e-07,3.742103761600357e-07,2.701615928200636e-05
5.025836820345905e-07,5.241475896636398e-07,3.7425034291646993e-07,2.6886305037381062e-05
5.003838760985732e-07,5.231233420494643e-07,3.7421755850153033e-07,2.6735436293653892e-05
4.981386882893847e-07,5.225051715150466e-07,3.741084121515253e-07,2.6563721051434024e-05
4.958366108446946e-07,5.223008961295607e-07,3.7391997962387617e-07,2.637146396868591e-05
4.934666324293829e-07,5.225141689704693e-07,3.736517473667478e-07,2.6159132827487837e-05
4.91021295749617e-07,5.231445976075582e-07,3.7330785143962396e-07,2.5927331964390144e-05
4.884980398460458e-07,5.241848914371366e-07,3.728969555828167e-07,2.5676706653328134e-05
4.858964239627839e-07,5.256214017478331e-07,3.724291895534143e-07,2.540788566335699e-05
4.832150570819849e-07,5.274376958211245e-07,3.719144395170718e-07,2.5121520014495967e-05
4.80451383695786e-07,5.296151805437252e-07,3.713639377158978e-07,2.481840857629805e-05
4.776021587569012e-07,5.321303944740921e-07,3.707909532246928e-07,2.4499622247772945e-05
4.746628253329829e-07,5.349534258700111e-07,3.702078202545168e-07,2.416651251315016e-05
4.716269701353466e-07,5.380493388440064e-07,3.696225836777628e-07,2.382060231234081e-05
4.684866633322297e-07,5.413817294611035e-07,3.6903830249495593e-07,2.346343890677456e-05
4.6523328623687313e-07,5.449170033780165e-07,3.684545845170277e-07,2.3096503218230835e-05
4.6185859944598723e-07,5.486267568196483e-07,3.6787038891087324e-07,2.2721248383681517e-05
4.5835555204413327e-07,5.524864540873779e-07,3.67287333840737e-07,2.2339217965243704e-05
4.5471804149488824e-07,5.564727912804243e-07,3.667117914231154e-07,2.1952099832648305e-05
4.5094014219880115e-07,5.605622678091543e-07,3.661539696967667e-07,2.15616493639693e-05
4.4701617542462337e-07,5.647302240755091e-07,3.6562486424517313e-07,2.1169548604874938e-05
4.42941819493948e-07,5.689501162483357e-07,3.651341230335053e-07,2.0777304417167605e-05
4.3871566290146396e-07,5.731941136874203e-07,3.6469007608086706e-07,2.0386221617687978e-05
4.34340123872273e-07,5.774344942547409e-07,3.643001745022702e-07,1.9997420296350856e-05
4.298208467276057e-07,5.816439427248063e-07,3.6397035607586717e-07,1.961187488127315e-05
4.2516530376920316e-07,5.85795289470449e-07,3.637044441425504e-07,1.9230503561259548e-05
4.203814256462924e-07,5.898626168003018e-07,3.6350472590234937e-07,1.8854372333583262e-05
4.154765896885846e-07,5.93822952739645e-07,3.6337310688927077e-07,1.848496286955946e-05
4.104572242441673e-07,5.976572087636781e-07,3.6331163144727117e-07,1.8124269504159408e-05
4.053287803554859e-07,6.013500960748373e-07,3.6332143186253937e-07,1.777461846939973e-05
4.000961032599301e-07,6.048891042583149e-07,3.63401111580138e-07,1.743839095650449e-05
3.947645388724805e-07,6.082630025199352e-07,3.6354714083280454e-07,1.7117812868931422e-05
3.893417674001447e-07,6.114600071145184e-07,3.637557850290549e-07,1.6814841256748255e-05
3.8383961979478845e-07,6.144663761905239e-07,3.6402304413121253e-07,1.6531220634719975e-05
3.782747177581024e-07,6.172659568715018e-07,3.6434265161121434e-07,1.6268697354804304e-05
3.7266813597467814e-07,6.198400748905412e-07,3.647057675374245e-07,1.6029155072607806e-05
3.6704513455084207e-07,6.221680015268859e-07,3.6510290426721275e-07,1.581453861875115e-05
3.614339580761661e-07,6.242282176120418e-07,3.655255232059674e-07,1.5626701815957612e-05
3.558631982668189e-07,6.260003418250533e-07,3.659664250343421e-07,1.546730138706168e-05
3.503609111850424e-07,6.274675816766243e-07,3.6641978434431257e-07,1.5337728192267403e-05
3.449565386492423e-07,6.286181910801818e-07,3.668807762127078e-07,1.523904891859821e-05
3.3968222958565157e-07,6.294451139093096e-07,3.673441994012394e-07,1.5171959875690627e-05
3.3457159593615127e-07,6.299451996613277e-07,3.6780304387251866e-07,1.5136773000297666e-05
3.2965669247333537e-07,6.301191010355317e-07,3.682485718327474e-07,1.5133443491416568e-05
3.2496481176307266e-07,6.299706987733864e-07,3.686713824845707e-07,1.5161601318523074e-05
3.205170740361121e-07,6.295047150680958e-07,3.690618342870686e-07,1.5220547022682529e-05
3.163297130413401e-07,6.287243343526473e-07,3.6941003088971173e-07,1.5309233151834494e-05
3.1241670700405465e-07,6.276309073585297e-07,3.697067298976501e-07,1.5426266877010936e-05
3.087913568285837e-07,6.262253697964797e-07,3.699446300337309e-07,1.5569930176249562e-05
3.054654492299036e-07,6.245113452614794e-07,3.7011856732753173e-07,1.5738212405381218e-05
3.024472769846313e-07,6.224995765335436e-07,3.7022532930176745e-07,1.5928883692159444e-05
2.997408500368912e-07,6.202118262282788e-07,3.702648031581221e-07,1.613961191391021e-05
2.9734614211147555e-07,6.176824389642554e-07,3.7024224790548464e-07,1.6368057546079087e-05
2.952598933370737e-07,6.149560081420806e-07,3.7016870345066726e-07,1.6611909295828727e-05
2.934787350127295e-07,6.12083431360441e-07,3.7005823138208657e-07,1.6868909410139125e-05
2.920039187151216e-07,6.091204436142672e-07,3.6992529352523047e-07,1.713689455529165e-05
2.9084382169580715e-07,6.061259660240104e-07,3.6978414260526095e-07,1.741379882220547e-05
2.900120176824385e-07,6.031570319804823e-07,3.6964809841009885e-07,1.7697585469458806e-05
2.895217107375026e-07,6.002635926529058e-07,3.695273797198274e-07,1.7986166437763254e-05
2.8938045168989193e-07,5.974864981224789e-07,3.694269909938584e-07,1.82774150957485e-05
2.8958852572645716e-07,5.948589163477985e-07,3.6934658203283306e-07,1.8569303776201223e-05
2.901397984760796e-07,5.924091642179766e-07,3.6928290547540173e-07,1.8860052845950413e-05
2.910233008780169e-07,5.901613072406969e-07,3.69234107875191e-07,1.914817025516064e-05
2.922261240970259e-07,5.881329284767665e-07,3.692029299895818e-07,1.9432409317427662e-05
2.9373739604990624e-07,5.863331752262482e-07,3.691964945545442e-07,1.971173576374206e-05
2.9555206351103567e-07,5.847634700109808e-07,3.692243174032549e-07,1.9985322662977858e-05
2.976727603470761e-07,5.834208447780078e-07,3.6929665167236817e-07,2.0252520680250897e-05
3.001082667319037e-07,5.823010144979539e-07,3.6942330840323953e-07,2.0512754041934272e-05
3.028695685416597e-07,5.813986714255144e-07,3.6961262264421294e-07,2.076537740199004e-05
3.059663362344428e-07,5.807070217970791e-07,3.6987008479065036e-07,2.100959708654064e-05
3.0940742706141015e-07,5.802179718992762e-07,3.701970782999902e-07,2.1244513343618802e-05
3.132066366137488e-07,5.799219951571585e-07,3.705909492034065e-07,2.146923765663144e-05
3.173876181294233e-07,5.798081395050489e-07,3.7104632948115686e-07,2.168301593239044e-05
3.219806744968728e-07,5.798631667761736e-07,3.715571207827311e-07,2.1885344325473544e-05
3.270141531091248e-07,5.800691098417193e-07,3.7211881121898475e-07,2.2076058050061204e-05
3.325091647608993e-07,5.804022336286397e-07,3.727292814179614e-07,2.2255339071988653e-05
3.384792606796509e-07,5.808346522009215e-07,3.7338659044738433e-07,2.24236330819561e-05
3.449303145809985e-07,5.813366420628972e-07,3.740858423227486e-07,2.258152284885673e-05
3.5185866792632165e-07,5.818781578872804e-07,3.7481859917390313e-07,2.2729629479839888e-05
3.592494278381307e-07,5.824294128966235e-07,3.7557573892563673e-07,2.2868590395402443e-05
3.670766082396822e-07,5.829612256577834e-07,3.763505791216409e-07,2.299909184893845e-05
3.753048953425916e-07,5.834451471486346e-07,3.771388274222599e-07,2.3121926375227082e-05
3.8389206606953543e-07,5.838534378301827e-07,3.7793715185310066e-07,2.323812452299339e-05
3.927909325206925e-07,5.841602066939458e-07,3.78742988283081e-07,2.334917942275169e-05
4.019501508100485e-07,5.843427460846111e-07,3.7955405927778e-07,2.345718768403528e-05
4.1131551357938354e-07,5.84380934947181e-07,3.8036694232471403e-07,2.35647198858656e-05
4.2083351517264573e-07,5.84256167003078e-07,3.8117641972873993e-07,2.3674497796823792e-05
4.3045609299131137e-07,5.839523226140607e-07,3.8197661855724455e-07,2.378906514905148e-05
4.401437978076865e-07,5.834574350168264e-07,3.8276326519405975e-07,2.391056748261309e-05
4.498653824928074e-07,5.827631314948062e-07,3.835344708025232e-07,2.4040775870936028e-05
4.595952283546053e-07,5.818632855625406e-07,3.8428911164699697e-07,2.418137334788352e-05
4.693118215324936e-07,5.807538566271834e-07,3.8502490188620026e-07,2.4334230195719384e-05
4.789964474586739e-07,5.794326371201069e-07,3.8573774845941976e-07,2.4501440820042332e-05
4.88629754722314e-07,5.778994780361385e-07,3.864225328295852e-07,2.468521490465935e-05
4.981879874530339e-07,5.761574216301118e-07,3.87074225536589e-07,2.4887771853681685e-05
5.076418609180825e-07,5.742133960784154e-07,3.8768840401380985e-07,2.5111250198301622e-05
5.169579699717696e-07,5.720787088626952e-07,3.882614574933939e-07,2.5357615471704127e-05
5.261010320678604e-07,5.697680272090538e-07,3.887904726345208e-07,2.562858263050661e-05
5.350364211347024e-07,5.672959352960524e-07,3.8927307088794703e-07,2.5925566962118648e-05
5.437325397963761e-07,5.64674697757175e-07,3.8970719430485563e-07,2.624967081934307e-05
5.521611135903443e-07,5.619159684380748e-07,3.900900906312603e-07,2.6601696733815395e-05
5.602948947508264e-07,5.590346424668496e-07,3.9041753107748744e-07,2.6982129355229026e-05
5.681054513021115e-07,5.560505244767973e-07,3.906841509995493e-07,2.7391032516266642e-05
5.755630618788015e-07,5.529851514400578e-07,3.908838002205286e-07,2.7827892263290613e-05
5.82637756991909e-07,5.498568451015339e-07,3.910094105516134e-07,2.82915007675062e-05
5.893006240979036e-07,5.466791005082689e-07,3.9105269351804326e-07,2.8779971802405102e-05
5.955263520968316e-07,5.434626637342601e-07,3.910040664512153e-07,2.9290895976130022e-05
6.012965983813405e-07,5.402182865878521e-07,3.908535572831678e-07,2.9821522534494408e-05
6.066011212071004e-07,5.369587121940751e-07,3.905922942666888e-07,3.0368859534767212e-05
6.114352423591694e-07,5.337006495014943e-07,3.9021318900104256e-07,3.092972915080346e-05
6.157960476609456e-07,5.304669176571924e-07,3.897109685535576e-07,3.1500868503265785e-05
6.196798332473294e-07,5.272866405212603e-07,3.8908238321105965e-07,3.2079057259607905e-05
6.230808005850996e-07,5.241929886289714e-07,3.8832603333015925e-07,3.2661188863359025e-05
6.25990641887743e-07,5.212203772378473e-07,3.8744155990459754e-07,3.324427391837499e-05
6.283993896449385e-07,5.184004445316631e-07,3.864293266747215e-07,3.3825410696644426e-05
6.30297891413558e-07,5.157571374490046e-07,3.852916632669442e-07,3.440172163670431e-05
6.316809085632314e-07,5.133044881411203e-07,3.840353073420543e-07,3.497027421955898e-05
6.325479452511721e-07,5.110474329908056e-07,3.826728181969778e-07,3.5528059537607845e-05
6.329014448613199e-07,5.089835374974773e-07,3.812214083737267e-07,3.607204389269297e-05
6.327460017858418e-07,5.071052422481571e-07,3.7970023654788473e-07,3.659923565055143e-05
6.320893361320276e-07,5.054026469697816e-07,3.7812754606579366e-07,3.710674434058051e-05
6.309421941721555e-07,5.038657075971589e-07,3.765187915530266e-07,3.759183808897386e-05
6.29316862635271e-07,5.024852954670082e-07,3.7488675551650134e-07,3.805197926521176e-05
6.272258287824793e-07,5.012533890961742e-07,3.7324247356762155e-07,3.8484802873039535e-05
6.2468174184878e-07,5.001620076619437e-07,3.715954187750856e-07,3.888804474618589e-05
6.216989095057504e-07,4.992022627888194e-07,3.699532884203517e-07,3.925949985416952e-05
6.182946507342638e-07,4.983665166747894e-07,3.683214911364383e-07,3.95970730050299e-05
6.144893895553546e-07,4.97652692132998e-07,3.6670222928342655e-07,3.989888817266273e-05
6.103064006349377e-07,4.970659100482071e-07,3.6509435338843275e-07,4.016340595016653e-05
6.057717815655011e-07,4.966153566843636e-07,3.6349444180514457e-07,4.0389542096938596e-05
6.009137855495437e-07,4.963093391398672e-07,3.618981690445956e-07,4.0576736766666684e-05
5.957623172036191e-07,4.961515487571939e-07,3.603018395884745e-07,4.072488662752749e-05
5.903511821466112e-07,4.961390828388769e-07,3.587039523342188e-07,4.0834158362771744e-05
5.847209119459934e-07,4.962627697114518e-07,3.5710562875153726e-07,4.090478837479493e-05
5.789168622080176e-07,4.965104954931357e-07,3.5550994614344625e-07,4.093695254570359e-05
5.729834153995868e-07,4.968719242959595e-07,3.5392117434696005e-07,4.0930751548301066e-05
5.669596213660889e-07,4.973403847677639e-07,3.523444124837807e-07,4.088627496969591e-05
5.608781290383803e-07,4.979098190484814e-07,3.507858487710032e-07,4.080364716532234e-05
5.547658438442382e-07,4.985703358620406e-07,3.4925308038455236e-07,4.0683077727287954e-05
5.486450509706934e-07,4.993067703396668e-07,3.4775476207270226e-07,4.05250477095271e-05
5.425343493136564e-07,5.001008587231615e-07,3.462997099467213e-07,4.03305579266342e-05
5.364493048409689e-07,5.009349728334759e-07,3.448956470876668e-07,4.010117515995451e-05
5.304029735304578e-07,5.017942814745538e-07,3.4354796786089487e-07,3.983883458854984e-05
5.244058724508723e-07,5.026656263183148e-07,3.422591479069453e-07,3.95455869962931e-05
5.184656152257002e-07,5.035350969238374e-07,3.410292236910877e-07,3.9223435924162104e-05
5.125868577989338e-07,5.043867670830505e-07,3.3985803603903705e-07,3.887438314084409e-05
5.067722405102493e-07,5.052031015161309e-07,3.3874792605695305e-07,3.850070728713754e-05
5.010258845465072e-07,5.059677653952533e-07,3.377036056628725e-07,3.8105222054967636e-05
4.953583983060013e-07,5.066693514242622e-07,3.367296881559582e-07,3.769125343570085e-05
4.89789088006264e-07,5.07301459085941e-07,3.3582895791744376e-07,3.72624064767092e-05
4.843441346988595e-07,5.078590459117179e-07,3.3500177084179557e-07,3.6822324976529886e-05
4.790531660144873e-07,5.083359659293159e-07,3.3424638499143383e-07,3.6374514039302946e-05
4.739460178120348e-07,5.08726853305324e-07,3.335603397992029e-07,3.592221006779222e-05
4.690502381300681e-07,5.090317804964799e-07,3.329416140897517e-07,3.5468298657408144e-05
4.643897317211873e-07,5.092588281488063e-07,3.323892266572616e-07,3.501529549766967e-05
4.599846514820502e-07,5.094221619306634e-07,3.3190329217316406e-07,3.4565370909008245e-05
4.5585129147328254e-07,5.095377908839313e-07,3.314839285072429e-07,3.412036122921417e-05
4.520014812810689e-07,5.09619746852108e-07,3.311301849463049e-07,3.368174089852508e-05
4.4844274008883035e-07,5.09678169074918e-07,3.3083967580688946e-07,3.3250610529738644e-05
4.4517881961196783e-07,5.097193907233457e-07,3.306078947475746e-07,3.282776353829257e-05
4.42210233305571e-07,5.097466328219985e-07,3.304279298221136e-07,3.241379194493239e-05
4.3953543022006405e-07,5.097602578720085e-07,3.302925422204077e-07,3.2009162383453585e-05
4.371512953853031e-07,5.097582549331939e-07,3.301980041084721e-07,3.161428005619583e-05
4.3505288045009487e-07,5.09738166747365e-07,3.301461850775146e-07,3.122957489026961e-05
4.332337245121787e-07,5.097005786502531e-07,3.301432795429163e-07,3.0855578881969224e-05
4.316852813454864e-07,5.096513862764489e-07,3.3019744777692253e-07,3.0492953230739207e-05
4.3039520812777606e-07,5.095990334668683e-07,3.303172710772682e-07,3.0142461223026148e-05
4.293471009914363e-07,5.095494751021096e-07,3.3051071274229177e-07,2.9804901724691302e-05
4.2852215931385067e-07,5.095065238063484e-07,3.307843390314468e-07,2.9481028483455684e-05
4.279013816691323e-07,5.094784436849394e-07,3.3114304404177907e-07,2.917148127181153e-05
4.274669632689404e-07,5.09484837511452e-07,3.3158970100730856e-07,2.8876726075791304e-05
4.2720180142253226e-07,5.095605383094486e-07,3.321248689349789e-07,2.85969936732362e-05
4.2708754383042605e-07,5.097558707727885e-07,3.327477688357448e-07,2.8332258873694463e-05
4.2710316200925996e-07,5.101314280501289e-07,3.3345787732525266e-07,2.8082313818757056e-05
4.272253851625502e-07,5.107481480330672e-07,3.342556137073498e-07,2.784689544144476e-05
4.2743082791664576e-07,5.116580822368082e-07,3.351418114210577e-07,2.762579108978918e-05
4.2769854300102725e-07,5.128998177902804e-07,3.3611639982395356e-07,2.741891339522053e-05
4.280109585440474e-07,5.144978447175092e-07,3.371771982219315e-07,2.722635534206671e-05
4.283528207587153e-07,5.164641400363263e-07,3.383194274627922e-07,2.704841227085755e-05
4.287102901025837e-07,5.188007343030195e-07,3.39535837834058e-07,2.688554169015579e-05
4.290705324367644e-07,5.215018146912573e-07,3.4081740135745976e-07,2.6738256768366915e-05
4.294203059619889e-07,5.245560831121698e-07,3.421542477725268e-07,2.660701804009596e-05
4.2974445283185977e-07,5.27950682000468e-07,3.435356725420527e-07,2.649216001063309e-05
4.300257512819541e-07,5.316742594601305e-07,3.449493022454446e-07,2.6393807288098857e-05
4.30245575637473e-07,5.357165727176813e-07,3.46381309238072e-07,2.631178959302237e-05
4.303846269419737e-07,5.400661918857964e-07,3.4781801918821174e-07,2.6245659388224344e-05
4.304246010418685e-07,5.447086529520556e-07,3.492469996508221e-07,2.619482859711744e-05
4.3035102896043606e-07,5.496256606967335e-07,3.506569392672688e-07,2.615869057074083e-05
4.301542533145311e-07,5.547959166564563e-07,3.520378183328746e-07,2.613662313063212e-05
4.2982807278000344e-07,5.601977136805475e-07,3.53381567410994e-07,2.6127893467730372e-05
4.293700919867792e-07,5.658113926161615e-07,3.5468177896111154e-07,2.6131573827703752e-05
4.287835597368059e-07,5.716192509664104e-07,3.559322035414999e-07,2.6146559157279252e-05
4.280767562353234e-07,5.776026454993395e-07,3.571251902511428e-07,2.6171631296312423e-05
4.2725992108154493e-07,5.837384631508319e-07,3.5825128368934095e-07,2.620546804228885e-05
4.2634287752059063e-07,5.899979774625991e-07,3.5929971989647313e-07,2.624666115304901e-05
4.253346254024453e-07,5.963491368605474e-07,3.6025866540873887e-07,2.629391533956067e-05
4.242434593372506e-07,6.02760268397774e-07,3.611151193588482e-07,2.6346378813661325e-05
4.2307667468128893e-07,6.092036157410737e-07,3.6185506212764847e-07,2.6403822398848346e-05
4.2184016595677405e-07,6.156589976525724e-07,3.6246365528219697e-07,2.6466570101234823e-05
4.2053811659223424e-07,6.221154373733978e-07,3.629251642272285e-07,2.653532551708165e-05
4.1917328131321257e-07,6.28566608511665e-07,3.6322330239673547e-07,2.661097875160613e-05
4.177486449643085e-07,6.350024884829553e-07,3.633428024614281e-07,2.669440153696708e-05
4.162699425666952e-07,6.414049294891862e-07,3.6327150225351097e-07,2.6786321530325016e-05
4.147464351677619e-07,6.477489623877848e-07,3.6300105410614574e-07,2.688735104333294e-05
4.1318859860740453e-07,6.54006662034801e-07,3.625257559956325e-07,2.6998061361350908e-05
4.116053341057037e-07,6.601518321057823e-07,3.618411256553853e-07,2.711897948610154e-05
4.1000381377264096e-07,6.66163604020066e-07,3.609438069247193e-07,2.72505132589055e-05
4.0839201457126477e-07,6.720265510032278e-07,3.5983273693338117e-07,2.739284299681753e-05
4.067809697081457e-07,6.777270838558529e-07,3.585098154353113e-07,2.7545829335418653e-05
4.051839872329237e-07,6.832491094008494e-07,3.569793271710813e-07,2.7708988648328985e-05
4.0361402615578423e-07,6.885728137699462e-07,3.5524733540809717e-07,2.7881530365351164e-05
4.020826500583804e-07,6.936762869506496e-07,3.533217250415731e-07,2.806241406272141e-05
4.006020240340224e-07,6.985378028051272e-07,3.512132341791859e-07,2.8250396714892076e-05
3.991873053460682e-07,7.031383710998608e-07,3.489377516947936e-07,2.844406114927639e-05
3.9785601140236026e-07,7.074621511350937e-07,3.465183193576489e-07,2.8641835970760686e-05
3.9662676380575315e-07,7.114937090175947e-07,3.439844898458117e-07,2.8842022172863703e-05
3.9552022349424245e-07,7.152173362297954e-07,3.413695945888042e-07,2.9042813630872143e-05
3.945588266265986e-07,7.186205308960203e-07,3.38708510484626e-07,2.9242293868199224e-05
3.937645404562001e-07,7.216956797786089e-07,3.3603690307870786e-07,2.9438424513761225e-05
3.931576514807064e-07,7.244374647906173e-07,3.333911277984088e-07,2.9629057784016603e-05
3.9275514090198424e-07,7.268418913310077e-07,3.308070100905707e-07,2.9811990167949935e-05
3.9256770382494027e-07,7.289080558581236e-07,3.283174383040676e-07,2.998503824239696e-05
3.92598724974155e-07,7.306370124089558e-07,3.2595090862231017e-07,3.014610906448449e-05
3.9284571683875156e-07,7.320286941655415e-07,3.2373156058174577e-07,3.0293268222498573e-05
3.933014265973785e-07,7.330817868321805e-07,3.216793747727525e-07,3.0424823323291625e-05
3.939539950702968e-07,7.337965198529311e-07,3.198098624883633e-07,3.053941542126648e-05
3.94787269048841e-07,7.341799708775734e-07,3.181335737989037e-07,3.0636074118759825e-05
3.957812854815467e-07,7.342536593026398e-07,3.166561503093639e-07,3.0714189475525253e-05
3.969129310399504e-07,7.34058456437948e-07,3.15379680521927e-07,3.077339596725609e-05
3.981568201436864e-07,7.336527307513799e-07,3.143039849639662e-07,3.081344310146905e-05
3.994861837114911e-07,7.33105025097888e-07,3.1342599672933825e-07,3.0834152013046726e-05
4.00875118483529e-07,7.324842230989776e-07,3.127392365843475e-07,3.0835449477004795e-05
