3.6660740291193025e-07,5.287742441833174e-07,1.1729884631515842e-06,1.4271497088781911e-05
3.6353804863768637e-07,5.27532437823088e-07,1.1530348979492788e-06,1.413565952180242e-05
3.60433592322673e-07,5.264985190416235e-07,1.1327575177588718e-06,1.4018859766099817e-05
3.57309417561417e-07,5.256606455917289e-07,1.112237784783544e-06,1.392208827433396e-05
3.541792591395196e-07,5.250019922124285e-07,1.091566494785329e-06,1.384658280615914e-05
3.5105633621659434e-07,5.245023625122446e-07,1.0708310242824388e-06,1.3793522625879815e-05
3.479558026664314e-07,5.241395551484967e-07,1.0501091690092166e-06,1.3763803365421152e-05
3.448968727148784e-07,5.238889601433653e-07,1.02946766890312e-06,1.3757981925160953e-05
3.419011899659777e-07,5.237244747719466e-07,1.00896432420597e-06,1.3776467288570624e-05
3.38988606754102e-07,5.236212359291253e-07,9.886538025185844e-07,1.3819856976051257e-05
3.3617485496299033e-07,5.235569159000041e-07,9.685930672789844e-07,1.3889122753854318e-05
3.334722607917487e-07,5.23511704856782e-07,9.488417110194648e-07,1.3985526148599533e-05
3.3089087232216465e-07,5.234690835143634e-07,9.29457950307234e-07,1.4110430500271747e-05
3.2843790432574427e-07,5.234160780068685e-07,9.104964468379677e-07,1.4265161803656046e-05
3.261168476083159e-07,5.233420730532871e-07,8.920122404238449e-07,1.4450913522256054e-05
3.2392820853323014e-07,5.232380242967853e-07,8.740662351526388e-07,1.4668642315496615e-05
3.2187085093691825e-07,5.230976968811109e-07,8.567257425361809e-07,1.4918962389262634e-05
3.199431089245798e-07,5.229218161258847e-07,8.400607716719071e-07,1.5202087972324591e-05
3.181450867802576e-07,5.227232945851387e-07,8.241386936533698e-07,1.5517831992916673e-05
3.164813230694375e-07,5.225273307240998e-07,8.090182858373412e-07,1.5865598660213062e-05
3.14961587677576e-07,5.223637710712009e-07,7.947462318245311e-07,1.6244319523162014e-05
3.136003314593286e-07,5.222579458545603e-07,7.813589529714304e-07,1.6652384778828502e-05
3.12415587309398e-07,5.222260981690938e-07,7.68888161665891e-07,1.7087651929231787e-05
3.114268725336649e-07,5.222750721992883e-07,7.573659043726369e-07,1.7547534246258506e-05
3.1065215224626256e-07,5.224038051806989e-07,7.468273432972444e-07,1.802912459187753e-05
3.101048124115245e-07,5.226057048788648e-07,7.373117366559207e-07,1.8529322952256976e-05
3.097922454674873e-07,5.228723195863994e-07,7.288600588368441e-07,1.9044941667287586e-05
3.097171402274969e-07,5.23198156429095e-07,7.215088879080577e-07,1.957278141686994e-05
3.098806336071628e-07,5.235837776092082e-07,7.152857181155401e-07,2.0109700635987046e-05
3.102849596402527e-07,5.240345854887246e-07,7.102107767202524e-07,2.06526764763113e-05
3.109338112363124e-07,5.24557067222179e-07,7.063049376769688e-07,2.119882400274472e-05
3.118305512689868e-07,5.251560969805083e-07,7.035994932093015e-07,2.1745374256753964e-05
3.1297575920840347e-07,5.258357199569134e-07,7.021412732698885e-07,2.2289653133828914e-05
3.1436576302814946e-07,5.266020071590862e-07,7.019863704512148e-07,2.282908019713337e-05
3.159934156795543e-07,5.274632073416878e-07,7.031848205451963e-07,2.336115364296353e-05
3.178505695742547e-07,5.284278255889068e-07,7.057713388069209e-07,2.388339297485785e-05
3.1992983451794896e-07,5.295053042326659e-07,7.097712621443409e-07,2.4393272032517235e-05
3.222254275373625e-07,5.307085424180797e-07,7.152129489666576e-07,2.488819700783714e-05
3.2473407096751107e-07,5.320552053634909e-07,7.221368785977886e-07,2.536553789755479e-05
3.27453840864222e-07,5.335666497632022e-07,7.306011539942647e-07,2.5822683781538245e-05
3.303806117607489e-07,5.352636860089668e-07,7.406841531404683e-07,2.6257102271180544e-05
3.335057510344482e-07,5.371610881129207e-07,7.524807426929935e-07,2.666640282344066e-05
3.3681633880003884e-07,5.392654865169415e-07,7.660871793302676e-07,2.704843043953371e-05
3.4029636666310593e-07,5.415787390194199e-07,7.8157781193191e-07,2.74013738790462e-05
3.439279856041767e-07,5.441042832234647e-07,7.989867265666316e-07,2.7723790814272413e-05
3.476928197173099e-07,5.468529049288943e-07,8.183027722422766e-07,2.801454134639627e-05
3.515735160353052e-07,5.498443425079252e-07,8.394741427376077e-07,2.827271557455405e-05
3.5555438741942844e-07,5.531017735530512e-07,8.624163658353399e-07,2.8497568021235176e-05
3.596206962243474e-07,5.566433496358501e-07,8.870198120528429e-07,2.8688450390180016e-05
3.637579466335178e-07,5.604779315212392e-07,9.131537565850113e-07,2.8844795230711048e-05
3.679512383022513e-07,5.64604330618034e-07,9.406689546928805e-07,2.8966286227929047e-05
3.72184411015484e-07,5.690110916169304e-07,9.694033649849285e-07,2.905339489977223e-05
3.764400484459349e-07,5.736774916862846e-07,9.991906555038817e-07,2.910805858866297e-05
3.807007714355472e-07,5.785751329528429e-07,1.0298678408992478e-06,2.9133835636275562e-05
3.8495082345966714e-07,5.836691541863835e-07,1.061280767896466e-06,2.9135391046071807e-05
3.891767280357714e-07,5.889203348612989e-07,1.0932871797083077e-06,2.9117819412285413e-05
3.9336708873611727e-07,5.942874087435283e-07,1.125755834494167e-06,2.9086112569375105e-05
3.9751210706573366e-07,5.997275986830386e-07,1.1585622572649208e-06,2.9044797431472825e-05
4.0160287512921773e-07,6.051970113852208e-07,1.1915835305777323e-06,2.8997776477376324e-05
4.056310795178335e-07,6.106527383760365e-07,1.2246932267708276e-06,2.894831079787848e-05
4.0958947381565546e-07,6.16054312591631e-07,1.2577580342362964e-06,2.889901790488501e-05
4.134720680044501e-07,6.213630950900249e-07,1.290637169787586e-06,2.8851871089816997e-05
4.172735790985965e-07,6.265422121151162e-07,1.3231839502610544e-06,2.8808245493789098e-05
4.2098890259863577e-07,6.315578278155886e-07,1.355250159873877e-06,2.8769014311437078e-05
4.246123025563322e-07,6.363797101399047e-07,1.3866938068227705e-06,2.8734666170389136e-05
4.281357809565232e-07,6.409816204184164e-07,1.4173871216056603e-06,2.8705362499070258e-05
4.315481367370901e-07,6.45343444705984e-07,1.447219475914346e-06,2.8680971445905407e-05
4.348354989495917e-07,6.494530015072068e-07,1.4760931708752037e-06,2.866150390191845e-05
4.3798237730402363e-07,6.533035900300678e-07,1.5039159720086383e-06,2.8648303375084125e-05
4.4097400236500605e-07,6.568887238237335e-07,1.5305970067836676e-06,2.864525154990042e-05
4.437996630577553e-07,6.602001625905935e-07,1.5560483225939962e-06,2.8658832112177064e-05
4.4645310397125304e-07,6.632307618963389e-07,1.5801876117178092e-06,2.869719257024729e-05
4.489291620720109e-07,6.659763692947444e-07,1.6029391437104412e-06,2.8769085888711005e-05
4.5122071875691033e-07,6.68434079110926e-07,1.6242349756035791e-06,2.888301872858028e-05
4.533184797364519e-07,6.706008297770943e-07,1.6440154021181001e-06,2.9046590433631653e-05
4.552123509054819e-07,6.724735963770425e-07,1.6622256332803127e-06,2.926600829914805e-05
4.568920992335634e-07,6.74049506140441e-07,1.678812574919477e-06,2.954579207048832e-05
4.583469899865926e-07,6.753261148705295e-07,1.6937264088373504e-06,2.9888691539457208e-05
4.595666393248196e-07,6.763014173345436e-07,1.7069235383549512e-06,3.0295761419318513e-05
4.605438670855123e-07,6.769732923123921e-07,1.718367117127602e-06,3.076653690927097e-05
4.612760490914746e-07,6.773399134214624e-07,1.7280276771366359e-06,3.1299288024706515e-05
4.6176274177738563e-07,6.774009657802712e-07,1.735885881092081e-06,3.1891256212873356e-05
4.620033750599451e-07,6.771585007783199e-07,1.7419345983005615e-06,3.2538817249274486e-05
4.6199785652569314e-07,6.766185652776878e-07,1.7461773045044796e-06,3.3237700530719344e-05
4.6174713382993966e-07,6.757940233873352e-07,1.748623280734058e-06,3.398339432445565e-05
4.6125175008019065e-07,6.747051560751683e-07,1.7492831528468189e-06,3.477171589584432e-05
4.6051056843095113e-07,6.733770082304362e-07,1.7481686151496536e-06,3.559938947258025e-05
4.59521393320245e-07,6.718375898877718e-07,1.7452956602203355e-06,3.646438158844119e-05
4.5828303258186244e-07,6.701197079588696e-07,1.740686747215644e-06,3.7365847994128996e-05
4.567969922435666e-07,6.682671611260278e-07,1.7343706605728386e-06,3.830381204180988e-05
4.550675749633603e-07,6.663416312922823e-07,1.726383340948077e-06,3.927880127119646e-05
4.531013005454651e-07,6.644210820655336e-07,1.7167712735842424e-06,4.0291508667617654e-05
4.5090606490132884e-07,6.625886316724339e-07,1.7055933081770804e-06,4.134240208189257e-05
4.4848969237314894e-07,6.609212261223876e-07,1.692915984545118e-06,4.243129690613027e-05
4.45859058658142e-07,6.594840900831514e-07,1.6788067669502322e-06,4.355703028806011e-05
4.430202353620761e-07,6.583303291675695e-07,1.6633339230607225e-06,4.471731606624235e-05
4.3997859412219544e-07,6.575022462695059e-07,1.6465712286889606e-06,4.5908741230361766e-05
4.367388908508002e-07,6.570308245760056e-07,1.62859985958733e-06,4.712684544201717e-05
4.333059430277085e-07,6.56933710878606e-07,1.6095060806921e-06,4.836627292450439e-05
4.296859589489645e-07,6.572149727090441e-07,1.589377323424674e-06,4.962098756448262e-05
4.2588731134263615e-07,6.578671666161477e-07,1.568300054436434e-06,5e-06
4.219195488313901e-07,6.588750903555115e-07,1.5463624597486713e-06,5e-06
4.177924854538278e-07,6.602227362406325e-07,1.5236596560935481e-06,5e-06
4.1351688305864156e-07,6.619011392888673e-07,1.5002954163622753e-06,5e-06
4.091052765581056e-07,6.639106596523728e-07,1.4763773747438057e-06,5e-06
4.0457182343891704e-07,6.662569293112321e-07,1.4520086762796284e-06,5e-06
3.999313012646332e-07,6.689461607269799e-07,1.4272818752699556e-06,5e-06
3.9519848265890173e-07,6.719828007412902e-07,1.4022771023622991e-06,5e-06
3.9038901525432775e-07,6.753668448193697e-07,1.3770636210296106e-06,5e-06
3.8552045777994454e-07,6.79090451668164e-07,1.351705263838522e-06,5e-06
3.80611786145285e-07,6.831385962115822e-07,1.326268410092633e-06,5e-06
3.756824323368909e-07,6.874929895634771e-07,1.3008287980702031e-06,5e-06
3.707527243245825e-07,6.921325067644693e-07,1.275475116091505e-06,5e-06
3.6584445194262427e-07,6.970306538811202e-07,1.2503076038778894e-06,5e-06
3.6097973773478646e-07,7.02155730238039e-07,1.225431124350215e-06,5e-06
3.561797177748206e-07,7.074736171730222e-07,1.2009461738109863e-06,5e-06
3.514638747889896e-07,7.129509000192703e-07,1.1769414293655904e-06,5e-06
3.468494710599762e-07,7.185582066597296e-07,1.1534895307128722e-06,5e-06
3.423515754992333e-07,7.242731028998806e-07,1.1306465949028338e-06,5e-06
3.379828951717669e-07,7.300802679056519e-07,1.1084547188073428e-06,5e-06
3.337525616762904e-07,7.359676182168762e-07,1.086946894372746e-06,5e-06
3.296652626481711e-07,7.419233857323027e-07,1.066152646966321e-06,5e-06
3.257221041374244e-07,7.479403394302568e-07,1.0461010408553085e-06,5e-06
3.2192295591983536e-07,7.540213059819426e-07,1.0268200085688756e-06,5e-06
3.182683220051911e-07,7.601756174125654e-07,1.008333854207877e-06,5e-06
3.147597937872104e-07,7.664092192677563e-07,9.9066117380175e-07,5e-06
3.1140054062017497e-07,7.727186325601888e-07,9.738144857235072e-07,5e-06
3.0819557109395607e-07,7.790911302271898e-07,9.57800129664303e-07,5e-06
3.051506749716033e-07,7.855067976558516e-07,9.426166653754145e-07,5e-06
3.022712539151384e-07,7.919403109058963e-07,9.282542584088215e-07,5e-06
2.995617927574392e-07,7.983622305448869e-07,9.146982740224676e-07,5e-06
2.9702558694464675e-07,8.047386920629926e-07,9.019367563155644e-07,5e-06
2.9466435770674036e-07,8.110308418227011e-07,8.899687899795812e-07,5e-06
2.9247791613447087e-07,8.171963836083272e-07,8.788082746585682e-07,5e-06
2.904645403108708e-07,8.231915236990677e-07,8.684792989423857e-07,5e-06
2.886211213465504e-07,8.289712706906539e-07,8.590063052895115e-07,5e-06
2.8694220030186077e-07,8.344905877532555e-07,8.504065683195662e-07,5e-06
2.854198837490303e-07,8.397080835616106e-07,8.426899666757123e-07,5e-06
2.840459638212658e-07,8.445878721260224e-07,8.358641541860281e-07,5e-06
2.82813612756728e-07,8.490971112213766e-07,8.299402285973802e-07,5e-06
2.8171649573073247e-07,8.532038266907569e-07,8.249375944674697e-07,5e-06
2.807471950338141e-07,8.568784665937629e-07,8.208883817703573e-07,5e-06
2.798970567037968e-07,8.600972533861431e-07,8.178387573677007e-07,5e-06
2.7915738313218214e-07,8.628444927900801e-07,8.158442469084371e-07,5e-06
2.785212125939934e-07,8.65112307786735e-07,8.149611279274418e-07,5e-06
2.779850142579249e-07,8.668978115441445e-07,8.152376166800857e-07,5e-06
2.7754919710015767e-07,8.681995907540359e-07,8.167064550221408e-07,5e-06
2.772163101825087e-07,8.690153069254146e-07,8.193818503677269e-07,5e-06
2.7698838582178195e-07,8.693413518952583e-07,8.232617142860535e-07,5e-06
2.7686600787128264e-07,8.691741844291657e-07,8.283298037940437e-07,5e-06
2.768484066756857e-07,8.685124908477094e-07,8.345555164559865e-07,5e-06
2.7693307937687675e-07,8.673603872736617e-07,8.418959352607321e-07,5e-06
2.7711581041791677e-07,8.657287963249778e-07,8.503018908059384e-07,5e-06
2.773914466784617e-07,8.636318171672949e-07,8.597242728319183e-07,5e-06
2.777543105549928e-07,8.610819088253481e-07,8.701168407586813e-07,4.952349886723012e-05
2.781982507057541e-07,8.580881165632805e-07,8.814354367739374e-07,4.870741124649636e-05
2.787172426715385e-07,8.546562990909255e-07,8.936364428490524e-07,4.7916749467439444e-05
2.793062259946021e-07,8.507896281545482e-07,9.06674974854424e-07,4.715216746122487e-05
2.799615915124775e-07,8.464889803248064e-07,9.205002364943331e-07,4.6414283133605604e-05
2.806814537922246e-07,8.417540710745761e-07,9.350498000139036e-07,4.5703839792282893e-05
2.814652280028135e-07,8.365869811692413e-07,9.502472687026232e-07,4.502182967141452e-05
2.823121541135294e-07,8.309961028741862e-07,9.66002674056965e-07,4.436953562755406e-05
2.8322000825639877e-07,8.249954320091765e-07,9.82213632920717e-07,4.374848906625484e-05
2.841855891015712e-07,8.185998918630931e-07,9.987681960134006e-07,4.316037005037019e-05
2.85206217526914e-07,8.118235224576486e-07,1.0155504528461869e-06,4.2606850806202534e-05
2.8627968554724804e-07,8.046840862392573e-07,1.0324477521923168e-06,4.2089382484038206e-05
2.874027250812294e-07,7.972104495578264e-07,1.0493552603350693e-06,4.1608973166200394e-05
2.885704183638067e-07,7.894458849706537e-07,1.0661759597120415e-06,4.116605017916272e-05
2.897769680744021e-07,7.814441412007975e-07,1.0828192574547317e-06,4.0760461879383226e-05
2.910167367072256e-07,7.732617905375866e-07,1.0991988601453742e-06,4.0391576299248266e-05
2.922849149419136e-07,7.649528827924634e-07,1.1152297419856886e-06,4.005844051127815e-05
2.935772844359249e-07,7.5656841844383e-07,1.1308272866993535e-06,3.975997553816803e-05
2.9488940094905204e-07,7.481582673160294e-07,1.1459086771717615e-06,3.949509831113349e-05
2.962161842865889e-07,7.39773985993153e-07,1.1603956074828407e-06,3.926271528821466e-05
2.97551864539284e-07,7.31472313768704e-07,1.1742223290772275e-06,3.9061686610692074e-05
2.9889042439380934e-07,7.233152076436112e-07,1.187350731758822e-06,3.8890876241948766e-05
3.0022738740829157e-07,7.153640556878318e-07,1.1997829383426692e-06,3.8749246480684636e-05
3.015615059815044e-07,7.076728431305424e-07,1.21155710560158e-06,3.863584085943522e-05
3.028939485567145e-07,7.002846528089213e-07,1.2227269794828972e-06,3.8549617162370396e-05
3.042261177859857e-07,6.932309335686362e-07,1.2333460281577127e-06,3.848924118731549e-05
3.0555926888863247e-07,6.865324247353096e-07,1.243469239426395e-06,3.845296693664758e-05
3.0689597267927143e-07,6.80201633991981e-07,1.253159699609267e-06,3.843866002513449e-05
3.0824006525640305e-07,6.742447488001742e-07,1.262486490017694e-06,3.844391790524288e-05
3.0959437289312693e-07,6.686624192587346e-07,1.2715175167006172e-06,3.8466223598388646e-05
3.109594361103276e-07,6.634529632421689e-07,1.280312877854257e-06,3.85031275413378e-05
3.123344723464785e-07,6.586169281817161e-07,1.2889195724099831e-06,3.855241025672017e-05
3.137189065999084e-07,6.541580549085108e-07,1.2973686909044806e-06,3.861211492238113e-05
3.1511308856264084e-07,6.500808354099424e-07,1.3056753354200348e-06,3.8680464555176454e-05
3.1651786671030824e-07,6.463873990649579e-07,1.3138407670687323e-06,3.8755795599107615e-05
3.179337124564593e-07,6.43075410205675e-07,1.3218564008316424e-06,3.8836531594721725e-05
3.1936036035805677e-07,6.401374071142387e-07,1.3297083593532092e-06,3.8921146204103276e-05
3.2079668274692175e-07,6.375604668838885e-07,1.337381562298864e-06,3.9008184411583866e-05
3.222397139493473e-07,6.353260131575836e-07,1.3448624944454874e-06,3.9096468451040694e-05
3.236835938482032e-07,6.334113974909237e-07,1.3521387644505243e-06,3.9185384916629574e-05
3.2512031219057607e-07,6.317946154559433e-07,1.359194565022385e-06,3.9274899553490206e-05
3.2654123518569434e-07,6.304592209645029e-07,1.3660063128337112e-06,3.936521268244278e-05
3.279373772237557e-07,6.29395068310245e-07,1.3725430806045426e-06,3.945648276234801e-05
3.2929885471484365e-07,6.285957064817016e-07,1.378768519708583e-06,3.954889853151447e-05
3.306146367691181e-07,6.280549693256415e-07,1.384640325046461e-06,3.964285117184636e-05
3.318732863532293e-07,6.277643823936502e-07,1.3901107520141218e-06,3.9738983816372245e-05
3.330644694636376e-07,6.277137154332685e-07,1.3951307483160855e-06,3.9838170843067185e-05
3.341798400039623e-07,6.278953633932532e-07,1.3996540650361298e-06,3.9941479828261795e-05
3.3521304991626264e-07,6.283098436410443e-07,1.4036384775688463e-06,4.005011015712756e-05
3.361602369370544e-07,6.289672146116985e-07,1.4070438211685651e-06,4.016531536104255e-05
3.3702232137115426e-07,6.298818693287173e-07,1.409828361256228e-06,4.02883324775241e-05
3.3780816589562457e-07,6.310650424346535e-07,1.4119485352847604e-06,4.042033576765954e-05
3.385344714666912e-07,6.325206371919535e-07,1.4133638514251889e-06,4.05624039214193e-05
3.3922068468773086e-07,6.342453841846368e-07,1.4140408296325628e-06,4.071547428016176e-05
3.398832317640926e-07,6.362309320527079e-07,1.4139509697079153e-06,4.088029076379269e-05
3.4053314998973453e-07,6.384658414801744e-07,1.4130661406848203e-06,4.1057371505996285e-05
3.4117663497816075e-07,6.409379314165048e-07,1.4113576524724746e-06,4.124696014236191e-05
3.4181641280509484e-07,6.43636321912308e-07,1.4087991347921458e-06,4.1448901400220796e-05
3.424532761083869e-07,6.465502604173875e-07,1.4053682346005803e-06,4.166250335590013e-05
3.430881968287703e-07,6.496659075100559e-07,1.4010460487784487e-06,4.1886537758148326e-05
3.437241783326084e-07,6.529653346242771e-07,1.3958174492584195e-06,4.2119392947661214e-05
3.443665535606377e-07,6.564272683612026e-07,1.3896722677175954e-06,4.2359240148711815e-05
3.45022034265558e-07,6.600270810529507e-07,1.382605695105841e-06,4.260413661746721e-05
3.456987422101031e-07,6.637371857316374e-07,1.3746187909266235e-06,4.285207744615012e-05
3.464101219155439e-07,6.675296909995885e-07,1.365720085659427e-06,4.3101005874243704e-05
3.471805983980389e-07,6.713803605709754e-07,1.3559275382728756e-06,4.334882750350191e-05
3.4804600159446487e-07,6.752708785107277e-07,1.3452683881864565e-06,4.3593472037649854e-05
3.4904780379568845e-07,6.791881242001259e-07,1.3337758485959028e-06,4.383294778519483e-05
3.502276309666349e-07,6.831221156028476e-07,1.321485853819393e-06,4.406532148453699e-05
3.516251021350257e-07,6.870638742949095e-07,1.3084355442735523e-06,4.428863623916636e-05
3.5327656034756495e-07,6.910035901285131e-07,1.294661791833707e-06,4.4500816485858576e-05
3.5521301549921787e-07,6.949297392329955e-07,1.2802008307432025e-06,4.469963140642685e-05
3.5745815744792813e-07,6.988289604550046e-07,1.2650894718161664e-06,4.4882775179646115e-05
3.6002874078805697e-07,7.026869208643969e-07,1.24936471371298e-06,4.504798590383077e-05
3.629372771211785e-07,7.064911703644198e-07,1.2330624167923592e-06,4.519307723608365e-05
3.661935327349026e-07,7.102332806325367e-07,1.2162182108902978e-06,4.531594380683458e-05
3.698037342269633e-07,7.139062616121706e-07,1.1988698630237838e-06,4.5414704170169565e-05
3.7376888598186e-07,7.174993435398552e-07,1.1810590558095922e-06,4.5488038385169516e-05
3.7808364608707366e-07,7.209950901232409e-07,1.162832755200066e-06,4.553558104718731e-05
3.8273802523276575e-07,7.243702641815263e-07,1.1442445122221883e-06,4.555806794322397e-05
3.877210822050232e-07,7.275992597862791e-07,1.1253532272591786e-06,4.5557108588085204e-05
3.930217415429774e-07,7.306582636824538e-07,1.1062191753389105e-06,4.5534772503983065e-05
3.9862600192037273e-07,7.3352869352305e-07,1.0869016145402629e-06,4.549321598535584e-05
4.0451514548842576e-07,7.361993447449647e-07,1.06745901440912e-06,4.543445440305272e-05
4.1066572360368923e-07,7.386660372918226e-07,1.0479492907178588e-06,4.536026781199092e-05
4.1704864898687365e-07,7.409285164889201e-07,1.028428214484162e-06,4.527218187642609e-05
4.236283979233682e-07,7.429882405952155e-07,1.0089478392244186e-06,4.5171474393158476e-05
4.3036439440887615e-07,7.448496122169948e-07,9.895601879608548e-07,4.5059149056762217e-05
4.372137800214843e-07,7.465207319486769e-07,9.70325039740045e-07,4.493585823020522e-05
4.4413380611143866e-07,7.480102891818834e-07,9.513129729097052e-07,4.480184112114695e-05
4.5108258742687597e-07,7.493243818030802e-07,9.325999250421914e-07,4.4656946898640864e-05
4.5801808255895063e-07,7.504670375703854e-07,9.14258019265098e-07,4.4500714629050384e-05
4.648971227319273e-07,7.514423158089873e-07,8.963486353124983e-07,4.433245890989448e-05
4.716767961269581e-07,7.522553724797621e-07,8.789204888081557e-07,4.415152174866796e-05
4.783175256575244e-07,7.529134770757986e-07,8.620117172918648e-07,4.395792217162283e-05
4.847845059559379e-07,7.534275277365491e-07,8.456533306888121e-07,4.3753069878437786e-05
4.910464611709043e-07,7.538111810559617e-07,8.298716330011435e-07,4.353991011850913e-05
4.970746207936353e-07,7.540775083022519e-07,8.146882689978797e-07,4.3322546160080794e-05
5.028445757273225e-07,7.542397300636335e-07,8.001190746342076e-07,4.310576581560208e-05
5.083384570838434e-07,7.54317881916802e-07,7.861733224159457e-07,4.28946098540134e-05
5.135433001640883e-07,7.543425876633148e-07,7.728529190123502e-07,4.2694036871040165e-05
5.184472950474054e-07,7.543502145125854e-07,7.60152156751192e-07,4.250872400178245e-05
5.230372603585879e-07,7.543746464773227e-07,7.480598368597806e-07,4.2342900518874796e-05
5.272976241312568e-07,7.544434536289976e-07,7.365616668528695e-07,4.220012188893407e-05
5.312106958904485e-07,7.54580198796215e-07,7.256394658403404e-07,4.208303949736732e-05
5.347581181924829e-07,7.5480759751644e-07,7.152692802567995e-07,4.199330332161767e-05
5.379240028971628e-07,7.551482609226447e-07,7.054223408082504e-07,4.193167664840969e-05
5.406990732981348e-07,7.55626980252299e-07,6.960677755660041e-07,4.189830528067625e-05
5.430815319900232e-07,7.562753819584317e-07,6.871739987213382e-07,4.1892971662018706e-05
5.450734165359872e-07,7.571320633300473e-07,6.787090518713915e-07,4.191521912564484e-05
5.466772649198473e-07,7.582344693619467e-07,6.706415725624929e-07,4.1964417653503714e-05
5.478958173909171e-07,7.596093377444683e-07,6.629421621285586e-07,4.2039877861664175e-05
5.487331395904952e-07,7.612708951242553e-07,6.555838551700197e-07,4.21409596176605e-05
5.491948308129086e-07,7.632263764130218e-07,6.485407922567929e-07,4.226709238464334e-05
5.492863430147121e-07,7.654802915000022e-07,6.417858236666222e-07,4.241776492305756e-05
5.490118567198881e-07,7.680323599623534e-07,6.352890417134479e-07,4.259254932670457e-05
5.483762908650897e-07,7.708735826759926e-07,6.290181626753537e-07,4.279116258818673e-05
5.473886822400282e-07,7.739864994183924e-07,6.229409015736592e-07,4.301357815003305e-05
5.46063012529603e-07,7.773485464807568e-07,6.170297371120786e-07,4.326010226127893e-05
5.44415229864683e-07,7.809337367257323e-07,6.112668322312714e-07,4.353124596248873e-05
5.424595777496743e-07,7.847114148295392e-07,6.056440954905889e-07,4.3827405296850516e-05
5.402080791181219e-07,7.886451118871539e-07,6.001581486334359e-07,4.4148522488862144e-05
5.376731969563804e-07,7.926932804865931e-07,5.948057787293397e-07,4.449388689213695e-05
5.348699407731607e-07,7.968110385806276e-07,5.8958224402489e-07,4.486225120651666e-05
5.318147967079664e-07,8.009525971766205e-07,5.844810505302775e-07,4.525224062935879e-05
5.285232331086439e-07,8.05073138329233e-07,5.794947647634647e-07,4.566272159246176e-05
5.250088132497035e-07,8.091290775166234e-07,5.746159697181225e-07,4.609289926014674e-05
5.212844971582759e-07,8.130796322233434e-07,5.698371760057986e-07,4.654213706372938e-05
5.173645092253053e-07,8.168901137479037e-07,5.651508406253622e-07,4.70096364338399e-05
5.132648317132646e-07,8.205316138749168e-07,5.605515701558311e-07,4.749424703671073e-05
5.090018703601372e-07,8.239767464371253e-07,5.560386331214788e-07,4.799447706568413e-05
5.04590688180341e-07,8.271982684352368e-07,5.516142846184519e-07,4.850853618850452e-05
5.000448726427186e-07,8.301734752076505e-07,5.472792425877138e-07,4.903434973805828e-05
4.953794612006165e-07,8.328892937748184e-07,5.430307262251389e-07,4.956959099360066e-05
4.906156549027753e-07,8.353417963458634e-07,5.388636773306894e-07,5e-06
4.857833690267939e-07,8.375298414129638e-07,5.347725501915635e-07,5e-06
4.809190974828423e-07,8.394488542055269e-07,5.307528805281055e-07,5e-06
4.7606107886925314e-07,8.410900435490936e-07,5.268036292893809e-07,5e-06
4.712464397651143e-07,8.424445622942075e-07,5.229308210448163e-07,5e-06
4.665123547482375e-07,8.435094411616013e-07,5.191507251240283e-07,5e-06
4.6189760785992937e-07,8.44292762170476e-07,5.154897394746307e-07,5e-06
4.5744011807646797e-07,8.448157135927974e-07,5.119794314057282e-07,5e-06
4.531732675974593e-07,8.451098581964098e-07,5.08649279296931e-07,5e-06
4.4912780576353157e-07,8.452103235259119e-07,5.055237425706607e-07,5e-06
4.453379166061353e-07,8.451498259518245e-07,5.026271906504478e-07,5e-06
4.418428982532256e-07,8.449594019079974e-07,4.999916769506744e-07,5e-06
4.3868197905623953e-07,8.446739146510215e-07,4.976599237993072e-07,5e-06
4.3588892750275e-07,8.443339841588104e-07,4.956821515225156e-07,5e-06
4.3349087165722073e-07,8.439810724606472e-07,4.941098617119068e-07,5e-06
4.3150815736209967e-07,8.43650302214944e-07,4.929886633344261e-07,5e-06
4.2995276864046823e-07,8.433662489672663e-07,4.923526037166889e-07,5e-06
4.288277889147885e-07,8.431430952259142e-07,4.922223688254983e-07,5e-06
4.2812978936593844e-07,8.4298677255959e-07,4.926060002726455e-07,5e-06
4.27851388262832e-07,8.428964388052245e-07,4.934999166181103e-07,5e-06
4.279813168755035e-07,8.428666579870595e-07,4.948908339510779e-07,5e-06
4.2850394149570973e-07,8.428911941429597e-07,4.967587952706143e-07,5e-06
4.2939974849912883e-07,8.429644133679742e-07,4.990788163701836e-07,5e-06
4.3064537148413523e-07,8.430787324545241e-07,5.01821069065089e-07,5e-06
4.322128798683074e-07,8.432219837929979e-07,5.049535785061254e-07,5e-06
4.3407000346657246e-07,8.433776495493205e-07,5.084481155645518e-07,5e-06
4.361828953620787e-07,8.435283395973602e-07,5.122845812331743e-07,5e-06
4.385201154191711e-07,8.436593773699562e-07,5.16449935317531e-07,5e-06
4.4105363041867227e-07,8.43757720631708e-07,5.209332758277301e-07,5e-06
4.437557018213403e-07,8.438081290926327e-07,5.257229805832888e-07,5e-06
4.4659550929991796e-07,8.437915627374496e-07,5.308082326437379e-07,5e-06
4.49538378623808e-07,8.436854837700689e-07,5.361819349390775e-07,5e-06
4.525470235086628e-07,8.434639012172944e-07,5.418429589530592e-07,5e-06
4.555835799938611e-07,8.430971017048299e-07,5.477951971736157e-07,5e-06
4.586112930422928e-07,8.425519966967793e-07,5.540417709791863e-07,5e-06
4.615947453853079e-07,8.417934068780958e-07,5.605801932835554e-07,5e-06
4.644994236179126e-07,8.407860781941788e-07,5.674024346364453e-07,5e-06
4.67292353144032e-07,8.394981594084872e-07,5.744950687542707e-07,5e-06
4.6994330593721094e-07,8.379062480528878e-07,5.818388674466313e-07,5e-06
4.7242487621183865e-07,8.359982758729265e-07,5.894142342705958e-07,5e-06
4.747114094579932e-07,8.337703114978806e-07,5.972111555485328e-07,5e-06
4.767783504437848e-07,8.312206307962751e-07,6.052330683074029e-07,4.938212499170151e-05
4.786026690514226e-07,8.283469471894235e-07,6.134900648261461e-07,4.8602926924119484e-05
4.801633552173342e-07,8.251459426403058e-07,6.219883399706815e-07,4.7808859639592136e-05
4.814414653273363e-07,8.21612996438986e-07,6.307243990866872e-07,4.700356856294443e-05
4.824200105037422e-07,8.17744117033681e-07,6.396866263831372e-07,4.61909637609872e-05
4.830838336934772e-07,8.135393680695289e-07,6.488608741546361e-07,4.537517109234493e-05
4.83420151707671e-07,8.09004346100325e-07,6.582348335906207e-07,4.456043462927664e-05
4.834200986425861e-07,8.041504959014781e-07,6.677999855622214e-07,4.375101830145703e-05
4.830796761115438e-07,7.989961263270077e-07,6.775538275893481e-07,4.2951066910699145e-05
4.8239903033045e-07,7.935660068573265e-07,6.875024590894961e-07,4.216442208189738e-05
4.813819538342571e-07,7.878878772123506e-07,6.976592222589168e-07,4.1394445736376015e-05
4.800364260679625e-07,7.819880800820829e-07,7.080372093846644e-07,4.064391939913531e-05
4.783736309554679e-07,7.758891504099433e-07,7.186400065370499e-07,3.991502226617886e-05
4.7640548986272e-07,7.696112417534601e-07,7.294562794299811e-07,3.9209330022534945e-05
4.7414440515912284e-07,7.631776086852056e-07,7.40459508206718e-07,3.85278212957549e-05
4.7160599653181753e-07,7.566198290698728e-07,7.516109212262663e-07,3.787093242135801e-05
4.688115082634267e-07,7.49977788149778e-07,7.628626094453079e-07,3.7238679741437655e-05
4.6578726941153486e-07,7.432949241645236e-07,7.74159908146897e-07,3.663081497919234e-05
4.625624130683897e-07,7.36612747252951e-07,7.854451878983846e-07,3.604693991009216e-05
4.591673202894395e-07,7.299681988593256e-07,7.966628591245393e-07,3.5486556193881396e-05
4.556323742254197e-07,7.233947150053735e-07,8.077614356369204e-07,3.4949128312029384e-05
4.5198560251158344e-07,7.169264250945898e-07,8.186917469043294e-07,3.443418157782661e-05
4.4825054513588153e-07,7.106044666591672e-07,8.294060323286796e-07,3.394131291143945e-05
4.4444637750097544e-07,7.044799971288123e-07,8.39859634018525e-07,3.347010367997492e-05
4.4058975841122473e-07,6.986089902089214e-07,8.50013503496007e-07,3.302011610003029e-05
4.3669635857151606e-07,6.93042816427172e-07,8.598393452903569e-07,3.25910157224495e-05
4.327814190619502e-07,6.878218394882171e-07,8.693266839655823e-07,3.218268520937937e-05
4.2886113775651275e-07,6.829738099860838e-07,8.784838134450369e-07,3.179526287458708e-05
4.2495546055208714e-07,6.785141795215726e-07,8.87328623164727e-07,3.1429105375944014e-05
4.210890791387962e-07,6.744465772970343e-07,8.958775817399553e-07,3.1084664449519266e-05
4.1728942479051687e-07,6.707646117933397e-07,9.041423103418156e-07,3.076229795506184e-05
4.135854719153254e-07,6.674552670135994e-07,9.121319742833059e-07,3.046213418194521e-05
4.100087382044709e-07,6.645025630569418e-07,9.198553389800709e-07,3.0184117413160504e-05
4.0659378263704257e-07,6.618902001994306e-07,9.273198399368157e-07,2.9928185319425203e-05
4.0337831113511855e-07,6.596020850271057e-07,9.345276528939672e-07,2.9694436621727333e-05
4.004041186086753e-07,6.576231027563045e-07,9.414715639270105e-07,2.948320858155669e-05
3.977166106008778e-07,6.559422801985463e-07,9.481341252450281e-07,2.9295048187997863e-05
3.953608373715972e-07,6.54553821458958e-07,9.544908864026607e-07,2.9130619731092413e-05
3.933758055580983e-07,6.534553425376622e-07,9.605157263050562e-07,2.899061191301513e-05
3.9179031607082405e-07,6.526500701174325e-07,9.661865594042367e-07,2.887575182521073e-05
3.906217724707069e-07,6.521521501252825e-07,9.714928279215236e-07,2.8786955733215058e-05
3.898778146868118e-07,6.519872801480874e-07,9.764430647003531e-07,2.8725425461821942e-05
3.895593722205458e-07,6.521879976951043e-07,9.810636020362891e-07,2.8692561147491926e-05
3.896625667091314e-07,6.527882519968211e-07,9.853875377161104e-07,2.8689742018908007e-05
3.9017820735557387e-07,6.53819015434894e-07,9.894492830298596e-07,2.8718053661781885e-05
3.910903317344503e-07,6.553050354495889e-07,9.932947975333552e-07,2.8778056304370093e-05
3.923765123467721e-07,6.572624690561479e-07,9.969967120146328e-07,2.886965661194118e-05
3.9401086294882727e-07,6.596978643505199e-07,1.0006574409339538e-06,2.8992113845437292e-05
3.95966976358976e-07,6.626119607606806e-07,1.0043969080422113e-06,2.914419396030505e-05
3.982184066658874e-07,6.660076929594804e-07,1.0083358434864451e-06,2.9324343481419172e-05
4.007394356635332e-07,6.698932763165629e-07,1.012583612917832e-06,2.9530742155310054e-05
4.035083126028017e-07,6.742756066356118e-07,1.0172299915331872e-06,2.976135866859303e-05
4.0650915591015396e-07,6.791518138000247e-07,1.022341763859276e-06,3.0014150489175006e-05
4.0972998247590095e-07,6.845080064371722e-07,1.0279655845438278e-06,3.0287252611729857e-05
4.131595401534581e-07,6.903251309445883e-07,1.0341307800554004e-06,3.0578963975488264e-05
4.167846580930728e-07,6.965856348871851e-07,1.0408481422252032e-06,3.088755955507331e-05
4.2058796379619726e-07,7.032754098193388e-07,1.0481087190243051e-06,3.121115688607252e-05
4.245473157067632e-07,7.103812751156847e-07,1.0558854285882578e-06,3.154787221903167e-05
4.2863758476260184e-07,7.17887541985137e-07,1.0641378815258988e-06,3.1896176052868065e-05
4.328327846816842e-07,7.257723009138645e-07,1.0728199216246394e-06,3.2255096736113195e-05
4.371071175620693e-07,7.340033550020845e-07,1.081886622487081e-06,3.2624116295071776e-05
4.414358168611105e-07,7.425363031484356e-07,1.091297773079618e-06,3.300290302744251e-05
4.457969875214713e-07,7.513160404879263e-07,1.101018095817729e-06,3.339104553030106e-05
4.5017396508376266e-07,7.602808049552355e-07,1.1110161474366837e-06,3.3787838742320694e-05
4.545559445407328e-07,7.693678313922837e-07,1.1212625469039322e-06,3.4192133533178026e-05
4.5893539113219565e-07,7.785173761230715e-07,1.1317269709852093e-06,3.46022976302841e-05
4.6330422341393737e-07,7.87671745631646e-07,1.142374688207458e-06,3.5016312909754e-05
4.67651580474298e-07,7.967719687372327e-07,1.153163313022176e-06,3.5431917964000915e-05
4.7196302343183757e-07,8.057570076522983e-07,1.16403984186965e-06,3.5846709673987045e-05
4.7622011969277784e-07,8.145651629559299e-07,1.1749397143937196e-06,3.625823960404492e-05
4.804004397382947e-07,8.231357461712462e-07,1.1857895063842078e-06,3.666413677252943e-05
4.844780938777732e-07,8.314143365320293e-07,1.1965127905611457e-06,3.706218894403816e-05
4.88424604974163e-07,8.393628152477662e-07,1.2070373856466042e-06,3.745029286400154e-05
4.922097058541733e-07,8.469657593883488e-07,1.2173009586104065e-06,3.782631671176593e-05
4.958021591491352e-07,8.542262405862112e-07,1.227252973082358e-06,3.8188046291506985e-05
4.991706969274704e-07,8.611553089661345e-07,1.2368526430300688e-06,3.853325051333389e-05
5.022843704792051e-07,8.677638275425991e-07,1.2460626310329666e-06,3.885973123868554e-05
5.051122544653032e-07,8.740594485431806e-07,1.2548419639114863e-06,3.916529922318526e-05
5.076235910525343e-07,8.800455096215971e-07,1.2631441675337117e-06,3.944772861957953e-05
5.097892375458789e-07,8.857199973272877e-07,1.270920872322618e-06,3.9704739472003695e-05
5.115838133133253e-07,8.910751059160581e-07,1.278125219898475e-06,3.993402539500741e-05
5.129868022573884e-07,8.9609719287294e-07,1.28471129882867e-06,4.0133315999379655e-05
5.139821189875142e-07,9.007674808649723e-07,1.290632531218407e-06,4.0300444545168015e-05
5.145573531424139e-07,9.050634510157595e-07,1.2958431047686708e-06,4.043343255384021e-05
5.14703405659166e-07,9.089599722611744e-07,1.3003003988610008e-06,4.05306519299434e-05
5.144141785465088e-07,9.12431645717892e-07,1.3039646276305868e-06,4.059103381019831e-05
5.136858865078752e-07,9.154573820906601e-07,1.306796900031766e-06,4.061419294048778e-05
5.125159797199615e-07,9.180247207067148e-07,1.3087589597069351e-06,4.0600419601034966e-05
5.109022034934105e-07,9.201316150812308e-07,1.3098145433526887e-06,4.0550633751864474e-05
5.08842387615745e-07,9.217845540140293e-07,1.3099303106256956e-06,4.046640697741956e-05
5.0633522027968e-07,9.229940208170372e-07,1.309077207764122e-06,4.0349991109110495e-05
5.033815053108036e-07,9.237719202279148e-07,1.30723351662479e-06,4.0204193617894046e-05
4.999850281963804e-07,9.24131976190492e-07,1.3043866952806594e-06,4.003210210262319e-05
4.961537641858541e-07,9.240882437322081e-07,1.3005315886084453e-06,3.983678470169924e-05
4.919018359295025e-07,9.236509924918995e-07,1.2956664261911843e-06,3.962105635137399e-05
4.872494857570893e-07,9.22824618766382e-07,1.2897893775777707e-06,3.938738569270158e-05
4.822199559546137e-07,9.216103640513798e-07,1.2828977311484823e-06,3.9137941227137417e-05
4.7683687359527084e-07,9.20014346752932e-07,1.274989660848683e-06,3.887467536120975e-05
4.7112473313359575e-07,9.180576504448324e-07,1.266066736441873e-06,3.859939494318393e-05
4.651101164745828e-07,9.157797623499472e-07,1.2561354965402212e-06,3.831381207755699e-05
4.588210127010845e-07,9.132315675008827e-07,1.2452096963248744e-06,3.801954002618441e-05
4.52285616706874e-07,9.104642168359593e-07,1.2333158729291694e-06,3.771803637633854e-05
4.4553210953713463e-07,9.075208161547918e-07,1.2204991542930208e-06,3.741054662237068e-05
4.385886142473089e-07,9.044328553539364e-07,1.2068234559828162e-06,3.70980745436674e-05
4.314829194803107e-07,9.012199749129105e-07,1.1923647875390273e-06,3.6781372999601575e-05
4.2424186653610895e-07,8.978913171078323e-07,1.1772020860431014e-06,3.646097820585681e-05
4.168910830116878e-07,8.944488198956673e-07,1.1614126422569095e-06,3.613737607471672e-05
4.094571817153099e-07,8.908916933765002e-07,1.1450747621917043e-06,3.581132743375453e-05
4.019709366964425e-07,8.872182893842258e-07,1.1282720064897385e-06,3.548414131981177e-05
3.9446713219320433e-07,8.8342600300577e-07,1.1110924528010236e-06,3.515763782663826e-05
3.869822566561476e-07,8.795136564671681e-07,1.0936235973098308e-06,3.4833841734522005e-05
3.795542185557742e-07,8.754847336016955e-07,1.0759482611124894e-06,3.451469054446292e-05
3.722230177978155e-07,8.713478394857158e-07,1.0581449119416716e-06,3.4201941482742875e-05
3.6502915448455746e-07,8.671158552828751e-07,1.040292963335527e-06,3.3897205787049576e-05
3.580103301238296e-07,8.628059937778105e-07,1.0224812515024636e-06,3.3601960667582693e-05
3.511990434192841e-07,8.58441890015275e-07,1.004812387859933e-06,3.331753047165805e-05
3.446225793999674e-07,8.540569671843582e-07,9.873968553806149e-07,3.3045124533349425e-05
3.383045329738281e-07,8.496936984537876e-07,9.703436501614002e-07,3.278591617221611e-05
3.3226555063106014e-07,8.453962909208681e-07,9.537589747568668e-07,3.2541040215915036e-05
3.265232477454719e-07,8.412031783653514e-07,9.377540062617092e-07,3.231148406356618e-05
3.210933066299559e-07,8.371440925928346e-07,9.224534605610387e-07,3.20979642911401e-05
3.159912133535087e-07,8.332392112788096e-07,9.079951791501079e-07,3.1900888982578424e-05
3.112320845195791e-07,8.294986408874988e-07,8.945177819034117e-07,3.172048930273627e-05
3.068284659623487e-07,8.259230594596729e-07,8.821445504801529e-07,3.1557042444423806e-05
3.027884686558246e-07,8.22505834779864e-07,8.70973587909412e-07,3.1410969812136575e-05
2.9911557300027537e-07,8.192377624658014e-07,8.610763766733721e-07,3.128278907695168e-05
2.9580907079903266e-07,8.161150070833852e-07,8.525000616931692e-07,3.11730696655648e-05
2.92864215106768e-07,8.131458593480714e-07,8.452692208523742e-07,3.108243514461182e-05
2.90273035092041e-07,8.103517169576701e-07,8.393874987779652e-07,3.1011577789506925e-05
2.880259773481537e-07,8.077646062677422e-07,8.348399952306253e-07,3.0961266215261767e-05
2.8611280764013724e-07,8.054236670076287e-07,8.315962561329741e-07,3.093229158493948e-05
2.845225297513201e-07,8.033693841393829e-07,8.296149127935501e-07,3.092532363054674e-05
2.8324317481480844e-07,8.016384534824998e-07,8.288488128460473e-07,3.094081439152624e-05
2.822615660771061e-07,8.00262118337667e-07,8.292469168689179e-07,3.097909875840748e-05
2.815628166466176e-07,7.992650047191889e-07,8.307520600287068e-07,3.1040554117978635e-05
2.811299039767658e-07,7.986659030601076e-07,8.332984560732682e-07,3.112555149933479e-05
2.809440401569564e-07,7.984851216921795e-07,8.368150213412885e-07,3.123421077598175e-05
2.8098603949210746e-07,7.987528726379354e-07,8.412351547649451e-07,3.1366239801781064e-05
2.812383690811057e-07,7.995093612810537e-07,8.465060883102798e-07,3.1521081917321056e-05
2.816863843414975e-07,8.007964124654583e-07,8.525929540865401e-07,3.169831178201191e-05
2.8231765026952647e-07,8.026470439832249e-07,8.594762002162333e-07,3.18980048437546e-05
2.831210396136468e-07,8.050786721598104e-07,8.671411498914467e-07,3.212090229631897e-05
2.8408626800281285e-07,8.080924033327985e-07,8.755644597227413e-07,3.236836598099978e-05
2.852024831040065e-07,8.116787136644575e-07,8.847061560398409e-07,3.2642162550222526e-05
2.864566779153215e-07,8.158268199261305e-07,8.945102606977543e-07,3.294415218861407e-05
2.878333778190407e-07,8.205304435995741e-07,9.049112183207031e-07,3.3275995469453914e-05
2.893153802536879e-07,8.257862206200494e-07,9.158410419460699e-07,3.36389630561901e-05
2.908847658264977e-07,8.315905931782047e-07,9.272319892185185e-07,3.4033828203586526e-05
2.925233605003614e-07,8.379393560589945e-07,9.390132871085249e-07,3.446078319520519e-05
2.942127449037844e-07,8.448254918363655e-07,9.511064432661169e-07,3.4919393774349827e-05
2.95934651088972e-07,8.522337458970101e-07,9.634245474405577e-07,3.5408595890962696e-05
2.976719894184236e-07,8.601372532336887e-07,9.758745128718905e-07,3.592668006185658e-05
2.994099757199174e-07,8.684987699052297e-07,9.883588575678258e-07,3.647125548876107e-05
3.0113655270504825e-07,8.772769323043562e-07,1.0007770420136677e-06,3.703924980283405e-05
3.028420844250794e-07,8.864376980453782e-07,1.0130267229393443e-06,3.76269890070759e-05
3.045185942465549e-07,8.959632473044249e-07,1.0250047859551423e-06,3.8230348874151456e-05
3.061585759142712e-07,9.058499521202499e-07,1.0366099301921894e-06,3.884490485896884e-05
3.077543567385343e-07,9.160984905222009e-07,1.047749002096748e-06,3.946600042901672e-05
3.092984624109271e-07,9.267043240486542e-07,1.058344281902884e-06,4.008875276649331e-05
3.107840622444745e-07,9.376539044857224e-07,1.068334180412079e-06,4.0708086542566276e-05
3.1220563727585165e-07,9.489273351402764e-07,1.0776662858772801e-06,4.1318839416561935e-05
3.135596744880749e-07,9.605019031671041e-07,1.0862916742309691e-06,4.1915915707760074e-05
3.148447552964665e-07,9.7234998008383e-07,1.0941662968432615e-06,4.249442767099613e-05
3.160623347824818e-07,9.844332721304001e-07,1.1012552446032768e-06,4.304978737536206e-05
3.172172104253288e-07,9.967007034278417e-07,1.1075346392970851e-06,4.357777176446256e-05
3.1831550774469624e-07,1.0090912183681998e-06,1.112990964729232e-06,4.40745654681419e-05
3.193624176092459e-07,1.0215383260163759e-06,1.117618176147469e-06,4.45367564519838e-05
3.203613451703708e-07,1.0339748686454085e-06,1.1214127359629256e-06,4.496131402593786e-05
3.213134460620768e-07,1.0463351141942153e-06,1.1243703567625724e-06,4.534562323513855e-05
3.222177510892857e-07,1.058552129558603e-06,1.1264873259562388e-06,4.568758135682498e-05
3.230717499131248e-07,1.0705543032525318e-06,1.1277643931366808e-06,4.598567613557564e-05
3.238719536265126e-07,1.0822646479885116e-06,1.1282095777633772e-06,4.623903921838859e-05
3.246149434708053e-07,1.0936020490502086e-06,1.1278367981911854e-06,4.644755632240684e-05
3.2529804778542146e-07,1.1044827082234531e-06,1.126661494513208e-06,4.661196928351256e-05
3.259188120364223e-07,1.1148219063151862e-06,1.1246981525977292e-06,4.673378809112664e-05
3.264746366557816e-07,1.1245385461226485e-06,1.1219609747801054e-06,4.681501223713397e-05
3.269629234721794e-07,1.1335616677313109e-06,1.1184650774052862e-06,4.685781580558552e-05
3.273808250372849e-07,1.1418327026380992e-06,1.114226874096414e-06,4.686428936876641e-05
3.277250280658103e-07,1.1493022892122964e-06,1.109264491217723e-06,4.683626288085161e-05
3.279921515921241e-07,1.1559269587727308e-06,1.1035976496315085e-06,4.677522740211197e-05
3.2817957026170676e-07,1.1616675996731806e-06,1.097245810911429e-06,4.668237604910528e-05
3.282861059119066e-07,1.1664895784086166e-06,1.0902267511397311e-06,4.6558747562068845e-05
3.283120911680707e-07,1.1703644637764374e-06,1.0825573007585042e-06,4.640541135182526e-05
3.2825887746262785e-07,1.173270107202334e-06,1.0742560596577145e-06,4.6223652356351706e-05
3.281280704074337e-07,1.1751885992341104e-06,1.065348065256935e-06,4.601511521191139e-05
3.279213060614925e-07,1.1761057747375351e-06,1.0558678556147914e-06,4.578185132192123e-05
3.276414789470493e-07,1.1760122653003388e-06,1.0458570305927973e-06,4.552626535195589e-05
3.272941419266697e-07,1.1749047255150732e-06,1.0353595679459698e-06,4.525099130337237e-05
3.268870804136792e-07,1.17278931554973e-06,1.0244204135510537e-06,4.4958771524399664e-05
3.26429125127395e-07,1.169687788920985e-06,1.0130866342465392e-06,4.46524453046889e-05
3.259297007872288e-07,1.1656409561882057e-06,1.0014071775053836e-06,4.4334941761515776e-05
3.2539808031891067e-07,1.1607045325697617e-06,9.894313243087009e-07,4.400906098789226e-05
3.24842914326797e-07,1.1549398313996821e-06,9.772087493502837e-07,4.3677168827452915e-05
3.242740941823461e-07,1.1484058245413195e-06,9.647911929271628e-07,4.3341099734364834e-05
3.23704317346134e-07,1.141156078134408e-06,9.522336672872812e-07,4.300226393785773e-05
3.231466563854276e-07,1.1332408376444456e-06,9.395951363424637e-07,4.2661785313581786e-05
3.22611187730008e-07,1.1247110520943648e-06,9.269378238811249e-07,4.232060565778924e-05
3.221051319431097e-07,1.1156206123530772e-06,9.143232197039228e-07,4.197953593648363e-05
3.216350444995931e-07,1.1060277675035824e-06,9.018074281647693e-07,4.1639216553239945e-05
3.212076328119592e-07,1.0959961232793174e-06,8.894418037886598e-07,4.130001607389913e-05
3.208301311730699e-07,1.0855923935214643e-06,8.772813634726971e-07,4.0961965630949106e-05
3.2051294102258765e-07,1.0748813062304152e-06,8.653955345499798e-07,4.062476999642279e-05
3.2027196134586977e-07,1.0639216998919724e-06,8.538712687827721e-07,4.028785390217215e-05
3.201268212234332e-07,1.0527668393413869e-06,8.428044114390185e-07,3.9950420513579696e-05
3.200971095127921e-07,1.0414682088299343e-06,8.322856023331174e-07,3.961155069187117e-05
3.202000680075305e-07,1.030078358605033e-06,8.223899397495527e-07,3.927037449300625e-05
3.2045068549624943e-07,1.0186499926464523e-06,8.131732736913303e-07,3.892624565860004e-05
3.2086327157027624e-07,1.00723376059859e-06,8.046726485238259e-07,3.8578752855111344e-05
3.214519308266655e-07,9.95877932599164e-07,7.969090436319781e-07,3.822755434107806e-05
3.222294426434037e-07,9.846308581286706e-07,7.898906245921853e-07,3.787223839599462e-05
3.232060594025194e-07,9.73544544516083e-07,7.836147020933319e-07,3.751234126974929e-05
3.243883484576195e-07,9.62673914299365e-07,7.78069455354501e-07,3.714744847454263e-05
3.257790513064889e-07,9.520695534328613e-07,7.732357180864554e-07,3.677724730922945e-05
3.2737839813609784e-07,9.417711922071949e-07,7.690880274598494e-07,3.6401481012059244e-05
3.291841584587452e-07,9.318099390351028e-07,7.655974062529638e-07,3.601989225814055e-05
3.3119014541996623e-07,9.2221725389546e-07,7.627353743137081e-07,3.563233401659577e-05
3.3338662539589625e-07,9.130303188737742e-07,7.604740351847778e-07,3.523904953234592e-05
3.357637510329715e-07,9.042875095496357e-07,7.587826136365641e-07,3.484085750213119e-05
3.383153308551808e-07,8.960191519944817e-07,7.57625625497145e-07,3.4439091313905154e-05
3.410394867986584e-07,8.882426525460249e-07,7.5696371905546e-07,3.403541287599429e-05
3.4393521971613477e-07,8.809647446037828e-07,7.56753849098558e-07,3.3631614501791523e-05
3.469981708610476e-07,8.74186520931992e-07,7.569479887631724e-07,3.322943250720985e-05
3.502199338251819e-07,8.67906608347615e-07,7.57493232475196e-07,3.283044544576576e-05
3.5359070654014296e-07,8.621216559555367e-07,7.583332129056177e-07,3.243608996401642e-05
3.5710108794081687e-07,8.568244560576013e-07,7.594084898805552e-07,3.204768272555633e-05
3.6074122323521975e-07,8.520019250844624e-07,7.606571165744156e-07,3.1666389482396636e-05
3.6449973554262684e-07,8.476374056862763e-07,7.620170807995751e-07,3.129320525821775e-05
3.6836404958779065e-07,8.43717196972093e-07,7.63428624353598e-07,3.092897746089582e-05
3.7232042852366817e-07,8.402357106004299e-07,7.648344596485812e-07,3.0574459009322104e-05
3.763524814294353e-07,8.371938038261401e-07,7.6617854976853e-07,3.0230384801174798e-05
3.804395759889889e-07,8.345908175480079e-07,7.674054478636825e-07,2.989755340931353e-05
3.845569325076522e-07,8.324180109477536e-07,7.684630562784799e-07,2.9576886137785253e-05
3.886775292747646e-07,8.306579276746045e-07,7.693101085392323e-07,2.9269445497264283e-05
3.92774237416429e-07,8.292865487486409e-07,7.699253786817559e-07,2.8976403125577687e-05
3.9682054160899454e-07,8.282763661648056e-07,7.703127722641081e-07,2.8698973069064563e-05
4.007907880440306e-07,8.275997971064671e-07,7.704978604018124e-07,2.8438346177201208e-05
4.046614930551504e-07,8.272294670439735e-07,7.705171785246836e-07,2.819562920754803e-05
4.0841203059191705e-07,8.271352713728062e-07,7.704070432767774e-07,2.7971774054078088e-05
4.120231514270181e-07,8.272828696898905e-07,7.70197876806678e-07,2.77674879563245e-05
4.154749836602653e-07,8.276357979682564e-07,7.699141004553838e-07,2.7583134125119567e-05
4.187461572427132e-07,8.281588052421363e-07,7.695766385284596e-07,2.7418705002481948e-05
4.2181417555167287e-07,8.288182134916077e-07,7.692066798395882e-07,2.727393047995509e-05
4.2465618702795477e-07,8.295784265709746e-07,7.68829552479632e-07,2.7148448509811788e-05
4.2724931344009155e-07,8.303993692740814e-07,7.684774485746338e-07,2.7041954058099498e-05
4.295712496804925e-07,8.312385959431569e-07,7.681908419570886e-07,2.6954319838175313e-05
4.3160207399662106e-07,8.320554705225199e-07,7.680182389684152e-07,2.6885691237383214e-05
4.333260030898897e-07,8.328129421433381e-07,7.680139721782636e-07,2.683654639050302e-05
4.3473105800672724e-07,8.334770336526377e-07,7.682349267441296e-07,2.6807708054558747e-05
4.35807199309614e-07,8.340163071261002e-07,7.687375855906505e-07,2.680026827081434e-05
4.365453824295803e-07,8.344017759330571e-07,7.69574618927868e-07,2.681540767510562e-05
4.3693888894979746e-07,8.346093890195961e-07,7.707894270995984e-07,2.6854193254691188e-05
4.369853557816625e-07,8.346251582595693e-07,7.724119910108731e-07,2.691745881989791e-05
4.366861913586992e-07,8.344458597855273e-07,7.744604927100637e-07,2.7005750217914995e-05
4.360436816545043e-07,8.340728185269032e-07,7.769467423580506e-07,2.71192493531578e-05
4.3505939940137617e-07,8.335069338705147e-07,7.798798078476215e-07,2.725766451614691e-05
4.337345952108021e-07,8.327490913854676e-07,7.832643150183984e-07,2.7420160641888966e-05
4.3207112450567367e-07,8.318010564069273e-07,7.870949726734218e-07,2.7605392192703837e-05
4.3007296180972224e-07,8.306647321699402e-07,7.913531425066419e-07,2.7811647855315142e-05
4.277478904179708e-07,8.293414289858687e-07,7.960087452669293e-07,2.8037064190945043e-05
4.2510800623235786e-07,8.278315398142414e-07,8.010244493055095e-07,2.8279819080747456e-05
4.221696374572514e-07,8.261372741951988e-07,8.063585123681207e-07,2.8538274171017327e-05
4.18953304934533e-07,8.242694033324005e-07,8.119667463411885e-07,2.881109186449644e-05
4.1548239725365966e-07,8.222509828941469e-07,8.178047414135644e-07,2.909730067336676e-05
4.1178123825037345e-07,8.201142099426239e-07,8.238297371674046e-07,2.9396315399356983e-05
4.0787480770447887e-07,8.178957860595399e-07,8.300013594861598e-07,2.9707993130773242e-05
4.037900112061575e-07,8.156354771365682e-07,8.362807448646465e-07,3.003272998804069e-05
3.995570978847453e-07,8.133793888553436e-07,8.426289819367423e-07,3.0371510826118328e-05
3.9521030630632576e-07,8.111841863681996e-07,8.490078394879709e-07,3.0725854922884366e-05
3.9078762269882026e-07,8.091129652261372e-07,8.553838582609037e-07,3.109766197994985e-05
3.86330359025543e-07,8.072232522090504e-07,8.617332933258018e-07,3.148897160611368e-05
3.818823888900033e-07,8.055579993928024e-07,8.680447261038333e-07,3.1901627077129716e-05
3.77487763585827e-07,8.041439950364886e-07,8.743162846065517e-07,3.233690069944867e-05
3.73187526440436e-07,8.029938120080666e-07,8.805476281341022e-07,3.2795272896387244e-05
3.690182771246418e-07,8.021075955430241e-07,8.867334124716299e-07,3.327648400383705e-05
3.6501237468733594e-07,8.014742586971681e-07,8.92862437949761e-07,3.377976654669065e-05
3.6119778985945247e-07,8.010736810221273e-07,8.9891821788502e-07,3.4304092164688955e-05
3.5759787486109315e-07,8.008825550992298e-07,9.048780257267428e-07,3.484829019711862e-05
3.5423252373440494e-07,8.008847121684152e-07,9.107124537710391e-07,3.541098142787186e-05
3.511191590552607e-07,8.010810776991444e-07,9.163864138044836e-07,3.599039593008175e-05
3.482713701417559e-07,8.01492237218094e-07,9.218602752508881e-07,3.6584215078421416e-05
3.456975676004559e-07,8.021512496220472e-07,9.270903239200474e-07,3.7189571429297366e-05
3.434024984390251e-07,8.030927070367459e-07,9.32029541605131e-07,3.780325090845415e-05
3.4139015338390497e-07,8.043484517511345e-07,9.366300520482014e-07,3.8422040951612e-05
3.3966545082071837e-07,8.05951317938727e-07,9.40846193280508e-07,3.904313977382774e-05
3.382340340218045e-07,8.079370676795754e-07,9.446354152687307e-07,3.966453418739289e-05
3.371015364049818e-07,8.10338999261717e-07,9.479571837710163e-07,4.028520056878005e-05
3.362742174769477e-07,8.131806716653842e-07,9.507734928499242e-07,4.090499197582261e-05
3.35760154381472e-07,8.16472944421392e-07,9.530525008477141e-07,4.152421877694336e-05
3.3556820077407516e-07,8.202148822379716e-07,9.547726459216006e-07,4.214309713601764e-05
3.3570493663483873e-07,8.243950329788514e-07,9.55923439660001e-07,4.276132960200879e-05
3.361721944071195e-07,8.289915671506946e-07,9.56501894741782e-07,4.337801835732806e-05
3.3696577635705944e-07,8.339736200966213e-07,9.56507726619858e-07,4.3991849518890834e-05
3.3807483979711326e-07,8.393070169775841e-07,9.559406590080723e-07,4.4601257938667464e-05
3.394822159916832e-07,8.449621138964932e-07,9.547992862910368e-07,4.5204436702039584e-05
3.411654175924618e-07,8.509177169409429e-07,9.530800239664664e-07,4.5799403635250535e-05
3.4309778014363126e-07,8.571593809530155e-07,9.507769301289758e-07,4.638425324876856e-05
3.452500323160653e-07,8.636752846457508e-07,9.478827625028618e-07,4.695735536994583e-05
3.475920012192357e-07,8.70453119589863e-07,9.443898668565287e-07,4.751730566844644e-05
3.500935641384969e-07,8.774794389888105e-07,9.402907481237936e-07,4.806270583513612e-05
3.5272529411179007e-07,8.847391076026069e-07,9.355806584492451e-07,4.8591969854079e-05
3.5545923716004965e-07,8.922128942671137e-07,9.302634925626404e-07,4.910342265601192e-05
3.582688137627184e-07,8.998761508859413e-07,9.243594433292305e-07,4.95957537657476e-05
3.611276786707594e-07,9.076998913784672e-07,9.179118107904093e-07,5e-06
3.640087926685728e-07,9.156512366970371e-07,9.109886285007542e-07,5e-06
3.6688431023358737e-07,9.236919685383099e-07,9.036757282334319e-07,5e-06
3.697262583497954e-07,9.317781755506341e-07,8.960649346449812e-07,5e-06
3.725074269658239e-07,9.398635745624542e-07,8.882441640792248e-07,5e-06
3.752012443505886e-07,9.47903216958137e-07,8.802922207232931e-07,5e-06
3.777811275030321e-07,9.558533751972985e-07,8.722792099276367e-07,5e-06
3.8022088095543063e-07,9.63669817482315e-07,8.64272746515741e-07,5e-06
3.8249589635179997e-07,9.713076768658725e-07,8.563452296620778e-07,5e-06
3.845840066942032e-07,9.787215697521977e-07,8.485762275515079e-07,5e-06
3.864652907917193e-07,9.85865628600262e-07,8.41049713454313e-07,5e-06
3.881213134294868e-07,9.926967457108641e-07,8.33847600702938e-07,5e-06
3.895355218543621e-07,9.991799824821736e-07,8.270406973987652e-07,5e-06
3.906946181139498e-07,1.0052891141993442e-06,8.20681792900892e-07,5e-06
3.915891931037602e-07,1.011001042158963e-06,8.148049745231314e-07,5e-06
3.922134902597714e-07,1.016290706548374e-06,8.094317290751591e-07,5e-06
3.925647007244741e-07,1.0211299086672571e-06,8.045827637092538e-07,5e-06
3.9264254565500933e-07,1.0254887989716558e-06,8.002899314267553e-07,5e-06
3.924498254835978e-07,1.0293394348243769e-06,7.96599145373281e-07,5e-06
3.919920879450493e-07,1.0326618558857365e-06,7.93561534908082e-07,5e-06
3.912758769807388e-07,1.0354522079164651e-06,7.912220787124341e-07,5e-06
3.903083124068397e-07,1.0377276120949522e-06,7.896168583326925e-07,5e-06
3.8909777298578327e-07,1.03952077111554e-06,7.887773900621966e-07,5e-06
3.876534307782662e-07,1.0408670865776764e-06,7.887329968212697e-07,5e-06
3.859845959280004e-07,1.041796246794933e-06,7.895092287154891e-07,5e-06
3.8410102190608285e-07,1.0423341644444505e-06,7.911253827702237e-07,5e-06
3.820134755511254e-07,1.0425086027039943e-06,7.935934014653216e-07,5e-06
3.7973414476829406e-07,1.0423514599772922e-06,7.969208421600407e-07,5e-06
3.772762373611705e-07,1.0418982237500125e-06,8.011168847385818e-07,5e-06
3.746522850604779e-07,1.0411853050429486e-06,8.061943032451981e-07,5e-06
3.718726487662385e-07,1.040245151564272e-06,8.121632639461147e-07,5e-06
3.6894589377203703e-07,1.039102467558137e-06,8.190219863616074e-07,5e-06
3.658805287536786e-07,1.0377731947037798e-06,8.267511516854478e-07,5e-06
3.6268625268193996e-07,1.0362651407809029e-06,8.353132968421551e-07,5e-06
3.5937362259329145e-07,1.0345811086028343e-06,8.446562892849369e-07,5e-06
3.5595294608633045e-07,1.0327248201874909e-06,8.547192775112688e-07,5e-06
3.5243384505412896e-07,1.030707405036303e-06,8.654363005762712e-07,5e-06
3.488258506344902e-07,1.0285508716350746e-06,8.767354206384094e-07,4.9997229663262735e-05
3.4513908149882997e-07,1.0262841466301454e-06,8.885370061702486e-07,4.940992836565858e-05
3.413844664699357e-07,1.0239332364308149e-06,9.007534949731104e-07,4.880835033428011e-05
3.375739797942493e-07,1.0215138258747866e-06,9.132906351986908e-07,4.8197145836456436e-05
3.337203038710952e-07,1.0190303909637344e-06,9.260506293092972e-07,4.758080904077513e-05
3.298363741154623e-07,1.016479900323226e-06,9.389351503948488e-07,4.696347892029953e-05
3.259372235516222e-07,1.0138564239303725e-06,9.518463330043638e-07,4.634873144106352e-05
3.2204234683497763e-07,1.01115254306304e-06,9.646900931740822e-07,4.5739441824283645e-05
3.181744068604323e-07,1.0083583169492609e-06,9.773846745901016e-07,4.513778084642456e-05
3.1435555028129966e-07,1.0054631322233806e-06,9.898669855922548e-07,4.4545294031386425e-05
3.106049920613786e-07,1.002461011662244e-06,1.0020900711239357e-06,4.3963004953177306e-05
3.0693858927702407e-07,9.993539295579143e-07,1.0140157492840671e-06,4.3391535800142276e-05
3.033702088036991e-07,9.961506873024431e-07,1.025608960885758e-06,4.2831224509676004e-05
2.9991445371543965e-07,9.928642380968977e-07,1.0368360110191144e-06,4.22822681640899e-05
2.9658863563800047e-07,9.895086755342394e-07,1.0476654122870633e-06,4.174504088127434e-05
2.934122874587413e-07,9.86095259814579e-07,1.0580681656937383e-06,4.122064501310196e-05
2.9040478609066874e-07,9.82630030906694e-07,1.068015629063507e-06,4.071144915457905e-05
2.875825447027863e-07,9.791158829596643e-07,1.0774771513051297e-06,4.022125662442869e-05
2.8495721666990104e-07,9.755575941191885e-07,1.0864200136785123e-06,3.9755031982214126e-05
2.8253572330625173e-07,9.719655411391891e-07,1.0948118035420444e-06,3.9318397264808145e-05
2.803209924158378e-07,9.68354807212657e-07,1.1026252201898369e-06,3.8917108703126836e-05
2.783122553397916e-07,9.64739622214201e-07,1.1098414501109795e-06,3.8556615972206735e-05
2.765057327824777e-07,9.611269242282729e-07,1.1164464924803823e-06,3.824174295147357e-05
2.74895725109192e-07,9.575138487942774e-07,1.1224242636412514e-06,3.797650468595665e-05
2.7347533317050127e-07,9.538898812207462e-07,1.1277549040806391e-06,3.7764029289405014e-05
2.7223775099028697e-07,9.502402894113422e-07,1.1324185898633817e-06,3.760648996754436e-05
2.7117789213289005e-07,9.465499575624895e-07,1.1363984666420306e-06,3.750502065082597e-05
2.7029303238673603e-07,9.428100792368305e-07,1.1396799559197485e-06,3.7459786878173793e-05
2.695831412297033e-07,9.390260899576744e-07,1.142249985111222e-06,3.7470359734017496e-05
2.690514955210202e-07,9.352209648102188e-07,1.144098029621784e-06,3.753624286700524e-05
2.6870473844615803e-07,9.3143140427946e-07,1.1452167481161378e-06,3.7657300852153535e-05
2.685512059764729e-07,9.276995641485487e-07,1.1456017251595174e-06,3.783402635765061e-05
2.6859748350301754e-07,9.24064514704477e-07,1.145251286822274e-06,3.806770151616133e-05
2.6884575306293373e-07,9.205596372779758e-07,1.1441657901969923e-06,3.836044143624247e-05
2.6929420337738753e-07,9.172200973344768e-07,1.1423475432993387e-06,3.871505595761393e-05
2.699384999659532e-07,9.140929754747358e-07,1.1398060687549434e-06,3.913475197636843e-05
2.707714222982161e-07,9.112393939170792e-07,1.1365713817103677e-06,3.962277440893531e-05
2.7178223227094505e-07,9.087292326149507e-07,1.1327068162338016e-06,4.018204225521444e-05
2.729594894399187e-07,9.066337188580164e-07,1.1283058000780278e-06,4.081481473680937e-05
2.7429706997469486e-07,9.050168419811621e-07,1.1234745175564656e-06,4.1522443778332705e-05
2.757974755102143e-07,9.039269182944469e-07,1.1183219366350984e-06,4.230521384781176e-05
2.774682128661096e-07,9.033917235292414e-07,1.1129647154621609e-06,4.3162202678296913e-05
2.79315372493371e-07,9.03418585922858e-07,1.1075342331513978e-06,4.40911515384816e-05
2.8133989278264376e-07,9.039986911411119e-07,1.1021765529521185e-06,4.5088485847390306e-05
2.83536553135263e-07,9.051124440765242e-07,1.0970446364089326e-06,4.6149639889427694e-05
2.8589455723108413e-07,9.067311497489737e-07,1.0922857864920614e-06,4.726959563110681e-05
2.883998305456233e-07,9.088153679270287e-07,1.0880307566550643e-06,4.8443360084415746e-05
2.910375791536652e-07,9.113144057060971e-07,1.0843879676205393e-06,4.9666207279667465e-05
2.9379292841756704e-07,9.1416912924622e-07,1.08144031000378e-06,5e-06
2.966503510119986e-07,9.17319574189775e-07,1.0792430227163448e-06,5e-06
2.995934809632005e-07,9.207159222585592e-07,1.077824071773845e-06,5e-06
3.0260457849814024e-07,9.243255141048497e-07,1.077187229829e-06,5e-06
3.0566348075371466e-07,9.281312963233371e-07,1.0773159266138651e-06,5e-06
3.0874759208180926e-07,9.321243716841856e-07,1.0781760713567434e-06,5e-06
3.11833820610605e-07,9.362958998311266e-07,1.0797192218529897e-06,5e-06
3.1490266130733226e-07,9.406324056445877e-07,1.0818889382548179e-06,5e-06
3.179419248808499e-07,9.451153767053663e-07,1.0846295239318777e-06,5e-06
3.209454979076093e-07,9.497235779515516e-07,1.0878923737604954e-06,5e-06
3.239082884351802e-07,9.544359147436769e-07,1.0916357339629765e-06,5e-06
3.268231714548611e-07,9.592321411339164e-07,1.095820016116146e-06,5e-06
3.296816467263124e-07,9.640898433715026e-07,1.1004036170395657e-06,5e-06
3.324757391790542e-07,9.68980518971509e-07,1.1053392268463695e-06,5e-06
3.35198643033744e-07,9.73870256273249e-07,1.1105707055521915e-06,5e-06
3.378440697525576e-07,9.787267567257128e-07,1.116033219800317e-06,5e-06
3.4040592132169627e-07,9.83527736682162e-07,1.1216557635452844e-06,5e-06
3.4287787916214126e-07,9.8826488916562e-07,1.1273638322320145e-06,5e-06
3.452523519437128e-07,9.9294445693237e-07,1.1330813730850394e-06,5e-06
3.4752045007416766e-07,9.975876530467492e-07,1.1387321697036757e-06,5e-06
3.496728524439519e-07,1.0022288807864551e-06,1.1442436856518958e-06,5e-06
3.5170007627408326e-07,1.0069091234477353e-06,1.1495545477298878e-06,5e-06
3.535924616238582e-07,1.0116657110067212e-06,1.1546201048278756e-06,5e-06
3.553400588327125e-07,1.0165225685700217e-06,1.159409944577069e-06,5e-06
3.569322486872266e-07,1.0214856265721102e-06,1.1638999387717414e-06,5e-06
3.5835773645676033e-07,1.0265439341997091e-06,1.168068583813282e-06,5e-06
3.596051927212999e-07,1.0316734149689459e-06,1.1719023581182649e-06,5e-06
3.6066388937618605e-07,1.0368405655218592e-06,1.1754051123541963e-06,5e-06
3.615240603466847e-07,1.0420040915384648e-06,1.1786041240471505e-06,5e-06
3.621778105659919e-07,1.0471149470551183e-06,1.181548292357757e-06,5e-06
3.626202681099199e-07,1.0521172992936109e-06,1.1842984077159098e-06,5e-06
3.6284956919134026e-07,1.056950902475297e-06,1.1869139006791242e-06,5e-06
3.6286684834734616e-07,1.0615546464176122e-06,1.1894418619294396e-06,5e-06
3.626776593788968e-07,1.0658705078564362e-06,1.19191179059056e-06,5e-06
3.622922049396932e-07,1.0698452126182904e-06,1.1943353322203228e-06,5e-06
3.6172314984605825e-07,1.0734298026333114e-06,1.1967080956054362e-06,5e-06
3.609841412450637e-07,1.0765801618238985e-06,1.1990122409906014e-06,5e-06
3.600896584800796e-07,1.0792579956921123e-06,1.2012209696917671e-06,5e-06
3.5905429752199813e-07,1.0814296000696212e-06,1.2033041607295332e-06,5e-06
3.578916077706861e-07,1.0830638064094911e-06,1.2052314734564172e-06,5e-06
3.5661370491225057e-07,1.0841328080251646e-06,1.2069736250699564e-06,5e-06
3.552323150275278e-07,1.0846169433572202e-06,1.208506673766917e-06,5e-06
3.537596946806594e-07,1.0845105998444742e-06,1.209820493958763e-06,5e-06
3.5220795838742594e-07,1.0838247660345324e-06,1.2109285710352079e-06,5e-06
3.505889844787083e-07,1.0825849473743548e-06,1.2118742465453164e-06,5e-06
3.489168596841252e-07,1.080825258259346e-06,1.212728016326683e-06,5e-06
3.472108443642827e-07,1.0785797929247242e-06,1.213575065487696e-06,5e-06
3.454961214333701e-07,1.0758765305455292e-06,1.2144986508720096e-06,5e-06
3.4380284516627817e-07,1.0727399659433335e-06,1.2155669185668248e-06,5e-06
3.4216501284217856e-07,1.069200993275946e-06,1.2168288565178749e-06,5e-06
3.406190973319944e-07,1.0653061000606407e-06,1.2183186814109905e-06,5e-06
3.3920176075507307e-07,1.0611207394271941e-06,1.2200606244482328e-06,5e-06
3.379461712046848e-07,1.0567272988839616e-06,1.2220684197025308e-06,5e-06
3.3687854703701693e-07,1.0522188595539242e-06,1.2243417209355663e-06,5e-06
3.360178019224921e-07,1.0476893953752687e-06,1.2268647997986432e-06,5e-06
3.3537770205322147e-07,1.043222897712653e-06,1.229609802187975e-06,5e-06
3.3496789556606643e-07,1.038886326040711e-06,1.2325406832974084e-06,5e-06
3.347930677495698e-07,1.0347294996608305e-06,1.2356136820282114e-06,5e-06
3.34852746201872e-07,1.0307883194953557e-06,1.2387762379991819e-06,5e-06
3.351422881958875e-07,1.0270860665990087e-06,1.2419675855534263e-06,5e-06
3.356546381451059e-07,1.0236339219839107e-06,1.245121110316436e-06,5e-06
3.363833183936336e-07,1.0204341134290554e-06,1.2481672211820328e-06,4.997525576986637e-05
3.373242847425736e-07,1.0174848292467777e-06,1.2510351372826386e-06,4.8158638370740365e-05
3.3847412458840506e-07,1.0147838783428001e-06,1.2536530856490959e-06,4.635735739293607e-05
3.39827500596808e-07,1.01232980413187e-06,1.2559492815738278e-06,4.45761188595087e-05
3.413774877088827e-07,1.0101223222985393e-06,1.257855383815431e-06,4.281941350782264e-05
3.431172094073822e-07,1.0081649362057132e-06,1.2593100678037891e-06,4.1091436276684555e-05
3.4504005811584925e-07,1.0064695273442362e-06,1.2602595106315201e-06,3.939598652049564e-05
3.471390227388835e-07,1.0050579495501447e-06,1.2606547819144706e-06,3.773642334885744e-05
3.494056911853021e-07,1.003955804276886e-06,1.260449243613903e-06,3.6115698854171116e-05
3.5182893029752025e-07,1.0031825407280248e-06,1.2595984553862034e-06,3.453642763744704e-05
3.543949189685898e-07,1.0027465024688415e-06,1.2580615517879529e-06,3.30009498046102e-05
3.570884901085377e-07,1.0026466793019397e-06,1.2558030055509044e-06,3.151137957837489e-05
3.5989348559965636e-07,1.0028776162332899e-06,1.2527951307163148e-06,3.006962221095139e-05
3.627924297283613e-07,1.0034339995402583e-06,1.2490193513480677e-06,2.8677356536086377e-05
3.6576705234560657e-07,1.0043128595947832e-06,1.2444660423378124e-06,2.733610757482648e-05
3.68799366216151e-07,1.005513012148725e-06,1.2391369429999435e-06,2.6047480370580827e-05
3.71873220191294e-07,1.0070312228328208e-06,1.233049900878786e-06,2.4813300235703226e-05
3.749756654556786e-07,1.0088563187581071e-06,1.2262412924200662e-06,2.363543326574747e-05
3.780958010984393e-07,1.0109657753958445e-06,1.218763306499348e-06,2.2515500797110128e-05
3.8122167408464787e-07,1.0133263244339334e-06,1.210675745687739e-06,2.145473919522934e-05
3.8433875342123937e-07,1.0158970800076679e-06,1.2020376778302071e-06,2.0453948543261385e-05
3.8743161881792727e-07,1.0186345966604462e-06,1.1929067900082943e-06,1.951345530310771e-05
3.9048722207908935e-07,1.0214965685750885e-06,1.1833432769542006e-06,1.863311918086562e-05
3.934957514286633e-07,1.0244406466877786e-06,1.173407973605542e-06,1.7812394214803126e-05
3.964477601636074e-07,1.0274224026215789e-06,1.1631551167177678e-06,1.7050420242245314e-05
3.9933128907425253e-07,1.0303989911674416e-06,1.1526289321666807e-06,1.63461032285823e-05
4.0213157427192824e-07,1.0333366737358976e-06,1.1418676793639817e-06,1.5698182844955286e-05
4.0483216169200687e-07,1.0362158240311195e-06,1.1309118832161968e-06,1.5105347222670426e-05
4.074157318735653e-07,1.039032385322518e-06,1.119811873460955e-06,1.4566383543209802e-05
4.098643112414755e-07,1.04179706179452e-06,1.1086304049983378e-06,1.4080230539920508e-05
4.121597696747096e-07,1.0445311390941455e-06,1.0974383946723828e-06,1.3645865432281035e-05
4.1428458497498456e-07,1.047258985178666e-06,1.0863055429934132e-06,1.3262128426026249e-05
4.1622207368188244e-07,1.050001214849179e-06,1.0752908765435532e-06,1.2927602423421076e-05
4.179566348111394e-07,1.0527735873672569e-06,1.064437800580347e-06,1.2640578808231993e-05
4.194742986723447e-07,1.0555917261418149e-06,1.0537744051248569e-06,1.2399099499795067e-05
4.207631523199686e-07,1.058475284944154e-06,1.043316110383564e-06,1.2201053600966065e-05
4.2181362852487955e-07,1.061446343842976e-06,1.0330683421880744e-06,1.2044298794463405e-05
4.2261810978407773e-07,1.0645257720115985e-06,1.0230292656494809e-06,1.1926758053913948e-05
4.231697993831007e-07,1.0677331546680186e-06,1.0131919276090922e-06,1.184644113037089e-05
4.234619608491622e-07,1.0710860103997393e-06,1.003544975578828e-06,1.180140808554028e-05
4.2348808388150896e-07,1.074593413507912e-06,9.940731068542802e-07,1.1789735611875207e-05
4.2324267690713723e-07,1.0782503552205237e-06,9.847589567291576e-07,1.1809489829052965e-05
4.227222526241912e-07,1.082039988831527e-06,9.755860350031932e-07,1.185869536971706e-05
4.219262973553311e-07,1.085941328535896e-06,9.665425678505351e-07,1.193541308723727e-05
4.208579142192892e-07,1.0899374647178779e-06,9.576279165535487e-07,1.2038034415452532e-05
4.1952386209309005e-07,1.0940226857006284e-06,9.488581200236209e-07,1.21656104948765e-05
4.1793429939486105e-07,1.0982049150599054e-06,9.40263129907205e-07,1.231792594048733e-05
4.1610218858241e-07,1.1024995889432743e-06,9.318764745866207e-07,1.2495393133208467e-05
4.14041673683496e-07,1.1069185288709528e-06,9.237275272533821e-07,1.2699103022641389e-05
4.11766043191301e-07,1.111461185889117e-06,9.158422265615171e-07,1.2931080340434116e-05
4.0928691270671183e-07,1.1161116536358835e-06,9.082469312358864e-07,1.3194422900690555e-05
4.0661485062459027e-07,1.1208406252944236e-06,9.009696374818031e-07,1.3493112892502236e-05
4.037602638438771e-07,1.1256098706378894e-06,8.940381275796213e-07,1.383165892952121e-05
4.0073375591197637e-07,1.1303756980181912e-06,8.874765193958528e-07,1.4215046008539413e-05
3.975464160368993e-07,1.1350893888360005e-06,8.813044889996552e-07,1.4649536010619626e-05
3.942102847291053e-07,1.1396969512492406e-06,8.755413762663574e-07,1.5143828141627313e-05
3.9073804726519725e-07,1.1441404374422408e-06,8.702092274340229e-07,1.5709055900870265e-05
3.871416720861818e-07,1.1483597066874613e-06,8.653292165057074e-07,1.6357349966176934e-05
3.834313995260485e-07,1.1522935346512112e-06,8.609145214268221e-07,1.7100157774840632e-05
3.7961640689519095e-07,1.155879820260315e-06,8.569658340068977e-07,1.7946996937785313e-05
3.757068187810206e-07,1.1590551318978814e-06,8.534716958997746e-07,1.890478094124849e-05
3.717164723901075e-07,1.161755380607447e-06,8.504126159149049e-07,1.9977867644191427e-05
3.676657115059449e-07,1.1639199767869758e-06,8.477658845353758e-07,2.116859816564838e-05
3.635815812776996e-07,1.165498909852607e-06,8.455068086838965e-07,2.247788932618482e-05
3.5949413438595e-07,1.1664568608127776e-06,8.436073407996062e-07,2.390578280346089e-05
3.554324484370941e-07,1.1667701493024816e-06,8.420380491791057e-07,2.545215666983889e-05
3.514246976747211e-07,1.1664215306497498e-06,8.407742445372774e-07,2.7117667023038926e-05
3.475003177108741e-07,1.1653999939960023e-06,8.398015891793581e-07,2.8904648400370752e-05
3.436887830087167e-07,1.1637053252176044e-06,8.391183883687394e-07,3.0817631193531734e-05
3.400157840673093e-07,1.161350877333264e-06,8.387330724832727e-07,3.2863477448011133e-05
3.365016981254394e-07,1.1583594307533505e-06,8.386578597784341e-07,3.5052055372260483e-05
3.331626959109824e-07,1.154755647598077e-06,8.389075083727406e-07,3.7398317486760186e-05
3.3001174080897066e-07,1.1505626432137957e-06,8.395085191490005e-07,3.992388685759044e-05
3.270582789741885e-07,1.1458032280832504e-06,8.405094981012331e-07,4.265543588691388e-05
3.243071666929846e-07,1.1405005947358823e-06,8.419822403433033e-07,4.562085422006277e-05
3.217583403502599e-07,1.1346762618628613e-06,8.440126432706287e-07,4.884577726521399e-05
3.194080156369022e-07,1.1283476538906492e-06,8.466857419227092e-07,5e-06
3.172507679619853e-07,1.1215272655871085e-06,8.500719767292043e-07,5e-06
3.1528219321593105e-07,1.1142229889418998e-06,8.542227845238255e-07,5e-06
3.1350101450379293e-07,1.1064392516060206e-06,8.591755145512556e-07,5e-06
3.119082658337186e-07,1.0981802313590686e-06,8.649568438256287e-07,5e-06
3.105046013431246e-07,1.0894546104344436e-06,8.715791665384882e-07,5e-06
3.09289328828715e-07,1.0802769227856156e-06,8.790382222023225e-07,5e-06
3.0826145507581656e-07,1.0706640514747293e-06,8.873172045418474e-07,5e-06
3.074203038405372e-07,1.060632060929006e-06,8.963904585570385e-07,5e-06
3.06764922834894e-07,1.050195683279101e-06,9.062216635037031e-07,5e-06
3.062937631540916e-07,1.0393696207486728e-06,9.167611701789026e-07,5e-06
3.060053961932708e-07,1.0281713489764731e-06,9.27948849140579e-07,5e-06
3.058985865720978e-07,1.0166224355670256e-06,9.397219684326642e-07,5e-06
3.0597052886433374e-07,1.004747183792617e-06,9.520219419430349e-07,5e-06
3.0621514901480627e-07,9.925716690933922e-07,9.647962359534589e-07,5e-06
3.066233966895168e-07,9.80123082758228e-07,9.779965364494271e-07,5e-06
3.0718466357471535e-07,9.674274953648045e-07,9.915749267086806e-07,5e-06
3.0788799808765894e-07,9.545088763386903e-07,1.0054791234948054e-06,5e-06
3.087231821874714e-07,9.413930782980487e-07,1.01964849285713e-06,5e-06
3.0968123552669677e-07,9.281129364242157e-07,1.0340123499980655e-06,5e-06
3.107538247325255e-07,9.147070907823624e-07,1.048490799086401e-06,5e-06
3.11932916732816e-07,9.012137585397335e-07,1.0629986897288962e-06,5e-06
3.13210562033504e-07,8.876676227708042e-07,1.0774513342122086e-06,5e-06
3.1457733612404234e-07,8.741033760317081e-07,1.091767193388438e-06,5e-06
3.160209277791252e-07,8.605611743208824e-07,1.1058675316801149e-06,5e-06
3.1752675059024266e-07,8.470889289421456e-07,1.1196796461087359e-06,5e-06
3.1908051248994236e-07,8.337431002444459e-07,1.1331447924533836e-06,5e-06
3.206718571981481e-07,8.20589402473366e-07,1.1462232061658597e-06,5e-06
3.222973969849173e-07,8.077012098483797e-07,1.158890007902873e-06,5e-06
3.239619465445228e-07,7.95155279688167e-07,1.171123813127659e-06,5e-06
3.2567755513232414e-07,7.83024693514344e-07,1.1828967325274656e-06,5e-06
3.274602107064362e-07,7.713710138175319e-07,1.194172803695452e-06,5e-06
3.293253543118178e-07,7.602405809627311e-07,1.2049122633618417e-06,5e-06
3.3128447499218175e-07,7.496647971144041e-07,1.2150744948556543e-06,5e-06
3.333445805309816e-07,7.396615574817289e-07,1.2246172589084094e-06,5e-06
3.355098247961769e-07,7.302379123152611e-07,1.233494981073638e-06,5e-06
3.377820761140919e-07,7.213926886363928e-07,1.241659641253332e-06,5e-06
3.4015952558380604e-07,7.131171932914591e-07,1.2490655333433745e-06,5e-06
3.426359044174563e-07,7.053955237780056e-07,1.2556747278267878e-06,5e-06
3.4520120360177643e-07,6.982059747550656e-07,1.2614577065347084e-06,5e-06
3.478435909348617e-07,6.915230768063671e-07,1.266388741975464e-06,5e-06
3.505522000975215e-07,6.853197814895679e-07,1.2704418635845705e-06,5e-06
3.533180252735119e-07,6.795694407191648e-07,1.2735912553301846e-06,5e-06
3.5613252635001133e-07,6.742474930496582e-07,1.2758146955888998e-06,5e-06
3.589879850533197e-07,6.693332377118414e-07,1.2770972600460145e-06,5e-06
3.618799404931e-07,6.648108406822665e-07,1.277433061406607e-06,5e-06
3.648073653565261e-07,6.606673108255603e-07,1.2768244166587903e-06,5e-06
3.6776979163768367e-07,6.568880710430835e-07,1.2752792131358785e-06,5e-06
3.707649093475853e-07,6.534547128000859e-07,1.2728071436065606e-06,5e-06
3.7378753376556967e-07,6.503466640773413e-07,1.2694164545686605e-06,5e-06
3.7682854311228706e-07,6.475432345096303e-07,1.2651127780334787e-06,5e-06
3.798747600804886e-07,6.450250543931814e-07,1.2598998677752264e-06,5e-06
3.8291064079204396e-07,6.427768071587279e-07,1.253781701381878e-06,5e-06
3.859202142249276e-07,6.407875979548161e-07,1.2467641748649857e-06,5e-06
3.8888856006793845e-07,6.39046219168929e-07,1.238854542477873e-06,5e-06
3.918036068704353e-07,6.375384349085726e-07,1.2300605885104117e-06,5e-06
3.946569691856313e-07,6.362507488935115e-07,1.2203919157376422e-06,5e-06
3.974420346841942e-07,6.351735728927777e-07,1.209861525117568e-06,5e-06
4.0015106116494726e-07,6.342985536487486e-07,1.1984857935775031e-06,5e-06
4.0277344261610343e-07,6.336147594292888e-07,1.1862842998205751e-06,5e-06
4.0529511837154934e-07,6.331086953256856e-07,1.1732797405395029e-06,5e-06
4.076990182568061e-07,6.327667763250914e-07,1.1594964304659512e-06,5e-06
4.099663193502844e-07,6.325758604848681e-07,1.1449588115766107e-06,5e-06
4.120778433076979e-07,6.325204797413301e-07,1.1296914556000095e-06,5e-06
4.1401541885502756e-07,6.325800665901142e-07,1.1137194156021215e-06,5e-06
4.1576285020296654e-07,6.327285084824071e-07,1.097068619010991e-06,5e-06
4.1730551246767203e-07,6.329351513826731e-07,1.0797674986403157e-06,5e-06
4.18629305667131e-07,6.331667843654435e-07,1.0618516811983371e-06,5e-06
4.197211248997529e-07,6.333913699551587e-07,1.0433701870608455e-06,5e-06
4.2057024881344593e-07,6.335826187817761e-07,1.0243865872326522e-06,5e-06
4.211688630801437e-07,6.337221605988674e-07,1.0049730229311337e-06,5e-06
4.2151288691685637e-07,6.337974906409675e-07,9.852022292302255e-07,5e-06
4.216035831205341e-07,6.337987845161261e-07,9.651421049207444e-07,5e-06
4.214473007909232e-07,6.337210028419027e-07,9.448541917226545e-07,5e-06
4.210531168664558e-07,6.335724373826945e-07,9.243954069022659e-07,5e-06
4.2043099208755887e-07,6.333812652594041e-07,9.038204849520081e-07,5e-06
4.1959105875555724e-07,6.331930807859193e-07,8.831821204648864e-07,5e-06
4.185434440728058e-07,6.330616864496121e-07,8.625287259045807e-07,5e-06
4.172984934681933e-07,6.330388395776308e-07,8.419028157361145e-07,5e-06
4.15867343260811e-07,6.331689530103054e-07,8.213416291144355e-07,5e-06
4.142624327969133e-07,6.334925457726636e-07,8.008788962478574e-07,5e-06
4.124966718292815e-07,6.340535887978098e-07,7.805466664640021e-07,5e-06
4.10581406306168e-07,6.349035488667542e-07,7.603768835862906e-07,5e-06
4.0852539890242594e-07,6.361004626567311e-07,7.404028511858091e-07,5e-06
4.063353573122659e-07,6.377021791230264e-07,7.206613811823556e-07,5e-06
4.0401652598790393e-07,6.397557402941505e-07,7.011942289316633e-07,5e-06
4.015727942033043e-07,6.422901492023091e-07,6.820466044999156e-07,5e-06
3.990067237630601e-07,6.453159236202669e-07,6.632657480871946e-07,5e-06
3.963199304950682e-07,6.488285231534553e-07,6.449021910720221e-07,5e-06
3.935141033089579e-07,6.528122725307048e-07,6.270101561944221e-07,5e-06
3.905917291120211e-07,6.572435974458481e-07,6.096445222286464e-07,5e-06
3.875558330976864e-07,6.620928424708791e-07,5.92856314109599e-07,5e-06
3.844104210211371e-07,6.673236832535971e-07,5.766892217289538e-07,5e-06
3.81162169340038e-07,6.728916639174046e-07,5.611776923466097e-07,5e-06
3.778210471992745e-07,6.787444581686652e-07,5.463464105657902e-07,5e-06
3.743995470928958e-07,6.848233248051852e-07,5.322119592484419e-07,5e-06
3.709121780925613e-07,6.910648710949975e-07,5.187862765122289e-07,5e-06
3.673749764815547e-07,6.974048984832741e-07,5.060792675687512e-07,5e-06
3.638046695342803e-07,7.037841730588344e-07,4.940991442360971e-07,4.6797517753020585e-05
3.6021844261678207e-07,7.101516889664397e-07,4.828516163356404e-07,4.285990862848776e-05
3.5663439968776154e-07,7.164624365237251e-07,4.723389208972081e-07,3.913423464331502e-05
3.5307225039993797e-07,7.226737406622738e-07,4.625591935954665e-07,3.5624271402671384e-05
3.495542722884616e-07,7.287459389707504e-07,4.5350922901700413e-07,3.2332823694000094e-05
3.461051637878524e-07,7.346447516115803e-07,4.451932430503744e-07,2.926223308513435e-05
3.42749224198834e-07,7.40340703023646e-07,4.376336568308775e-07,2.641483714613801e-05
3.395072769835116e-07,7.458088144653249e-07,4.3087690386202267e-07,2.379297247750921e-05
3.363963218005635e-07,7.510313634935751e-07,4.2498979878062366e-07,2.1398709291899412e-05
3.334305118407634e-07,7.560000778184866e-07,4.200460752327625e-07,1.9233602020130318e-05
3.306213733354288e-07,7.607145129321665e-07,4.161110557060399e-07,1.7298499809391966e-05
3.279775799174488e-07,7.651777750863651e-07,4.1323679728914077e-07,1.5593390127524698e-05
3.255045597021991e-07,7.693925745420291e-07,4.114688903401906e-07,1.4117247989403373e-05
3.2320413454697327e-07,7.733596177367248e-07,4.108538845237082e-07,1.2867844874798289e-05
3.2107504133302257e-07,7.770783957325807e-07,4.114400174398982e-07,1.184155108981384e-05
3.191145842226643e-07,7.805483970543979e-07,4.1327227690840344e-07,1.1033280233098446e-05
3.1732100779324285e-07,7.837684991216556e-07,4.163851419410175e-07,1.0436665126000968e-05
3.156951834945854e-07,7.86735358719005e-07,4.2079714695638673e-07,1.0044350251275048e-05
3.142398515200811e-07,7.894441125343185e-07,4.26509304513505e-07,9.848204184947715e-06
3.1295762482905184e-07,7.918915438145844e-07,4.3350506394097547e-07,9.839387724502542e-06
3.118505740891762e-07,7.940790666685297e-07,4.417506947596368e-07,1.0008343740983316e-05
3.109205089948946e-07,7.960150787666677e-07,4.511974752232581e-07,1.0344790681421837e-05
3.1016748878961737e-07,7.97717216285854e-07,4.6178552057773037e-07,1.083778444402762e-05
3.095878404308116e-07,7.992130894257651e-07,4.734500297179554e-07,1.1475871493888993e-05
3.091741521697728e-07,8.005370359052598e-07,4.861301712928058e-07,1.2247295836192916e-05
3.0891718140477855e-07,8.017238484562245e-07,4.997728559352149e-07,1.3140203259035833e-05
3.0880847857638306e-07,8.028060157284579e-07,5.143260537766829e-07,1.4142802430441297e-05
3.088420803534803e-07,8.038181963877668e-07,5.297326958694466e-07,1.5243452537563223e-05
3.090136799838204e-07,8.048031582324104e-07,5.459373009022691e-07,1.643066866991469e-05
3.093185923881253e-07,8.058116667058482e-07,5.628992842474287e-07,1.7693073257545834e-05
3.097513267653924e-07,8.068957904538742e-07,5.80598386056634e-07,1.9019355720967776e-05
3.1030636766660416e-07,8.081028945697048e-07,5.990271979664652e-07,2.0398314942363733e-05
3.109782674790142e-07,8.094783121302042e-07,6.181770630794698e-07,2.181896394734376e-05
3.117612033994598e-07,8.110735460489596e-07,6.380263924242318e-07,2.3270589641682854e-05
3.126486955352929e-07,8.129478263757233e-07,6.585357403145814e-07,2.4742754741312672e-05
3.1363364889529353e-07,8.151588495295057e-07,6.796481208029192e-07,2.62252994318269e-05
3.147084626697825e-07,8.177534029615342e-07,7.012915062293657e-07,2.7708354909179614e-05
3.1586457136346976e-07,8.20769677611465e-07,7.233820780448284e-07,2.9182372749062976e-05
3.17092025856524e-07,8.242478688216733e-07,7.458290968372633e-07,3.063817858255364e-05
3.183808052845643e-07,8.282364956437706e-07,7.685417174754298e-07,3.2067040004319576e-05
3.197236845828422e-07,8.327901255768319e-07,7.914345017780143e-07,3.3460729478726836e-05
3.211185390717378e-07,8.379617368086853e-07,8.144301762888682e-07,3.4811566454300894e-05
3.225689719197632e-07,8.437933357276495e-07,8.374619966867177e-07,3.611244057157908e-05
3.240835778562526e-07,8.503107932097747e-07,8.604741547648628e-07,3.735685964217038e-05
3.256742063119938e-07,8.575264200731834e-07,8.834169207178049e-07,3.853908071720599e-05
3.273535557124271e-07,8.654442750977078e-07,9.062392966373708e-07,3.965425688223525e-05
3.291330006444718e-07,8.740611027649469e-07,9.28884223143593e-07,4.069842187295623e-05
3.310210261398325e-07,8.833623124556377e-07,9.512882807579727e-07,4.166828671363061e-05
3.3302168083761056e-07,8.933201266127124e-07,9.73385050455109e-07,4.2561030217434506e-05
3.3513369752238806e-07,9.038987991035444e-07,9.95109782397254e-07,4.337421121752229e-05
3.373512729721486e-07,9.150609788492685e-07,1.0164031551743402e-06,4.410575274089489e-05
