6.683936650329296e-07,5.44416421992102e-07,3.4220128905993737e-07,1.770448964405633e-05
6.725885591308228e-07,5.453432441458925e-07,3.425998802007388e-07,1.754549930342065e-05
6.774559686459704e-07,5.46288693124875e-07,3.4308250997460857e-07,1.73994242830036e-05
6.829131067160199e-07,5.472537074059236e-07,3.436496988706346e-07,1.7266968469770024e-05
6.888711076471732e-07,5.482457871316396e-07,3.443023708509818e-07,1.714904919706501e-05
6.952386887377821e-07,5.492741225282235e-07,3.450417175550016e-07,1.7046974474418837e-05
7.019264661343777e-07,5.503442254184552e-07,3.45869146315271e-07,1.6962373618472628e-05
7.088500706993548e-07,5.514560362498368e-07,3.4678642681980783e-07,1.6897022796636192e-05
7.159316299946277e-07,5.526049868622577e-07,3.477958398143202e-07,1.685271917090799e-05
7.231000850273406e-07,5.53783427393549e-07,3.4890049230815566e-07,1.683120246129943e-05
7.302911322597727e-07,5.549822762968064e-07,3.5010387728373176e-07,1.6834070631904495e-05
7.374480121049202e-07,5.561937780783057e-07,3.514078318354057e-07,1.6862689664019933e-05
7.445208524357686e-07,5.574135984780786e-07,3.528109085608205e-07,1.6918134235677705e-05
7.514627995556217e-07,5.586403176709842e-07,3.543094924060701e-07,1.7001167917997055e-05
7.582264971030609e-07,5.598728151984269e-07,3.5589984093080345e-07,1.711222884761954e-05
7.647628266598587e-07,5.611073446691022e-07,3.575777296086262e-07,1.7251381155985973e-05
7.710213767769664e-07,5.623361845254665e-07,3.593370132679268e-07,1.741824548669953e-05
7.769536631198612e-07,5.635487958939584e-07,3.611702533211639e-07,1.7611980409132606e-05
7.825174825461437e-07,5.647348454152946e-07,3.6306998882220614e-07,1.7831384386189778e-05
7.876780116668245e-07,5.658871990502077e-07,3.6502767412751976e-07,1.8075112272942058e-05
7.9240566309347e-07,5.670032357653742e-07,3.670315819287572e-07,1.8341910995332924e-05
7.966743212700814e-07,5.680841512891075e-07,3.6906695894815506e-07,1.8630777005688445e-05
8.004604525582591e-07,5.69133037988643e-07,3.711189387294678e-07,1.8941011473523263e-05
8.037416538993771e-07,5.701543937684314e-07,3.731758605936162e-07,1.927219967618089e-05
8.064958817380054e-07,5.711572526538168e-07,3.7523023299048253e-07,1.9624139545426765e-05
8.087031359036905e-07,5.721580147753061e-07,3.772766291719263e-07,1.9996734256933368e-05
8.103485914356362e-07,5.731781745888425e-07,3.793087631805531e-07,2.0389865165123805e-05
8.11425050816933e-07,5.742410725262465e-07,3.8131878539668577e-07,2.080325988114561e-05
8.119328703528044e-07,5.753718179294426e-07,3.833000367973946e-07,2.1236358861313205e-05
8.118771596903313e-07,5.765958685733668e-07,3.852517532216089e-07,2.1688197075919823e-05
8.112648926900092e-07,5.779341358133341e-07,3.87182109264096e-07,2.215737440070243e-05
8.101038186835508e-07,5.793993257970529e-07,3.8910659502099096e-07,2.2642152615554567e-05
8.084026195006043e-07,5.809968083011235e-07,3.9104214954083477e-07,2.3140589340912946e-05
8.061709217231301e-07,5.827282615422141e-07,3.93001108144325e-07,2.3650628605313488e-05
8.03418164610277e-07,5.845938276365585e-07,3.9498860636813814e-07,2.417016756638634e-05
8.00152534718683e-07,5.865909139237174e-07,3.970029469141696e-07,2.469712785430511e-05
7.963820561735427e-07,5.887119619019147e-07,3.990367513392025e-07,2.522950549853457e-05
7.921170416324458e-07,5.909444414622028e-07,4.010785873063527e-07,2.576535137424956e-05
7.873708951448888e-07,5.932734366824994e-07,4.0311516560476904e-07,2.630269228446521e-05
7.821586761915382e-07,5.956842018036124e-07,4.0513274279217065e-07,2.6839458328519893e-05
7.764958063182495e-07,5.981630272107185e-07,4.0711733094959716e-07,2.737345582618441e-05
7.703984716291351e-07,6.006965156365766e-07,4.090544897005856e-07,2.7902369695388087e-05
7.638856125678435e-07,6.032693009515258e-07,4.109285644005692e-07,2.842376996115556e-05
7.569812354446685e-07,6.058617232076057e-07,4.127219250175167e-07,2.893515729407451e-05
7.497149496371191e-07,6.084494216605876e-07,4.144153222740753e-07,2.9434065527058253e-05
7.421202393012869e-07,6.110045563127643e-07,4.1598908773679063e-07,2.9918122567046556e-05
7.342313420402605e-07,6.134976843337562e-07,4.174246097362351e-07,3.0385005421526246e-05
7.26079876712349e-07,6.158989171791611e-07,4.1870545102581437e-07,3.083236564917862e-05
7.17693802093485e-07,6.181782446582399e-07,4.198170090087686e-07,3.125780935686608e-05
7.090999773141105e-07,6.203084260587845e-07,4.2074561857650925e-07,3.165893075752539e-05
7.003277524804125e-07,6.22270327119042e-07,4.214789494939451e-07,3.203335400821191e-05
6.914119115349932e-07,6.240541048395067e-07,4.2200628029821575e-07,3.237877589404204e-05
6.823966847770147e-07,6.2565390653767e-07,4.223173073191105e-07,3.269309730718386e-05
6.733391071075783e-07,6.270621806670231e-07,4.224016529169486e-07,3.2974707518635794e-05
6.643054786685662e-07,6.282686841968338e-07,4.2224988162565454e-07,3.3222755149693734e-05
6.553617801527375e-07,6.292630005216789e-07,4.218541426502321e-07,3.343716259324407e-05
6.465666987264782e-07,6.300367312163384e-07,4.212081940002403e-07,3.3618413168547405e-05
6.37970210708425e-07,6.30582928720792e-07,4.203083212456778e-07,3.376732844126094e-05
6.29613527144029e-07,6.308940932789687e-07,4.191545272701685e-07,3.3884920320902e-05
6.215281474096196e-07,6.309618000205915e-07,4.177496256927508e-07,3.397230676303503e-05
6.137359644521373e-07,6.307779857714693e-07,4.160971896084938e-07,3.4030749854506875e-05
6.062529037608475e-07,6.303351671271704e-07,4.1420159918657777e-07,3.406178223052548e-05
5.990940076844496e-07,6.296247089913497e-07,4.120697781564817e-07,3.406723308697263e-05
5.922745283006752e-07,6.286358764403443e-07,4.0971193440102506e-07,3.404910128105485e-05
5.858079941747129e-07,6.273575366526007e-07,4.071413800249848e-07,3.400939625364295e-05
5.797070535769394e-07,6.257801185949354e-07,4.0437581338601094e-07,3.3950016061241006e-05
5.739871775103167e-07,6.238956367276546e-07,4.014402817450401e-07,3.387265564646947e-05
5.68670104090967e-07,6.216978286188828e-07,3.983678079923981e-07,3.377874509839364e-05
5.637852796063605e-07,6.191853390737862e-07,3.9519504530672325e-07,3.366942947811437e-05
5.5936727643585e-07,6.163654680957845e-07,3.919563261744804e-07,3.354559720682706e-05
5.554499339958623e-07,6.132526098079537e-07,3.886804268587688e-07,3.340794415337699e-05
5.520609285777638e-07,6.098626300057801e-07,3.8539030188572776e-07,3.3257029937134e-05
5.492197244859702e-07,6.062097649683773e-07,3.821042887034385e-07,3.309329379901548e-05
5.469422153553257e-07,6.023071466778539e-07,3.7883930139498356e-07,3.2917036914046415e-05
5.452499972136e-07,5.981680146770522e-07,3.7561584751802576e-07,3.2728394779302804e-05
5.441727941361166e-07,5.93806892361712e-07,3.72460204726731e-07,3.252733858981474e-05
5.437400567630799e-07,5.892409908441424e-07,3.694008014274277e-07,3.2313744511251586e-05
5.439725972262528e-07,5.844901343175862e-07,3.6646278416834743e-07,3.2087507967606664e-05
5.448810734803555e-07,5.795748266267833e-07,3.636654633312848e-07,3.18486303187473e-05
5.464673100357021e-07,5.745159859676001e-07,3.610229285734758e-07,3.159725609778314e-05
5.487265148523251e-07,5.693381411048304e-07,3.5854540690125105e-07,3.133368746279101e-05
5.51651658750511e-07,5.640717908730043e-07,3.562399715870773e-07,3.1058366650136684e-05
5.552361280926387e-07,5.587500727239862e-07,3.541116443953148e-07,3.077181558504485e-05
5.594704765427565e-07,5.534025742806802e-07,3.521649198191278e-07,3.047456726091684e-05
5.643373791558817e-07,5.480537012493671e-07,3.504044595966461e-07,3.016711009889048e-05
5.698119932671241e-07,5.427274604575353e-07,3.488352975053238e-07,2.984986332204016e-05
5.75866875013679e-07,5.374528727798093e-07,3.4746267236449397e-07,2.9523250856039563e-05
5.824737429621878e-07,5.322639071599441e-07,3.462906036518161e-07,2.918786726875996e-05
5.8960068741352e-07,5.271961535124441e-07,3.4531976315387943e-07,2.884457911381309e-05
5.972105414317036e-07,5.222860898997525e-07,3.4454627967808344e-07,2.8494474683359282e-05
6.052627695797484e-07,5.175713716924005e-07,3.439621582047491e-07,2.8138764461956727e-05
6.137155344798504e-07,5.130882983497329e-07,3.43556996665146e-07,2.7778743648536725e-05
6.225241786605563e-07,5.088677323007742e-07,3.43319933716536e-07,2.7415810278673294e-05
6.3163872042053e-07,5.049321764286642e-07,3.432401725672575e-07,2.7051437193963004e-05
6.410058467113679e-07,5.012955672443509e-07,3.433064278542934e-07,2.668704192281016e-05
6.50574082263651e-07,4.979647949857149e-07,3.435069428671609e-07,2.632389916727733e-05
6.602959425895348e-07,4.949406125957697e-07,3.438295803680531e-07,2.5963247367481908e-05
6.701248164805581e-07,4.922185400047229e-07,3.442616573206744e-07,2.560647139252431e-05
6.800110412147642e-07,4.89790646091863e-07,3.4479064274284377e-07,2.525515747742207e-05
6.899015524464841e-07,4.876469233026717e-07,3.454047063872867e-07,2.4911003247650737e-05
6.997418224916296e-07,4.857763639792032e-07,3.4609171531324853e-07,2.457567869711956e-05
7.094775432419516e-07,4.841678817111135e-07,3.4683877423864666e-07,2.425069062035741e-05
7.190560686604395e-07,4.828091876795675e-07,3.4763401844396444e-07,2.3937262635640986e-05
7.284271912114686e-07,4.816844271254334e-07,3.484686625052566e-07,2.36362746636285e-05
7.375419523026049e-07,4.807742552692925e-07,3.493376214685515e-07,2.334830643912561e-05
7.463517216600856e-07,4.800588942517455e-07,3.502392622023509e-07,2.3073733336306865e-05
7.54810627636101e-07,4.795208647637736e-07,3.511746795296666e-07,2.281277314472144e-05
7.62878126228228e-07,4.791445891034249e-07,3.521462604976833e-07,2.25654732220719e-05
7.705180118785999e-07,4.78913807481494e-07,3.531556398549345e-07,2.2331767281996772e-05
7.77697432464739e-07,4.788099350303298e-07,3.542021577749141e-07,2.211172975347475e-05
7.843876494439554e-07,4.788121035366505e-07,3.552833583040936e-07,2.1905875771162588e-05
7.905629977347015e-07,4.788971698964591e-07,3.563967605023927e-07,2.1715156771272712e-05
7.961992648930201e-07,4.790391681745438e-07,3.5754058046597585e-07,2.1540637478638338e-05
8.012741509849751e-07,4.792098620414308e-07,3.587131462030779e-07,2.1383236209654973e-05
8.057678376524744e-07,4.793811341916725e-07,3.599123347521361e-07,2.1243699096307587e-05
8.096627019143063e-07,4.795266183664833e-07,3.611356165433739e-07,2.1122620806876072e-05
8.129432039341127e-07,4.796214436934902e-07,3.6238041436445897e-07,2.1020413948262524e-05
8.155972696333559e-07,4.796432886577985e-07,3.6364449594606157e-07,2.0937295279922068e-05
8.176197839954503e-07,4.795749787137986e-07,3.649257661638893e-07,2.087330251838862e-05
8.190146313196287e-07,4.794048965584018e-07,3.6622086689032493e-07,2.082830486245555e-05
8.197925298743166e-07,4.791248596308136e-07,3.675238450237404e-07,2.0801997841397285e-05
8.199680197946568e-07,4.787281600283839e-07,3.6882654725531783e-07,2.079389458292343e-05
8.195577729362148e-07,4.782091882052765e-07,3.7012003877628665e-07,2.0803330939732345e-05
8.18578569786907e-07,4.775644674999124e-07,3.7139534437599046e-07,2.082948607016189e-05
8.17045579584365e-07,4.767950206590292e-07,3.726431716216304e-07,2.087139444844516e-05
8.149727783619894e-07,4.7590942724939526e-07,3.7385324091811757e-07,2.0927956235958896e-05
8.123754101600127e-07,4.749239783630864e-07,3.750139990454514e-07,2.0997982586301893e-05
8.092731247624249e-07,4.7385781883327476e-07,3.7611379257332223e-07,2.1080246560488933e-05
8.056906337924748e-07,4.727272202722513e-07,3.771433206924768e-07,2.11734673424612e-05
8.01654055331157e-07,4.715439545402581e-07,3.780965228872038e-07,2.1276236183988336e-05
7.971862251289433e-07,4.703179747579708e-07,3.789691001178278e-07,2.138695990251436e-05
7.923048673018548e-07,4.6906125184485293e-07,3.7975841561914024e-07,2.1503870544613817e-05
7.870243695707322e-07,4.677901483028245e-07,3.804652230327501e-07,2.1625107649658268e-05
7.813612854398227e-07,4.665250196138592e-07,3.810926115818936e-07,2.1748845011009383e-05
7.753418556412736e-07,4.652865685126112e-07,3.816421370561794e-07,2.187341183748677e-05
7.690064246112919e-07,4.6409266176006843e-07,3.8211186688313727e-07,2.199737472755776e-05
7.624080272936944e-07,4.6296113196999633e-07,3.824972823228054e-07,2.211958011814189e-05
7.556072446897096e-07,4.6191570141817177e-07,3.8279270955961046e-07,2.223917266777038e-05
7.486670298002769e-07,4.609866638099353e-07,3.8299253596881977e-07,2.235559532565985e-05
7.416500644621145e-07,4.602064672730749e-07,3.830920425953029e-07,2.246855958904498e-05
7.346168101415074e-07,4.5960587074219655e-07,3.8308702305406794e-07,2.257797028012136e-05
7.276214181707264e-07,4.5921188090184295e-07,3.8297352444412973e-07,2.268380695979756e-05
7.207075277821691e-07,4.590481651757618e-07,3.8275020768274346e-07,2.278601106399802e-05
7.139068790310905e-07,4.591378960492608e-07,3.824215717953839e-07,2.2884461026592668e-05
7.072403631652048e-07,4.595044139227211e-07,3.8199791154697756e-07,2.297902330090993e-05
7.007201033157462e-07,4.601678525927085e-07,3.8149223431661966e-07,2.3069553962370373e-05
6.943524281097129e-07,4.6114153118333177e-07,3.8091751874676706e-07,2.315581792580025e-05
6.881421113414731e-07,4.6243107078912936e-07,3.802856095976275e-07,2.3237429981414733e-05
6.820959719220554e-07,4.6403512679789e-07,3.796070808073421e-07,2.331390696920741e-05
6.762227403642954e-07,4.659455576828313e-07,3.788911170305838e-07,2.338481708261789e-05
6.70529390590746e-07,4.6814709614420224e-07,3.781447069540615e-07,2.3449901308409768e-05
6.650172667865355e-07,4.7061807833950825e-07,3.7737185605055e-07,2.350906213285673e-05
6.596811238538041e-07,4.73333161596002e-07,3.765739114022025e-07,2.356226042307591e-05
6.545114586355229e-07,4.762666966725094e-07,3.75750947841452e-07,2.3609438095462106e-05
6.494983013834961e-07,4.7939458011221e-07,3.7490330541445563e-07,2.365055081042948e-05
6.446374638064568e-07,4.826939445346335e-07,3.7403206838321354e-07,2.368566923375378e-05
6.399394517880648e-07,4.861408030598277e-07,3.73138236604006e-07,2.371500625438409e-05
6.354318548233677e-07,4.897076294324667e-07,3.7222212377368297e-07,2.373881560562224e-05
6.311499455239172e-07,4.933639250782524e-07,3.7128523587710363e-07,2.375724847705943e-05
6.271264881826075e-07,4.970791358635123e-07,3.7033404874611456e-07,2.377028287537776e-05
6.233890699508725e-07,5.008246127292414e-07,3.6938216231569463e-07,2.3777760584229637e-05
6.199594615209028e-07,5.045728562910245e-07,3.6844946091654565e-07,2.3779455849982386e-05
6.1685133843993e-07,5.082951165806148e-07,3.675590496160093e-07,2.377509112952037e-05
6.140701053968482e-07,5.119604868486927e-07,3.667331779454718e-07,2.37643108543406e-05
6.116154284294885e-07,5.155376103005659e-07,3.659905178243464e-07,2.374671522462104e-05
6.094831216350704e-07,5.189958459983212e-07,3.6534610051916954e-07,2.3722032391189585e-05
6.07667420294137e-07,5.223044920799983e-07,3.648136746526585e-07,2.3690315946269603e-05
6.061664185699574e-07,5.254334266907048e-07,3.6440895424904535e-07,2.3651959544234767e-05
6.049871256745194e-07,5.283566112013838e-07,3.6415038084141213e-07,2.360753958507592e-05
6.041442367366171e-07,5.310557489424153e-07,3.640563731353496e-07,2.3557666284725728e-05
6.036535890613485e-07,5.335210178792521e-07,3.641419346034663e-07,2.3502952377294127e-05
6.035272006704748e-07,5.357478161328457e-07,3.6441732569018295e-07,2.3444125784232898e-05
6.037722053925982e-07,5.37732644793379e-07,3.648894009341285e-07,2.33821811737538e-05
6.043897989162122e-07,5.394713396506235e-07,3.6556371985401704e-07,2.3318397134896108e-05
6.053737803728564e-07,5.409584567054826e-07,3.6644500549728493e-07,2.325422415564408e-05
6.067123790303699e-07,5.421873877733856e-07,3.6753728501302633e-07,2.3191170247967805e-05
6.083937690851818e-07,5.431520774906222e-07,3.688451898290411e-07,2.313074234624951e-05
6.104111650173349e-07,5.438480307542799e-07,3.703734062823624e-07,2.30744168645228e-05
6.127650490009863e-07,5.442709577235447e-07,3.7212337418032287e-07,2.3023581225621475e-05
6.154642587630942e-07,5.444156063758209e-07,3.740905754076119e-07,2.297944341177887e-05
6.185259328791933e-07,5.442769757635475e-07,3.762639385156976e-07,2.294297174698019e-05
6.219717612511674e-07,5.438526789426587e-07,3.786269270749551e-07,2.291487900524487e-05
6.258206083609587e-07,5.431451257419646e-07,3.811601758465704e-07,2.289559527115394e-05
6.300813866550068e-07,5.421625047450543e-07,3.838446300880067e-07,2.288521760406455e-05
6.347500409110449e-07,5.409170114042772e-07,3.866624536105378e-07,2.2883497383216696e-05
6.39809888717253e-07,5.394221569411594e-07,3.895949852028057e-07,2.2889893514107088e-05
6.452327972054041e-07,5.37691280056175e-07,3.926209068659954e-07,2.290365324395609e-05
6.509811969289436e-07,5.357365404585623e-07,3.957173543825408e-07,2.292389641850208e-05
6.570114961812483e-07,5.335694326228925e-07,3.9886345845979e-07,2.2949701692658927e-05
6.632796047771577e-07,5.312023224844313e-07,4.0204282420300907e-07,2.298016921985456e-05
6.697472632789853e-07,5.286482355634156e-07,4.052420063695896e-07,2.301443701971904e-05
6.763834400612089e-07,5.259209191801012e-07,4.084471920882078e-07,2.305167495035057e-05
6.83159078886569e-07,5.230384416117758e-07,4.116433447805326e-07,2.3091116248350907e-05
6.900418482420167e-07,5.200281826349998e-07,4.148157086466289e-07,2.3132153542714114e-05
6.969970868539843e-07,5.169277793120653e-07,4.1795055863696006e-07,2.317442738206387e-05
7.03995637558177e-07,5.137798679633974e-07,4.210346344670361e-07,2.32177896165096e-05
7.1102490563688e-07,5.106254791214716e-07,4.240545622439814e-07,2.3262136682877305e-05
7.180953377882375e-07,5.07502896959731e-07,4.2699614773722026e-07,2.330728344405517e-05
7.252350971937386e-07,5.044525757998764e-07,4.298434399638381e-07,2.3353020140242364e-05
7.324759116072726e-07,5.015214059943396e-07,4.325786447149857e-07,2.339925820575441e-05
7.398422559842184e-07,4.987604064028054e-07,4.3518345651070586e-07,2.344608405784662e-05
7.473490850830791e-07,4.962182992631704e-07,4.3764059833098886e-07,2.349369640770753e-05
7.550022936157748e-07,4.9393760990634e-07,4.3993397255960243e-07,2.3542302497648277e-05
7.627988190394597e-07,4.91955239244899e-07,4.42048806769353e-07,2.3592022203950267e-05
7.707271087916605e-07,4.903033878206222e-07,4.439745339572426e-07,2.364287158114729e-05
7.787666507185505e-07,4.890074947182114e-07,4.457081465187286e-07,2.3694841186374094e-05
7.868874702499871e-07,4.880838554600698e-07,4.472531145392979e-07,2.374794684438739e-05
7.950526130094472e-07,4.875398176500257e-07,4.4861575221252454e-07,2.3802218618890908e-05
8.032236030719175e-07,4.873747513189617e-07,4.4980388537348433e-07,2.3857714796329005e-05
8.113654205142566e-07,4.875806933523815e-07,4.508262274245595e-07,2.391455707045127e-05
8.19447395118865e-07,4.881441828417896e-07,4.5169013454834997e-07,2.39729227668148e-05
8.274409657682421e-07,4.890489804347091e-07,4.5240057437905854e-07,2.4032997811708885e-05
8.353188715490627e-07,4.902785397559975e-07,4.529620734498269e-07,2.4094950558524678e-05
8.430560271205044e-07,4.91818565694154e-07,4.53380022105046e-07,2.415899914262837e-05
8.506281668004126e-07,4.936592431438163e-07,4.5365859057995083e-07,2.422557431409078e-05
8.580089256878498e-07,4.957949602608053e-07,4.5379831648173197e-07,2.429540876440711e-05
8.651688359788256e-07,4.982201687565481e-07,4.537960983971803e-07,2.436939805485663e-05
8.720759297046448e-07,5.009241789950866e-07,4.536467626236245e-07,2.444832876656199e-05
8.786977805823679e-07,5.038890494884486e-07,4.533452178975237e-07,2.453266498713108e-05
8.850054285051286e-07,5.070911569867436e-07,4.528880571088933e-07,2.462251663106767e-05
8.909750546452715e-07,5.105040351230351e-07,4.522740358059507e-07,2.471786141826972e-05
8.965846282305668e-07,5.140996541355064e-07,4.5150460800459645e-07,2.481891840042743e-05
9.018102026631594e-07,5.178482808501663e-07,4.505846664732378e-07,2.492639479971697e-05
9.066260916226284e-07,5.217186488866924e-07,4.4952218717226105e-07,2.504146148465751e-05
9.110061051306977e-07,5.256778152284618e-07,4.4832672867504776e-07,2.5165558145777562e-05
9.149224848727436e-07,5.296903747383047e-07,4.4700823387995614e-07,2.530016111489933e-05
9.18345021791456e-07,5.337181279948564e-07,4.4557634113828793e-07,2.544656674069276e-05
9.212446868342405e-07,5.37720892845048e-07,4.4403943900127974e-07,2.5605730385928092e-05
9.236001793799528e-07,5.416584996311457e-07,4.424052605900997e-07,2.577820880411152e-05
9.25400598708016e-07,5.454924130533904e-07,4.4068420180886966e-07,2.5964195369419546e-05
9.266436451690904e-07,5.491863302386766e-07,4.3889153370877894e-07,2.616357465865725e-05
9.273353216680755e-07,5.527069495397933e-07,4.37045711585981e-07,2.6375952388403948e-05
9.274898954449884e-07,5.560239453278714e-07,4.3516548801430463e-07,2.6600665311306114e-05
9.271246588046435e-07,5.591082721853394e-07,4.3326829411893816e-07,2.6836763925264364e-05
9.262531404282793e-07,5.619308395852836e-07,4.3136899088892653e-07,2.708296661848448e-05
9.248842404435463e-07,5.644630753239103e-07,4.2947839976755274e-07,2.7337628904055656e-05
9.230273841584744e-07,5.666796875426942e-07,4.2760275347413847e-07,2.7598782428473793e-05
9.206971348819628e-07,5.685631989323686e-07,4.2574412667097353e-07,2.7864260185657063e-05
9.179118584344187e-07,5.701065820727546e-07,4.2390075887229976e-07,2.8131871655604028e-05
9.146892964040735e-07,5.71310264529219e-07,4.2206755580883133e-07,2.8399564507642742e-05
9.110461226338106e-07,5.721763117344403e-07,4.2023713691419615e-07,2.866551323638548e-05
9.070015776563027e-07,5.727054452276539e-07,4.184007244596696e-07,2.892810138784615e-05
9.025786407182915e-07,5.72898471983727e-07,4.165487430044782e-07,2.9185822953132946e-05
8.978002776486773e-07,5.727598418227836e-07,4.1467122383312026e-07,2.9437168707939586e-05
8.926862060828516e-07,5.722997338433636e-07,4.127578138191426e-07,2.9680540644382606e-05
8.872551188592585e-07,5.715336050850814e-07,4.107981590265184e-07,2.9914209174509997e-05
8.815295832758842e-07,5.704812620309439e-07,4.087836120427849e-07,3.013633548335556e-05
8.755377099114624e-07,5.691667238921082e-07,4.067091393049762e-07,3.034507464192345e-05
8.69310961243202e-07,5.676198317426746e-07,4.045737258681429e-07,3.0538693670768746e-05
8.628817127732214e-07,5.658798356877379e-07,4.0238067783807113e-07,3.07155940282094e-05
8.56281548828195e-07,5.639969503589218e-07,4.001395991766717e-07,3.087424604432588e-05
8.49539673230071e-07,5.620283537024329e-07,3.978668859508868e-07,3.101314350112635e-05
8.426817928931156e-07,5.600313664367265e-07,3.9558165102694857e-07,3.1130823566147145e-05
8.357291238689961e-07,5.580590285097818e-07,3.93300477666929e-07,3.122591438907332e-05
8.2869868180841e-07,5.56161363205266e-07,3.9103522460877293e-07,3.129716667812713e-05
8.216062672831256e-07,5.543903749705486e-07,3.8879317368268907e-07,3.1343483706345256e-05
8.14469698014494e-07,5.528019749862661e-07,3.86577726533566e-07,3.136400970254641e-05
8.07310632289475e-07,5.514531774076948e-07,3.8438947299153243e-07,3.1358254653094497e-05
8.001564335803187e-07,5.503991778751409e-07,3.8222759142112493e-07,3.132614216175664e-05
7.930405536197307e-07,5.496913106247963e-07,3.8009198186431273e-07,3.126794213287295e-05
7.85998811537168e-07,5.493735282172926e-07,3.779850588281778e-07,3.118415638112278e-05
7.790665715123294e-07,5.494784718979767e-07,3.7591055767321294e-07,3.107541946254075e-05
7.722819724431777e-07,5.500261151430074e-07,3.7387091883769064e-07,3.0942436009298005e-05
7.656886412462969e-07,5.510245765410467e-07,3.718671316615659e-07,3.0785936017637616e-05
7.593317962626111e-07,5.524721157673196e-07,3.6990070888552093e-07,3.060661142836126e-05
7.532536849983759e-07,5.543609383986729e-07,3.679752000361683e-07,3.040505362060589e-05
7.474927125670513e-07,5.566801287533179e-07,3.6609563186458385e-07,3.0181746253563618e-05
7.420818816718141e-07,5.594143471272215e-07,3.642663760792232e-07,2.9937107450935138e-05
7.37046446243743e-07,5.625407269615634e-07,3.6249020867608203e-07,2.9671536203066253e-05
7.324051413772146e-07,5.660279774724404e-07,3.607687798655636e-07,2.9385499792462672e-05
7.281721683185859e-07,5.698377280833265e-07,3.591022061677799e-07,2.9079739387251692e-05
7.243557809820621e-07,5.739271693003772e-07,3.574885244528914e-07,2.8755451076572583e-05
7.209561396926452e-07,5.782527693319147e-07,3.55925027291026e-07,2.841422175041947e-05
7.179649401521478e-07,5.827727867368601e-07,3.5441038121214984e-07,2.8057886557034998e-05
7.15365994757906e-07,5.874470995063393e-07,3.529447898607832e-07,2.768855994976565e-05
7.131360534287902e-07,5.922378122640611e-07,3.5152789200102486e-07,2.730870705937525e-05
7.112451964152795e-07,5.971136938357475e-07,3.501566687726132e-07,2.692109965254976e-05
7.096572829258483e-07,6.020553214828568e-07,3.488248979072796e-07,2.652870729083005e-05
7.083329118722287e-07,6.070556725140757e-07,3.475238128801252e-07,2.613455321075708e-05
7.072351199123345e-07,6.121150771350732e-07,3.46243657331966e-07,2.5741536864165563e-05
7.06333742678954e-07,6.172337420288493e-07,3.449761663076757e-07,2.5352269639023912e-05
7.056051801202891e-07,6.224060412038163e-07,3.4371694698491545e-07,2.496896777881748e-05
7.050302243826152e-07,6.276194088784167e-07,3.424670301788014e-07,2.45934143847694e-05
7.045936430869116e-07,6.328575160250876e-07,3.4123365879884463e-07,2.422698708930525e-05
7.042832134305377e-07,6.381039529231035e-07,3.400302191533185e-07,2.3870748307300395e-05
7.040861768541944e-07,6.43342976458887e-07,3.388751273946805e-07,2.352557538032156e-05
7.039873304742089e-07,6.485581527771134e-07,3.3778895318821625e-07,2.319226258039873e-05
7.039703194737255e-07,6.5373121917791e-07,3.367907608614686e-07,2.287154029692457e-05
7.040179961822961e-07,6.588421186019641e-07,3.358962402660661e-07,2.2564057722419783e-05
7.04111798620088e-07,6.638705520540287e-07,3.351177716059147e-07,2.227040171516681e-05
7.042331314410817e-07,6.687967334771441e-07,3.3446462002299363e-07,2.1991129864284562e-05
7.043646297508452e-07,6.735994684369617e-07,3.339425963118879e-07,2.1726767646492347e-05
7.044890159626767e-07,6.782541873982769e-07,3.335543998771141e-07,2.147778742563605e-05
7.045875843830533e-07,6.827328230926487e-07,3.333011653257104e-07,2.124460146455591e-05
7.046395253685769e-07,6.870047412691524e-07,3.331837589636826e-07,2.1027548972868548e-05
7.046222240640129e-07,6.910380089793241e-07,3.332027810632215e-07,2.082683977038065e-05
7.045134013134625e-07,6.948007453494436e-07,3.333574406343289e-07,2.064246813514144e-05
7.042942433144369e-07,6.982622739842954e-07,3.33644154571055e-07,2.0474159986000905e-05
7.039527263092012e-07,7.013941330347943e-07,3.340558918252609e-07,2.032138206724385e-05
7.034879998749389e-07,7.041711932850434e-07,3.3458261801922176e-07,2.018337192174472e-05
7.029127795185515e-07,7.065720109480419e-07,3.352132102115444e-07,2.0059166131796168e-05
7.022488390189361e-07,7.085779388109669e-07,3.359383019207544e-07,1.9947669554525502e-05
7.015183768025605e-07,7.101726564663963e-07,3.367513335021354e-07,1.984779635418607e-05
7.007391178793855e-07,7.1134514748645e-07,3.3764649686783354e-07,1.975866216170347e-05
6.999251122015018e-07,7.120969195700052e-07,3.386162746737621e-07,1.96797585191632e-05
6.990880345494147e-07,7.124489568843169e-07,3.39651281921213e-07,1.961098848456703e-05
6.982368090710657e-07,7.124429728267935e-07,3.4074122994368055e-07,1.9552515979469568e-05
6.973788950254115e-07,7.121350738199015e-07,3.4187509009216864e-07,1.9504565319275853e-05
6.965226913737901e-07,7.115847308146928e-07,3.430415454424255e-07,1.946733704838568e-05
6.956776570805581e-07,7.10847136672995e-07,3.442308974781432e-07,1.944106348689993e-05
6.948529433147562e-07,7.099748179766235e-07,3.4543682972889555e-07,1.942610078139592e-05
6.940559597339034e-07,7.090239724495909e-07,3.466559729198761e-07,1.9422923079380302e-05
6.932913796951004e-07,7.080573156721581e-07,3.478854639865396e-07,1.9431983601045418e-05
6.925622979767372e-07,7.071426693422949e-07,3.4912054266410226e-07,1.9453539773075268e-05
6.918732142765786e-07,7.063490926493269e-07,3.503535394324321e-07,1.9487553980168005e-05
6.912315071402348e-07,7.057392665532991e-07,3.515744127674397e-07,1.9533735584251016e-05
6.906459654065141e-07,7.053622696794431e-07,3.52772849575794e-07,1.959173041423521e-05
6.901271854596731e-07,7.052551039011834e-07,3.539406256326002e-07,1.966133566745008e-05
6.896936352444638e-07,7.054508008457825e-07,3.5507269211705364e-07,1.9742561331740064e-05
6.893766825307218e-07,7.059824434702329e-07,3.56167606133996e-07,1.983549898960289e-05
6.892174726351495e-07,7.068807094843711e-07,3.572272369428315e-07,1.994010400574965e-05
6.892587937908951e-07,7.081698620283075e-07,3.582545261424404e-07,2.005602272147408e-05
6.895378018941368e-07,7.098635462427308e-07,3.592506551680989e-07,2.0182554857811546e-05
6.900815978552768e-07,7.119612334645065e-07,3.6021394942932077e-07,2.031875335503268e-05
6.909056241016739e-07,7.144482046532207e-07,3.611403385435805e-07,2.046358751805466e-05
6.9201534613484e-07,7.172999130898128e-07,3.620243943987389e-07,2.061611819539212e-05
6.934105634018899e-07,7.204885803098721e-07,3.628611241513917e-07,2.0775706646402434e-05
6.950880007948413e-07,7.239875496523834e-07,3.6364737490107546e-07,2.0942196337922642e-05
6.97040318032941e-07,7.277711162550617e-07,3.643808717616317e-07,2.1115901805776146e-05
6.99255787840709e-07,7.318131821002279e-07,3.650582563067093e-07,2.129740174471444e-05
7.017202108351686e-07,7.360879842923076e-07,3.6567471981537963e-07,2.1487287022164614e-05
7.044179949957006e-07,7.405716368570457e-07,3.6622467536013996e-07,2.1685963440263888e-05
7.073314973707947e-07,7.452423757259476e-07,3.6670172521841187e-07,2.1893616414445466e-05
7.104409269002645e-07,7.500801644910262e-07,3.67098494724351e-07,2.211041746633394e-05
7.137287525714552e-07,7.550676100482994e-07,3.674085665045967e-07,2.2336799988810016e-05
7.171874232659192e-07,7.601913547431683e-07,3.676307866797701e-07,2.2573548187548e-05
7.20820237563313e-07,7.654402164425202e-07,3.6777207413270065e-07,2.282169572044612e-05
7.246317519603635e-07,7.708002752283266e-07,3.678455159932887e-07,2.308235951996161e-05
7.286178799194552e-07,7.762526404775565e-07,3.678664633589406e-07,2.3356570506178172e-05
7.327631261674684e-07,7.817758540323413e-07,3.6784981138455e-07,2.3645139950785395e-05
7.370420584092883e-07,7.873488385434187e-07,3.67808100357581e-07,2.3948564663363134e-05
7.41422439193842e-07,7.929517719659488e-07,3.6775099544994e-07,2.426694467900832e-05
7.458719153536323e-07,7.985655766132788e-07,3.6768634071425793e-07,2.4599931555731266e-05
7.5036585474574e-07,8.041707541404654e-07,3.6762046757716434e-07,2.4946739133156604e-05
7.548896168238867e-07,8.097455734520676e-07,3.6755779748129904e-07,2.530619348199721e-05
7.594350915028656e-07,8.152645159743686e-07,3.67501717891878e-07,2.567677652522016e-05
7.639964231494905e-07,8.20697935687963e-07,3.6745596012286953e-07,2.605664755937927e-05
7.685665612077039e-07,8.260127168492444e-07,3.674248180842682e-07,2.644364592491403e-05
7.731354114456413e-07,8.311740662955327e-07,3.674119752642002e-07,2.6835300222929223e-05
7.776897903064796e-07,8.361475698222223e-07,3.674189967999493e-07,2.7228886757499326e-05
7.822124073140782e-07,8.408998149069453e-07,3.674461298716405e-07,2.7621551757233288e-05
7.866798485124562e-07,8.453992684874728e-07,3.674954717687314e-07,2.8010471379166082e-05
7.910622679443766e-07,8.496181767895635e-07,3.675723384328918e-07,2.8393014652991918e-05
7.953249272470194e-07,8.53531369222239e-07,3.676833658866939e-07,2.8766888020757604e-05
7.994300824984436e-07,8.571123614693111e-07,3.67834143374545e-07,2.9130234796486586e-05
8.03338690466744e-07,8.60332856059034e-07,3.680279428089824e-07,2.9481653460666967e-05
8.07011883372872e-07,8.631658560713352e-07,3.6826566509353097e-07,2.9820126637213373e-05
8.104111382141195e-07,8.65587256827263e-07,3.685471040042769e-07,3.014489357043501e-05
8.134972963850908e-07,8.675742080240006e-07,3.6887192226913464e-07,3.0455303057314692e-05
8.16230396450508e-07,8.691029358138628e-07,3.692390093840151e-07,3.075066154371237e-05
8.185709321717941e-07,8.701498848164782e-07,3.6964554223757427e-07,3.1030108143304586e-05
8.204819793799288e-07,8.706976379529536e-07,3.7008694442020577e-07,3.1292563728984017e-05
8.21930760729008e-07,8.707421601453829e-07,3.705574912654045e-07,3.1536749708958865e-05
8.228885590237598e-07,8.70295584501841e-07,3.7105116849430024e-07,3.176123975000614e-05
8.233301476439845e-07,8.693824143090662e-07,3.7156192143866466e-07,3.196453982861385e-05
8.232333610303583e-07,8.680323241713806e-07,3.720835248808147e-07,3.214519998004674e-05
8.22578662920927e-07,8.66274052483049e-07,3.7261138400612187e-07,3.230190256676965e-05
8.21349865858148e-07,8.641348283547209e-07,3.731450782253894e-07,3.2433466353311714e-05
8.19536951906387e-07,8.616478903239977e-07,3.7368720535882135e-07,3.2538799775273513e-05
8.171390409619894e-07,8.588610893355435e-07,3.7423969308430243e-07,3.2616872551317204e-05
8.14163122194243e-07,8.558352802682519e-07,3.7480238644977743e-07,3.266672456385215e-05
8.106190774662794e-07,8.52634004247682e-07,3.7537411687625776e-07,3.2687491002303025e-05
8.06517184722e-07,8.493152155232883e-07,3.7595384013568285e-07,3.2678422264364914e-05
8.018693475617711e-07,8.459291796028379e-07,3.7654132821838405e-07,3.2638896162098544e-05
7.966898604987606e-07,8.425191005354477e-07,3.7713736022238173e-07,3.256841510985179e-05
7.909945927337467e-07,8.39120603639625e-07,3.7774254468665426e-07,3.246660629758927e-05
7.848008622497462e-07,8.357602195300761e-07,3.783557587399218e-07,3.2333283402628585e-05
7.781286076746672e-07,8.324549101107652e-07,3.789748555069232e-07,3.216855558145797e-05
7.71000865358756e-07,8.292126159898866e-07,3.7959919513860077e-07,3.1972889631424014e-05
7.634425653285378e-07,8.260339664188902e-07,3.80230152166024e-07,3.174708858923195e-05
7.554795034076502e-07,8.229149044591672e-07,3.808685660744418e-07,3.1492208144140225e-05
7.471401115793671e-07,8.198477579629554e-07,3.815126281241667e-07,3.1209470957534505e-05
7.384588522325381e-07,8.168203968736671e-07,3.8215785067538904e-07,3.0900339849595364e-05
7.294762955344807e-07,8.138158367364995e-07,3.8279732254110777e-07,3.056676392755574e-05
7.202349301149903e-07,8.108140392317281e-07,3.834215806511172e-07,3.0211303428998506e-05
7.107754033676224e-07,8.077956337015196e-07,3.840187661066038e-07,2.983696714672069e-05
7.011365319948924e-07,8.047445379379405e-07,3.845750419622986e-07,2.9446913374330083e-05
6.913568219735039e-07,8.016473909221298e-07,3.8507523782056024e-07,2.9044175640427063e-05
6.81475362699052e-07,7.984920389560359e-07,3.8550419237951593e-07,2.8631520006982845e-05
6.715346681084214e-07,7.952674133666165e-07,3.8584823812526796e-07,2.8211546915760216e-05
6.615839193515218e-07,7.919646579546165e-07,3.860951114631247e-07,2.778696427276819e-05
6.516772349117527e-07,7.885781572640432e-07,3.862326381847884e-07,2.7360759265608162e-05
6.418686898684755e-07,7.851043073203984e-07,3.8624882966465844e-07,2.6936155087285832e-05
6.322087086425918e-07,7.81538451363598e-07,3.8613362131489883e-07,2.651646935439773e-05
6.227430548985981e-07,7.778735852667608e-07,3.858797094956922e-07,2.6104971884964582e-05
6.135135692697008e-07,7.741016643837837e-07,3.8548171939169204e-07,2.570476366367461e-05
6.04557392491171e-07,7.702145758582926e-07,3.8493510156554973e-07,2.531868163815867e-05
5.959040809837217e-07,7.662034426093904e-07,3.842355555404046e-07,2.494922736170199e-05
5.875752397086466e-07,7.62057784824077e-07,3.8337923212600653e-07,2.459852026195913e-05
5.795887422774054e-07,7.577661669100431e-07,3.823635210041546e-07,2.4268274284607463e-05
5.719639479027432e-07,7.533188994101526e-07,3.811874227808108e-07,2.3959870733195777e-05
5.647240968723579e-07,7.487119050394101e-07,3.798519528458768e-07,2.3674730856359892e-05
5.578968923160269e-07,7.439495824464827e-07,3.783614012595747e-07,2.3414882509043148e-05
5.515154533258781e-07,7.390434085585066e-07,3.767233217408429e-07,2.3183143441457047e-05
5.456195301078753e-07,7.340060423424699e-07,3.749463567080461e-07,2.298273502890057e-05
5.402573502502876e-07,7.28846834943374e-07,3.730395088223786e-07,2.281672796235603e-05
5.354868402082077e-07,7.23572080362863e-07,3.710144147596618e-07,2.2687601881192067e-05
5.313721113454503e-07,7.181880181918395e-07,3.6888679401346066e-07,2.259704624790201e-05
5.279747063483231e-07,7.127046973699326e-07,3.666747590458347e-07,2.2546073309831595e-05
5.253469173214673e-07,7.071368357990001e-07,3.6439663034244754e-07,2.253530381011904e-05
5.235337611373559e-07,7.014999884466471e-07,3.6207037021051064e-07,2.25652446279106e-05
5.225792485228715e-07,6.958077347480354e-07,3.597145445317483e-07,2.263645831026845e-05
5.225278675808925e-07,6.900726940409543e-07,3.5735010466640027e-07,2.2749590010203595e-05
5.234185564207522e-07,6.843079335356136e-07,3.5500034626647077e-07,2.290530282794264e-05
5.252760134817232e-07,6.785272185790765e-07,3.5268780768308787e-07,2.310415966721379e-05
5.28105573436734e-07,6.727447652588949e-07,3.504309383679707e-07,2.334642622052117e-05
5.318936900070546e-07,6.669767792186796e-07,3.4824293390678895e-07,2.363185462828803e-05
5.366157130601074e-07,6.612457264760557e-07,3.461332980368947e-07,2.3959878485913048e-05
5.422539609704241e-07,6.555814230812707e-07,3.441121950582027e-07,2.433065851054056e-05
5.4881775090925e-07,6.500160482508578e-07,3.421946648056127e-07,2.4746264010441682e-05
5.563487372215372e-07,6.44579632068595e-07,3.4040053170855304e-07,2.521075131794595e-05
5.64909043828531e-07,6.392991698856379e-07,3.38750951114617e-07,2.5729290858689842e-05
5.745630808246986e-07,6.341981224047246e-07,3.3726498829087803e-07,2.6307277807035762e-05
5.853620043433836e-07,6.292961046470453e-07,3.3595703272868146e-07,2.694969533936577e-05
5.973342091349243e-07,6.246106175646171e-07,3.348356800196125e-07,2.766061056060647e-05
6.104819963766446e-07,6.201592341128903e-07,3.3390455920871227e-07,2.8442753527531818e-05
6.247841464049658e-07,6.159601275676956e-07,3.331634521006681e-07,2.929724001200024e-05
6.402019076469115e-07,6.12032824624295e-07,3.326089447586346e-07,3.0223555360164752e-05
6.56683860922424e-07,6.083993509252085e-07,3.322360893986348e-07,3.121980603856531e-05
6.741690170604687e-07,6.050816850751314e-07,3.3204116870544875e-07,3.22831062437724e-05
6.925892295484771e-07,6.020965300235297e-07,3.320230644581574e-07,3.3409947033526664e-05
7.118700442220252e-07,5.994529199346435e-07,3.321817989825272e-07,3.459649547357519e-05
7.319317560906671e-07,5.971544572662943e-07,3.32516295795042e-07,3.583885320555973e-05
7.526943755620391e-07,5.952032566399732e-07,3.3302353378501855e-07,3.713329560529104e-05
7.740853560646929e-07,5.93600596147595e-07,3.3369865463794786e-07,3.8476526633204624e-05
7.960435862213005e-07,5.923432395623422e-07,3.345354681913481e-07,3.9865962458303334e-05
8.185152337096191e-07,5.914199752319262e-07,3.355272815427996e-07,4.1299903202380216e-05
8.414460617213182e-07,5.908111515708503e-07,3.366671009807709e-07,4.2777444071702425e-05
8.647774879616361e-07,5.904901912968915e-07,3.379468285173784e-07,4.4298167966439296e-05
8.884456538991953e-07,5.904256419345809e-07,3.3935705561633267e-07,4.58617383406076e-05
9.123789549435514e-07,5.905825148926619e-07,3.4088831885165273e-07,4.7467505926239174e-05
9.364942480854023e-07,5.909229410861515e-07,3.425312967661835e-07,4.91142093378446e-05
9.606951237829614e-07,5.914074178765152e-07,3.442747679959029e-07,5e-06
9.848735195838692e-07,5.919969973446822e-07,3.461042478960981e-07,5e-06
1.0089129179585708e-06,5.926557601207388e-07,3.480025047503249e-07,5e-06
1.0326914139210456e-06,5.933519886526458e-07,3.499505578129331e-07,5e-06
1.0560850405810558e-06,5.940566378163962e-07,3.519297650117219e-07,5e-06
1.0789720592451321e-06,5.947404445609106e-07,3.539248492294917e-07,5e-06
1.1012365616485563e-06,5.953725225087655e-07,3.5592406795386425e-07,5e-06
1.1227692218297123e-06,5.959216593460366e-07,3.5791609956799113e-07,5e-06
1.143467983987213e-06,5.963585716166807e-07,3.598879752151321e-07,5e-06
1.163244624671758e-06,5.966564072571506e-07,3.6182505701182937e-07,5e-06
1.1820359600042844e-06,5.967899934722707e-07,3.637112302602362e-07,5e-06
1.1998088524457372e-06,5.967362448801782e-07,3.6552955604877856e-07,5e-06
1.2165519493990158e-06,5.964754013090033e-07,3.67263809109206e-07,5e-06
1.2322616255620714e-06,5.959916135850346e-07,3.6889970843569297e-07,5e-06
1.2469343525371986e-06,5.952730913219853e-07,3.704251648204624e-07,5e-06
1.2605675095183052e-06,5.943114181649699e-07,3.718304919623008e-07,5e-06
1.2731614973342501e-06,5.930995227261656e-07,3.7310855198088773e-07,5e-06
1.2847177637099908e-06,5.91630729293723e-07,3.742533908939651e-07,5e-06
1.2952349810275038e-06,5.899005760261714e-07,3.7525837685393306e-07,5e-06
1.3047080984574458e-06,5.87908617690323e-07,3.761159503687722e-07,5e-06
1.3131303162763968e-06,5.856575891828562e-07,3.76818630959315e-07,5e-06
1.320496815826826e-06,5.831514353707932e-07,3.773604837780685e-07,5e-06
1.326811089162477e-06,5.803944237414857e-07,3.7773905808520926e-07,5e-06
1.3320915207659228e-06,5.773913634952897e-07,3.779583777233518e-07,5e-06
1.3363738992356538e-06,5.741489774113035e-07,3.7803272769248e-07,5e-06
1.3397092418528506e-06,5.706784181563811e-07,3.779872576794261e-07,5e-06
1.3421575684663014e-06,5.669969686034041e-07,3.7785259073078354e-07,5e-06
1.3437786194590652e-06,5.631275285829429e-07,3.776577407255202e-07,5e-06
1.3446242067619978e-06,5.590964019965066e-07,3.774267157905221e-07,5e-06
1.3447357039431672e-06,5.549302522259512e-07,3.771784052577787e-07,5e-06
1.3441454732145885e-06,5.506533459436425e-07,3.7692740300768315e-07,5e-06
1.3428824240559502e-06,5.462863256128847e-07,3.7668632967214605e-07,5e-06
1.3409800853543836e-06,5.418463950868662e-07,3.764696887408935e-07,5e-06
1.338478289253097e-06,5.373483018283466e-07,3.762954793896127e-07,5e-06
1.3354156490121887e-06,5.32806070376497e-07,3.761823568039796e-07,5e-06
1.3318220395543506e-06,5.282339028339872e-07,3.761455434100975e-07,5e-06
1.3277170089096523e-06,5.236458580044167e-07,3.7619506865984396e-07,5e-06
1.3231119904723775e-06,5.190573620723661e-07,3.763361968716568e-07,5e-06
1.318015045857947e-06,5.144893097425434e-07,3.765699807152191e-07,5e-06
1.3124370839704807e-06,5.099703392522965e-07,3.7689355072874474e-07,5e-06
1.3063941004382706e-06,5.055328452759855e-07,3.7730164713509314e-07,5e-06
1.299902631618094e-06,5.012059810145325e-07,3.7778896473025103e-07,5e-06
1.2929744275053488e-06,4.970139001079611e-07,3.783514744283476e-07,5e-06
1.2856172652806655e-06,4.929809654435566e-07,3.7898674415837407e-07,5e-06
1.277839660591842e-06,4.891371245099528e-07,3.796933071355017e-07,5e-06
1.269652031216837e-06,4.855175042751008e-07,3.804685451271397e-07,5e-06
1.2610641230093422e-06,4.821590977658258e-07,3.813062831235144e-07,5e-06
1.2520840192080334e-06,4.790999536802061e-07,3.8219599217246045e-07,5e-06
1.24271981844698e-06,4.76378730040205e-07,3.831242587713181e-07,5e-06
1.232980829683955e-06,4.740310029496497e-07,3.8407782777729936e-07,5e-06
1.2228754897497896e-06,4.72084431151789e-07,3.8504602425942994e-07,5e-06
1.2124081102364126e-06,4.7055611381564723e-07,3.860203720911374e-07,5e-06
1.2015793741341374e-06,4.69453051036201e-07,3.8699271179868175e-07,5e-06
1.1903903345744744e-06,4.687737976651615e-07,3.879545545166725e-07,5e-06
1.178844954609012e-06,4.685093415421399e-07,3.8889703417915137e-07,5e-06
1.166949644276621e-06,4.686445644009817e-07,3.8981039968524816e-07,5e-06
1.1547126833923263e-06,4.6916115292047494e-07,3.9068451478559115e-07,5e-06
1.1421443010494505e-06,4.7004026629759095e-07,3.915099710236597e-07,5e-06
1.1292558602200705e-06,4.712643916840257e-07,3.92277747447737e-07,4.97541541176034e-05
1.1160582144135596e-06,4.7281763527965287e-07,3.929788313518417e-07,4.773999326154855e-05
1.1025606526676862e-06,4.7468294606095896e-07,3.936059352368925e-07,4.5740070429041524e-05
1.088771084694275e-06,4.76838538286306e-07,3.941557565894485e-07,4.375971978073165e-05
1.074696669714258e-06,4.792573760882267e-07,3.946298401720385e-07,4.180398219316022e-05
1.0603452811433898e-06,4.819098192779648e-07,3.9503422922318005e-07,3.987750025976896e-05
1.045728687994687e-06,4.847663010058956e-07,3.9537826624536845e-07,3.7984480895391536e-05
1.030864112613558e-06,4.877972590508486e-07,3.9567247209030257e-07,3.6128708385107704e-05
1.0157718997023084e-06,4.909713803403478e-07,3.959259240217653e-07,3.431367598742601e-05
1.0004739645190404e-06,4.942550819361309e-07,3.9614465661085306e-07,3.25429003059753e-05
9.849946763913157e-07,4.97613239164255e-07,3.963326440720523e-07,3.0820222472785385e-05
9.693601340889952e-07,5.010097175947957e-07,3.96494019888236e-07,2.9149771949432567e-05
9.535969807960251e-07,5.044074906474976e-07,3.966335643588413e-07,2.75356426507259e-05
9.377330669925232e-07,5.077692337859261e-07,3.967553634004797e-07,2.5981672453010973e-05
9.217967063979685e-07,5.110590762595411e-07,3.9686187104713175e-07,2.4491456328081265e-05
9.058140785155323e-07,5.142439074539008e-07,3.9695437746914133e-07,2.306838395639843e-05
8.898085750852469e-07,5.172931144125929e-07,3.9703418099347523e-07,2.1715602416841625e-05
8.738029317100057e-07,5.201786814760893e-07,3.971034878286283e-07,2.043593703052598e-05
8.578216781995863e-07,5.228764156517348e-07,3.9716496435929496e-07,1.9231743040182232e-05
8.418911525037471e-07,5.253666989030707e-07,3.9721973190677967e-07,1.81047343932055e-05
8.260372502996174e-07,5.276338731686089e-07,3.9726571015559726e-07,1.705592009108068e-05
8.102842079575142e-07,5.296648056865715e-07,3.9729789439681776e-07,1.6085651372444727e-05
7.946549830848354e-07,5.314480572609625e-07,3.973096070280256e-07,1.5193703500657209e-05
7.79170740276714e-07,5.329745569476546e-07,3.972932300342165e-07,1.4379359081600018e-05
7.638497436399669e-07,5.342396832434685e-07,3.972402073833413e-07,1.3641472652433036e-05
7.487078131548385e-07,5.352458952025618e-07,3.9714073731880604e-07,1.2978529050496754e-05
7.33760784828954e-07,5.360030315349076e-07,3.96983777028353e-07,1.2388732397655134e-05
7.190274610970684e-07,5.365245580210409e-07,3.9675832029224024e-07,1.187009431961138e-05
7.045300096699968e-07,5.368231226288021e-07,3.9645565648146243e-07,1.142044971757702e-05
6.902907322792872e-07,5.369094241045943e-07,3.9607003146986477e-07,1.1037407383766376e-05
6.763284797973006e-07,5.367945256124847e-07,3.955972803933775e-07,1.0718304852788914e-05
6.626579461136375e-07,5.364930099827873e-07,3.9503503184413477e-07,1.0460203048962655e-05
6.492917324940568e-07,5.360245239330175e-07,3.9438465864572437e-07,1.0259922344823023e-05
6.36244526085783e-07,5.354124080847562e-07,3.93650437550226e-07,1.0114120442444463e-05
6.235389832122793e-07,5.346795707683962e-07,3.928358340052268e-07,1.001941928978351e-05
6.11210326392859e-07,5.338459179485549e-07,3.9194143858207223e-07,9.972561727463716e-06
5.993061760784534e-07,5.329322559639019e-07,3.909657111318096e-07,9.970528133197773e-06
5.878816603782529e-07,5.319667262842566e-07,3.8990638035385974e-07,1.0010574647779794e-05
5.76993332872669e-07,5.309853375893133e-07,3.8876144140124203e-07,1.0090225997335243e-05
5.666954999162609e-07,5.300271730358073e-07,3.875295255713143e-07,1.0207247029486599e-05
5.570378585319555e-07,5.291300803350407e-07,3.8620931931924977e-07,1.035957780427857e-05
5.480616305229671e-07,5.283282976961344e-07,3.847996745832693e-07,1.0545221434563514e-05
5.397956223516844e-07,5.276528483357243e-07,3.833024470731735e-07,1.076212602956149e-05
5.322546498378122e-07,5.271343872162825e-07,3.8172571686876177e-07,1.1008151863055092e-05
5.254402275456234e-07,5.268038583109787e-07,3.800834561438357e-07,1.1281123047480507e-05
5.193426954370033e-07,5.266891945163368e-07,3.783923616476319e-07,1.1578839748730788e-05
5.139447912484114e-07,5.268117027445902e-07,3.7666914537487626e-07,1.1899021641816195e-05
5.092265593718303e-07,5.271849874939686e-07,3.749292729416232e-07,1.2239275762131026e-05
5.051690393426587e-07,5.278151945644038e-07,3.73186639865275e-07,1.2597147740012735e-05
5.017538967273279e-07,5.28700604513751e-07,3.714534583011595e-07,1.2970250476071236e-05
4.989602083839706e-07,5.298313478299647e-07,3.697394753717064e-07,1.3356386986821276e-05
4.967615934108421e-07,5.311908474852215e-07,3.6805114553192593e-07,1.3753569321154887e-05
4.951255052615178e-07,5.327590401795916e-07,3.663920307004182e-07,1.4159938949869015e-05
4.940150306686311e-07,5.345154452186238e-07,3.6476433794434364e-07,1.4573666558581152e-05
4.933925444422987e-07,5.36440371127411e-07,3.631703918363265e-07,1.4992927890069924e-05
4.932263653472242e-07,5.38514597900445e-07,3.616128929565321e-07,1.5415977460863965e-05
4.934998808673689e-07,5.40717670142344e-07,3.600940963149765e-07,1.5841198951579318e-05
4.942137888072789e-07,5.430258372917665e-07,3.586153703134652e-07,1.6267041448950407e-05
4.953765671642403e-07,5.454124201451617e-07,3.571789798946919e-07,1.669190229806987e-05
4.969943970297124e-07,5.478504416889204e-07,3.557915870425496e-07,1.7114069522319358e-05
4.990687341917347e-07,5.503144124897058e-07,3.5446632030131743e-07,1.7531760445387882e-05
5.015956912751654e-07,5.527794979534857e-07,3.532220247722919e-07,1.794318390426602e-05
5.045634457163312e-07,5.552191841798434e-07,3.520802716340742e-07,1.834655584725201e-05
5.079516104269839e-07,5.576044630605772e-07,3.510613067765245e-07,1.874010410181279e-05
5.117334066392217e-07,5.599054863286772e-07,3.501813447402521e-07,1.9122157418793367e-05
5.158777222308453e-07,5.620927590662964e-07,3.4945264925566157e-07,1.949135066094432e-05
5.203522381171687e-07,5.641366736357521e-07,3.488862029762421e-07,1.9846813637947306e-05
5.251299713318448e-07,5.660082710027381e-07,3.484951867168072e-07,2.018814548708089e-05
5.301953171049107e-07,5.676825204368643e-07,3.482956707868687e-07,2.0515187212187548e-05
5.355432791544753e-07,5.691419551061501e-07,3.4830359863385105e-07,2.0827811679665634e-05
5.41172463649186e-07,5.703776007249341e-07,3.4853123957809147e-07,2.1125907645950588e-05
5.470790285521987e-07,5.713858360598305e-07,3.4898601091832187e-07,2.140956323887816e-05
5.532547709350326e-07,5.721642117002059e-07,3.49672106008447e-07,2.1679254966468698e-05
5.596859677082489e-07,5.727094202450857e-07,3.5059268424813964e-07,2.1935848935647392e-05
5.663521584203847e-07,5.730165800070889e-07,3.517501678545832e-07,2.218046046526127e-05
5.732281124612241e-07,5.730795909624138e-07,3.531462817886525e-07,2.2414318105794008e-05
5.802894853310528e-07,5.728929965863615e-07,3.5478343997669774e-07,2.263868844841973e-05
5.875180928266293e-07,5.724527924020171e-07,3.5666426186626564e-07,2.2854833763414946e-05
5.949042703552512e-07,5.717547707201826e-07,3.587881617635171e-07,2.3063942149807253e-05
6.024482232546991e-07,5.707932914953131e-07,3.6114855983908036e-07,2.3267024764789065e-05
6.101604621212871e-07,5.6956278031581e-07,3.637324273036196e-07,2.3464842175193896e-05
6.180584206894724e-07,5.680603719185316e-07,3.6652149200628857e-07,2.365787714311347e-05
6.26158912992269e-07,5.662879556292476e-07,3.6949473881039664e-07,2.384631542499973e-05
6.344703196924364e-07,5.64252831447309e-07,3.726313154276168e-07,2.403004221931204e-05
6.429887286457329e-07,5.619660570103814e-07,3.759113424350701e-07,2.4208676960880286e-05
6.516976664193017e-07,5.594403141860816e-07,3.793139328414842e-07,2.4381614455513965e-05
6.605690729142069e-07,5.566887723310118e-07,3.828154638357153e-07,2.4548061330636603e-05
6.695655551717347e-07,5.537239818499947e-07,3.863907329738925e-07,2.4707102717933733e-05
6.786442373876292e-07,5.505581366346196e-07,3.9001646719070025e-07,2.4857795243929565e-05
6.8776234303635e-07,5.472044995071028e-07,3.936737832476477e-07,2.4999240246523653e-05
6.968832441731904e-07,5.436772690924594e-07,3.9734679049935853e-07,2.5130610233007848e-05
7.059777768692013e-07,5.399917574528452e-07,4.010194825307382e-07,2.5251151180847896e-05
7.150190860481962e-07,5.36167969493636e-07,4.046749670173368e-07,2.5360220710003572e-05
7.239774437613291e-07,5.322354631836054e-07,4.0829691923465636e-07,2.54573894058442e-05
7.328212957517389e-07,5.282342523613266e-07,4.118703182168377e-07,2.5542533424724538e-05
7.415251048812717e-07,5.24209564233912e-07,4.153809589285789e-07,2.561580108221045e-05
7.500800980009309e-07,5.202050008211207e-07,4.1881488409643937e-07,2.5677446000529346e-05
7.585002399212739e-07,5.162609690749415e-07,4.221575426756313e-07,2.572769145499917e-05
7.668166774947816e-07,5.124194262209475e-07,4.25392735289367e-07,2.576676765313037e-05
7.750640253222137e-07,5.087283819406943e-07,4.2850250436014135e-07,2.579503603780195e-05
7.832702722090556e-07,5.052399879161793e-07,4.31468420792344e-07,2.5813030885357905e-05
7.914547296171673e-07,5.02004389876844e-07,4.342730561039461e-07,2.5821404449368733e-05
7.996283327796881e-07,4.990658457189626e-07,4.3690013319283955e-07,2.582084613354205e-05
8.077937521063581e-07,4.96463148441638e-07,4.3933469116386824e-07,2.581200029334202e-05
8.159458478869057e-07,4.942303535001085e-07,4.415659810031932e-07,2.579544432430444e-05
8.240709058579514e-07,4.92394475405125e-07,4.4359087636518594e-07,2.577175562620608e-05
8.321457859122582e-07,4.909729260949998e-07,4.454127897986421e-07,2.5741553605602868e-05
8.401402409708412e-07,4.899736755499124e-07,4.470379508146464e-07,2.570548137143869e-05
8.480223659943743e-07,4.893962093532542e-07,4.484740929571062e-07,2.566421406852255e-05
8.557636452890109e-07,4.89232167786439e-07,4.4972995741421356e-07,2.5618490409937453e-05
8.633399475642706e-07,4.894672796886225e-07,4.5081308680442764e-07,2.5569102480912525e-05
8.707292286894804e-07,4.900842821078541e-07,4.517287523165514e-07,2.5516846897968208e-05
8.779105023559424e-07,4.910656011696975e-07,4.5248188986226547e-07,2.5462496198985808e-05
8.848646367466638e-07,4.923960219535682e-07,4.5307841346967134e-07,2.5406862364570622e-05
8.915730875732824e-07,4.940649384189907e-07,4.535231139855764e-07,2.53509566072425e-05
8.98014984608362e-07,4.960660626850116e-07,4.5381719267899887e-07,2.529608038908957e-05
9.041660098494505e-07,4.98393221376153e-07,4.539581926874914e-07,2.524369318536608e-05
9.09998973784692e-07,5.010350570241857e-07,4.5394153191878e-07,2.5195148237030688e-05
9.154860878503963e-07,5.039728542315651e-07,4.5376265717850797e-07,2.5151479980350425e-05
9.206031752484251e-07,5.071820271780678e-07,4.534186906507696e-07,2.511335982369693e-05
9.253314075562076e-07,5.10634798112734e-07,4.529089863422206e-07,2.5081298145813945e-05
9.296538916723374e-07,5.143013432471675e-07,4.522356866096346e-07,2.505600651713937e-05
9.335519461798704e-07,5.181496484254182e-07,4.5140438250501935e-07,2.503864669481265e-05
9.37005229187632e-07,5.221457879679228e-07,4.50423645136533e-07,2.5030814032706923e-05
9.399928704831939e-07,5.262539570954404e-07,4.493034382692916e-07,2.503434975193485e-05
9.424923330533304e-07,5.304358603334311e-07,4.4805388867086885e-07,2.5051113278817656e-05
9.444785592999216e-07,5.346504746914129e-07,4.466846577081536e-07,2.508276819131262e-05
9.459277252341184e-07,5.388548838056308e-07,4.4520412460869034e-07,2.513062254003245e-05
9.468238966564852e-07,5.430062860294343e-07,4.436200823937742e-07,2.519557225264953e-05
9.47161655780344e-07,5.470636310391059e-07,4.4194305914669057e-07,2.527813848809169e-05
9.469440347784752e-07,5.509881890147073e-07,4.4018845311955317e-07,2.537852548562213e-05
9.461818917791168e-07,5.547442793366978e-07,4.3837477894138786e-07,2.549665233010961e-05
9.448938096899738e-07,5.582992715376188e-07,4.3652080579752816e-07,2.5632160494619945e-05
9.431010827933494e-07,5.616219143324457e-07,4.346440164766493e-07,2.578438944714772e-05
9.408212210190701e-07,5.646809978243798e-07,4.327594064890022e-07,2.595231955998729e-05
9.380672970966038e-07,5.674459559353663e-07,4.3087800702087775e-07,2.6134531479028062e-05
9.348531218554119e-07,5.69889675322544e-07,4.2900627851961406e-07,2.6329245916167317e-05
9.311977010900129e-07,5.719929973749255e-07,4.271464569931417e-07,2.653445852216669e-05
9.271237155765236e-07,5.737472815892187e-07,4.252968439243995e-07,2.674812094664172e-05
9.226529222607872e-07,5.751513642299703e-07,4.234523689080882e-07,2.696829960145461e-05
9.178055591695135e-07,5.762057323293064e-07,4.2160572390075286e-07,2.719325794685544e-05
9.126039246237403e-07,5.769095752177835e-07,4.1974829007784045e-07,2.7421433725968258e-05
9.070735839352013e-07,5.772623097402878e-07,4.178707161076465e-07,2.7651337129081145e-05
9.012396611962437e-07,5.772672486338293e-07,4.1596326493485407e-07,2.788143516895077e-05
8.951236368616213e-07,5.769337521049651e-07,4.1401578501393116e-07,2.8110065063144366e-05
8.887456470443531e-07,5.762768014928531e-07,4.1201812665655476e-07,2.8335392536203807e-05
8.821295377688334e-07,5.75316038543955e-07,4.0996190869128904e-07,2.855544118197755e-05
8.753047117097687e-07,5.740755315479482e-07,4.078424396885696e-07,2.876820800726892e-05
8.683040186506186e-07,5.725853193669772e-07,4.0565909065138615e-07,2.8971792432794646e-05
8.611612335651024e-07,5.708850511720394e-07,4.0341554119652993e-07,2.9164424367419532e-05
8.539091413213825e-07,5.690256475040887e-07,4.0112170398171724e-07,2.9344398465333397e-05
8.465776659484321e-07,5.67065314667369e-07,3.987942133903796e-07,2.9510019341737627e-05
8.391925057746459e-07,5.650625968480112e-07,3.9645238360223926e-07,2.965960579656936e-05
8.317740808895035e-07,5.630717661612545e-07,3.941129996375882e-07,2.979152910151404e-05
8.243379529843389e-07,5.611439656284141e-07,3.9178816362370646e-07,2.9904247630060968e-05
8.168979877859312e-07,5.593321931887517e-07,3.894854680697667e-07,2.999634867568686e-05
8.094697467117873e-07,5.576932749653032e-07,3.872086634857722e-07,3.0066651420502558e-05
8.020724487652609e-07,5.562851306832835e-07,3.849586808228582e-07,3.011434107839688e-05
7.947309330362358e-07,5.551639077327531e-07,3.8273502860326477e-07,3.013901849059984e-05
7.874760890699792e-07,5.543819394750422e-07,3.805379387463337e-07,3.014063177051143e-05
7.803411752952379e-07,5.539842001076679e-07,3.7837015918930394e-07,3.011936100463609e-05
7.733590486269555e-07,5.540043842743158e-07,3.762357744580976e-07,3.0075518254314757e-05
7.665653844740199e-07,5.54463555966997e-07,3.741376126121179e-07,3.0009484068113173e-05
7.600012762065571e-07,5.553708934600458e-07,3.720770757752994e-07,2.9921662420349652e-05
7.537091971798488e-07,5.567256131005183e-07,3.7005606862649113e-07,2.981241852909264e-05
7.477283649354974e-07,5.585207680647403e-07,3.68078472875608e-07,2.968202066066505e-05
7.420938964324133e-07,5.607461588193062e-07,3.661495726052144e-07,2.953064083041228e-05
7.368353503370203e-07,5.633869744438319e-07,3.642739366214281e-07,2.9358403580647064e-05
7.319744970224783e-07,5.664207053756235e-07,3.624545063014228e-07,2.9165430822331677e-05
7.275266198767576e-07,5.698163198708779e-07,3.606930684589899e-07,2.895192232155038e-05
7.235025428589816e-07,5.735356659120172e-07,3.589898308476465e-07,2.8718357713269316e-05
7.199072987593247e-07,5.775361667344535e-07,3.573428725479567e-07,2.846567851740275e-05
7.167380803868232e-07,5.81774575895569e-07,3.557494770053415e-07,2.819522498440939e-05
7.13983893672682e-07,5.862094649689392e-07,3.5420823191988353e-07,2.7908592792920367e-05
7.116261038691794e-07,5.908009830257396e-07,3.527191866556983e-07,2.7607663398436305e-05
7.096392375327795e-07,5.955114078041221e-07,3.512817847491178e-07,2.729467598724596e-05
7.079913957002994e-07,6.003095727324369e-07,3.4989281440097985e-07,2.6972184744418906e-05
7.066447509507647e-07,6.05176019255705e-07,3.485458694728961e-07,2.6642951517767332e-05
7.055585395300106e-07,6.101035838511806e-07,3.472319901340509e-07,2.630980319206087e-05
7.046947225553916e-07,6.150923471645824e-07,3.4594120616337764e-07,2.597545534845624e-05
7.040222578868927e-07,6.201421652979134e-07,3.446650240370202e-07,2.5642348737886096e-05
7.035167669208515e-07,6.252469848134754e-07,3.433988292956045e-07,2.531254337915885e-05
7.031582725179592e-07,6.303938012171503e-07,3.421434609927353e-07,2.498768226827796e-05
7.029307193967323e-07,6.355659108704889e-07,3.409060067563217e-07,2.466901960325338e-05
7.028210112761126e-07,6.407465983257e-07,3.396997293151522e-07,2.435750964977109e-05
7.028155483573751e-07,6.459198278180554e-07,3.385429517932039e-07,2.405393507249005e-05
7.028984095298711e-07,6.510688466423252e-07,3.374561893934964e-07,2.3759008088379268e-05
7.030526711966146e-07,6.561750397390238e-07,3.3645849747144126e-07,2.3473389920088185e-05
7.032607568129357e-07,6.612179616007766e-07,3.355655911077693e-07,2.3197674570073426e-05
7.035038050576739e-07,6.661768926816278e-07,3.3478988328136613e-07,2.293240942289073e-05
7.037630289840744e-07,6.710316198307797e-07,3.341406498986692e-07,2.2678130229287852e-05
7.040209539207349e-07,6.757605589304495e-07,3.336236672531289e-07,2.2435359548271725e-05
7.042602664837215e-07,6.803388299625239e-07,3.332415616295941e-07,2.2204586198121432e-05
7.044623212037565e-07,6.84738152109338e-07,3.3299539295983645e-07,2.198625812633433e-05
7.046065041958923e-07,6.889277691499293e-07,3.328859787915797e-07,2.178076891086516e-05
7.04670535309737e-07,6.928757050767839e-07,3.3291389710818647e-07,2.158840081585272e-05
7.046325319221893e-07,6.965500969253951e-07,3.330783524927775e-07,2.1409238319839416e-05
7.04474030095793e-07,6.99920330978242e-07,3.33375770094414e-07,2.1243115044956725e-05
7.041832714129967e-07,7.029580694922564e-07,3.337991330269127e-07,2.1089621881392435e-05
7.037596403080761e-07,7.056384006787146e-07,3.343384174608328e-07,2.094813381023352e-05
7.032161427607203e-07,7.079401654449584e-07,3.3498250436312925e-07,2.0817832853426125e-05
7.025749732787633e-07,7.098450033930222e-07,3.35722021370265e-07,2.06977736846948e-05
7.018589188875985e-07,7.113368645969798e-07,3.3655037838364e-07,2.0587025630997888e-05
7.010864386537346e-07,7.124050113950689e-07,3.374617017041296e-07,2.048486683923078e-05
7.00272405351657e-07,7.130512639799882e-07,3.384483894489005e-07,2.039095821032767e-05
6.99429353299627e-07,7.132969712912413e-07,3.395009831107785e-07,2.0305376821321413e-05
6.985670536587314e-07,7.131842706706189e-07,3.406091438861584e-07,2.0228462552814292e-05
6.976937613457195e-07,7.127697464355955e-07,3.4176181092086893e-07,2.016061487493742e-05
6.968186079768587e-07,7.121133827586095e-07,3.429476473192603e-07,2.0102206393690348e-05
6.959517240740749e-07,7.11270883746886e-07,3.441569435767657e-07,2.005363654569725e-05
6.951028765488001e-07,7.10295243754138e-07,3.45383379926927e-07,2.0015422138522835e-05
6.942800383313723e-07,7.092430578706962e-07,3.466235903469593e-07,1.9988190239846482e-05
6.934883728388497e-07,7.08177360687853e-07,3.478747105856991e-07,1.9972537963467397e-05
6.927313440404061e-07,7.071662263209377e-07,3.4913195995545265e-07,1.9968857151092728e-05
6.920136587212208e-07,7.062789213178691e-07,3.5038762655814354e-07,1.997723752331293e-05
6.913427411827836e-07,7.055783085094391e-07,3.516316083242946e-07,1.9997513245971455e-05
6.907273137357153e-07,7.05113656008161e-07,3.52853511560356e-07,2.0029455322038693e-05
6.901778553530151e-07,7.049222081922942e-07,3.540450079994554e-07,2.007298554340151e-05
6.897126865974996e-07,7.050373044130265e-07,3.552009290678571e-07,2.0128233473524562e-05
6.893629796902492e-07,7.054923706073069e-07,3.5631971373511985e-07,2.019540008428769e-05
6.89169632102744e-07,7.06318428296466e-07,3.5740312792720157e-07,2.0274538120719848e-05
6.891751582174742e-07,7.075400607083157e-07,3.5845403007018244e-07,2.036538133881313e-05
6.894164476750218e-07,7.091711904374308e-07,3.594735352082162e-07,2.0467308767077304e-05
6.899203709416753e-07,7.112115076371278e-07,3.604599043812018e-07,2.057944372038234e-05
6.907021950323342e-07,7.136464428259229e-07,3.6140899158026966e-07,2.070081578091e-05
6.917672729286585e-07,7.164515400696277e-07,3.6231528392158436e-07,2.0830536512252413e-05
6.931153496720399e-07,7.19599081098628e-07,3.631737027906828e-07,2.096800963773221e-05
6.947431430223957e-07,7.230624617599339e-07,3.639810072408442e-07,2.1113114098654284e-05
6.966433553963358e-07,7.26816035555718e-07,3.64734825466057e-07,2.1266194153613243e-05
6.988043731323049e-07,7.308337741609287e-07,3.6543169714323287e-07,2.142785369881264e-05
7.012122057337768e-07,7.350899891741857e-07,3.6606671947907406e-07,2.1598705519447503e-05
7.038515839403296e-07,7.39560858950655e-07,3.6663422312007043e-07,2.177917478562552e-05
7.067052928425184e-07,7.442246511078551e-07,3.671277351663992e-07,2.1969462586489177e-05
7.097540133055739e-07,7.490612978174842e-07,3.675398160872687e-07,2.2169749662030675e-05
7.129806621200455e-07,7.540532856635347e-07,3.6786400155544966e-07,2.238047099517417e-05
7.163781076229519e-07,7.591870425125859e-07,3.6809910822887e-07,2.260240670185967e-05
7.199500700247098e-07,7.644510961283144e-07,3.6825203792930045e-07,2.2836583333223792e-05
7.237015246787412e-07,7.698311989043057e-07,3.683358696887221e-07,2.3084109095145825e-05
7.276287724557609e-07,7.753081371261486e-07,3.6836594857719025e-07,2.3346005162198424e-05
7.317166708926604e-07,7.808601541972294e-07,3.68357157747492e-07,2.362307255580321e-05
7.359401226890699e-07,7.864658892962182e-07,3.683220247085506e-07,2.391579778854444e-05
7.402672129840772e-07,7.921052305482685e-07,3.6827021805254886e-07,2.422427081334683e-05
7.446658947591405e-07,7.977587911597964e-07,3.682096091582903e-07,2.454813334862115e-05
7.491118313368024e-07,8.034067481415604e-07,3.68146571329658e-07,2.488658950085172e-05
7.535906825730662e-07,8.09027043319031e-07,3.6808556938948325e-07,2.523845547122305e-05
7.580946494336515e-07,8.145938315514592e-07,3.680300293815149e-07,2.560220290244292e-05
7.626181826984679e-07,8.200771267761384e-07,3.6798371785173385e-07,2.5975980183137704e-05
7.671545115373908e-07,8.254434462070202e-07,3.679509672712989e-07,2.6357614883088543e-05
7.716937891569159e-07,8.306576022945647e-07,3.679355079701425e-07,2.674462258183709e-05
7.762230630633198e-07,8.356847694210787e-07,3.679389585297467e-07,2.7134265049086067e-05
7.807252686973608e-07,8.404911222839004e-07,3.679616201442319e-07,2.7523672741265724e-05
7.851771944509918e-07,8.450447254525601e-07,3.680056387834874e-07,2.791000539884203e-05
7.895491456793268e-07,8.493174354963214e-07,3.680763723664322e-07,2.8290615400493824e-05
7.938064781461674e-07,8.532837032226619e-07,3.681804983930312e-07,2.8663192350203223e-05
7.979114924499225e-07,8.569166797904021e-07,3.6832365583006024e-07,2.902586228009605e-05
8.018251461725742e-07,8.601877331327965e-07,3.6850917551341365e-07,2.93772054723367e-05
8.055085306406259e-07,8.63069582276243e-07,3.6873801817502397e-07,2.971618481276125e-05
8.089230394370916e-07,8.655378902581085e-07,3.6901002751401383e-07,3.0042017676083184e-05
8.120293894137707e-07,8.675696097919395e-07,3.6932489907085257e-07,3.0354028491085906e-05
8.147874567052419e-07,8.691407946200225e-07,3.696815399646663e-07,3.065149683768413e-05
8.171575317243173e-07,8.702277413185656e-07,3.7007714092048674e-07,3.0933533060732596e-05
8.191024433897429e-07,8.708129110100418e-07,3.705071470689319e-07,3.119902813106502e-05
8.205891418697794e-07,8.708921742657746e-07,3.709658653821006e-07,3.1446672623724435e-05
8.215886399306483e-07,8.704776000328401e-07,3.7144731726786323e-07,3.167500874091087e-05
8.220754448808968e-07,8.695936633076309e-07,3.719454807420933e-07,3.1882511497496143e-05
8.220271103222798e-07,8.682700529133232e-07,3.7245415849206756e-07,3.2067701391076095e-05
8.214238040879168e-07,8.665355635730473e-07,3.729687811617285e-07,3.222923253493525e-05
8.202490498463404e-07,8.644175061507842e-07,3.7348895335310655e-07,3.23658958600742e-05
8.18492570275211e-07,8.619492041956129e-07,3.7401729931304777e-07,3.247657135957682e-05
8.161532632492508e-07,8.59178589665979e-07,3.74555773253671e-07,3.256019963056781e-05
8.132379206515827e-07,8.561666005198543e-07,3.751042413748145e-07,3.2615791961057306e-05
8.097562256157224e-07,8.529768711062006e-07,3.7566154668062074e-07,3.264245653907592e-05
8.057182351764491e-07,8.496674649191704e-07,3.762266487783815e-07,3.263941839262954e-05
8.011356071835037e-07,8.462887747474922e-07,3.76799321618709e-07,3.2606030999948715e-05
7.960223748414423e-07,8.428841463600268e-07,3.7738035067225967e-07,3.254177259715799e-05
7.90394140736708e-07,8.39489349741172e-07,3.7797035832370377e-07,3.2446245562730456e-05
7.842679583413648e-07,8.361310491787837e-07,3.785682419378002e-07,3.231923799023911e-05
7.77663508093573e-07,8.328263220885194e-07,3.791718775142193e-07,3.2160833167801424e-05
7.706035745542802e-07,8.295832064948667e-07,3.797806454028672e-07,3.197147239697273e-05
7.631128378483986e-07,8.264024174142541e-07,3.803959346156164e-07,3.1751934244430876e-05
7.552168481608591e-07,8.232799817137156e-07,3.810185953605075e-07,3.150325161310116e-05
7.469438147948841e-07,8.20208311295674e-07,3.816468302708244e-07,3.1226626318537976e-05
7.38328017056215e-07,8.171753564696776e-07,3.8227616710946156e-07,3.092350136644841e-05
7.294098785445905e-07,8.141642154337533e-07,3.8289971391113046e-07,3.059580545067375e-05
7.202317670548576e-07,8.111549491375494e-07,3.8350802859440396e-07,3.0246077348912568e-05
7.10834228785392e-07,8.081283066148401e-07,3.840892761113921e-07,2.987730466438467e-05
7.01255987053574e-07,8.050683373070304e-07,3.8462964872491284e-07,2.9492626308752614e-05
6.915354434301386e-07,8.019618143423977e-07,3.851140085585113e-07,2.9095058729796605e-05
6.817115691389531e-07,7.987967133331559e-07,3.855272243715107e-07,2.8687352663062945e-05
6.71826761874717e-07,7.955620841292545e-07,3.8585565314640705e-07,2.8272094055451978e-05
6.619300982411364e-07,7.92249172929877e-07,3.8608705295494244e-07,2.7851976642042962e-05
6.520756001807276e-07,7.888524459632925e-07,3.862092729691897e-07,2.7429973855913142e-05
6.423172473221538e-07,7.853683603394134e-07,3.862103512133691e-07,2.700929586633684e-05
6.327053651558825e-07,7.817923076242271e-07,3.860802526782264e-07,2.659324830672637e-05
6.232856131262928e-07,7.781173316512162e-07,3.8581170569089225e-07,2.6185090351187782e-05
6.140997239478829e-07,7.743354445412785e-07,3.853993677531092e-07,2.5787913977362468e-05
6.05184728919419e-07,7.704385985075697e-07,3.848387201806556e-07,2.5404549064621066e-05
5.965700702976387e-07,7.664179795729782e-07,3.84125492396984e-07,2.503749234958409e-05
5.882772274245671e-07,7.622631578299056e-07,3.8325586543726905e-07,2.468886102933573e-05
5.803239348201083e-07,7.579627304332442e-07,3.8222726039610454e-07,2.43603697425964e-05
5.727296669066771e-07,7.535069884713087e-07,3.8103832090593045e-07,2.4053306712798454e-05
5.655171544094474e-07,7.488906271624596e-07,3.7968787248011844e-07,2.3768491670668172e-05
5.587083013217992e-07,7.441129900352656e-07,3.7817499742692967e-07,2.3506249979831328e-05
5.523197352313633e-07,7.391766103322952e-07,3.76500549280339e-07,2.326644172517876e-05
5.463624808531008e-07,7.340854461118178e-07,3.746677336700203e-07,2.304853774999008e-05
5.408442443485305e-07,7.288441136474644e-07,3.726818621066647e-07,2.285172688535772e-05
5.357720043808858e-07,7.234592278113725e-07,3.705510510180728e-07,2.267504908749044e-05
5.311531119294655e-07,7.179400718749662e-07,3.6828658704767253e-07,2.2517517112661934e-05
5.269934179599613e-07,7.122964556645745e-07,3.659017485199072e-07,2.237818654954405e-05
5.232951121600019e-07,7.065361455856282e-07,3.6341078358279634e-07,2.2256203208441307e-05
5.20058168674756e-07,7.006650284132976e-07,3.608290167020332e-07,2.21508643392924e-05
5.172839659664461e-07,6.9469105337653e-07,3.581734061399634e-07,2.2061653217239662e-05
5.149761268954051e-07,6.886280320092695e-07,3.554631245955903e-07,2.1988208591066352e-05
5.131371712971403e-07,6.824954180232308e-07,3.527198175640167e-07,2.1930258506587835e-05
5.117648301855631e-07,6.763160331139086e-07,3.499668481548549e-07,2.188753019767012e-05
5.108506290474302e-07,6.701136203179404e-07,3.4722712791356175e-07,2.18596320023648e-05
5.10379209479478e-07,6.639124221814791e-07,3.4452057300678027e-07,2.18459953989178e-05
5.103279947318115e-07,6.577425001918736e-07,3.418629659912109e-07,2.1845935177453524e-05
5.106689843067264e-07,6.516464686053228e-07,3.392670123083073e-07,2.185872031582848e-05
5.113719400521644e-07,6.45678146678791e-07,3.367459219121935e-07,2.1883565202823973e-05
5.124062101944057e-07,6.398928885658132e-07,3.343175410287945e-07,2.191958541101142e-05
5.137426183734247e-07,6.343387656092982e-07,3.320043694805921e-07,2.1965786379299406e-05
5.153594775091925e-07,6.290552606745819e-07,3.298293328681869e-07,2.202108381645746e-05
5.172491942830453e-07,6.24078047146862e-07,3.278119634159565e-07,2.2084297053120082e-05
5.194170869160175e-07,6.194429118489672e-07,3.2596720396812485e-07,2.2154116995886508e-05
5.218733594583431e-07,6.151840563836293e-07,3.243059821738197e-07,2.2229124844209067e-05
5.246263383142302e-07,6.113298332206183e-07,3.228358741496788e-07,2.230788239967884e-05
5.276798014184912e-07,6.078999057501268e-07,3.215607561402105e-07,2.2389065324228447e-05
5.310322739433279e-07,6.049040749242368e-07,3.204799140687606e-07,2.2471615410856768e-05
5.346769691980976e-07,6.023432311598938e-07,3.1958783028928826e-07,2.255483232688638e-05
5.386021581367833e-07,6.002119897700906e-07,3.188756123002953e-07,2.263831598380889e-05
5.427912282200639e-07,5.985010601408681e-07,3.183330592459761e-07,2.2721794001281666e-05
5.472224258291744e-07,5.971980325199168e-07,3.17949206512412e-07,2.280495794084161e-05
5.5187143359279e-07,5.962859711867146e-07,3.177120647104295e-07,2.288739655692885e-05
5.567180913609125e-07,5.957420038695728e-07,3.1760952102026913e-07,2.2968614100433178e-05
5.617513990958819e-07,5.95538898666691e-07,3.1763105010345085e-07,2.3048064472577085e-05
5.669670766534728e-07,5.956479191752996e-07,3.177694320465508e-07,2.312516397532356e-05
5.72360585634319e-07,5.960396484808769e-07,3.1802131895226366e-07,2.319930018518888e-05
5.779229644195148e-07,5.966839855020471e-07,3.1838508762100236e-07,2.326992892574236e-05
5.836420287929679e-07,5.975523154467727e-07,3.188578612806149e-07,2.333682251513272e-05
5.895049235630282e-07,5.986197936180255e-07,3.1943473155542047e-07,2.3400295330471185e-05
5.954974076112763e-07,5.998636605374153e-07,3.2010922169584287e-07,2.3461180809290826e-05
6.016002221181836e-07,6.012596647599161e-07,3.208733925142736e-07,2.352061697055097e-05
6.077862783601449e-07,6.02780459533496e-07,3.217184269475791e-07,2.357981991404933e-05
6.140205684676709e-07,6.043960257270402e-07,3.2263516068011214e-07,2.3639943538242426e-05
6.202618722569836e-07,6.060766722694014e-07,3.2361358246136825e-07,2.370211280574589e-05
6.264649999567871e-07,6.077983816667822e-07,3.2464338760954845e-07,2.376757507812557e-05
6.325837505225372e-07,6.095461143832778e-07,3.257162591852817e-07,2.383775460842026e-05
6.385741902049813e-07,6.113117361274518e-07,3.268271289740983e-07,2.391415562172638e-05
6.443958333033596e-07,6.130887534676925e-07,3.2797291770306613e-07,2.399822621609984e-05
6.500103149527994e-07,6.148689523932641e-07,3.2914986460017874e-07,2.4091263482584804e-05
6.553797883562252e-07,6.16642847602969e-07,3.303514873995768e-07,2.4194381293884547e-05
6.604667658760968e-07,6.18400862195069e-07,3.3156855383318384e-07,2.430851350711192e-05
6.652356263111734e-07,6.201323923856853e-07,3.327905572202595e-07,2.443442220959035e-05
6.696541457399989e-07,6.218239967187292e-07,3.3400680111319997e-07,2.457271578347916e-05
6.736948772589686e-07,6.23458867398923e-07,3.3520630333865254e-07,2.4723886402365123e-05
6.773372108341888e-07,6.250169105813021e-07,3.363775634056978e-07,2.4888351563778414e-05
6.805678708091353e-07,6.264745348576199e-07,3.375084432096582e-07,2.506645285509587e-05
6.833798363062453e-07,6.278059360360297e-07,3.3858568910930425e-07,2.52583804158055e-05
6.857716566887005e-07,6.289864132116017e-07,3.39594732246102e-07,2.5464058746707394e-05
6.87745424686359e-07,6.299949073764641e-07,3.405200860204725e-07,2.5683051771377856e-05
6.8930381280701e-07,6.308145863773984e-07,3.413461577041298e-07,2.59145102694975e-05
6.904492080684474e-07,6.314322786882633e-07,3.4205927556955385e-07,2.615718892725362e-05
6.911842155747548e-07,6.318366965417743e-07,3.426503669249609e-07,2.640954979660137e-05
6.915126038926981e-07,6.320167227700444e-07,3.431150623855266e-07,2.666990632431161e-05
6.914420170461099e-07,6.319614454112854e-07,3.4345057626262605e-07,2.693657305318653e-05
6.909879054661753e-07,6.31661869656808e-07,3.436528094357833e-07,2.720801555528656e-05
6.901751633230706e-07,6.311136676918857e-07,3.4371603311332323e-07,2.7482956582031785e-05
6.890348564582281e-07,6.303193686050157e-07,3.4363516818661144e-07,2.776039547723361e-05
6.875995350795646e-07,6.292880951785142e-07,3.4340865205781996e-07,2.8039551921145387e-05
6.859037436579814e-07,6.280322131321039e-07,3.430386745937547e-07,2.831975331965213e-05
6.839905383638765e-07,6.265623905692341e-07,3.425289961922789e-07,2.86002767016163e-05
6.819175953703307e-07,6.248845149533308e-07,3.418829682113639e-07,2.8880212007359718e-05
6.797565396066719e-07,6.23001149365791e-07,3.4110250285019e-07,2.9158421303068828e-05
6.775862578256806e-07,6.209168218336646e-07,3.401882379113917e-07,2.943356851346488e-05
6.754853589801418e-07,6.186420827840405e-07,3.39140908623567e-07,2.9704177949426623e-05
6.735276010462167e-07,6.161916406182404e-07,3.379621330905235e-07,2.9968720215722803e-05
6.717813478085074e-07,6.135796601411298e-07,3.3665405244241105e-07,3.0225673302541467e-05
6.703095823226047e-07,6.108188680337437e-07,3.352198330552581e-07,3.0473510832958197e-05
6.69166724154782e-07,6.079237881335705e-07,3.336647577414763e-07,3.0710660716362924e-05
6.683941150416684e-07,6.049140981098401e-07,3.319958959449781e-07,3.0935480218293666e-05
6.680176318004305e-07,6.018154430539017e-07,3.3022094113385977e-07,3.114624369009154e-05
6.680485292445859e-07,5.986565734808707e-07,3.2834711426998816e-07,3.1341142179628866e-05
6.684874138619266e-07,5.954644684506368e-07,3.26380652967347e-07,3.1518322391373965e-05
6.693287651796148e-07,5.922607027246065e-07,3.243280975482735e-07,3.16760058040058e-05
6.705624354059186e-07,5.890600995624912e-07,3.2219804725608873e-07,3.1812681461944416e-05
6.721753295542686e-07,5.858710000104097e-07,3.200009076591344e-07,3.1927267293160954e-05
6.741607638432494e-07,5.826960942673008e-07,3.17747661164757e-07,3.201912778331391e-05
6.76533978520561e-07,5.79532848237222e-07,3.15449446036759e-07,3.2087944606138914e-05
6.793406005516121e-07,5.76373828325009e-07,3.131170191565284e-07,3.213352089409827e-05
6.826474802373737e-07,5.732082072416267e-07,3.1075949179126183e-07,3.215562798777797e-05
6.865233087035149e-07,5.700244304551942e-07,3.0838343809157373e-07,3.2153970077519265e-05
6.910265127726754e-07,5.668117438871368e-07,3.0599299961270353e-07,3.212823001966974e-05
6.962044498624843e-07,5.635592647087253e-07,3.035905763408229e-07,3.2078120035361276e-05
7.020938205181931e-07,5.602548698222314e-07,3.0117770284901493e-07,3.200348096471157e-05
7.087167145768393e-07,5.568861957258077e-07,2.9875607712097803e-07,3.190449572288629e-05
7.160757970669141e-07,5.5344337133283e-07,2.963283796361019e-07,3.178186617639069e-05
7.241536115404733e-07,5.499229659913359e-07,2.938983795015773e-07,3.1636758888814006e-05
7.329180932690155e-07,5.463313743500061e-07,2.914706461511981e-07,3.147059113354143e-05
7.423318493338371e-07,5.426832839600865e-07,2.8905034784314644e-07,3.1284829020396514e-05
7.523590306595887e-07,5.389953264882488e-07,2.866430949463149e-07,3.1080897331976973e-05
7.629651502248881e-07,5.352817633184564e-07,2.8425577656109237e-07,3.08603191904152e-05
7.741108631853392e-07,5.315556569756479e-07,2.818985570887529e-07,3.062503432586311e-05
7.857454091324319e-07,5.278307319374256e-07,2.795846344160693e-07,3.037756638281452e-05
7.978044986311316e-07,5.241212979615185e-07,2.7732665077422123e-07,3.012086841629567e-05
8.102124015409113e-07,5.204439079281373e-07,2.7513386416187466e-07,2.9858030853394324e-05
8.228858610645177e-07,5.168197976036014e-07,2.730126352174977e-07,2.9592055246431013e-05
8.357384164680975e-07,5.132726180206985e-07,2.709692863154834e-07,2.9325724952290545e-05
8.486836703445998e-07,5.098229388676011e-07,2.690126783004453e-07,2.906152372444127e-05
8.61635454305772e-07,5.064858640205875e-07,2.671536130157649e-07,2.880156972141703e-05
8.74505733438235e-07,5.032723732293896e-07,2.65402460013096e-07,2.854756861835647e-05
8.872045018997699e-07,5.001904016681989e-07,2.637689132319914e-07,2.8300799970234102e-05
8.996425801950385e-07,4.972452985811526e-07,2.6226297340927177e-07,2.8062136011251527e-05
9.117340428564957e-07,4.944425245042672e-07,2.608938321865105e-07,2.783206715098971e-05
9.233973801578293e-07,4.917923098762136e-07,2.5966778454066177e-07,2.761071430660619e-05
9.345565065567585e-07,4.893117284278482e-07,2.585878048353332e-07,2.739785037454577e-05
9.451413566235308e-07,4.870213205645084e-07,2.576541072142433e-07,2.7192970714822105e-05
9.550880553323905e-07,4.849404663874172e-07,2.568647220889976e-07,2.6995431382272197e-05
9.64338648894308e-07,4.830876826572985e-07,2.562166961453164e-07,2.6804624315380724e-05
9.72840730083576e-07,4.81485004804399e-07,2.557069788870228e-07,2.662010756375645e-05
9.805496107436538e-07,4.801607113395849e-07,2.553319626046874e-07,2.6441636449102828e-05
9.874340817637716e-07,4.791478677969693e-07,2.550871827780241e-07,2.626912268566787e-05
9.934804474234544e-07,4.784804861622078e-07,2.5496755904580585e-07,2.6102567240204682e-05
9.986887273075282e-07,4.781889477320952e-07,2.5496688919407426e-07,2.594198528026684e-05
1.0030658748903448e-06,4.782955447624163e-07,2.5507710264594865e-07,2.5787337725545364e-05
1.0066248444603134e-06,4.788123695210378e-07,2.552884579867282e-07,2.5638484199736896e-05
1.009386485682362e-06,4.797424861550501e-07,2.5559090532169727e-07,2.5495151236524422e-05
1.0113773018407832e-06,4.810819046346357e-07,2.559769564296761e-07,2.5356918285868853e-05
1.0126243747811846e-06,4.828206243994225e-07,2.5644484772199256e-07,2.522327485317453e-05
1.0131515213931208e-06,4.849448513036454e-07,2.569982336433155e-07,2.509374516373749e-05
1.0129771541729895e-06,4.874412635705798e-07,2.576427540431673e-07,2.4967960161719745e-05
1.0121135715807768e-06,4.902983694199924e-07,2.5838449427219574e-07,2.4845631986998623e-05
1.0105689543488763e-06,4.935026487524406e-07,2.592306937321485e-07,2.472650972095546e-05
1.0083512733824664e-06,4.970353028956668e-07,2.601888735185839e-07,2.461035648834201e-05
1.0054705963863718e-06,5.008752312267037e-07,2.612643319726989e-07,2.449692720156967e-05
1.0019386454745049e-06,5.05009107592762e-07,2.624594475230057e-07,2.43859192801242e-05
9.977687481446778e-07,5.094425395528328e-07,2.6377540610238e-07,2.4276904008743053e-05
9.929791589946874e-07,5.14200593763749e-07,2.652132338675412e-07,2.4169292545971607e-05
9.875967863794844e-07,5.193149866342859e-07,2.667726137445042e-07,2.4062351532292026e-05
9.81655703228915e-07,5.248103096973341e-07,2.684502434403716e-07,2.3955254317446327e-05
9.751914400313077e-07,5.307004720845958e-07,2.702404459659439e-07,2.3847202895614678e-05
9.682369155100607e-07,5.36992457076487e-07,2.721390848294558e-07,2.373762747422828e-05
9.60822133846141e-07,5.436887654367911e-07,2.741469764811077e-07,2.362635378992256e-05
9.529753343772974e-07,5.507860625313116e-07,2.762679687317547e-07,2.3513601306815694e-05
9.447233679754699e-07,5.582732529980053e-07,2.785038147749489e-07,2.3399801161555484e-05
9.360908319334477e-07,5.661310191680572e-07,2.808516907300146e-07,2.328535759689344e-05
9.27099582626415e-07,5.743311862401221e-07,2.83305396993016e-07,2.317049931702196e-05
9.177711879499971e-07,5.828361982553404e-07,2.8585699690324677e-07,2.3055271820706408e-05
9.081306556023836e-07,5.916012057909346e-07,2.884972683023844e-07,2.293958739181885e-05
8.982069125987102e-07,6.005773701751139e-07,2.912160058250587e-07,2.282325244328521e-05
8.880297790154789e-07,6.097135887673572e-07,2.940023566324005e-07,2.270605309337662e-05
8.776266519846512e-07,6.189576097434893e-07,2.968444261717552e-07,2.258800296775292e-05
8.670211729165131e-07,6.282581593397019e-07,2.9972843907891684e-07,2.246959635350781e-05
8.562350680455283e-07,6.375666559996662e-07,3.0263807902283467e-07,2.2351813769760392e-05
8.452924971536627e-07,6.46836700226923e-07,3.055543595235848e-07,2.2235917933561586e-05
8.342219244818524e-07,6.560223363602301e-07,3.084561595645643e-07,2.2123243520144088e-05
8.230535074907053e-07,6.650774250291496e-07,3.1132089766939704e-07,2.201505624748522e-05
8.118192331417352e-07,6.739558426600993e-07,3.141250482077073e-07,2.191249884290781e-05
8.005583879130911e-07,6.826110208437132e-07,3.168454231077595e-07,2.1816684900069014e-05
7.893201204984531e-07,6.909962081534e-07,3.19461661589546e-07,2.1728879988097835e-05
7.781594540340054e-07,6.990666195545215e-07,3.219586426403486e-07,2.165057806688096e-05
7.671312149607581e-07,7.067823848526189e-07,3.2432737955005924e-07,2.1583431714271696e-05
7.562851252834062e-07,7.141101145732871e-07,3.26563657018828e-07,2.152912707484457e-05
7.456633000888849e-07,7.210207042588292e-07,3.286650239999109e-07,2.1489231338408913e-05
7.353011306656926e-07,7.274855477819955e-07,3.3062829338948633e-07,2.146503145356478e-05
7.252300900356705e-07,7.334758432985962e-07,3.3244869639780476e-07,2.145742935950894e-05
7.154792059524507e-07,7.389648648408446e-07,3.3412074575094704e-07,2.1466940241461448e-05
7.060744958735655e-07,7.439303806961484e-07,3.356406280761339e-07,2.14937774109557e-05
6.970376628279442e-07,7.48356002550992e-07,3.3700765238891357e-07,2.1537955334489672e-05
6.883841122081861e-07,7.522308993421756e-07,3.382229063320317e-07,2.1599340166814267e-05
6.801217920816632e-07,7.555481328253378e-07,3.3928749174661515e-07,2.167763117302388e-05
6.722535897569568e-07,7.58304058728473e-07,3.402018404302212e-07,2.1772298978137665e-05
6.6478104542971e-07,7.604996854589401e-07,3.4096491877851217e-07,2.18825095737557e-05
6.577046409130251e-07,7.621403392576475e-07,3.4157381920335587e-07,2.200708620119233e-05
6.510212733140622e-07,7.632322515129414e-07,3.420249021007656e-07,2.2144561043042374e-05
6.447221742770299e-07,7.637803155329354e-07,3.423153315409789e-07,2.2293297656756785e-05
6.387922071506052e-07,7.637888494372342e-07,3.4244310544117174e-07,2.24516186689154e-05
6.332108741510827e-07,7.632627270985869e-07,3.4240599261445964e-07,2.261789919957589e-05
6.279543322643484e-07,7.622075187481169e-07,3.422011477301277e-07,2.279062094009237e-05
6.229970276577354e-07,7.606298451415147e-07,3.418262082634853e-07,2.296837693351085e-05
6.183128597336093e-07,7.585393223766797e-07,3.4128203013810285e-07,2.314980907993634e-05
6.138755135318143e-07,7.559513019281732e-07,3.405747879897285e-07,2.333350582345872e-05
6.096581640618983e-07,7.52889310210458e-07,3.3971423764990046e-07,2.351792885431444e-05
6.056336344247881e-07,7.493873133813987e-07,3.3870998274528267e-07,2.3701414481898973e-05
6.017750898133357e-07,7.454888387578184e-07,3.3756973657358124e-07,2.388227138686067e-05
5.980573447770976e-07,7.41241380193829e-07,3.3629986016331905e-07,2.4058936777894902e-05
5.944583806685385e-07,7.366916226630556e-07,3.3490614713644316e-07,2.4230064969315413e-05
5.909593196845537e-07,7.318845076729206e-07,3.3339361955842727e-07,2.439449944929259e-05
5.87542655566745e-07,7.268628365595655e-07,3.31766143289706e-07,2.455121356512898e-05
5.841912378460223e-07,7.216654371379231e-07,3.300273554502345e-07,2.46992889699328e-05
5.808886561217452e-07,7.16325122821899e-07,3.281820931703677e-07,2.483793596918161e-05
5.776185251803702e-07,7.108697118844849e-07,3.262366901930261e-07,2.496650401453197e-05
5.743627627669661e-07,7.05328884366836e-07,3.241988492764969e-07,2.508441966317001e-05
5.71101814691505e-07,6.997423648893836e-07,3.2207740420019014e-07,2.5191090259142543e-05
5.67817385069891e-07,6.941601435267904e-07,3.1988124671408694e-07,2.5285879491825548e-05
5.644952197360181e-07,6.886339511009601e-07,3.1761880579507045e-07,2.53681798269725e-05
5.611252047147833e-07,6.832084819456212e-07,3.152991616963995e-07,2.5437523870206852e-05
5.576990775582372e-07,6.779177550956421e-07,3.1293358770762787e-07,2.549371487493005e-05
5.54208842431415e-07,6.727853228937336e-07,3.1053669066069537e-07,2.5536955654288398e-05
5.506465866609036e-07,6.678254578968366e-07,3.081273947036331e-07,2.556786184502005e-05
5.470039436549968e-07,6.630437734334125e-07,3.057292544057806e-07,2.558728800884187e-05
5.432714949176786e-07,6.584384139743334e-07,3.0336873177007497e-07,2.5596063117953e-05
