3.795936676893264e-07,6.639321345531849e-07,5.988748511100486e-07,5e-06
3.7964148911694474e-07,6.642271854524579e-07,6.018253970023561e-07,5e-06
3.7971182097118356e-07,6.647584575528793e-07,6.055895137258296e-07,5e-06
3.798176148251575e-07,6.655094622353709e-07,6.102007530215601e-07,5e-06
3.799742419370397e-07,6.664717446598049e-07,6.156753702238068e-07,5e-06
3.8019727844954437e-07,6.676491734227907e-07,6.220156290254284e-07,5e-06
3.8049867697800543e-07,6.690565682619051e-07,6.292160978822967e-07,5e-06
3.8088488502767536e-07,6.707117816690333e-07,6.372685586866847e-07,5e-06
3.8135716871778956e-07,6.726266660072794e-07,6.461605325140088e-07,5e-06
3.819122071064992e-07,6.748031736587822e-07,6.558689298884405e-07,5e-06
3.8254218979979687e-07,6.772347572889435e-07,6.663556053837154e-07,5e-06
3.8323502090225745e-07,6.799096077703408e-07,6.775681863050647e-07,5e-06
3.839755649508619e-07,6.828126688937282e-07,6.894456514675355e-07,5e-06
3.84747847788631e-07,6.859245876141061e-07,7.019255534571825e-07,5e-06
3.8553670584545176e-07,6.892199091767305e-07,7.149485501198827e-07,5e-06
3.8632786883656176e-07,6.92667205790555e-07,7.284601283585254e-07,5e-06
3.871074189020604e-07,6.962300146856189e-07,7.424115042739806e-07,5e-06
3.87861570498933e-07,6.998675972844496e-07,7.567589266690255e-07,5e-06
3.8857642889994955e-07,7.03536522122335e-07,7.714605949560493e-07,5e-06
3.8923769754883105e-07,7.071937242772122e-07,7.86472158998065e-07,5e-06
3.898307810724226e-07,7.10799935401785e-07,8.017425906549901e-07,5e-06
3.9034139256662677e-07,7.143225810487364e-07,8.172118736303099e-07,5e-06
3.9075616764891634e-07,7.177389836197292e-07,8.328110876906198e-07,5e-06
3.910626663379362e-07,7.210394210363166e-07,8.484646800131682e-07,5e-06
3.91248910960324e-07,7.242266597718427e-07,8.640931565185568e-07,5e-06
3.913030573281808e-07,7.273098294300861e-07,8.796154143630947e-07,5e-06
3.9121355324072496e-07,7.302962694880633e-07,8.949509866920641e-07,5e-06
3.9096936074213593e-07,7.331873591248529e-07,9.10020978407568e-07,5e-06
3.9056003264915454e-07,7.359784962917958e-07,9.247482036578356e-07,5e-06
3.8997633700198677e-07,7.386595585724149e-07,9.390573515535713e-07,5e-06
3.8921131208229134e-07,7.412171610356184e-07,9.528736336935257e-07,5e-06
3.8826104010688023e-07,7.436421569952485e-07,9.661213899496244e-07,5e-06
3.8712455716404397e-07,7.459396994485422e-07,9.787263830336657e-07,5e-06
3.8580255142357176e-07,7.481346020692902e-07,9.90620596716152e-07,5e-06
3.842961914725088e-07,7.502680335326909e-07,1.001744810364427e-06,5e-06
3.8260714887710975e-07,7.523883929626488e-07,1.0120479919882765e-06,5e-06
3.807381261454477e-07,7.545415921223823e-07,1.0214863497184351e-06,5e-06
3.786939563645328e-07,7.567652211884154e-07,1.0300230398038892e-06,5e-06
3.764825600789858e-07,7.590892371817256e-07,1.0376268106469151e-06,5e-06
3.741139017484572e-07,7.615401796890273e-07,1.0442690824888066e-06,5e-06
3.7159814714157475e-07,7.641433842081928e-07,1.0499219793555435e-06,5e-06
3.6894566723616987e-07,7.669209628013178e-07,1.054559297022117e-06,5e-06
3.661686729957168e-07,7.698869117910387e-07,1.058159577110231e-06,5e-06
3.632820486607789e-07,7.730435716043644e-07,1.0607100170741443e-06,5e-06
3.6030214301719827e-07,7.763822760891765e-07,1.0622099448975892e-06,5e-06
3.572449949757949e-07,7.798857283842313e-07,1.0626726458102728e-06,5e-06
3.541253760547207e-07,7.835296074005981e-07,1.0621256258861371e-06,5e-06
3.5095615103652e-07,7.8728661015625e-07,1.0606075687995605e-06,5e-06
3.4774817344665754e-07,7.911355703842613e-07,1.0581609681042934e-06,5e-06
3.445121179272713e-07,7.950699091843094e-07,1.0548261732515e-06,5e-06
3.4126157952703516e-07,7.990976402476144e-07,1.0506405243404185e-06,5e-06
3.380144494978196e-07,8.032336775858068e-07,1.0456383121734836e-06,5e-06
3.3479120873067924e-07,8.074923297449914e-07,1.0398493948017478e-06,5e-06
3.3161234187063924e-07,8.118862539829561e-07,1.033299293708786e-06,5e-06
3.2849799468618725e-07,8.164310538115191e-07,1.026011700805612e-06,5e-06
3.25469625883328e-07,8.211470194350281e-07,1.0180112354440556e-06,5e-06
3.225504087226467e-07,8.260520153692357e-07,1.0093243776115604e-06,5e-06
3.197637109598041e-07,8.311529611440488e-07,9.999784654903108e-07,5e-06
3.171319143476027e-07,8.36445330550611e-07,9.900011978074336e-07,5e-06
3.146768448077555e-07,8.419183181524163e-07,9.794233641051707e-07,5e-06
3.124212854725797e-07,8.475599669669268e-07,9.68284401127615e-07,5e-06
3.103899705801711e-07,8.533603030298647e-07,9.56636970481013e-07,5e-06
3.086090234193009e-07,8.593097202024231e-07,9.445466660962204e-07,5e-06
3.071045147919785e-07,8.653925368385683e-07,9.320871135133899e-07,5e-06
3.059013955437894e-07,8.715819891154889e-07,9.193346794261864e-07,5e-06
3.0502245296439827e-07,8.77840459577956e-07,9.063669396462152e-07,5e-06
3.044862020145225e-07,8.841224352734805e-07,8.932658189089634e-07,5e-06
3.043050911880609e-07,8.903779549179718e-07,8.80121969273716e-07,5e-06
3.044855719431134e-07,8.96555915332131e-07,8.670360787704288e-07,5e-06
3.050286770255364e-07,9.026063809156194e-07,8.541166622436102e-07,5e-06
3.059298251260571e-07,9.084823350315924e-07,8.414760915284216e-07,5e-06
3.071789614868089e-07,9.141407925260044e-07,8.292248195394718e-07,5e-06
3.087628273226428e-07,9.195422551899091e-07,8.174632118209941e-07,5e-06
3.1066831306776855e-07,9.24648551737386e-07,8.062741949909365e-07,5e-06
3.1288342025034906e-07,9.294202692714248e-07,7.957215200077294e-07,5e-06
3.153960824422463e-07,9.338166910064972e-07,7.858521988610013e-07,5e-06
3.1819414465973354e-07,9.377987740147341e-07,7.766980560631376e-07,5e-06
3.2126637459966057e-07,9.413321948906296e-07,7.682763632850503e-07,5e-06
3.246021305911305e-07,9.443886455574394e-07,7.60591955864978e-07,5e-06
3.281894773350101e-07,9.46944495489423e-07,7.536410811526321e-07,5e-06
3.320139451500835e-07,9.489774902427672e-07,7.474172872921605e-07,5e-06
3.360588429499477e-07,9.504645829912731e-07,7.419181827288042e-07,5e-06
3.4030514129136447e-07,9.513836584159693e-07,7.371488270126212e-07,5e-06
3.4473030035273556e-07,9.517196733268465e-07,7.331208694037567e-07,5e-06
3.493078845072144e-07,9.514704607245851e-07,7.298502202593826e-07,5e-06
3.5400866317373524e-07,9.506458001690472e-07,7.273534500293153e-07,5e-06
3.588020191984467e-07,9.492617077016096e-07,7.256422262697033e-07,5e-06
3.636569810190917e-07,9.473376960735927e-07,7.247179144560424e-07,5e-06
3.6854349982382565e-07,9.449003896843128e-07,7.245691171401713e-07,5e-06
3.7343440144863953e-07,9.419881961526401e-07,7.25171717595428e-07,5e-06
3.783073975254396e-07,9.386498543855499e-07,7.264896287892259e-07,5e-06
3.831455099732561e-07,9.349396824405992e-07,7.284768872428295e-07,5e-06
3.8793477654465756e-07,9.309166492274423e-07,7.31082103170814e-07,5e-06
3.926610892618775e-07,9.266461743905438e-07,7.342558981632031e-07,5e-06
3.9730890277125594e-07,9.221986913561716e-07,7.379604629596323e-07,5e-06
4.018611820720336e-07,9.176428233906263e-07,7.421742735011147e-07,5e-06
4.062992012703186e-07,9.130374588497373e-07,7.468858243077635e-07,5e-06
4.106034132754952e-07,9.084278210005119e-07,7.520820844248444e-07,5e-06
4.147553268853639e-07,9.03845157721319e-07,7.577414752974266e-07,5e-06
4.187379472454946e-07,8.99307750853417e-07,7.638326710969345e-07,5e-06
4.225347478447301e-07,8.948229902608637e-07,7.703155123249113e-07,5e-06
4.261298237527148e-07,8.903896616169194e-07,7.771418320604382e-07,5e-06
4.295097856443714e-07,8.85999482598624e-07,7.842560550096833e-07,5e-06
4.326647714166405e-07,8.816389811462036e-07,7.915972995828567e-07,5e-06
4.355868974608778e-07,8.772922985519609e-07,7.991024812424005e-07,5e-06
4.3826775899771136e-07,8.729449332463256e-07,8.067071376941002e-07,5e-06
4.406972861432597e-07,8.685891992001303e-07,8.143446176170818e-07,5e-06
4.428641616955757e-07,8.642290457356535e-07,8.219465187776517e-07,5e-06
4.4475683511577895e-07,8.598797817685401e-07,8.294444111932511e-07,5e-06
4.4636477044009934e-07,8.555650569171432e-07,8.367730105121913e-07,5e-06
4.476795171444053e-07,8.513176304607021e-07,8.438754709130254e-07,5e-06
4.486949505965017e-07,8.47180563079733e-07,8.507077856331074e-07,5e-06
4.4940723177983275e-07,8.432006225076179e-07,8.572375719472428e-07,5e-06
4.4981548981551933e-07,8.394187695607214e-07,8.634374132032196e-07,5e-06
4.4992279965781144e-07,8.358692221505301e-07,8.692782556815132e-07,5e-06
4.4973571217334144e-07,8.325868936098146e-07,8.747266055987516e-07,5e-06
4.4926214389215384e-07,8.296133431384719e-07,8.797445332700241e-07,5e-06
4.485103558349992e-07,8.269951729736635e-07,8.8429090603727e-07,5e-06
4.474904389154894e-07,8.247768418471589e-07,8.88323720394608e-07,5e-06
4.462165345753532e-07,8.229928762565307e-07,8.918026172571255e-07,5e-06
4.447076133577989e-07,8.21663104275927e-07,8.94689491276354e-07,5e-06
4.4298603435025785e-07,8.207918336719856e-07,8.969475504276018e-07,5e-06
4.4107505175484063e-07,8.203695795299319e-07,8.985418035875639e-07,5e-06
4.389966979501683e-07,8.203757181964384e-07,8.99441166610289e-07,5e-06
4.3677020255013255e-07,8.207814250702909e-07,8.996192610120352e-07,5e-06
4.3441168981669627e-07,8.215527359461294e-07,8.990537566392096e-07,5e-06
4.3193586700515364e-07,8.226528044775562e-07,8.97727731897664e-07,5e-06
4.2935732766573377e-07,8.24042670517768e-07,8.956339411065902e-07,5e-06
4.266895484397818e-07,8.256818011221371e-07,8.927780154512184e-07,5e-06
4.2394327381425493e-07,8.2752901642442e-07,8.891777964703314e-07,5e-06
4.211260708821901e-07,8.295424886863119e-07,8.848603404249323e-07,5e-06
4.18243736446561e-07,8.316784004729177e-07,8.798588641665025e-07,5e-06
4.1530294511514117e-07,8.33890249468797e-07,8.742118233109365e-07,5e-06
4.1231256498982073e-07,8.36130714121308e-07,8.679667474908613e-07,5e-06
4.092823805720352e-07,8.383537292501264e-07,8.611878108451029e-07,5e-06
4.062217245094821e-07,8.405139492176894e-07,8.53961202641385e-07,5e-06
4.0314023786141383e-07,8.425661033002599e-07,8.463932806905369e-07,5e-06
4.0004846768477567e-07,8.444662241013894e-07,8.386014276978768e-07,5e-06
3.9695636067964103e-07,8.461729496491818e-07,8.307012621294027e-07,5e-06
3.9387182373179725e-07,8.47648351787895e-07,8.227970346952712e-07,5e-06
3.9080055749998506e-07,8.488581842856901e-07,8.149803398566077e-07,5e-06
3.877461958941671e-07,8.497705767428056e-07,8.073329969773026e-07,5e-06
3.8471083330920097e-07,8.503553342812043e-07,7.999267165423536e-07,5e-06
3.816962829718011e-07,8.505886968902434e-07,7.928198692261751e-07,5e-06
3.787048327600264e-07,8.504632603561227e-07,7.86056099697107e-07,5e-06
3.7573823466282377e-07,8.499936028372856e-07,7.796651700113272e-07,5e-06
3.72796221040029e-07,8.492100743526134e-07,7.736641094403863e-07,5e-06
3.6987669886043895e-07,8.481461734856544e-07,7.68059201525692e-07,5e-06
3.669778018073482e-07,8.468294983613659e-07,7.628496250755504e-07,5e-06
3.6410097200417033e-07,8.452790388057519e-07,7.580336227336713e-07,5e-06
3.612536195978201e-07,8.435061613585338e-07,7.53617371574394e-07,5e-06
3.5844867378057314e-07,8.415171447735218e-07,7.496224370952398e-07,5e-06
3.557005147983352e-07,8.393166462221354e-07,7.460877305001822e-07,5e-06
3.530211467993475e-07,8.369103272882488e-07,7.430670675042185e-07,5e-06
3.504200472283513e-07,8.343043646460476e-07,7.406232211652661e-07,5e-06
3.4790716474490325e-07,8.31503363827567e-07,7.388175740196524e-07,5e-06
3.4549641865823877e-07,8.285094078446367e-07,7.377011903084972e-07,5e-06
3.432063621412341e-07,8.253215832665984e-07,7.373141538511338e-07,5e-06
3.410566071102325e-07,8.219352123170546e-07,7.376891711012675e-07,5e-06
3.3906389787969763e-07,8.183428936692309e-07,7.388542000252534e-07,5e-06
3.3724179152483157e-07,8.145395096126891e-07,7.408360145993832e-07,5e-06
3.3560175004415165e-07,8.105287645163472e-07,7.436639833240344e-07,5e-06
3.341525331023968e-07,8.063249212984977e-07,7.473675181115153e-07,4.9892499252113456e-05
3.328992471569773e-07,8.019483445048123e-07,7.519667253015931e-07,4.761937209990087e-05
3.318439471573109e-07,7.974200474114301e-07,7.57466166057108e-07,4.554582648871537e-05
3.3098646984040537e-07,7.92758345937011e-07,7.638582144240241e-07,4.367378119311779e-05
3.303243724260644e-07,7.879770294033415e-07,7.711310256535328e-07,4.200658351448068e-05
3.2985373607796325e-07,7.830848617063174e-07,7.792739534572185e-07,4.054869395825759e-05
3.295713524585036e-07,7.780866984874123e-07,7.882777065926706e-07,3.9304752952768814e-05
3.294758065832317e-07,7.729849296175295e-07,7.981292393584407e-07,3.827841858856091e-05
3.295658830178065e-07,7.677793613452417e-07,8.088040136964173e-07,3.7471494085946724e-05
3.2983779654699825e-07,7.624663644207481e-07,8.202609260972624e-07,3.6883468893815904e-05
3.3028417630098265e-07,7.570388773369995e-07,8.32444000293195e-07,3.651139189717422e-05
3.308954632065171e-07,7.514868056039955e-07,8.452893721955717e-07,3.635005619907873e-05
3.316612766062871e-07,7.457979225802944e-07,8.587314653903956e-07,3.639240795931485e-05
3.325711400705864e-07,7.399602029756665e-07,8.727038672885984e-07,3.6630021637421835e-05
3.336164242249696e-07,7.339658320716846e-07,8.871359603779026e-07,3.7053532110636436e-05
3.3479200643155807e-07,7.278172254202064e-07,9.01949772285074e-07,3.7653002371068545e-05
3.360953179766767e-07,7.215343083776502e-07,9.170599153447876e-07,3.8418263513951786e-05
3.375245549612212e-07,7.151596057973376e-07,9.323760328946899e-07,3.9339226528914175e-05
3.390774709776885e-07,7.087564206772659e-07,9.478063935043652e-07,4.0406102509778795e-05
3.407502703331818e-07,7.023998380686673e-07,9.632622027984184e-07,4.160948708450285e-05
3.4253660146017145e-07,6.961704415733635e-07,9.786618053704309e-07,4.2940313268656864e-05
3.4442682024389856e-07,6.901602277879492e-07,9.939332005572042e-07,4.438967669735989e-05
3.464086744060833e-07,6.844830034287025e-07,1.0090140441504654e-06,4.594854268815037e-05
3.4846975295796837e-07,6.792740040439825e-07,1.0238491614464143e-06,4.760738242346817e-05
3.505988004094563e-07,6.746767281847404e-07,1.0383863221556607e-06,4.935584916378226e-05
3.5278436552006676e-07,6.708261481566729e-07,1.0525720046787688e-06,5e-06
3.5501328556285525e-07,6.678369981083254e-07,1.0663498222778058e-06,5e-06
3.572708663084776e-07,6.6580233121185e-07,1.079664488205882e-06,5e-06
3.595418870085719e-07,6.64800037467659e-07,1.092469616952724e-06,5e-06
3.61811136656349e-07,6.648965102550613e-07,1.1047340545062064e-06,5e-06
3.640636070936129e-07,6.661421569272659e-07,1.1164459810672227e-06,5e-06
3.6628480438222974e-07,6.685678022586539e-07,1.127614642434837e-06,5e-06
3.684603125912828e-07,6.721914762644656e-07,1.1382644976629028e-06,5e-06
3.705746129556064e-07,6.77031412259346e-07,1.1484220466244221e-06,5e-06
3.7261055425422185e-07,6.831128597786635e-07,1.1581059873177161e-06,5e-06
3.745494906324997e-07,6.90462176289371e-07,1.1673281100881106e-06,5e-06
3.763713498445478e-07,6.990945448257826e-07,1.1761013690686106e-06,5e-06
3.780551827816084e-07,7.090090191458526e-07,1.18444761333944e-06,5e-06
3.795807572069724e-07,7.201979201048307e-07,1.1923994921103649e-06,5e-06
3.8092989389235354e-07,7.326621518470123e-07,1.199995422673805e-06,5e-06
3.82086339426725e-07,7.464174782423152e-07,1.2072713446815812e-06,5e-06
3.83035594115597e-07,7.614869782376549e-07,1.2142539373530963e-06,5e-06
3.8376633997918656e-07,7.778866424815058e-07,1.2209572012629037e-06,5e-06
3.8427234542120844e-07,7.956120406877093e-07,1.2273821220295528e-06,5e-06
3.8455301358980864e-07,8.14630868903559e-07,1.233518925417856e-06,5e-06
3.8461219835419655e-07,8.348827624954884e-07,1.2393503070969978e-06,5e-06
3.844562451250094e-07,8.562829276659341e-07,1.244853220756195e-06,5e-06
3.840938129085568e-07,8.787263022092509e-07,1.2499993905459926e-06,5e-06
3.835377474745602e-07,9.020915155387972e-07,1.2547576262768689e-06,5e-06
3.828055676557354e-07,9.262435157462408e-07,1.2591015352454863e-06,5e-06
3.8191839775444105e-07,9.510362877098207e-07,1.2630215479159701e-06,5e-06
3.8090043731950774e-07,9.763183237004259e-07,1.2665328086405321e-06,5e-06
3.797776651306769e-07,1.0019374967189914e-06,1.2696724861832198e-06,5e-06
3.785750037935957e-07,1.027740637024287e-06,1.2724892388354794e-06,5e-06
3.773139123329055e-07,1.0535706346297414e-06,1.2750310539172701e-06,5e-06
3.76011507837889e-07,1.0792665687007352e-06,1.2773374395964592e-06,5e-06
3.746810389101815e-07,1.1046669339454321e-06,1.279439678163851e-06,5e-06
3.733332466750971e-07,1.1296124347961408e-06,1.281364625745956e-06,5e-06
3.7197791987483563e-07,1.1539466082731414e-06,1.2831351743705557e-06,5e-06
3.706254150799176e-07,1.1775163049431729e-06,1.2847688709178194e-06,5e-06
3.692881532659065e-07,1.2001748794078002e-06,1.2862789996525699e-06,5e-06
3.6798099174340893e-07,1.2217875193487447e-06,1.2876765689386306e-06,5e-06
3.667192734261446e-07,1.242235543670617e-06,1.2889703605574863e-06,5e-06
3.655167293295931e-07,1.261418039292493e-06,1.2901666614108449e-06,5e-06
3.6438663329056037e-07,1.2792508642809198e-06,1.291269980347406e-06,5e-06
3.6334455155121544e-07,1.2956627215001885e-06,1.292283608277223e-06,5e-06
3.624084971286856e-07,1.3105898756371469e-06,1.2932107702775723e-06,5e-06
3.615964325068163e-07,1.3239731430956658e-06,1.2940557274391146e-06,5e-06
3.609234719093657e-07,1.3357582972423222e-06,1.2948220117134639e-06,5e-06
3.6039983350613104e-07,1.3458984096233954e-06,1.2955107677174472e-06,5e-06
3.600305197318376e-07,1.35435624010098e-06,1.2961244595670685e-06,5e-06
3.59817307289149e-07,1.3611045501526889e-06,1.2966740278646382e-06,5e-06
3.5976098592125073e-07,1.366124339763837e-06,1.29718359667709e-06,5e-06
3.5986141672393523e-07,1.3694033083363643e-06,1.2976892990708487e-06,5e-06
3.601162442789349e-07,1.3709355297670636e-06,1.298232900013345e-06,5e-06
3.60520049959722e-07,1.3707212136925615e-06,1.2988541306219678e-06,5e-06
3.610636094191874e-07,1.3687655140949566e-06,1.2995844456562405e-06,5e-06
3.6173335244660133e-07,1.3650779055023344e-06,1.3004420340545878e-06,5e-06
3.62512163492158e-07,1.3596742367902782e-06,1.3014291469625617e-06,5e-06
3.6338076586656477e-07,1.352579365318748e-06,1.3025332513138304e-06,5e-06
3.6431819092648244e-07,1.343826828870463e-06,1.3037305507316105e-06,5e-06
3.653018142937878e-07,1.3334572219550243e-06,1.3049913534164275e-06,5e-06
3.663084348495286e-07,1.3215190656793664e-06,1.3062872499481845e-06,5e-06
3.67316311531685e-07,1.3080717395659142e-06,1.3075959874219706e-06,5e-06
3.683063099988187e-07,1.293187691155714e-06,1.3089026532429274e-06,5e-06
3.692613225687243e-07,1.2769513631067705e-06,1.310201417712835e-06,5e-06
3.701652180968428e-07,1.2594541260310387e-06,1.3114975848129271e-06,5e-06
3.710021231740246e-07,1.240789788910292e-06,1.3128054162096914e-06,5e-06
3.7175579893844267e-07,1.221056805210733e-06,1.3141415741307572e-06,5e-06
3.724096588742194e-07,1.200366761855767e-06,1.315517148620088e-06,5e-06
3.729483413037664e-07,1.1788511922576958e-06,1.3169319646399187e-06,5e-06
3.733602015386669e-07,1.1566583571307259e-06,1.3183742106262614e-06,5e-06
3.736386085933678e-07,1.1339405479708737e-06,1.3198235390747341e-06,5e-06
3.737806768211696e-07,1.110841363209123e-06,1.3212540944105216e-06,5e-06
3.737847758061274e-07,1.0874911356935956e-06,1.3226372590840077e-06,5e-06
3.7364961421290543e-07,1.0640102834625791e-06,1.323945435215207e-06,5e-06
3.7337475985485786e-07,1.040513322605754e-06,1.3251569735657876e-06,5e-06
3.7296025572843573e-07,1.0171072460809158e-06,1.3262604357532398e-06,5e-06
3.724055911253421e-07,9.938862367648942e-07,1.327255806751923e-06,5e-06
3.717092553473405e-07,9.709289421861792e-07,1.3281519514675342e-06,5e-06
3.708692372407879e-07,9.483005029197176e-07,1.3289609678615783e-06,5e-06
3.6988506720045727e-07,9.260572160196164e-07,1.3296909913494847e-06,5e-06
3.6875932981891757e-07,9.042505690532987e-07,1.3303406808481137e-06,5e-06
3.6749621813328574e-07,8.829289879472015e-07,1.3308973745345558e-06,5e-06
3.660999025240346e-07,8.621392722385139e-07,1.3313371303114177e-06,5e-06
3.645753165274653e-07,8.419296787339166e-07,1.3316252035872049e-06,5e-06
3.629293323756687e-07,8.223516422084662e-07,1.3317183040875195e-06,5e-06
3.61170824646331e-07,8.034564058756612e-07,1.3315689622552207e-06,5e-06
3.5931020829658225e-07,7.852897993835284e-07,1.3311308494795693e-06,5e-06
3.5735835868453025e-07,7.678914242700457e-07,1.3303636963865609e-06,5e-06
3.5532503009338863e-07,7.51297736216071e-07,1.3292347023549746e-06,5e-06
3.532176094578277e-07,7.355427820457185e-07,1.3277156209825266e-06,5e-06
3.510405214671365e-07,7.206541933672722e-07,1.3257796859543423e-06,5e-06
3.487954530599927e-07,7.066491519751468e-07,1.3234007353874618e-06,5e-06
3.4648235705324104e-07,6.935354126337995e-07,1.3205527855388123e-06,5e-06
3.4410107634614637e-07,6.813163636674296e-07,1.31720892439671e-06,5e-06
3.4165332514750765e-07,6.699943216678426e-07,1.3133404074666191e-06,5e-06
3.391437250300788e-07,6.595684215043585e-07,1.308917686653236e-06,5e-06
3.365793267245997e-07,6.500297685326565e-07,1.303914761661913e-06,5e-06
3.3396905963445594e-07,6.413585758245878e-07,1.2983150224050456e-06,5e-06
3.313243335466277e-07,6.335252795999872e-07,1.2921132830764787e-06,5e-06
3.286602373680777e-07,6.264958039399654e-07,1.2853114343244155e-06,5e-06
3.259960372658961e-07,6.202382817228678e-07,1.2779121276097135e-06,5e-06
3.2335478186499293e-07,6.147247709460312e-07,1.2699167841178551e-06,5e-06
3.2076168717586326e-07,6.09926267753622e-07,1.2613280600076703e-06,5e-06
3.182408045490914e-07,6.058078889189277e-07,1.2521513979183504e-06,5e-06
3.158121770226476e-07,6.02329105995779e-07,1.242393695552348e-06,5e-06
3.1349155398745535e-07,5.994467261805428e-07,1.232061607086052e-06,5e-06
3.112919363682651e-07,5.971171929043845e-07,1.2211608045663592e-06,5e-06
3.0922587891850924e-07,5.952973458907227e-07,1.209697645623539e-06,5e-06
3.073068914374099e-07,5.939448927314847e-07,1.197684717241305e-06,5e-06
3.055487212693373e-07,5.930201430701967e-07,1.185146934824926e-06,5e-06
3.039647650217217e-07,5.924884672458167e-07,1.1721222385376283e-06,5e-06
3.025694876517005e-07,5.923219886450303e-07,1.158656122296303e-06,5e-06
3.0137975367514097e-07,5.925011519093422e-07,1.1447949076233316e-06,5e-06
3.004136780968235e-07,5.930164112618561e-07,1.1305809301761702e-06,5e-06
2.996875121477221e-07,5.938666732846833e-07,1.1160501338124764e-06,5e-06
2.9921313989069236e-07,5.950529854424011e-07,1.1012326784116287e-06,5e-06
2.989975975011897e-07,5.965724892787855e-07,1.086155394865847e-06,5e-06
2.990433736171789e-07,5.984179575473758e-07,1.070843511989956e-06,5e-06
2.993485701283584e-07,6.005798907410524e-07,1.0553203575505669e-06,5e-06
2.9990732598429424e-07,6.030450521553954e-07,1.0396061854320351e-06,5e-06
3.0071009636665677e-07,6.057935040537707e-07,1.023718879948106e-06,5e-06
3.0174338605591e-07,6.08799526824988e-07,1.0076767507856458e-06,5e-06
3.02990052696716e-07,6.120361552894194e-07,9.915007789372714e-07,5e-06
3.04431208369512e-07,6.154791540874432e-07,9.75214963831519e-07,5e-06
3.060490146468657e-07,6.191070126965036e-07,9.588455684915543e-07,5e-06
3.0782804135458283e-07,6.228981826004678e-07,9.424226581470646e-07,5e-06
3.0975402861620485e-07,6.268297027287207e-07,9.259861837419892e-07,5e-06
3.118130874502101e-07,6.308780015978233e-07,9.095916975786806e-07,5e-06
3.139937554130509e-07,6.350201009710526e-07,8.933106882894552e-07,5e-06
3.162887382686972e-07,6.392353906468313e-07,8.772267370686274e-07,5e-06
3.186935904770977e-07,6.435073398714414e-07,8.614285354678595e-07,5e-06
3.212042340971641e-07,6.478227092971829e-07,8.459998875528049e-07,5e-06
3.2381544116050764e-07,6.521700548742128e-07,8.310109354558559e-07,5e-06
3.265202389469905e-07,6.565401451061443e-07,8.165150193872555e-07,5e-06
3.293098860153068e-07,6.609263266185789e-07,8.025501924778836e-07,5e-06
3.321744597019916e-07,6.653246293117743e-07,7.891423366841842e-07,5e-06
3.351038009829754e-07,6.697344942496838e-07,7.763079130574975e-07,5e-06
3.380882976920408e-07,6.741570654605528e-07,7.640559278937573e-07,5e-06
3.411187985909972e-07,6.785907433353052e-07,7.52390353046714e-07,5e-06
3.441858503145789e-07,6.830303157804584e-07,7.413120505811947e-07,5e-06
3.4727955174859425e-07,6.874748331935466e-07,7.308179331407337e-07,5e-06
3.5038983239266184e-07,6.919397694174742e-07,7.208986287233501e-07,5e-06
3.535055422259872e-07,6.964631527330112e-07,7.115381719972269e-07,5e-06
3.566132325093202e-07,7.011020643569744e-07,7.027181367709911e-07,5e-06
3.5969844381059337e-07,7.059240534702012e-07,6.944250940397222e-07,5e-06
3.62748161090011e-07,7.109979156588895e-07,6.866564761061179e-07,5e-06
3.657505702936744e-07,7.163853465927391e-07,6.794205144382644e-07,5e-06
3.68692923471809e-07,7.221345241611889e-07,6.727311935384039e-07,5e-06
3.715606433360123e-07,7.282777259357894e-07,6.666032289903038e-07,5e-06
3.743380506718328e-07,7.348326789213593e-07,6.610498240084391e-07,5e-06
3.770095329973437e-07,7.418038300449407e-07,6.560811652985616e-07,5e-06
3.7955987786584367e-07,7.491822244243443e-07,6.517022904750936e-07,5e-06
3.8197365450130405e-07,7.569457301300788e-07,6.479131331769731e-07,5e-06
3.842350771895393e-07,7.650603407742648e-07,6.44711777608279e-07,5e-06
3.8632841718580697e-07,7.734824977534131e-07,6.420968671229779e-07,5e-06
3.8823784799018523e-07,7.821620731494743e-07,6.400668105782188e-07,5e-06
3.899474017462849e-07,7.910467006413174e-07,6.386175084535446e-07,5e-06
3.9144226927235713e-07,8.000876786396962e-07,6.37739571112513e-07,5e-06
3.9271028572864633e-07,8.092425733672703e-07,6.374158802138311e-07,5e-06
3.937419920994335e-07,8.184715226487943e-07,6.376212696720273e-07,5e-06
3.9453051112927716e-07,8.277317620091871e-07,6.38323787556674e-07,5e-06
3.9507198445311863e-07,8.369744422233917e-07,6.394868361937815e-07,5e-06
3.953649637613421e-07,8.461448821424148e-07,6.410726763850209e-07,5e-06
3.9540916563038675e-07,8.551860070586652e-07,6.430452236523554e-07,5e-06
3.9520518821722156e-07,8.640410899447321e-07,6.453697703863706e-07,5e-06
3.9475524827211716e-07,8.726529214229414e-07,6.480107620104478e-07,5e-06
3.9406420801338576e-07,8.809623283583446e-07,6.50930075779928e-07,5e-06
3.9313938527301844e-07,8.889092795293257e-07,6.540865952384952e-07,5e-06
3.919890335437747e-07,8.964358680018473e-07,6.574363965362315e-07,5e-06
3.9062206844081307e-07,9.034885913640352e-07,6.609334351130684e-07,5e-06
3.890501490922722e-07,9.100191728801249e-07,6.645326362738711e-07,5e-06
3.872892910445547e-07,9.159855876204165e-07,6.68196370214061e-07,5e-06
3.853582081454831e-07,9.213522638199405e-07,6.71900326747229e-07,5e-06
3.832751683052531e-07,9.26088319623744e-07,6.756349204011536e-07,5e-06
3.8105718327477066e-07,9.301686466059902e-07,6.794031893476508e-07,5e-06
3.787213510803745e-07,9.335796025115606e-07,6.83215756413701e-07,5e-06
3.762854373446421e-07,9.36322666520657e-07,6.870829355759215e-07,5e-06
3.73767112647393e-07,9.384115769135176e-07,6.910085283540632e-07,5e-06
3.711831545146399e-07,9.398656241095017e-07,6.949886171687368e-07,5e-06
3.6854992096101995e-07,9.407046798581369e-07,6.990125763984772e-07,5e-06
3.6588461619164343e-07,9.40949188850494e-07,7.030639615452812e-07,5e-06
3.632045608176396e-07,9.406219804981396e-07,7.071214600318167e-07,5e-06
3.605246041862847e-07,9.397479303862955e-07,7.111596774867577e-07,5e-06
3.578559429063309e-07,9.383530201981007e-07,7.151506031297434e-07,5e-06
3.552064498720936e-07,9.36464386279999e-07,7.190674984970756e-07,5e-06
3.52580662691093e-07,9.341103524933796e-07,7.228895846062305e-07,5e-06
3.499797651279581e-07,9.313198985451174e-07,7.266034838384728e-07,5e-06
3.474025054560733e-07,9.281207889125997e-07,7.302010683956058e-07,5e-06
3.4484645545840933e-07,9.245370350249061e-07,7.33675817061089e-07,5e-06
3.423086654407134e-07,9.20587685781423e-07,7.370185871336114e-07,5e-06
3.397859174647376e-07,9.1628635744396e-07,7.40214630142395e-07,5e-06
3.372749115954773e-07,9.116406908630406e-07,7.432442815283521e-07,5e-06
3.3477267490620014e-07,9.066529848748842e-07,7.460879498941978e-07,5e-06
3.322778637569358e-07,9.013229742779577e-07,7.487326804668363e-07,5e-06
3.297923369340139e-07,8.956518294249614e-07,7.511749925837938e-07,5e-06
3.2732178804429805e-07,8.896443047152197e-07,7.534180600471892e-07,5e-06
3.248751776945475e-07,8.833073192066199e-07,7.554663900718633e-07,5e-06
3.224628216413433e-07,8.766479838602614e-07,7.573214030595769e-07,5e-06
3.200938823102677e-07,8.696747518814528e-07,7.58979600978933e-07,5e-06
3.177751412428134e-07,8.624015499026668e-07,7.604330523075373e-07,5e-06
3.1551154631025736e-07,8.548518542030658e-07,7.616704431419518e-07,5e-06
3.133075821807816e-07,8.470583183366079e-07,7.626782492078751e-07,5e-06
3.111696698832953e-07,8.39056227655727e-07,7.6344172643786e-07,5e-06
3.0910971897427723e-07,8.308761869042332e-07,7.639450226295552e-07,5e-06
3.071467410527616e-07,8.225425931032888e-07,7.641728865520741e-07,5e-06
3.053035853314534e-07,8.140773294027848e-07,7.641156859713041e-07,5e-06
3.0360101159118946e-07,8.055029783695063e-07,7.637744199134318e-07,5e-06
3.020538332457469e-07,7.968421711542537e-07,7.631638510214249e-07,5e-06
3.006708831520683e-07,7.881156437135763e-07,7.623154041722298e-07,5e-06
2.9945732310419213e-07,7.793422669991701e-07,7.612783344821177e-07,5e-06
2.984170525100952e-07,7.705399700396284e-07,7.601144806495944e-07,5e-06
2.9755337328704546e-07,7.617262896293852e-07,7.588873582580001e-07,5e-06
2.9686795953069356e-07,7.529196011805554e-07,7.576547221031572e-07,5e-06
2.963599508462607e-07,7.441397491931427e-07,7.564703270720123e-07,5e-06
2.960261746046607e-07,7.354067852879288e-07,7.553892247532501e-07,5e-06
2.9586271190295765e-07,7.267417447416309e-07,7.544696684179698e-07,5e-06
2.958679507941732e-07,7.181707380156243e-07,7.53771419226208e-07,5e-06
2.960447683283524e-07,7.097266231805865e-07,7.533531407334588e-07,5e-06
2.9639882730761554e-07,7.014451468556656e-07,7.532695551456359e-07,5e-06
2.969348091066888e-07,6.933591619657306e-07,7.53566914540105e-07,5e-06
2.9765452990377133e-07,6.854950317454215e-07,7.54277961446658e-07,5e-06
2.98557315925124e-07,6.778725036635671e-07,7.554200532159334e-07,5e-06
2.996402807139229e-07,6.705086817447784e-07,7.569981979377639e-07,5e-06
3.008976257096949e-07,6.634244148075619e-07,7.5901133889994e-07,5e-06
3.0232084626827256e-07,6.566477407865778e-07,7.614560539029277e-07,5e-06
3.0390046664759577e-07,6.502117677323825e-07,7.64323824709819e-07,5e-06
3.0562725322189225e-07,6.441500309053148e-07,7.675967386341637e-07,5e-06
3.074920921699125e-07,6.384933291949641e-07,7.712471188566542e-07,5e-06
3.0948576768139385e-07,6.332694970281516e-07,7.752397235846077e-07,5e-06
3.1159875769021353e-07,6.285038386973413e-07,7.795338170276631e-07,5e-06
3.1382009401284087e-07,6.24216626911016e-07,7.840843189966094e-07,5e-06
3.16136495496641e-07,6.204189352541852e-07,7.888416506757487e-07,5e-06
3.185338566642109e-07,6.171117657097683e-07,7.937515886857662e-07,5e-06
3.2100021457898896e-07,6.142893440646203e-07,7.987572668602306e-07,5e-06
3.2352705149110106e-07,6.119427069072798e-07,8.038032801700738e-07,5e-06
3.261079218564386e-07,6.100608778414051e-07,8.088392661875798e-07,5e-06
3.2873732081263e-07,6.086312484376408e-07,8.138208573982332e-07,5e-06
3.314112555209416e-07,6.076401258950818e-07,8.187095243958779e-07,5e-06
3.341271342188439e-07,6.070709263120041e-07,8.234729812026641e-07,5e-06
3.368822954302078e-07,6.069010789259139e-07,8.280841904820445e-07,5e-06
3.396724919529046e-07,6.071017407174368e-07,8.325177978170341e-07,5e-06
3.424907350018409e-07,6.076396165309461e-07,8.367469000482691e-07,5e-06
3.453271202185492e-07,6.084790440135841e-07,8.407432172645391e-07,5e-06
3.481696144053186e-07,6.095860248605708e-07,8.444794773972138e-07,5e-06
3.510044591440013e-07,6.10932469251334e-07,8.479298447770119e-07,5e-06
3.538159004942503e-07,6.124956260575435e-07,8.510673512228025e-07,5e-06
3.5658612659988697e-07,6.142541202289129e-07,8.538620181073867e-07,5e-06
3.592960949721054e-07,6.161851573407389e-07,8.562825159237449e-07,5e-06
3.619271557838156e-07,6.182631446717428e-07,8.583001658112145e-07,5e-06
3.6446212412405094e-07,6.204587875530468e-07,8.598942010588127e-07,5e-06
3.668847836683733e-07,6.227393483634157e-07,8.61058556612339e-07,5e-06
3.6917889894696155e-07,6.250707676352577e-07,8.61806425612368e-07,5e-06
3.713280742817285e-07,6.274204927091535e-07,8.621669326445494e-07,5e-06
3.7331619565617157e-07,6.297592065604974e-07,8.621765973295717e-07,5e-06
3.7512770762795464e-07,6.320606734455367e-07,8.61874676376033e-07,5e-06
3.7674759257137643e-07,6.343002263504075e-07,8.61303229100022e-07,5e-06
3.7816130793772923e-07,6.364533494378286e-07,8.605068781345671e-07,5e-06
3.793555598076404e-07,6.384947972882991e-07,8.595354365162956e-07,5e-06
3.8032030787360893e-07,6.403989683070724e-07,8.584530359522329e-07,5e-06
3.810501260283149e-07,6.421426281814978e-07,8.573453756678341e-07,5e-06
3.81543782038421e-07,6.43707379038745e-07,8.563146288644128e-07,5e-06
3.818040222829498e-07,6.450782846520685e-07,8.554637851655124e-07,5e-06
3.8183853018254656e-07,6.462409328610248e-07,8.548812089814257e-07,5e-06
3.816601700446211e-07,6.471814746582863e-07,8.546326948556128e-07,5e-06
3.81285286431918e-07,6.478887187176292e-07,8.547606485498869e-07,5e-06
3.807308758514454e-07,6.483557320148607e-07,8.552867493779208e-07,5e-06
3.8001234945052033e-07,6.485815879578666e-07,8.562150881047157e-07,5e-06
3.791430685367249e-07,6.485730989153561e-07,8.575346729437223e-07,5e-06
3.781347815165722e-07,6.483443611121467e-07,8.592216375540163e-07,5e-06
3.769972955058546e-07,6.479134220455435e-07,8.612417567073069e-07,5e-06
3.7573786749390993e-07,6.472981013578486e-07,8.635542680158523e-07,5e-06
3.7436206437976775e-07,6.465145104334896e-07,8.661166962677137e-07,5e-06
3.728752239717729e-07,6.455791364458933e-07,8.68887786651523e-07,5e-06
3.712827598615382e-07,6.445102344674317e-07,8.718277248157637e-07,5e-06
3.695913169742452e-07,6.433261010156848e-07,8.748993962248186e-07,5e-06
3.6781246256864635e-07,6.420433465575094e-07,8.780725843004291e-07,5e-06
3.6596524424425116e-07,6.406764149239604e-07,8.813262745766657e-07,5e-06
3.6407488009933354e-07,6.392363935545367e-07,8.846456749261223e-07,5e-06
3.621702892020721e-07,6.377297968045801e-07,8.880180995594288e-07,5e-06
3.6028192717373365e-07,6.361592042537627e-07,8.914304032500464e-07,5e-06
3.584384532649983e-07,6.345250559258293e-07,8.948664284176809e-07,5e-06
3.566637120785692e-07,6.328272083361052e-07,8.983051348690649e-07,5e-06
3.549766089513065e-07,6.310652400785816e-07,9.017197083745602e-07,5e-06
3.533927213770115e-07,6.292375768581545e-07,9.050764350718212e-07,5e-06
3.519257205819507e-07,6.273420949754098e-07,9.083345182621815e-07,5e-06
3.5058760993622194e-07,6.253790995513595e-07,9.114474280693217e-07,5e-06
3.4938705967003737e-07,6.233532654992479e-07,9.143646803205326e-07,5e-06
3.483278630316711e-07,6.212722596399424e-07,9.170336692130846e-07,5e-06
3.4740946103091174e-07,6.191441694644606e-07,9.194014033117864e-07,5e-06
3.466278818634329e-07,6.16977161766801e-07,9.214162425374963e-07,5e-06
3.459758534807186e-07,6.147808509272928e-07,9.230294706701731e-07,5e-06
3.454433792722765e-07,6.125659424905608e-07,9.241970695172512e-07,5e-06
3.450195013541805e-07,6.103425471912447e-07,9.248829000660759e-07,5e-06
3.44694075256826e-07,6.081195180779903e-07,9.250614893352249e-07,5e-06
3.4445839308176885e-07,6.059041221676805e-07,9.24718339420918e-07,5e-06
3.4430470731791805e-07,6.037015578525454e-07,9.238490031627443e-07,5e-06
3.442252919949008e-07,6.0151605585364e-07,9.22456423775774e-07,5e-06
3.4421179268229586e-07,5.993533774817353e-07,9.205457702039434e-07,5e-06
3.442553855471108e-07,5.972215938198924e-07,9.181203022175909e-07,5e-06
3.443472611958717e-07,5.951294395411936e-07,9.151806284797971e-07,5e-06
3.444786233681957e-07,5.930847852851394e-07,9.117253628875164e-07,5e-06
3.4464059907550933e-07,5.910950644388158e-07,9.077513589501981e-07,5e-06
3.448250239924292e-07,5.891690849642282e-07,9.032542296616831e-07,5e-06
3.450261389902544e-07,5.873174724818339e-07,8.982296051814544e-07,5e-06
3.452423432944862e-07,5.8555142030517e-07,8.926739043796676e-07,5e-06
3.454767443857108e-07,5.838838002070743e-07,8.865842142117392e-07,5e-06
3.457360558316738e-07,5.823334392370968e-07,8.799579486696954e-07,5e-06
3.460298155896616e-07,5.809266843931071e-07,8.727936255768722e-07,5e-06
3.463708154507267e-07,5.796935806000903e-07,8.650950736648596e-07,5e-06
3.467735954484233e-07,5.786657274291693e-07,8.568774550460788e-07,5e-06
3.472503972644512e-07,5.778809838337872e-07,8.481694637520582e-07,5e-06
3.478085417384979e-07,5.773879091341212e-07,8.390108647906409e-07,5e-06
3.484506045370965e-07,5.772419921381685e-07,8.294487317327422e-07,5e-06
3.4917591032534e-07,5.774968965546279e-07,8.195330837309041e-07,5e-06
3.499832076291036e-07,5.781975500200318e-07,8.093127032249087e-07,5e-06
3.508736005466841e-07,5.793782696751299e-07,7.98834638042192e-07,5e-06
3.5185081748193005e-07,5.810667725071777e-07,7.881476534415218e-07,5e-06
3.529190031828572e-07,5.83289820788901e-07,7.773049769954114e-07,5e-06
3.54080676853719e-07,5.860736537385513e-07,7.663632164655098e-07,5e-06
3.55336470694924e-07,5.894391117201068e-07,7.553788172712948e-07,5e-06
3.566886783500812e-07,5.933971042645274e-07,7.444052142063734e-07,5e-06
3.5814674881246217e-07,5.979472284661843e-07,7.334920222108185e-07,5e-06
3.597286679007808e-07,6.030775794525147e-07,7.226845615348284e-07,5e-06
3.6145755341188457e-07,6.087644724175088e-07,7.120224999953898e-07,5e-06
3.6335708772517547e-07,6.149733462100299e-07,7.015387149779028e-07,5e-06
3.6544768857098243e-07,6.21661316072585e-07,6.912591382285568e-07,5e-06
3.6774518589889603e-07,6.287795889118823e-07,6.812033130651707e-07,5e-06
3.702622966243312e-07,6.362744478441636e-07,6.713853167223635e-07,5e-06
3.7300942348613227e-07,6.440892489759367e-07,6.618153708104026e-07,5e-06
3.7599238609100214e-07,6.521693520021186e-07,6.525020192601464e-07,5e-06
3.792094125130913e-07,6.604662311370386e-07,6.434531143701156e-07,5e-06
3.8265094587811545e-07,6.689369897919505e-07,6.34675271425299e-07,5e-06
3.8630210538012464e-07,6.775422264620084e-07,6.261730532499565e-07,5e-06
3.9014484976734344e-07,6.862470439637711e-07,6.179480437610514e-07,5e-06
3.941592175975578e-07,6.950246012644765e-07,6.099984002955132e-07,5e-06
3.983247764955028e-07,7.038582218257607e-07,6.023200297293023e-07,5e-06
4.026221551723325e-07,7.12740411451444e-07,5.949080711620267e-07,5e-06
4.07035224024668e-07,7.216726736618024e-07,5.877568912853665e-07,5e-06
4.115528663022477e-07,7.306690804851947e-07,5.808598540604993e-07,5e-06
4.161669431095341e-07,7.397568443155184e-07,5.742095612451611e-07,5e-06
4.208680481702618e-07,7.489684279803158e-07,5.677975349075083e-07,5e-06
4.25642930691009e-07,7.583321503047167e-07,5.616152814544107e-07,5e-06
4.304742351702074e-07,7.678690455937194e-07,5.556587307558821e-07,5e-06
4.353423946898945e-07,7.775953487909153e-07,5.499333422909622e-07,5e-06
4.4022731880833644e-07,7.875268805665628e-07,5.444556037838263e-07,5e-06
4.451075015133737e-07,7.976821246182755e-07,5.392490872595254e-07,5e-06
4.499593829379629e-07,8.080801469032445e-07,5.343379889337148e-07,5e-06
4.547593364941143e-07,8.187327707773239e-07,5.297448519223315e-07,5e-06
4.594856806041212e-07,8.296381511013891e-07,5.254942926107914e-07,5e-06
4.64118768140596e-07,8.407817405875626e-07,5.21615934790619e-07,5e-06
4.686403133854963e-07,8.521399145009085e-07,5.181423568549625e-07,5e-06
4.7303247682333935e-07,8.636796998739712e-07,5.151064958755902e-07,5e-06
4.772767752287736e-07,8.753574832009119e-07,5.125411715942452e-07,5e-06
4.813548946765332e-07,8.871236089854807e-07,5.104765774283606e-07,5e-06
4.852518201532561e-07,8.989332051237318e-07,5.089347407599026e-07,5e-06
4.889569842757235e-07,9.107544686616831e-07,5.07926870488034e-07,5e-06
4.92461569778959e-07,9.225661927868527e-07,5.074559272354493e-07,5e-06
4.957555517535657e-07,9.343491398007105e-07,5.075191522513054e-07,5e-06
4.9882641115172e-07,9.460811422800794e-07,5.08107629053394e-07,5e-06
5.016593915015829e-07,9.57736872250015e-07,5.092070884741396e-07,5e-06
5.042398988532879e-07,9.692880403512038e-07,5.108020992423209e-07,5e-06
5.0655695001255e-07,9.807026640774835e-07,5.128786538566748e-07,5e-06
5.086048716718039e-07,9.919451264445193e-07,5.154216811677453e-07,5e-06
5.103817082764734e-07,1.0029773548887345e-06,5.184108710133467e-07,5e-06
5.118859329970381e-07,1.0137595685005486e-06,5.218190331456488e-07,5e-06
5.131148845393039e-07,1.024250817320078e-06,5.256132483974907e-07,5e-06
5.140654604231062e-07,1.0344088864852123e-06,5.297574203458626e-07,5e-06
5.147345914198552e-07,1.0441896933082091e-06,5.342153692828389e-07,5e-06
5.151186810094142e-07,1.0535479984284085e-06,5.389527107456145e-07,5e-06
5.15213234919431e-07,1.062438164765694e-06,5.439354543240271e-07,5e-06
5.150136111092365e-07,1.0708152760356568e-06,5.491267876389659e-07,5e-06
5.14516072058761e-07,1.0786386775214142e-06,5.544855176612856e-07,5e-06
5.137174415999803e-07,1.0858744554968346e-06,5.599662172703378e-07,5e-06
5.126140787220802e-07,1.0924946260295677e-06,5.655194417560908e-07,5e-06
5.112021047681229e-07,1.0984760989884286e-06,5.710928534705525e-07,5e-06
5.09478466663213e-07,1.1038003801808005e-06,5.766348208080881e-07,5e-06
5.07441589254584e-07,1.1084533458754904e-06,5.820990430516195e-07,5e-06
5.050914508143738e-07,1.1124246850091634e-06,5.874459817816256e-07,5e-06
5.024294619572556e-07,1.1157061912382554e-06,5.926396906421286e-07,5e-06
4.994585957934087e-07,1.118290269218047e-06,5.976438079356744e-07,5e-06
4.96184087248392e-07,1.1201700840213554e-06,6.024209864373561e-07,5e-06
4.926148189817933e-07,1.1213406145089685e-06,6.069367410104381e-07,5e-06
4.887640340755054e-07,1.1217998550227591e-06,6.11165056625551e-07,5e-06
4.846479203283832e-07,1.1215482970525437e-06,6.150918116471686e-07,5e-06
4.802836093837929e-07,1.1205855090667144e-06,6.187140000052274e-07,5e-06
4.756886123313483e-07,1.11890774947799e-06,6.220356523465439e-07,5e-06
4.7088101321706973e-07,1.1165105639082115e-06,6.250634607780908e-07,5e-06
4.658791871591857e-07,1.1133939415928205e-06,6.278044631036192e-07,5e-06
4.607014586049139e-07,1.1095655123655417e-06,6.302652915200786e-07,5e-06
4.553663195392864e-07,1.1050422196186442e-06,6.32451315504747e-07,5e-06
4.498928293880206e-07,1.0998523650945866e-06,6.343652286926794e-07,5e-06
4.443004529386692e-07,1.094034605773177e-06,6.360061077418329e-07,5e-06
4.3860818589461356e-07,1.0876315713442222e-06,6.373702056398373e-07,4.875723021857238e-05
4.3283387725177443e-07,1.0806848764309857e-06,6.384530376964713e-07,4.653566417976474e-05
4.2699419317225686e-07,1.0732387040239828e-06,6.392505550159478e-07,4.4387164696103496e-05
4.211043050510918e-07,1.0653463197255769e-06,6.397583265890285e-07,4.231307907003258e-05
4.151774883758747e-07,1.0570678848855162e-06,6.399699007780073e-07,4.031460920962277e-05
4.0922596895152283e-07,1.0484604016427735e-06,6.398758059688683e-07,3.839288381553005e-05
4.0326220233886206e-07,1.039570365677868e-06,6.394638310554389e-07,3.654901581610265e-05
3.972989876409747e-07,1.0304328648104222e-06,6.38720981023556e-07,3.478409262941782e-05
3.913489328207658e-07,1.0210736602492778e-06,6.376367674017965e-07,3.309912824088241e-05
3.85424171171785e-07,1.0115121833985678e-06,6.362049504447864e-07,3.1495024075766285e-05
3.7953609255278337e-07,1.001765916414579e-06,6.344225704619471e-07,2.997250306302436e-05
3.73694800139531e-07,9.918560124835477e-07,6.322913844080907e-07,2.853203997845995e-05
3.679089998123828e-07,9.818124783719989e-07,6.298244693959151e-07,2.717392909957944e-05
3.621873580300011e-07,9.716782907110822e-07,6.270531014928847e-07,2.5898447060087197e-05
3.565405580136513e-07,9.615123230244366e-07,6.240298840097585e-07,2.470588812597373e-05
3.509821730634593e-07,9.513882149212669e-07,6.208279505317049e-07,2.359645147911832e-05
3.455281806160555e-07,9.413870282398396e-07,6.175348986174242e-07,2.257012651212702e-05
3.4019622077011213e-07,9.315883769465124e-07,6.142409547100174e-07,2.162661139106641e-05
3.35005822334103e-07,9.220696747853769e-07,6.110275380875755e-07,2.0765224276420584e-05
3.2997911439447326e-07,9.129160842639e-07,6.079631611883022e-07,1.9984824702456767e-05
3.25139631681402e-07,9.042287015877512e-07,6.051065333658446e-07,1.9283801424492645e-05
3.2050988529737697e-07,8.961191323923263e-07,6.025127338656351e-07,1.8660139351551238e-05
3.161099622173715e-07,8.88696578767927e-07,6.002369558469983e-07,1.811152984154277e-05
3.119566436056633e-07,8.820590711040581e-07,5.983323100050436e-07,1.7635516680583114e-05
3.080625159576127e-07,8.762899617943441e-07,5.96845456696362e-07,1.722967206892539e-05
3.0443581681176266e-07,8.714551159291004e-07,5.958160103149751e-07,1.6891693555296867e-05
3.010818729243845e-07,8.675994388492176e-07,5.952803349308011e-07,1.661932000277392e-05
2.9800526220627086e-07,8.647452031561295e-07,5.952770280505497e-07,1.641014617650748e-05
2.9520991783522385e-07,8.628933687361177e-07,5.958511407490779e-07,1.6261511067499388e-05
2.9269722908482397e-07,8.62026016424513e-07,5.970541601544526e-07,1.617052468818944e-05
2.9046510038831293e-07,8.621094930677322e-07,5.989399011708638e-07,1.6134129259257474e-05
2.885093876068663e-07,8.631004708088545e-07,6.015598651533036e-07,1.614908648244475e-05
2.868265617405764e-07,8.64953046812825e-07,6.049601283910059e-07,1.6211942647332714e-05
2.854149972902308e-07,8.676206116225898e-07,6.091783566748115e-07,1.631911838620577e-05
2.842740659038101e-07,8.710530428263626e-07,6.142394856975898e-07,1.6467138609145514e-05
2.834037437435937e-07,8.751962737218983e-07,6.20153689521039e-07,1.665278811991386e-05
2.828059196290704e-07,8.799952032590685e-07,6.269217848022965e-07,1.687301936780709e-05
2.824848832461888e-07,8.853955287564529e-07,6.345457499414484e-07,1.7124732083298744e-05
2.824458439993379e-07,8.913432043832157e-07,6.430360915136364e-07,1.740465700180888e-05
2.826926100234824e-07,8.977834973154286e-07,6.524108523541757e-07,1.7709472044278953e-05
2.8322555252245605e-07,9.046607376038969e-07,6.626891809746664e-07,1.8036147889771885e-05
2.8404062430929464e-07,9.119172396884859e-07,6.738856312221121e-07,1.8382327654312632e-05
2.8512915947042127e-07,9.194906085317777e-07,6.860072356721529e-07,1.8746461624871226e-05
2.8647794730610344e-07,9.273119288452305e-07,6.990524717628444e-07,1.912764278107247e-05
2.880697055258611e-07,9.353071019132473e-07,7.130097702753741e-07,1.9525315311171812e-05
2.8988424332262525e-07,9.43400873017554e-07,7.278531403940574e-07,1.993899654363912e-05
2.9190056667082574e-07,9.515213088903444e-07,7.435379197359407e-07,2.036806578595788e-05
2.9409885730451825e-07,9.596019657354568e-07,7.600014540783166e-07,2.0811658698024447e-05
2.9646038751817666e-07,9.675807194525006e-07,7.771674027332652e-07,2.1268644147812008e-05
2.989658726943163e-07,9.75397770555115e-07,7.949493889431412e-07,2.1737594400478787e-05
3.015945186246665e-07,9.829958704902165e-07,8.132528482403908e-07,2.2216727911290853e-05
3.043242989355121e-07,9.903220563986868e-07,8.31976632962292e-07,2.270389584994888e-05
3.071328532033621e-07,9.973289841046891e-07,8.510155097342299e-07,2.319665244122161e-05
3.0999818988141327e-07,1.003975206676666e-06,8.702631283277813e-07,2.369236397386872e-05
3.128983975117633e-07,1.010223605322388e-06,8.896142283839117e-07,2.418830308759403e-05
3.1581120870281665e-07,1.01603852088089e-06,9.089648122345785e-07,2.4681753675679825e-05
3.187142190087548e-07,1.0213831962383677e-06,9.282110227712234e-07,2.5170177995640523e-05
3.215856024559624e-07,1.0262188813456993e-06,9.472493835104096e-07,2.565141528576789e-05
3.244054859720541e-07,1.0305064824397671e-06,9.65978174307854e-07,2.612382176184877e-05
3.2715662729584253e-07,1.034208388999937e-06,9.84297722453051e-07,2.658630286382612e-05
3.298228874548759e-07,1.037288017117113e-06,1.0021103436745225e-06,2.7038254330052235e-05
3.3238713891993964e-07,1.0397096476433793e-06,1.019321004951377e-06,2.747946158171968e-05
3.3483086115586877e-07,1.0414410416579015e-06,1.0358376862330419e-06,2.791000578550661e-05
3.371354459268085e-07,1.042456458026155e-06,1.0515713534305216e-06,2.8330169620140553e-05
3.3928390909465545e-07,1.0427376954002322e-06,1.0664362022352311e-06,2.874030241653158e-05
3.412619268115531e-07,1.042274154335738e-06,1.0803501964452499e-06,2.9140650672017665e-05
3.430580019764272e-07,1.0410619676656187e-06,1.0932357537894177e-06,2.953121060303064e-05
3.4466267845428536e-07,1.039101098381514e-06,1.1050201253861404e-06,2.991170384659049e-05
3.460668623872599e-07,1.0363925473373342e-06,1.1156362627323748e-06,3.0281711131183898e-05
3.472605833214543e-07,1.0329385468899188e-06,1.125025370950473e-06,3.0640813485214694e-05
3.482332443510989e-07,1.0287451970027077e-06,1.1331389580745432e-06,3.09886222859625e-05
3.489750769660226e-07,1.0238248280688095e-06,1.139937451653299e-06,3.132478147441566e-05
3.4947944089895396e-07,1.0181957252637954e-06,1.1453870316359199e-06,3.164902810176923e-05
3.497442173696624e-07,1.0118802250437037e-06,1.1494585091868514e-06,3.196126344789163e-05
3.4977022469594546e-07,1.00490531884321e-06,1.152129153070275e-06,3.226154965009707e-05
3.495585206383096e-07,9.973054340306533e-07,1.1533858525958379e-06,3.255002963179034e-05
3.491096487320696e-07,9.8912216537013e-07,1.1532276729558058e-06,3.282683908622027e-05
3.484245698147872e-07,9.803999850589093e-07,1.1516667052391305e-06,3.309201904006485e-05
3.475052649198844e-07,9.711813099536615e-07,1.14872823981011e-06,3.3345409230860075e-05
3.463543011582745e-07,9.61503691071083e-07,1.1444515572496684e-06,3.358662542638354e-05
3.4497445692430894e-07,9.514011273206772e-07,1.138889183670468e-06,3.381520023215277e-05
3.433687970542058e-07,9.40909300089289e-07,1.132101729797656e-06,3.403074753276956e-05
3.415403031049737e-07,9.300715262335964e-07,1.1241513762064209e-06,3.423297710680607e-05
3.394916054241612e-07,9.189406248344284e-07,1.115099763043467e-06,3.442157087323125e-05
3.3722632370373065e-07,9.075738790046957e-07,1.105009567048258e-06,3.459605442999049e-05
3.3475143546560466e-07,8.960260701363087e-07,1.0939452716710856e-06,3.475574749624361e-05
3.3207844483881536e-07,8.843484259079555e-07,1.0819727674760952e-06,3.4899762254496447e-05
3.2922222853903606e-07,8.725940985267902e-07,1.0691596821035677e-06,3.5027010015819014e-05
3.261986271588048e-07,8.608245344766691e-07,1.0555762509079195e-06,3.5136259684734305e-05
3.2302313587469094e-07,8.49111243621338e-07,1.0412946983845031e-06,3.522633537362384e-05
3.197116934566748e-07,8.375322596180823e-07,1.0263862012406262e-06,3.529643911952945e-05
3.1628148720569355e-07,8.261659291959544e-07,1.0109178781522677e-06,3.534636967891254e-05
3.127500017342231e-07,8.150839952806685e-07,9.949525834871715e-07,3.5376448782417026e-05
3.091341360393002e-07,8.043466144887602e-07,9.785509092238585e-07,3.5387290228227036e-05
3.054507791941922e-07,7.940009114419237e-07,9.617722899682222e-07,3.5379614097228995e-05
3.017170891722682e-07,7.840811180616525e-07,9.446737514793251e-07,3.535413531591913e-05
2.979500531102913e-07,7.746093878024712e-07,9.273088189303749e-07,3.5311551374699825e-05
2.9416663855212194e-07,7.655978883335634e-07,9.097285974691533e-07,3.525266813484177e-05
2.903838082657567e-07,7.570516630666645e-07,8.919852394643187e-07,3.517854109075198e-05
2.866176250343363e-07,7.489718169051034e-07,8.741383057387304e-07,3.509047828270442e-05
2.828825038412709e-07,7.413576118793123e-07,8.56260235275592e-07,3.4989943887719985e-05
2.791909585133308e-07,7.34206619405453e-07,8.384352351053048e-07,3.487846839985609e-05
2.7555340001822783e-07,7.275162993866519e-07,8.207525128234961e-07,3.4757593445868374e-05
2.7197797475857e-07,7.212882876483952e-07,8.032985436749699e-07,3.4628853683347084e-05
2.684708156369598e-07,7.155315467040609e-07,7.861526559457403e-07,3.449378412837064e-05
2.650371193091263e-07,7.10262326019703e-07,7.693889336211657e-07,3.435392575103107e-05
2.616824633184649e-07,7.055004191925483e-07,7.5308111255416e-07,3.421081972803484e-05
2.584138662670097e-07,7.012623290046865e-07,7.373039200384604e-07,3.406597089462263e-05
2.5524073535473837e-07,6.975558984496199e-07,7.221301857732427e-07,3.392074182839047e-05
2.521747935412953e-07,6.943790249606939e-07,7.076263855060853e-07,3.3776202383691684e-05
2.4922841545189407e-07,6.917201775012486e-07,6.938481489500021e-07,3.363302808529116e-05
2.4641274091358124e-07,6.89558833014902e-07,6.80837683228181e-07,3.34915037023916e-05
2.437369531760621e-07,6.87867006988829e-07,6.686240314341414e-07,3.3351616890275705e-05
2.412081466921539e-07,6.866141543417436e-07,6.572246395540154e-07,3.3213200961774465e-05
2.388310207470165e-07,6.857739378796907e-07,6.466475972708294e-07,3.307607829627059e-05
2.3660830800647388e-07,6.853269792782563e-07,6.368969392840111e-07,3.294015046349298e-05
2.3454189621173548e-07,6.852571138168015e-07,6.279810143594777e-07,3.280543518398486e-05
2.3263293887628079e-07,6.855462222555006e-07,6.199180278467977e-07,3.2672112020626195e-05
2.308809357666684e-07,6.861732142791355e-07,6.127336559002884e-07,3.2540580625739664e-05
2.2928337016788979e-07,6.87115746234421e-07,6.064522183021332e-07,3.241146202566497e-05
2.278362786318462e-07,6.883496073597419e-07,6.010895200509007e-07,3.2285530846899004e-05
2.2653490547506442e-07,6.898459421256004e-07,5.966549539841053e-07,3.2163629808737264e-05
2.253737925622228e-07,6.915709604994219e-07,5.931592184768507e-07,3.204656030281847e-05
2.2434671395993718e-07,6.934884841592644e-07,5.906162526037966e-07,3.1934927208722456e-05
2.234472589698258e-07,6.955616682922842e-07,5.890357858808136e-07,3.182902649764146e-05
2.2266980171914163e-07,6.977527501126407e-07,5.884151205730885e-07,3.172884165042995e-05
2.220103591810613e-07,7.00022228049749e-07,5.88737423418594e-07,3.1634078565457534e-05
2.214669285789545e-07,7.023285321854338e-07,5.899735672064443e-07,3.154420857790961e-05
2.210388684004187e-07,7.046286890684119e-07,5.920830473748031e-07,3.145858454155433e-05
2.2072607604950047e-07,7.068798172806848e-07,5.950147779794818e-07,3.137664513147616e-05
2.2052824957414178e-07,7.090407331853102e-07,5.987102516886348e-07,3.129811691817188e-05
2.2044383028139592e-07,7.110743539957569e-07,6.031094460155129e-07,3.1223104633557924e-05
2.2046964303729893e-07,7.129498393636112e-07,6.08156999319952e-07,3.1152058343836045e-05
2.206013805573994e-07,7.14640985696037e-07,6.13805626784909e-07,3.108570038681231e-05
2.2083395518065558e-07,7.161227687785999e-07,6.200161488992289e-07,3.102499786395101e-05
2.2116193367958798e-07,7.17371010793819e-07,6.267549281368974e-07,3.097118353067168e-05
2.2157973485432057e-07,7.18365516260104e-07,6.339896982114158e-07,3.092571983579292e-05
2.2208157681619453e-07,7.190928369548835e-07,6.416864114486529e-07,3.089011671398756e-05
2.226628591028463e-07,7.195445844775381e-07,6.498090489571193e-07,3.0865652518825746e-05
2.2332225528742752e-07,7.197128067285884e-07,6.583207802269092e-07,3.0853129078250785e-05
2.24062210764672e-07,7.19588938361112e-07,6.671839206684533e-07,3.085275474157149e-05
2.2488807424000983e-07,7.191679613729949e-07,6.763576213537434e-07,3.086416584571241e-05
2.2580651673515037e-07,7.184514650671278e-07,6.857949523597451e-07,3.088652546137174e-05
2.2682391405677987e-07,7.174452286180659e-07,6.954434249216714e-07,3.091862519576293e-05
2.2794630912438732e-07,7.161548961063472e-07,7.052494970648115e-07,3.0958993701633915e-05
2.2918041369218694e-07,7.145842108542876e-07,7.151619090507777e-07,3.1006138188727064e-05
2.3053345837617732e-07,7.127362563747535e-07,7.25131875356888e-07,3.105905174046304e-05
2.3201163683472538e-07,7.106160025671094e-07,7.351131752324579e-07,3.111785152886387e-05
2.3361906158780784e-07,7.082317187903496e-07,7.450613947590731e-07,3.118417189861561e-05
2.353583748904673e-07,7.055939174775205e-07,7.54930561819423e-07,3.1261185630937675e-05
2.3723217823540467e-07,7.027131922430728e-07,7.646704732944135e-07,3.1353504387228005e-05
2.392440151322844e-07,6.996010492046458e-07,7.742274678588853e-07,3.1467134164235686e-05
2.413976549977643e-07,6.962761715498869e-07,7.835470575851972e-07,3.160936301466914e-05
2.436955151851439e-07,6.927701695347144e-07,7.925774540874392e-07,3.178838234397231e-05
2.4613893887135853e-07,6.89124299299372e-07,8.012752813672599e-07,3.201260791667294e-05
2.487302997830326e-07,6.853796464253016e-07,8.09610881494913e-07,3.228985601258703e-05
2.514749908332013e-07,6.815707271851496e-07,8.17567799866052e-07,3.262660922612594e-05
2.543827879327477e-07,6.777261468052887e-07,8.251361097936218e-07,3.3027609374761745e-05
2.57469213047644e-07,6.738718812227203e-07,8.32305247044077e-07,3.349592205703543e-05
2.6075601180228144e-07,6.700322792335414e-07,8.390621687469184e-07,3.403335778045449e-05
2.642682729495386e-07,6.662304472228232e-07,8.453938185904341e-07,3.464094847848197e-05
2.6802908272710336e-07,6.624913692778406e-07,8.512878629459344e-07,3.531929562818841e-05
2.7205587172435517e-07,6.588438711457535e-07,8.567301401735645e-07,3.6068789328167715e-05
2.763598000126676e-07,6.553172510442803e-07,8.6170293828001e-07,3.68897471344128e-05
2.809461377650348e-07,6.519359671602139e-07,8.661861869045986e-07,3.7782509586658066e-05
2.858145609654219e-07,6.487176893559709e-07,8.701590779043581e-07,3.8747498264878135e-05
2.9095969918118736e-07,6.456755593843314e-07,8.736002998881575e-07,3.978522822018147e-05
2.963713520860394e-07,6.428210885271963e-07,8.764882872171527e-07,4.0896269213184774e-05
3.0203396043202897e-07,6.401641865321943e-07,8.788020277336651e-07,4.208113906473737e-05
3.0792617213737944e-07,6.377109986647968e-07,8.805213620756251e-07,4.33401326090851e-05
3.140210539450957e-07,6.354626389083487e-07,8.816280546188276e-07,4.4673117701956706e-05
3.202867085349337e-07,6.33416565885134e-07,8.821079979312187e-07,4.607930940985364e-05
3.2668720037005893e-07,6.315693636561568e-07,8.819510097058382e-07,4.755701579418114e-05
3.3318460968882123e-07,6.299180010970886e-07,8.811479734034506e-07,4.9103366830750326e-05
3.3974274061973836e-07,6.284598876802926e-07,8.796897189239563e-07,5e-06
3.463307951028874e-07,6.271943100485676e-07,8.775684645022737e-07,5e-06
3.5292513478774377e-07,6.261243949756544e-07,8.747786903482838e-07,5e-06
3.595088688070279e-07,6.25257521847084e-07,8.713166854403921e-07,5e-06
3.6606886824512283e-07,6.246045556712365e-07,8.671801891061348e-07,5e-06
3.7259134968880783e-07,6.241777540106367e-07,8.623686818936096e-07,5e-06
3.790593402554304e-07,6.239878219281222e-07,8.56883780631181e-07,5e-06
3.8545351033359633e-07,6.240449092264146e-07,8.507288625015289e-07,5e-06
3.9175512576246534e-07,6.243643351501419e-07,8.439091928355268e-07,5e-06
3.9794903894093453e-07,6.249698194716631e-07,8.364350089468549e-07,5e-06
4.04025925893539e-07,6.25889877480539e-07,8.283252639148685e-07,5e-06
4.0998266473280224e-07,6.271500128531705e-07,8.196073796315862e-07,5e-06
4.158187570346957e-07,6.287673574798697e-07,8.103140429204762e-07,5e-06
4.2153133095665595e-07,6.307530887599546e-07,8.004802699056032e-07,5e-06
4.2711333414194656e-07,6.331180627769097e-07,7.901412217733401e-07,5e-06
4.3255414706323493e-07,6.358731923189869e-07,7.793320157910734e-07,5e-06
4.378399666940469e-07,6.390247417180743e-07,7.680898119415661e-07,5e-06
4.4295428199662563e-07,6.425694372394198e-07,7.564552908514404e-07,5e-06
4.478794356709199e-07,6.46492425843853e-07,7.444728124281706e-07,5e-06
4.525983492351772e-07,6.507698959918879e-07,7.321902544210207e-07,5e-06
4.5709495314900505e-07,6.55373741229336e-07,7.196573702122574e-07,5e-06
4.6135358659791137e-07,6.602723586461743e-07,7.069237614072352e-07,5e-06
4.653582972162929e-07,6.654277857598371e-07,6.940394221025107e-07,5e-06
4.6909255197822894e-07,6.707953229027994e-07,6.81055490873312e-07,5e-06
4.7254003488895074e-07,6.763281637630807e-07,6.680216882837085e-07,5e-06
4.75685944101195e-07,6.819821462920538e-07,6.549830766419022e-07,5e-06
4.785173387009414e-07,6.87715442681265e-07,6.419800989725451e-07,5e-06
4.810226438117343e-07,6.934852651855425e-07,6.290504411937628e-07,5e-06
4.831911353250529e-07,6.992467594235206e-07,6.162298274874805e-07,5e-06
4.850126541692878e-07,7.049558186978423e-07,6.035530572442714e-07,5e-06
4.864772160699347e-07,7.105735432834448e-07,5.910564968023263e-07,5e-06
4.875744395658302e-07,7.160686373064116e-07,5.787792977556128e-07,5e-06
4.882936296398857e-07,7.214178100090537e-07,5.667620254330147e-07,5e-06
4.886245565194492e-07,7.266058827987719e-07,5.550454692929568e-07,5e-06
4.885580308215528e-07,7.316233427691957e-07,5.436705759839332e-07,5e-06
4.880865520661339e-07,7.364613754525177e-07,5.326772316701286e-07,5e-06
4.872054694621225e-07,7.411090709302931e-07,5.221019550298589e-07,5e-06
4.859137449866274e-07,7.455536543281884e-07,5.11977479237338e-07,5e-06
4.842144836979996e-07,7.497806716309255e-07,5.02336237412151e-07,5e-06
4.821160672930143e-07,7.537727448600225e-07,4.932157385701675e-07,5e-06
4.796324605805271e-07,7.5750788396217e-07,4.846599771585768e-07,5e-06
4.7678150962180004e-07,7.609588515545671e-07,4.7671409466389856e-07,5e-06
4.7358268413579683e-07,7.640938550128204e-07,4.69417300965365e-07,5e-06
4.70056272187617e-07,7.668781100661522e-07,4.627998906320633e-07,5e-06
4.6622396422971135e-07,7.692765285075623e-07,4.5688388557804594e-07,5e-06
4.621091170803133e-07,7.712571303420981e-07,4.516838570638448e-07,5e-06
4.5773626412961385e-07,7.727932315928995e-07,4.4720866083586704e-07,5e-06
4.531300287901436e-07,7.738646384979237e-07,4.434665460468705e-07,5e-06
4.483133186660247e-07,7.744592572818092e-07,4.4046858972149466e-07,5e-06
4.4330631004601594e-07,7.745723774934186e-07,4.3822420936305323e-07,5e-06
4.381272309235387e-07,7.74202182011392e-07,4.367338467871845e-07,5e-06
4.327932199505996e-07,7.733456686812588e-07,4.359871179983229e-07,5e-06
4.2732022353396407e-07,7.719974477043527e-07,4.3596577334058684e-07,5e-06
4.2172297725768753e-07,7.701503100489578e-07,4.3664759522681286e-07,5e-06
4.160151381151491e-07,7.677966683450564e-07,4.3801235190475797e-07,5e-06
4.102087887269657e-07,7.649309774367173e-07,4.400504298180294e-07,5e-06
4.0431402292910867e-07,7.615535494592771e-07,4.427680315944355e-07,5e-06
3.983396545455204e-07,7.576735153013018e-07,4.461834673798109e-07,5e-06
3.9229464446875135e-07,7.533085293342455e-07,4.5031716184491044e-07,5e-06
3.8618976246056927e-07,7.4848399900785e-07,4.5518173484924536e-07,5e-06
3.800396210365069e-07,7.432337179641036e-07,4.6077690286666745e-07,5e-06
3.738639728523989e-07,7.375989362365862e-07,4.6709020526624843e-07,5e-06
3.676867893608926e-07,7.316256791113303e-07,4.741004184759753e-07,5e-06
3.615335952333042e-07,7.253658733625381e-07,4.8178090496842e-07,5e-06
3.5542845208885047e-07,7.188843179686175e-07,4.901021096114772e-07,5e-06
3.4939178105452053e-07,7.122617979810026e-07,4.99031419756004e-07,5e-06
3.4343979422605674e-07,7.055860718400583e-07,5.08529885455456e-07,5e-06
3.375849224543229e-07,6.989387745599753e-07,5.185496066378276e-07,5e-06
3.3183655644386426e-07,6.923894885710982e-07,5.2903592152791e-07,5e-06
3.2620235826858226e-07,6.859966519126493e-07,5.399333468440144e-07,5e-06
3.2068927363707005e-07,6.798094235907247e-07,5.511899061353468e-07,5e-06
3.1530366756788396e-07,6.73867608030146e-07,5.627564714170298e-07,5e-06
3.1005223335870024e-07,6.682005822559456e-07,5.745831042702432e-07,5e-06
3.0494348087185604e-07,6.6282764309317e-07,5.866163622679717e-07,4.974676208357643e-05
2.999874395348891e-07,6.577605173454232e-07,5.987985269651039e-07,4.853671211212759e-05
2.951941882225737e-07,6.530065176751426e-07,6.110671734343693e-07,4.7347849175534055e-05
2.9057355513414537e-07,6.4857102716016e-07,6.233552020060225e-07,4.61809183389364e-05
2.8613599166806336e-07,6.444583811102419e-07,6.355922005967922e-07,4.503644806151352e-05
2.818929760373967e-07,6.406700128541469e-07,6.477061367763961e-07,4.391486190753159e-05
2.7785562667522003e-07,6.372017946288025e-07,6.596248087582839e-07,4.281657928109693e-05
2.7403242178111697e-07,6.340443596621321e-07,6.71277675121694e-07,4.174207414197992e-05
2.7042878106012747e-07,6.311852089398387e-07,6.825973890081106e-07,4.0691914790282865e-05
2.670494743600567e-07,6.286087603059626e-07,6.935195434243873e-07,3.966680331643575e-05
2.639014311541397e-07,6.2629509193919e-07,7.039812326844186e-07,3.866762736278256e-05
2.6099370891358254e-07,6.242201898742509e-07,7.13920941701947e-07,3.7695517953136494e-05
2.583346280902833e-07,6.2235737531169e-07,7.232809136177114e-07,3.6751799175468174e-05
2.5592917748289684e-07,6.206782417636999e-07,7.32009845740942e-07,3.5837746091112424e-05
2.537781586868068e-07,6.191533371775771e-07,7.400637334656446e-07,3.4954316201716684e-05
2.518781036147553e-07,6.17752997507908e-07,7.474066292829312e-07,3.4102046988491494e-05
2.5022183956541204e-07,6.164475170810864e-07,7.540123812637284e-07,3.328108388372617e-05
2.488003457056782e-07,6.152070278428835e-07,7.598642229617492e-07,3.2491236210978164e-05
2.476050233438623e-07,6.14001372654239e-07,7.649514830785135e-07,3.173203464071012e-05
2.466282207781223e-07,6.128001776090132e-07,7.692667630220824e-07,3.100280370968744e-05
2.4586151869565737e-07,6.115748387115058e-07,7.728046999112922e-07,3.030276071627177e-05
2.452940003079009e-07,6.103011196295451e-07,7.755611165947043e-07,2.9631096550873804e-05
2.449120663366669e-07,6.089610419905527e-07,7.775328925125534e-07,2.8986975274130426e-05
2.447003031981525e-07,6.075469291122924e-07,7.78719496034682e-07,2.836949266950884e-05
2.446432697697237e-07,6.060669744435001e-07,7.791255878879509e-07,2.7777699031191328e-05
2.4472838258898103e-07,6.045461633989058e-07,7.787625807924658e-07,2.7210691390865172e-05
2.449486100767267e-07,6.030189446289314e-07,7.776476561869052e-07,2.666769432611057e-05
2.4530250128280405e-07,6.015191325784372e-07,7.758021697888203e-07,2.614810710993175e-05
2.457907846656315e-07,6.000749514734472e-07,7.732526169746314e-07,2.565153372423077e-05
2.4641252788207486e-07,5.987088685401708e-07,7.700329213892088e-07,2.517777487990285e-05
2.4716362216272017e-07,5.97438359280087e-07,7.661841559287645e-07,2.472679198071822e-05
2.480369818979047e-07,5.962769433846422e-07,7.617510007082224e-07,2.429869161834298e-05
2.490238808333415e-07,5.952354273489971e-07,7.567774547250808e-07,2.389371928119779e-05
2.501168470605653e-07,5.943225081380329e-07,7.51305190563619e-07,2.3512233068694008e-05
2.5131256812778724e-07,5.935468180952578e-07,7.453758735344483e-07,2.3154674553914945e-05
2.526118622263712e-07,5.92924714335261e-07,7.390345153980156e-07,2.282152588827911e-05
2.540166889143314e-07,5.924895114539248e-07,7.323295596881544e-07,2.251322457530105e-05
2.555280243797257e-07,5.922912357393381e-07,7.253089488130234e-07,2.2230071860597878e-05
2.571473513706414e-07,5.923879637625351e-07,7.180160499938927e-07,2.1972174131844966e-05
2.5888030165567013e-07,5.928381356826315e-07,7.104886651764326e-07,2.1739395061970072e-05
2.607389577942104e-07,5.936943849023566e-07,7.02760043228891e-07,2.1531304670742097e-05
2.627412539229671e-07,5.949965881939271e-07,6.948599703975938e-07,2.1347165662368112e-05
2.6490907800125287e-07,5.967680234567156e-07,6.868151948770733e-07,2.1185981464864646e-05
2.6726632005899037e-07,5.99017613057245e-07,6.786491586562026e-07,2.104656768891149e-05
2.698360775891377e-07,6.017446933843389e-07,6.703822635860099e-07,2.092760144692793e-05
2.7263701777671266e-07,6.049414039123908e-07,6.620328028374147e-07,2.0827669599003346e-05
2.7568072672468034e-07,6.085929155060559e-07,6.536170312557216e-07,2.074539023013293e-05
2.789714135634531e-07,6.126780810169435e-07,6.451485239699503e-07,2.0679597734227508e-05
2.8250726582028236e-07,6.171717344388561e-07,6.366382713296606e-07,2.062946390417002e-05
2.862823514696135e-07,6.220485912979788e-07,6.2809613949936e-07,2.0594480173530606e-05
2.9028908214651186e-07,6.272856551081786e-07,6.195330883062853e-07,2.057432393677736e-05
2.945207874973987e-07,6.328623363743631e-07,6.109632951374507e-07,2.0568649678566807e-05
2.989731035777999e-07,6.387633108589839e-07,6.024053946859364e-07,2.0576895251140508e-05
3.0364407861285873e-07,6.449835329730052e-07,5.938807354216739e-07,2.059821298421488e-05
3.085349116713045e-07,6.515281889228962e-07,5.854091534944778e-07,2.0631535773692748e-05
3.136538434247702e-07,6.584069488783046e-07,5.770069675017355e-07,2.067572197007981e-05
3.190217785106453e-07,6.656272018556243e-07,5.686887431483933e-07,2.072973943481449e-05
3.246731688237691e-07,6.731886629279478e-07,5.604702589997048e-07,2.0792827434941643e-05
3.30649860488838e-07,6.810820837030247e-07,5.523703142402199e-07,2.0864542097358717e-05
3.3699424304898073e-07,6.892925787694503e-07,5.44409809684237e-07,2.0944665019686384e-05
3.437467052488062e-07,6.97802547253978e-07,5.366086100681588e-07,2.1033053955186873e-05
3.5094387727694417e-07,7.065916978828164e-07,5.289828123093451e-07,2.112950037336369e-05
3.586134230872232e-07,7.156357160783558e-07,5.215442003354546e-07,2.123360817055629e-05
3.667687221389722e-07,7.249050065496047e-07,5.143018231738021e-07,2.134472034566752e-05
3.7540835661493355e-07,7.343675576064326e-07,5.072646323714264e-07,2.1461926989150893e-05
3.8451965406550605e-07,7.439983204912697e-07,5.00443730324672e-07,2.158412916638925e-05
3.940830558843317e-07,7.537880038142546e-07,4.938537170541074e-07,2.171010509236256e-05
4.0407575850379293e-07,7.637431439030587e-07,4.875137048616253e-07,2.1838604363522352e-05
4.144744819192837e-07,7.738781999906887e-07,4.814474999017994e-07,2.196851248212143e-05
4.252583339971796e-07,7.842049747264673e-07,4.7568137378311117e-07,2.209896624245076e-05
4.36412182541817e-07,7.947248953372773e-07,4.702393987305459e-07,2.22292854071888e-05
4.4792739075241e-07,8.054285588749827e-07,4.651389079151204e-07,2.235888335213341e-05
4.5979843220502004e-07,8.163007684223672e-07,4.6038878955143053e-07,2.2487471590064288e-05
4.720198360979189e-07,8.273249744997924e-07,4.559913811725711e-07,2.2615572827836278e-05
4.845844653612083e-07,8.384851073003428e-07,4.5194724582720606e-07,2.274495921485051e-05
4.974797748270414e-07,8.497659073328974e-07,4.4825955878624e-07,2.287867746584577e-05
5.106850454523064e-07,8.611506582820973e-07,4.449337687625887e-07,2.302074206818063e-05
5.241728459164779e-07,8.726166063180731e-07,4.419734033590675e-07,2.3175754758504604e-05
5.37910052947064e-07,8.841336825886673e-07,4.393772683480525e-07,2.334856196295261e-05
5.518564151493061e-07,8.956695869533287e-07,4.371403666391676e-07,2.354396700683729e-05
5.65964447423728e-07,9.071951702333252e-07,4.3525743316245975e-07,2.3766490306354683e-05
5.801810440264322e-07,9.186842876309813e-07,4.3372779117571316e-07,2.402015946304031e-05
5.944485274455459e-07,9.301110783311459e-07,4.325594282950197e-07,2.4308351192803244e-05
6.087049063680008e-07,9.414495005484323e-07,4.3176974717962884e-07,2.4633708458096803e-05
6.228840061414767e-07,9.526736353927143e-07,4.313821905216072e-07,2.499808770513653e-05
6.369159479733742e-07,9.637548027292718e-07,4.314204684156706e-07,2.5402473962612327e-05
6.507280979392624e-07,9.746569812242122e-07,4.3190416113424175e-07,2.584691042320984e-05
6.642464152539903e-07,9.85335628722556e-07,4.328477584051588e-07,2.6330640231338472e-05
6.773979684362075e-07,9.957408664246418e-07,4.342608498032814e-07,2.6852619022810763e-05
6.901139157983057e-07,1.0058209134833849e-06,4.3614733855564157e-07,2.7412254003379945e-05
7.023303487762065e-07,1.0155229342995924e-06,4.3850423463981933e-07,2.8010003400112072e-05
7.139874890691111e-07,1.0247927147522e-06,4.413204708398879e-07,2.8647612844340107e-05
7.250292403093417e-07,1.0335748458929087e-06,4.445764515900839e-07,2.9328073875198627e-05
7.354025416446881e-07,1.0418138628555401e-06,4.482454417709221e-07,3.0055488416660705e-05
7.450567414788928e-07,1.0494563825866608e-06,4.522965887441226e-07,3.0834879460377444e-05
7.539444617985122e-07,1.0564531920689148e-06,4.5669884005827246e-07,3.167191360382553e-05
7.620229854732307e-07,1.0627603116764587e-06,4.614241385171425e-07,3.257257298142027e-05
7.692549631739995e-07,1.0683393340594676e-06,4.66447981696832e-07,3.354271315862588e-05
7.756096688878702e-07,1.0731580939160251e-06,4.717487266169995e-07,3.4587400469365785e-05
7.810644471261761e-07,1.0771914026750357e-06,4.773084575065512e-07,3.5710339749624954e-05
7.856048217140135e-07,1.0804202200499537e-06,4.831144689782292e-07,3.6913711851214094e-05
7.892244481788964e-07,1.0828297374035765e-06,4.891590005204821e-07,3.819824603735393e-05
7.919257974992011e-07,1.0844081781417499e-06,4.954374444370408e-07,3.956335506749981e-05
7.93721050858873e-07,1.0851462610504321e-06,5.01945654759159e-07,4.100733721823241e-05
7.946318499490427e-07,1.0850364842170374e-06,5.086766179746204e-07,4.252760891257046e-05
7.946857475187406e-07,1.084073047648823e-06,5.156176869689952e-07,4.41208647528642e-05
7.939115622605437e-07,1.082253624239275e-06,5.227489398650051e-07,4.578308088549262e-05
7.923379437629175e-07,1.0795813172323764e-06,5.300431358669104e-07,4.7509450662163866e-05
7.899936070015205e-07,1.0760647232665102e-06,5.374690011807595e-07,4.929442550813369e-05
7.869062817396995e-07,1.0717166539580336e-06,5.449962158291909e-07,5e-06
7.831017444506549e-07,1.0665523142510992e-06,5.525977531016698e-07,5e-06
7.786043478747707e-07,1.0605884951552276e-06,5.602503518012377e-07,5e-06
7.734379577821163e-07,1.0538448889546379e-06,5.67935479162681e-07,5e-06
7.676259963638545e-07,1.0463447985204178e-06,5.756387065870174e-07,5e-06
7.611911288142895e-07,1.038114137808397e-06,5.83346033407851e-07,5e-06
7.54156239852052e-07,1.0291800349594618e-06,5.910398914593267e-07,5e-06
7.465461662142066e-07,1.0195688251229213e-06,5.986990633427575e-07,5e-06
7.383882080526137e-07,1.0093050613290031e-06,6.06302868199266e-07,5e-06
7.29711821777376e-07,9.984130313788215e-07,6.138344083608336e-07,5e-06
7.205485541227345e-07,9.869185969708687e-07,6.212791749069456e-07,5e-06
7.109313665287814e-07,9.748504117981106e-07,6.286221461468328e-07,5e-06
7.008935111924738e-07,9.622437140240064e-07,6.358479812318565e-07,5e-06
6.904689191834114e-07,9.491479866598312e-07,6.429427869768386e-07,5e-06
6.796945038210806e-07,9.356325831414469e-07,6.49893888346786e-07,5e-06
6.686115418998893e-07,9.217855477105239e-07,6.566891773736193e-07,5e-06
6.572633371032644e-07,9.077087664092672e-07,6.633170527248818e-07,5e-06
6.456914520665634e-07,8.935115382606572e-07,6.697648912229049e-07,5e-06
6.339345845092883e-07,8.793010260148478e-07,6.760194738636942e-07,5e-06
6.220295444942063e-07,8.651732294815924e-07,6.820739872060261e-07,5e-06
6.100114145366332e-07,8.512101393224231e-07,6.879370524275141e-07,5e-06
5.97913512863094e-07,8.37481083617915e-07,6.936370356363165e-07,5e-06
5.857695525827022e-07,8.240438668292612e-07,6.992204157719754e-07,5e-06
5.736155973504456e-07,8.109467762750331e-07,7.04745088810295e-07,5e-06
5.614889419179108e-07,7.982317011892776e-07,7.102706878892568e-07,5e-06
5.494265626350843e-07,7.859351443811737e-07,7.158495829507793e-07,5e-06
5.374652777089443e-07,7.740876545525445e-07,7.215225845775055e-07,5e-06
5.256420713036265e-07,7.627143765804944e-07,7.273213173080694e-07,5e-06
5.139930272866661e-07,7.518364753160707e-07,7.332738927041287e-07,5e-06
5.025520485186748e-07,7.414731407732233e-07,7.394078277048742e-07,5e-06
4.913519661988054e-07,7.316444824059842e-07,7.457475519611845e-07,5e-06
4.804266923190839e-07,7.223727304408054e-07,7.523116643266553e-07,5e-06
4.698104576653142e-07,7.136805002676565e-07,7.59116188893662e-07,5e-06
4.595345853751704e-07,7.055893829482152e-07,7.661788623424215e-07,5e-06
4.496255375290083e-07,6.981192106174419e-07,7.735166289934998e-07,5e-06
4.4010516467288e-07,6.912849357792653e-07,7.811410278891317e-07,5e-06
4.3099126015457286e-07,6.850930253834451e-07,7.89061206918863e-07,5e-06
4.222979411162053e-07,6.795429210465748e-07,7.972948962635702e-07,5e-06
4.140366095379802e-07,6.746333477027279e-07,8.058794669592798e-07,5e-06
4.062164438192399e-07,6.703667228134132e-07,8.148745073723042e-07,5e-06
3.988434859179713e-07,6.667480073775837e-07,8.243524857741737e-07,5e-06
3.919199079945322e-07,6.637814884001849e-07,8.343825527070384e-07,5e-06
3.85444411335297e-07,6.614695236930376e-07,8.450164824083546e-07,5e-06
3.7941229356728103e-07,6.598118702436161e-07,8.562832921573678e-07,5e-06
3.738148398250885e-07,6.58803176121063e-07,8.681923737236971e-07,5e-06
3.686396461340679e-07,6.584316531537332e-07,8.807384190823694e-07,5e-06
3.638715996396228e-07,6.586815535030336e-07,8.939026601396751e-07,5e-06
3.59493047341897e-07,6.595372119316952e-07,9.076506826177016e-07,5e-06
3.5548372299794765e-07,6.609862759478693e-07,9.21930347289126e-07,5e-06
3.518213171616298e-07,6.630197874684543e-07,9.36673237379671e-07,5e-06
3.484825726804289e-07,6.656290204323533e-07,9.517999805570113e-07,5e-06
3.454446913550328e-07,6.688021668007741e-07,9.672258206517805e-07,5e-06
3.4268616402795766e-07,6.725208989219411e-07,9.828622704145094e-07,5e-06
3.401866274162469e-07,6.767567776733778e-07,9.986159411266373e-07,5e-06
3.379268000080248e-07,6.814702991686115e-07,1.0143899697672963e-06,5e-06
3.358883264579863e-07,6.866125837778628e-07,1.0300886967207227e-06,5e-06
3.340527626728875e-07,6.921272780648042e-07,1.045620043825573e-06,5e-06
3.324006530650881e-07,6.979514829020686e-07,1.0608935459396777e-06,5e-06
3.30911661992664e-07,7.040161553648684e-07,1.075817893087033e-06,5e-06
3.295658053009039e-07,7.102468743900102e-07,1.09030054894616e-06,5e-06
3.28345061085863e-07,7.165655134387688e-07,1.1042484723284212e-06,5e-06
3.272339027254221e-07,7.22894199239285e-07,1.117568713139442e-06,5e-06
3.2621825305535173e-07,7.291613091762903e-07,1.1301697071294731e-06,5e-06
3.252841148678923e-07,7.353040889052561e-07,1.141964434376652e-06,5e-06
3.2441734136282305e-07,7.412651321686313e-07,1.152873648760658e-06,5e-06
3.2360456000989e-07,7.469892254490323e-07,1.1628274513335606e-06,5e-06
3.228342268588544e-07,7.524266134878476e-07,1.1717672719159305e-06,5e-06
3.220976525724595e-07,7.575391006709725e-07,1.1796489305419024e-06,5e-06
3.213902117018608e-07,7.623009097778181e-07,1.1864424472494043e-06,5e-06
3.207109843662052e-07,7.666925240070746e-07,1.1921266987181641e-06,5e-06
