4.247658745540047e-07,6.133835209880861e-07,2.580319998690687e-07,1.6377616367404763e-05
4.241447179262207e-07,6.121596148641057e-07,2.588755400104784e-07,1.6284427832946163e-05
4.2355915972714743e-07,6.109303176805675e-07,2.597315990970668e-07,1.618206154084541e-05
4.2300991870313173e-07,6.097100496327431e-07,2.6059387472510483e-07,1.6070824723981016e-05
4.2249349056325e-07,6.085094521704149e-07,2.6145589180170523e-07,1.595121093420705e-05
4.2200196560684095e-07,6.07337704997266e-07,2.623120989635002e-07,1.58239822037531e-05
4.2152427774606745e-07,6.062023875182628e-07,2.631586652518547e-07,1.5690138873514966e-05
4.2104931475922605e-07,6.051071617204432e-07,2.639932463719434e-07,1.5550787344242045e-05
4.205690415087871e-07,6.040504227477778e-07,2.64814038586228e-07,1.5406982828522e-05
4.200785057123451e-07,6.030255095712492e-07,2.65618518883758e-07,1.5259623610377757e-05
4.195737423780604e-07,6.02021846546922e-07,2.664027128175692e-07,1.5109430432835566e-05
4.190515793775529e-07,6.010270564215428e-07,2.671615161629141e-07,1.4956980474252703e-05
4.185110786805242e-07,6.000293322082036e-07,2.6788919730630733e-07,1.4802764959685886e-05
4.179527653794354e-07,5.990181085997789e-07,2.685794826912125e-07,1.4647318823832825e-05
4.1737578959531595e-07,5.979839159729031e-07,2.692259838595408e-07,1.4491471363527665e-05
4.16776903012753e-07,5.969231788201143e-07,2.6982362430325323e-07,1.4336588832049966e-05
4.161532827445714e-07,5.95848720484435e-07,2.703706160801232e-07,1.4184593179143615e-05
4.155073075945493e-07,5.94794357365118e-07,2.708700541632472e-07,1.4037750496772614e-05
4.1484835588887357e-07,5.938053452477559e-07,2.7132958331286375e-07,1.3898394240413046e-05
4.1418923335275545e-07,5.929236735500317e-07,2.7175857737479913e-07,1.3768712231183042e-05
4.135410118682261e-07,5.921803758757032e-07,2.721655304354903e-07,1.365072083082661e-05
4.129105737214453e-07,5.915955252717961e-07,2.725576060169446e-07,1.3546486990524475e-05
4.1230095741687863e-07,5.911798856730976e-07,2.72940597472142e-07,1.3458387745429162e-05
4.1171280432460953e-07,5.909354617945301e-07,2.7331805916302966e-07,1.3389126975424773e-05
4.1114545144797655e-07,5.908564037306306e-07,2.736905768115512e-07,1.3341530166817455e-05
4.1059742433495395e-07,5.909307018790004e-07,2.740558495459657e-07,1.3318305771092625e-05
4.1006782914472096e-07,5.911418873397972e-07,2.744093015386144e-07,1.3321857649760894e-05
4.095585831837975e-07,5.914699863349425e-07,2.7474536578627577e-07,1.3354151501043186e-05
4.090762048653799e-07,5.918917364616466e-07,2.750599794897236e-07,1.3416634260178344e-05
4.086326138208011e-07,5.92382404739586e-07,2.7535268618165076e-07,1.35102181267746e-05
4.0824283929172935e-07,5.929187489222992e-07,2.756259768320788e-07,1.3635337136982174e-05
4.0791983725834606e-07,5.934795341729453e-07,2.7588326645932076e-07,1.379205211808392e-05
4.076709806729058e-07,5.940451761520097e-07,2.7612794385608426e-07,1.398015252440063e-05
4.0749809768467997e-07,5.945990556573028e-07,2.763634635107637e-07,1.4199199129425742e-05
4.073990324455751e-07,5.951280857980049e-07,2.765949135504047e-07,1.444847991910185e-05
4.073687311037518e-07,5.956222511881349e-07,2.76831577911544e-07,1.4726917262629785e-05
4.073993764538229e-07,5.960748926817321e-07,2.7708671824754004e-07,1.5033025875256893e-05
4.074802955364607e-07,5.964825253864246e-07,2.773739717218207e-07,1.536499052261782e-05
4.075981570156296e-07,5.968441664656867e-07,2.777049030287057e-07,1.572081576104899e-05
4.077374527882752e-07,5.971615539803401e-07,2.780892490640686e-07,1.6098447617979446e-05
4.078815263052013e-07,5.974388890628113e-07,2.7853499996789827e-07,1.64958341711771e-05
4.080143859389728e-07,5.976806291074301e-07,2.790473899600808e-07,1.6910956000421346e-05
4.081221525688144e-07,5.978892310088979e-07,2.796283983370856e-07,1.7341840812738047e-05
4.081931141270196e-07,5.980654309055026e-07,2.802777433516688e-07,1.7786545078005368e-05
4.082182383770133e-07,5.982100592027564e-07,2.8099463166100026e-07,1.8243098422701627e-05
4.0819323981883993e-07,5.983254718578511e-07,2.8177855756001e-07,1.87094297285442e-05
4.0811915544337896e-07,5.984169888544575e-07,2.8262893017786365e-07,1.918330495034133e-05
4.080003923156261e-07,5.984925821608554e-07,2.8354444846338674e-07,1.966231920770228e-05
4.078432355934485e-07,5.9855872077386e-07,2.845225076654113e-07,2.0143959612712365e-05
4.076550373659445e-07,5.986160947355672e-07,2.855593336234651e-07,2.0625680856622546e-05
4.074423843583029e-07,5.986593651145618e-07,2.866520115720132e-07,2.1104936312130266e-05
4.0720915485345283e-07,5.986804649399971e-07,2.8780196680404037e-07,2.157919698252132e-05
4.069557857763258e-07,5.986723401556704e-07,2.890165886634015e-07,2.2046004372292484e-05
4.0667950071850425e-07,5.986301391174181e-07,2.9030655979673467e-07,2.2503026364735683e-05
4.063747471845132e-07,5.98550475838091e-07,2.916817085598301e-07,2.2948054100439526e-05
4.060335257164504e-07,5.984305039525371e-07,2.931492284580154e-07,2.3378941253373927e-05
4.056460631991912e-07,5.98266865683934e-07,2.947137904996232e-07,2.3793556227731908e-05
4.052020513798664e-07,5.98055972917994e-07,2.9637747199546726e-07,2.4189830137467967e-05
4.04691755007356e-07,5.977953225665157e-07,2.981397464389556e-07,2.4565939913447e-05
4.041065932815193e-07,5.974826639524974e-07,2.9999853016336264e-07,2.492051889900008e-05
4.0343957823012453e-07,5.971139138718486e-07,3.0195118940979353e-07,2.5252692203197557e-05
4.0268570781234065e-07,5.966831761013062e-07,3.039939687619337e-07,2.5561911814414146e-05
4.018418824833064e-07,5.961846756560225e-07,3.061209992599897e-07,2.5847759111923e-05
4.0090611566461206e-07,5.956142024367207e-07,3.083245841611649e-07,2.6109821224893915e-05
3.998768508118157e-07,5.949685878509182e-07,3.1059561483225324e-07,2.6347645258907026e-05
3.9875440462827174e-07,5.942448387023595e-07,3.1292293575568926e-07,2.6560749317905748e-05
3.975442992070989e-07,5.934425940898924e-07,3.152927956387282e-07,2.6748638102692286e-05
3.962587261284448e-07,5.925682841391454e-07,3.176891882473213e-07,2.691079338113364e-05
3.9491434897062456e-07,5.916346631524897e-07,3.20094678467959e-07,2.704667263714792e-05
3.935282152544328e-07,5.906553379715654e-07,3.224912153528244e-07,2.7155797237211052e-05
3.9211408633999625e-07,5.896398732475042e-07,3.2486062243644325e-07,2.723800990659325e-05
3.9068074271734314e-07,5.885930444419893e-07,3.271849548160836e-07,2.729378775314439e-05
3.892322472486989e-07,5.875185988531708e-07,3.294474949004641e-07,2.7324338044895185e-05
3.877689647570984e-07,5.864255737181088e-07,3.316345442025662e-07,2.7331398953519285e-05
3.8628825938103686e-07,5.853314140071996e-07,3.337362723196887e-07,2.7316934698564435e-05
3.847848470989864e-07,5.842572905061176e-07,3.357454587267439e-07,2.72829873662694e-05
3.83251871959955e-07,5.832202388207431e-07,3.3765623978125675e-07,2.723176381936576e-05
3.8168270446619225e-07,5.822296041406157e-07,3.394651861331661e-07,2.7165738886690092e-05
3.800722749128373e-07,5.81287902438602e-07,3.4117296230323766e-07,2.7087598453042622e-05
3.7841784799518006e-07,5.803926712921487e-07,3.4278323732732513e-07,2.7000086017864e-05
3.767190684393404e-07,5.795382756344176e-07,3.442998954066422e-07,2.690585533262882e-05
3.7497720774576075e-07,5.787180580923455e-07,3.4572570929745194e-07,2.680736897218731e-05
3.731949907140407e-07,5.77926142382649e-07,3.4706268609136737e-07,2.670683639051128e-05
3.7137636560439626e-07,5.771569504461953e-07,3.4831321963141087e-07,2.6606172248757872e-05
3.695252699491316e-07,5.764027585457563e-07,3.494810733111393e-07,2.6506975260661176e-05
3.6764561053855366e-07,5.756523975626939e-07,3.505706508997776e-07,2.641053395337022e-05
3.6574268043073115e-07,5.748916795704013e-07,3.515849946668464e-07,2.631786239247727e-05
3.638238777894266e-07,5.741035092503486e-07,3.5252480342333133e-07,2.6229754127675382e-05
3.618983744815837e-07,5.732678903460022e-07,3.533894437074675e-07,2.6146808739442816e-05
3.59975857589963e-07,5.72363008146425e-07,3.54178461281394e-07,2.60694018059616e-05
3.580656717952058e-07,5.71366426828511e-07,3.548919933659137e-07,2.599763796712797e-05
3.561779192947637e-07,5.702559444095675e-07,3.5553075690123575e-07,2.5931336933818664e-05
3.543241333377601e-07,5.690108059575665e-07,3.560961347431533e-07,2.587006604455525e-05
3.525155562773181e-07,5.676126151404779e-07,3.5658938693995023e-07,2.581321489751011e-05
3.507612455280841e-07,5.660460426520612e-07,3.570105128185069e-07,2.5760088028896825e-05
3.490677462872478e-07,5.643000203803392e-07,3.573581570613973e-07,2.570998231129862e-05
3.474403566640901e-07,5.623682379092121e-07,3.576306744176308e-07,2.5662243848328563e-05
3.458858276203576e-07,5.602481903673686e-07,3.578271178434165e-07,2.561632319452312e-05
3.444142230651722e-07,5.579389957535437e-07,3.579471159154299e-07,2.557181420507789e-05
3.430376126804195e-07,5.554389850314712e-07,3.5799116159375963e-07,2.5528432424213167e-05
3.4176756724838377e-07,5.527448730018412e-07,3.5796202112507795e-07,2.5485938327887355e-05
3.406140393767176e-07,5.498523011087994e-07,3.578645127334818e-07,2.5444051857602348e-05
3.3958457478761766e-07,5.467562175872402e-07,3.5770342273569434e-07,2.540239085029061e-05
3.386833822275422e-07,5.434506741830628e-07,3.574826280273553e-07,2.5360481676702977e-05
3.37912105270198e-07,5.399285623371333e-07,3.572051251278398e-07,2.531787169431048e-05
3.372713775876728e-07,5.361822767161143e-07,3.568721982306522e-07,2.5274250554101472e-05
3.367609350344765e-07,5.322057207975437e-07,3.564828488513644e-07,2.5229461753153016e-05
3.363799622828679e-07,5.279969338513279e-07,3.5603425115503716e-07,2.518340571139793e-05
3.361295404772036e-07,5.235597537370259e-07,3.555225114116788e-07,2.5135903178755905e-05
3.360145713088709e-07,5.189028010872539e-07,3.549433120784779e-07,2.5086610341874866e-05
3.3604185562972843e-07,5.140366370425269e-07,3.5429300245529425e-07,2.5035056175209595e-05
3.3621564341160306e-07,5.089722578815153e-07,3.535710548611011e-07,2.498073694612697e-05
3.36534823870069e-07,5.037215633675687e-07,3.527818763663728e-07,2.492315290735332e-05
3.369929656006321e-07,4.982976030149664e-07,3.5193386964719856e-07,2.4861786487293374e-05
3.375797337421688e-07,4.927149255509561e-07,3.5103805135972147e-07,2.479609044774586e-05
3.382834698461654e-07,4.869923623770582e-07,3.501073118418219e-07,2.472554375537383e-05
3.390940764905481e-07,4.811564394429432e-07,3.491544234644172e-07,2.4649795207490728e-05
3.400032784623002e-07,4.752413307764843e-07,3.4818942116980947e-07,2.456881957100891e-05
3.410027279796716e-07,4.692852602913021e-07,3.472186569567017e-07,2.4482952864219745e-05
3.420838759719112e-07,4.6332594625449536e-07,3.462457597744467e-07,2.4392762980958872e-05
3.432396800912336e-07,4.573970038215829e-07,3.452728698934699e-07,2.4298837511342843e-05
3.444651859891923e-07,4.5152709228449773e-07,3.443010644642922e-07,2.4201608489909346e-05
3.4575718236583177e-07,4.45743289997429e-07,3.433299643736189e-07,2.4101291414678005e-05
3.471141737919312e-07,4.400767615098898e-07,3.4235740732197535e-07,2.399791991060221e-05
3.485353136755678e-07,4.3456500260512217e-07,3.413805175142933e-07,2.3891397528001638e-05
3.5001819547659714e-07,4.292494581099092e-07,3.403968672485861e-07,2.3781574673981258e-05
3.515581437875616e-07,4.241731872045921e-07,3.394043901146826e-07,2.366845739415377e-05
3.5314922104023204e-07,4.193790375285554e-07,3.38402627969659e-07,2.355248992843991e-05
3.5478478767088827e-07,4.1490802809642977e-07,3.373951043678273e-07,2.3434648577043115e-05
3.564579635159466e-07,4.1080025438984963e-07,3.363886783056431e-07,2.331626559372086e-05
3.581625760280639e-07,4.070949259064798e-07,3.353905101440956e-07,2.3198761710161817e-05
3.598927560544447e-07,4.0382692270922936e-07,3.3440607847724145e-07,2.308343372816944e-05
3.616413143654134e-07,4.0102439927054047e-07,3.334383478784697e-07,2.297139549352785e-05
3.6339935136605404e-07,3.9870931243940675e-07,3.324873920572791e-07,2.286376587109297e-05
3.6515840949927454e-07,3.968980066520541e-07,3.31550697583365e-07,2.2761964935704074e-05
3.669139405577878e-07,3.956011008293086e-07,3.306238674844918e-07,2.266780466808419e-05
3.6866662021471184e-07,3.9482382678267045e-07,3.29701314902561e-07,2.258330612790679e-05
3.704213161643125e-07,3.945661152423906e-07,3.2877669038164766e-07,2.2510447819014567e-05
3.721866231381014e-07,3.9482154402585544e-07,3.2784327472800906e-07,2.245099376039527e-05
3.739742484918562e-07,3.955763450129551e-07,3.268954151868409e-07,2.240640209338093e-05
3.757965805949843e-07,3.9680935837255227e-07,3.259302291485284e-07,2.237777592547014e-05
3.776640210325565e-07,3.9849261875238256e-07,3.249469229185909e-07,2.236584166712165e-05
3.795843832461954e-07,4.0059226000836266e-07,3.2394418617754914e-07,2.2370968007959022e-05
3.815638088574897e-07,4.030699086647506e-07,3.2291846469055554e-07,2.2393232544093066e-05
3.836074403201785e-07,4.0588583340959577e-07,3.218641593718008e-07,2.2432488184969607e-05
3.857204485914965e-07,4.09003044692396e-07,3.207754142899795e-07,2.2488367461606725e-05
3.8790952324492657e-07,4.1238858461991594e-07,3.196478154546383e-07,2.2560236563607544e-05
3.9018291648206366e-07,4.16011287106633e-07,3.184782312011297e-07,2.2647149071912822e-05
3.925481785189367e-07,4.198391163441875e-07,3.172636036578584e-07,2.27478303070067e-05
3.9500934077031524e-07,4.238391704013174e-07,3.1600009501066843e-07,2.2860721168406603e-05
3.975657987975049e-07,4.279807567242485e-07,3.146830453925153e-07,2.298408024533477e-05
4.002127980196857e-07,4.3223742111989574e-07,3.1330793558252146e-07,2.31160916429006e-05
4.029427992210529e-07,4.365848358323826e-07,3.118714135555436e-07,2.3254936802533026e-05
4.0574730617401425e-07,4.4099829531685295e-07,3.103714191335913e-07,2.3398832467545576e-05
4.0861789058466723e-07,4.4545325341201705e-07,3.088071095096817e-07,2.3546043926761528e-05
4.1154565974536033e-07,4.499271725701071e-07,3.071797597639853e-07,2.369487354572095e-05
4.145198136428514e-07,4.5440214103110456e-07,3.0549448331007253e-07,2.384364447796584e-05
4.1752642593476503e-07,4.588685892826472e-07,3.037606171015994e-07,2.399069458474171e-05
4.20548124346433e-07,4.6332781974501035e-07,3.019899009061823e-07,2.4134360596282685e-05
4.2356448657806905e-07,4.6779118688678436e-07,3.001951269890144e-07,2.4272970558958757e-05
4.2655280087604707e-07,4.72275399694517e-07,2.983906255959153e-07,2.4404891062729125e-05
4.2949010384455963e-07,4.7679634304726746e-07,2.965922632754135e-07,2.452858656555787e-05
4.3235674123894643e-07,4.813651676436677e-07,2.948153890747881e-07,2.464261918977234e-05
4.351384145452182e-07,4.859875738108925e-07,2.930725122969218e-07,2.474562386547246e-05
4.3782443366080066e-07,4.906647338371671e-07,2.913730972136704e-07,2.483633891736232e-05
4.404041668061985e-07,4.953940274743733e-07,2.8972526879448173e-07,2.4913692570661648e-05
4.428649609869086e-07,5.00169967040727e-07,2.881371073593732e-07,2.497685388067582e-05
4.4519287034619074e-07,5.049869258813821e-07,2.8661610074909857e-07,2.502519611694664e-05
4.4737453192340047e-07,5.09842298584587e-07,2.851681904721852e-07,2.5058275011109696e-05
4.4939761897059327e-07,5.147366775539074e-07,2.837980278665852e-07,2.5075911492268906e-05
4.512503436748142e-07,5.196701702948914e-07,2.8250924489818385e-07,2.50783020013258e-05
4.5292207939627704e-07,5.246377605326639e-07,2.813037595591523e-07,2.5066054936730983e-05
4.544046575196908e-07,5.296270327969109e-07,2.8018111647975786e-07,2.504013064663899e-05
4.556928945607398e-07,5.346186327904129e-07,2.791383089949676e-07,2.500171568237084e-05
4.5678458520305826e-07,5.395879917573577e-07,2.781698150475396e-07,2.4952084252357872e-05
4.5768007951876726e-07,5.445070424016238e-07,2.7726784003594606e-07,2.489246467241074e-05
4.583812115492341e-07,5.49345299423911e-07,2.764227628737493e-07,2.4823916525077288e-05
4.5889068878708076e-07,5.540710748778946e-07,2.756240338463033e-07,2.4747272932941268e-05
4.5921254860743763e-07,5.586549791242958e-07,2.748620258417965e-07,2.466316736153967e-05
4.593528076467072e-07,5.63076583232559e-07,2.741299737178781e-07,2.457207648241281e-05
4.5931912549892847e-07,5.673299601405832e-07,2.7342459247692085e-07,2.4474339501456096e-05
4.5911951696733025e-07,5.714222106563989e-07,2.727456061763029e-07,2.4370228448239264e-05
4.5876285927635573e-07,5.75367095845044e-07,2.720944706962885e-07,2.42601922598226e-05
4.582618545714996e-07,5.791817091400453e-07,2.714722369474685e-07,2.414519226265721e-05
4.57634845670609e-07,5.828875200919393e-07,2.7087763711781504e-07,2.402677176987416e-05
4.5690547503619745e-07,5.865101459909645e-07,2.7030683624671603e-07,2.390673436008141e-05
4.561014838503909e-07,5.900760723741177e-07,2.69755140070936e-07,2.378677968781972e-05
4.55253340424215e-07,5.93609186116845e-07,2.692188911812383e-07,2.3668372444570608e-05
4.543936345802124e-07,5.971284480490492e-07,2.686955847697452e-07,2.355275808898604e-05
4.535555337181671e-07,6.006476278595416e-07,2.681827546479018e-07,2.344099289652685e-05
4.527690153315258e-07,6.041769580171338e-07,2.6767734754416545e-07,2.3333975762384258e-05
4.520578736526619e-07,6.077235811603489e-07,2.6717647476228064e-07,2.3232501992646192e-05
4.5143923919131967e-07,6.112905130652832e-07,2.666796349720257e-07,2.313732918432665e-05
4.509242435098414e-07,6.14875864666686e-07,2.661907059884243e-07,2.3049208836999593e-05
4.505186311370229e-07,6.184716645550515e-07,2.6571708228345325e-07,2.296885978434016e-05
4.502231561302744e-07,6.220639104931053e-07,2.652669877598867e-07,2.2896913008813432e-05
4.50034356249827e-07,6.256359733375957e-07,2.6484848821885427e-07,2.2833862393561385e-05
4.4994660447681464e-07,6.291713525461545e-07,2.644702072493186e-07,2.278005021235142e-05
4.499549551197935e-07,6.326520575341789e-07,2.6414180076795125e-07,2.2735714977187584e-05
4.5005763274864905e-07,6.360557641079371e-07,2.638732735191038e-07,2.270108659700857e-05
4.502584475451251e-07,6.393556389401482e-07,2.636730044416023e-07,2.2676457347063986e-05
4.505682153848153e-07,6.425221570126454e-07,2.635465611842509e-07,2.266215783890533e-05
4.5100313952633257e-07,6.45524351605874e-07,2.634976823114459e-07,2.265844884992065e-05
4.5158047010297785e-07,6.483302948327812e-07,2.635298952462574e-07,2.266540914357633e-05
4.5231362426840496e-07,6.509085747793928e-07,2.6364723813738445e-07,2.268286276813039e-05
4.532096678053689e-07,6.532311404604186e-07,2.638541528013926e-07,2.271033793777169e-05
4.5427048993061745e-07,6.552761920613392e-07,2.641558418337372e-07,2.274707057604272e-05
4.554951438574268e-07,6.570285298502189e-07,2.645587945066991e-07,2.279206813424425e-05
4.568801535658021e-07,6.584765388188433e-07,2.650707106618302e-07,2.2844211813372313e-05
4.5841844278952816e-07,6.596093768166303e-07,2.657011153189181e-07,2.290237760665805e-05
4.6009927642560956e-07,6.604160453881726e-07,2.664616557560885e-07,2.296555515327632e-05
4.619093196982731e-07,6.608849419277253e-07,2.6736425096065404e-07,2.303290726039924e-05
4.6383369636766567e-07,6.610049374877393e-07,2.6841966111216067e-07,2.310373513032923e-05
4.6585677142965747e-07,6.607679237432387e-07,2.6963803036295904e-07,2.317739468204753e-05
4.6796391443581934e-07,6.601693434709401e-07,2.710292205934393e-07,2.3253217223745928e-05
4.701436137144132e-07,6.5920605252159e-07,2.72602622701156e-07,2.3330446861195045e-05
4.7238617109085407e-07,6.578745965322976e-07,2.7436776589785607e-07,2.3408236703020998e-05
4.746794938327405e-07,6.561712653733056e-07,2.763349470671917e-07,2.348570803598387e-05
4.770067077938633e-07,6.540937062575442e-07,2.785142009696243e-07,2.3561977548157127e-05
4.79347336059291e-07,6.516453497882372e-07,2.809129311307533e-07,2.3636132699172602e-05
4.816809898937693e-07,6.488403925958488e-07,2.835342159131829e-07,2.3707208802608604e-05
4.839910116406922e-07,6.457032289434851e-07,2.863769313314785e-07,2.3774181737134225e-05
4.862649645693831e-07,6.422638847524789e-07,2.8943721277202694e-07,2.3836013554067726e-05
4.884924466408563e-07,6.385562129425275e-07,2.927100347563164e-07,2.389174162093884e-05
4.906629931954832e-07,6.346179939748001e-07,2.9618950097982203e-07,2.3940495877310088e-05
4.927645097448854e-07,6.304886676891112e-07,2.9986768706763693e-07,2.398142519104768e-05
4.947824707036403e-07,6.26205348855518e-07,3.037338092191239e-07,2.4013652655225534e-05
4.967016657794356e-07,6.218001318688317e-07,3.077748643674291e-07,2.403632468516712e-05
4.985090907016872e-07,6.173002784160738e-07,3.1197651879501357e-07,2.404873848264755e-05
5.001939315011514e-07,6.12729731745955e-07,3.163232121590639e-07,2.4050524876903305e-05
5.017447988114657e-07,6.081092481153315e-07,3.207979438643673e-07,2.4041791559239625e-05
5.031482010751957e-07,6.03455870397016e-07,3.253819480527864e-07,2.402309654594302e-05
5.043897599059479e-07,5.987834010616891e-07,3.3005465488887136e-07,2.3995255017971787e-05
5.054557671714862e-07,5.941037801083485e-07,3.34794089005983e-07,2.395910767159889e-05
5.063330864882158e-07,5.894314170417417e-07,3.3957654116219413e-07,2.3915383287982693e-05
5.070081983890284e-07,5.847923063110937e-07,3.443760249888029e-07,2.3864699594915785e-05
5.074667791145845e-07,5.802332064169344e-07,3.491657259849192e-07,2.3807622461335088e-05
5.076945433756459e-07,5.758224854582853e-07,3.539205442512221e-07,2.3744712894144103e-05
5.076791994860379e-07,5.716417703072237e-07,3.586174023809427e-07,2.3676629125046426e-05
5.074114234426905e-07,5.677775862765153e-07,3.6323343596217757e-07,2.3604321024520348e-05
5.068834291045562e-07,5.643171179951185e-07,3.6774537660216213e-07,2.352913992547844e-05
5.060872875775411e-07,5.613437880117032e-07,3.721316560418696e-07,2.345270695794198e-05
5.050150512203421e-07,5.589324639172463e-07,3.763749019241105e-07,2.3376643117544534e-05
5.036601177982518e-07,5.571462326811208e-07,3.804613607827083e-07,2.3302334488464214e-05
5.020189859125847e-07,5.560334801282539e-07,3.843784577033705e-07,2.323084865115386e-05
5.000922019541073e-07,5.556257500048611e-07,3.881148369074361e-07,2.3163126411236617e-05
4.978833241034618e-07,5.559381352602579e-07,3.91662767701288e-07,2.3100391267467426e-05
4.953969959499315e-07,5.56970617564079e-07,3.9501932045179797e-07,2.304444429881538e-05
4.92638271375555e-07,5.587085699043059e-07,3.9818517295965747e-07,2.299763824637093e-05
4.896140263668811e-07,5.611239406141893e-07,4.01162259225281e-07,2.296267285824828e-05
4.863349691063271e-07,5.641784722018824e-07,4.039515375900778e-07,2.294239971927904e-05
4.828154083426456e-07,5.678281198125029e-07,4.065519550353633e-07,2.2939669437140648e-05
4.790703142273003e-07,5.720264129086226e-07,4.0896108671387455e-07,2.295720356541777e-05
4.7511296033653346e-07,5.76724758050141e-07,4.1117639622624383e-07,2.2997486966657282e-05
4.7095597081164806e-07,5.818713174328422e-07,4.1319539553872523e-07,2.306268110168696e-05
4.666138907189313e-07,5.874120184498243e-07,4.1501533168869075e-07,2.3154577763894252e-05
4.62103256047445e-07,5.932927300074606e-07,4.1663423207501434e-07,2.3274587261499952e-05
4.5744077090894183e-07,5.994591641508442e-07,4.180528047751064e-07,2.342369666875955e-05
4.5264398224390965e-07,6.058563727914019e-07,4.192750712118946e-07,2.360236653718703e-05
4.4773438033335173e-07,6.124311318978181e-07,4.2030663462023993e-07,2.3810423969463284e-05
4.427383135118353e-07,6.191347672238539e-07,4.2115252557987705e-07,2.404702564515736e-05
4.376841359435506e-07,6.259224004170861e-07,4.218175639685383e-07,2.431071723777357e-05
4.325987223289786e-07,6.327489518576628e-07,4.223081232360999e-07,2.459957280387542e-05
4.275067325656585e-07,6.395656756761999e-07,4.2263160960001075e-07,2.491136570559751e-05
4.224321903183524e-07,6.463198259124157e-07,4.2279407522455177e-07,2.5243718703222558e-05
4.17398909531105e-07,6.529570013591293e-07,4.227999510798437e-07,2.559421941254679e-05
4.12428875697481e-07,6.594240511920105e-07,4.2265465453930697e-07,2.596051053843695e-05
4.075419443896924e-07,6.656699564869001e-07,4.2236646578929185e-07,2.6340332392091307e-05
4.027581607659407e-07,6.716452350411078e-07,4.2194532417637626e-07,2.673148646952235e-05
3.9809939268837946e-07,6.773037842693944e-07,4.214006821575339e-07,2.7131754260623216e-05
3.9358904921026223e-07,6.826059393254567e-07,4.2074079339076686e-07,2.753883274362697e-05
3.892522125138651e-07,6.875176878212787e-07,4.1997262117390116e-07,2.795029241085016e-05
3.8511589271030507e-07,6.920075069434485e-07,4.191019255282647e-07,2.836354378463625e-05
3.812077857160575e-07,6.960449142544986e-07,4.181342922664856e-07,2.8775828444597456e-05
3.7755544373156117e-07,6.996005277350746e-07,4.170758249892512e-07,2.9184241290353685e-05
3.7418732193516076e-07,7.026464104731258e-07,4.1593215592365923e-07,2.9585762511026348e-05
3.711333469589797e-07,7.051562918713806e-07,4.147070950281688e-07,2.9977289559387922e-05
3.684234210814759e-07,7.07106034102129e-07,4.1340218491316204e-07,3.035567796696973e-05
3.6608532915956133e-07,7.084753957775545e-07,4.1201659637037256e-07,3.0717823298288225e-05
3.6414317377173706e-07,7.09249900148297e-07,4.105471247190664e-07,3.1060844518886305e-05
3.626166240206669e-07,7.094200673217367e-07,4.08989214122436e-07,3.138232159015474e-05
3.6152225462667854e-07,7.089788248892025e-07,4.0733877374210493e-07,3.168041321973661e-05
3.608753299307064e-07,7.079208769972074e-07,4.0559311032712563e-07,3.195382445853465e-05
3.606880204586466e-07,7.062444552893988e-07,4.0375098140507065e-07,3.220174717700353e-05
3.6096567984136093e-07,7.039527373920535e-07,4.01812550469924e-07,3.242379128169684e-05
3.617052211500893e-07,7.010542428743236e-07,3.997786768197164e-07,3.2619862711607204e-05
3.6289515512220504e-07,6.975627252947018e-07,3.976503369116368e-07,3.279002619392002e-05
3.645163655826032e-07,6.934966765193653e-07,3.954298347880057e-07,3.293439414596537e-05
3.6654429817733e-07,6.888787591922025e-07,3.931228294103473e-07,3.3053036245831874e-05
3.689518381284808e-07,6.837347306933023e-07,3.907389486272419e-07,3.314594084669606e-05
3.7171209883813034e-07,6.780920226152147e-07,3.882907187346621e-07,3.321307944244667e-05
3.74800459416889e-07,6.719793505277795e-07,3.8579218954444706e-07,3.3254532357369264e-05
3.781934453768801e-07,6.654274133004749e-07,3.832577720962241e-07,3.327056492820846e-05
3.818648728586564e-07,6.584706897939135e-07,3.8070159066699155e-07,3.3261587531357345e-05
3.857842085379049e-07,6.511512209689416e-07,3.781380209770135e-07,3.322803706870329e-05
3.899200644320446e-07,6.435207370493378e-07,3.7558205478304407e-07,3.317030640347999e-05
3.9424594348270113e-07,6.356358520265702e-07,3.7304795957929783e-07,3.308880789337996e-05
3.987431795962642e-07,6.275503854105788e-07,3.70547346156361e-07,3.2984100314058304e-05
4.0340001197067436e-07,6.193131880632864e-07,3.6808838938417273e-07,3.2856937624110133e-05
4.082088109904606e-07,6.109713874558372e-07,3.656767265388031e-07,3.270821145819456e-05
4.131629908244911e-07,6.02572661287184e-07,3.6331665888649907e-07,3.2538873727821416e-05
4.182562489064965e-07,5.94163385883722e-07,3.6101118415566113e-07,3.2349900519673605e-05
4.234847310308442e-07,5.857850237376004e-07,3.587625615256704e-07,3.2142289352564605e-05
4.2884767815523157e-07,5.774723346490953e-07,3.565748489380628e-07,3.191704705754228e-05
4.343441887397403e-07,5.692545456111324e-07,3.5445627770397724e-07,3.167514647844037e-05
4.399692056962657e-07,5.61157714559754e-07,3.524193552588915e-07,3.141747124174094e-05
4.4571180459709885e-07,5.532060189958534e-07,3.504784803742291e-07,3.114476972618584e-05
4.515562254720501e-07,5.454215828717874e-07,3.486470976294204e-07,3.0857633492690996e-05
4.5748489944428797e-07,5.378235699349975e-07,3.4693685508785e-07,3.0556503912795555e-05
4.6348082105998717e-07,5.304278549980052e-07,3.453575172827788e-07,3.0241695585582545e-05
4.6952662449104425e-07,5.232492309024421e-07,3.4391580473045697e-07,2.9913437848742133e-05
4.756021076617336e-07,5.163051708009152e-07,3.42614225729101e-07,2.957192736610891e-05
4.816833215613269e-07,5.096164837012903e-07,3.4145086456561196e-07,2.9217360800258863e-05
4.877441628661602e-07,5.032037996484888e-07,3.4041982985073325e-07,2.884994993335749e-05
4.937605709319829e-07,4.970843594084376e-07,3.395124044961016e-07,2.8469949763022716e-05
4.997147103606557e-07,4.912719787372879e-07,3.3871885261033094e-07,2.8077687684512097e-05
5.055942776250474e-07,4.857787604297623e-07,3.3802947070838837e-07,2.767355557392133e-05
5.113872278430727e-07,4.806160846926503e-07,3.374344522480421e-07,2.7257964882986525e-05
5.170775470582385e-07,4.7579437633026544e-07,3.3692396913621674e-07,2.6831311284978054e-05
5.226446510778415e-07,4.7132210358097394e-07,3.364884352409023e-07,2.6393990577099665e-05
5.280646546568165e-07,4.672039564431814e-07,3.361181377605966e-07,2.594644526659886e-05
5.333118186774721e-07,4.6344006107791367e-07,3.358027837681832e-07,2.5489183792320155e-05
5.383591297454778e-07,4.6002825657369345e-07,3.3553162764382573e-07,2.502276107298137e-05
5.431777966247817e-07,4.569675310437258e-07,3.352940072655629e-07,2.454776667312967e-05
5.477375055883724e-07,4.5425968838489206e-07,3.3507975930231377e-07,2.406484887738024e-05
5.520093730067221e-07,4.519089733874462e-07,3.348795616983936e-07,2.3574747004327412e-05
5.559695022076842e-07,4.4992011338509245e-07,3.346861024158616e-07,2.307828557910365e-05
5.595990724157704e-07,4.482951511678791e-07,3.344953589712168e-07,2.257633120591875e-05
5.628827142451011e-07,4.470311253740345e-07,3.34305796185082e-07,2.206977443152176e-05
5.658095875467763e-07,4.4612014808732225e-07,3.341162754732024e-07,2.1559545321209272e-05
5.683753402862475e-07,4.455511733665681e-07,3.33925240126547e-07,2.104659764752093e-05
5.705818386339986e-07,4.4531195575173243e-07,3.337316253199819e-07,2.0531864377775204e-05
5.724361872316903e-07,4.453892506901328e-07,3.3353677864136146e-07,2.00162339932483e-05
5.739500681988636e-07,4.4576708299007204e-07,3.333457576721761e-07,1.9500550334901267e-05
5.75138684991778e-07,4.464258130961255e-07,3.331659418490705e-07,1.8985629734814146e-05
5.760202012129725e-07,4.473432695522586e-07,3.3300400482728665e-07,1.847231033246865e-05
5.766154747165339e-07,4.484959763335589e-07,3.3286405688927906e-07,1.7961540261905372e-05
5.769460443346714e-07,4.4985935716225464e-07,3.3274718167692015e-07,1.7454459897983875e-05
5.770308752843439e-07,4.5140836638558797e-07,3.326515477032834e-07,1.6952416428996053e-05
5.768843800096773e-07,4.531184083074706e-07,3.3257320116561536e-07,1.6456913505056524e-05
5.765168272882781e-07,4.5496464864081935e-07,3.325068668340544e-07,1.596955998929089e-05
5.759357476821992e-07,4.569210190048365e-07,3.324458962948417e-07,1.549212725547335e-05
5.751465499024204e-07,4.5896067965949133e-07,3.323818835170849e-07,1.5026719371146273e-05
5.741529691138535e-07,4.6105601336029713e-07,3.3230510844707297e-07,1.4575834755103211e-05
5.729575568499656e-07,4.631772085107496e-07,3.32206415896001e-07,1.414221579454625e-05
5.715609757371878e-07,4.652921537467786e-07,3.320790632792368e-07,1.3728653141963275e-05
5.699612835804504e-07,4.673700756042573e-07,3.3191817005375557e-07,1.3337839725328571e-05
5.681552751356897e-07,4.6938779626490886e-07,3.3171843681114194e-07,1.2972247155046868e-05
5.661416526868387e-07,4.7133458069523105e-07,3.3147287987955965e-07,1.263402658608968e-05
5.639237679078367e-07,4.732114776144439e-07,3.311737169586175e-07,1.2324943595578556e-05
5.61509415765614e-07,4.75025443403839e-07,3.308141363593411e-07,1.2046365382230553e-05
5.589080749645484e-07,4.767839579768506e-07,3.303887689190393e-07,1.1799313210961404e-05
5.561285155731436e-07,4.784932820310456e-07,3.298929553260896e-07,1.1584507186712606e-05
5.531782235841382e-07,4.801584735455254e-07,3.2932242369091105e-07,1.1402338723007539e-05
5.5006396862041e-07,4.817852536199781e-07,3.286735748783542e-07,1.1252821150778427e-05
5.46792794905372e-07,4.833846420251902e-07,3.2794434388706377e-07,1.113556861697348e-05
5.433723347269893e-07,4.849766810258197e-07,3.271354903894164e-07,1.1049824982623931e-05
5.398097219901534e-07,4.865882668971473e-07,3.262515537706304e-07,1.099470898863192e-05
5.361106108331438e-07,4.882457497997394e-07,3.253017044099655e-07,1.0969858323638609e-05
5.322793124407878e-07,4.899681270428564e-07,3.243010075110887e-07,1.0976091688691915e-05
5.283196124767083e-07,4.917650025868233e-07,3.2327117784719885e-07,1.1015415823183746e-05
5.242356895026448e-07,4.936388487596725e-07,3.222398995746284e-07,1.1090443571207253e-05
5.200324602309378e-07,4.955885724632323e-07,3.2123872840859517e-07,1.1203780641252117e-05
5.157155711245436e-07,4.976114258659483e-07,3.202994282499454e-07,1.1357616106011294e-05
5.112915447104939e-07,4.99702170951723e-07,3.194501537554769e-07,1.155348031088857e-05
5.067687724149269e-07,5.018513753432874e-07,3.1871375307481337e-07,1.1792109098681425e-05
5.021594853062497e-07,5.04045531003408e-07,3.181074059705884e-07,1.2073406113636688e-05
4.974798530898206e-07,5.062683836302528e-07,3.1764206415065624e-07,1.239650972137842e-05
4.927473442405715e-07,5.085021081888602e-07,3.1732218645513354e-07,1.275991223527172e-05
4.879795197041285e-07,5.107300416584814e-07,3.171466140850949e-07,1.3161554906050144e-05
4.831950158165023e-07,5.129412824718157e-07,3.171112948371357e-07,1.359889040268491e-05
4.784131435989554e-07,5.151337388089771e-07,3.172130916172116e-07,1.40689874876401e-05
4.736518909459977e-07,5.173136625926152e-07,3.174514040644241e-07,1.4568678924367685e-05
4.689267512806323e-07,5.194931037805379e-07,3.1782619137836033e-07,1.5094674983984265e-05
4.642520228330325e-07,5.216859900314407e-07,3.18335643006351e-07,1.564365926830293e-05
4.596437631159011e-07,5.239028129813535e-07,3.189766449602234e-07,1.62124134037759e-05
4.551209197774106e-07,5.261466385385196e-07,3.197463047718964e-07,1.6797880762964998e-05
4.5070345330929536e-07,5.284127162931475e-07,3.206418209429768e-07,1.7397097543580573e-05
4.464093135897055e-07,5.306904570589266e-07,3.2166052998802904e-07,1.8007124287678963e-05
4.422524831518176e-07,5.329659624576965e-07,3.228016400907976e-07,1.8625057234906924e-05
4.382440547398898e-07,5.352248861306614e-07,3.240663905561296e-07,1.92480066070102e-05
4.343943956484313e-07,5.374563692512576e-07,3.254559263599334e-07,1.987302517385375e-05
4.30713347171151e-07,5.396571013020107e-07,3.2697150514219277e-07,2.0497103645301065e-05
4.272104197609907e-07,5.418315743627238e-07,3.286173759974009e-07,2.1117349575041787e-05
4.238963885248421e-07,5.43986564691905e-07,3.30400720507732e-07,2.173139646737263e-05
4.2078383442584976e-07,5.461250253639123e-07,3.3232779997066013e-07,2.2337794693359492e-05
4.178858635608744e-07,5.482465027076342e-07,3.344010788054352e-07,2.2936019502452552e-05
4.1521408808598107e-07,5.503529914958303e-07,3.3661875616329805e-07,2.352614484567671e-05
4.1277630030797725e-07,5.524520517659261e-07,3.389749110183937e-07,2.41084982367442e-05
4.105752965697285e-07,5.545535785086513e-07,3.414600926793128e-07,2.468342138312e-05
4.086113574485845e-07,5.566645130956289e-07,3.440623155740161e-07,2.525114401753052e-05
4.068881197808809e-07,5.587861619911405e-07,3.467671060560288e-07,2.5811834822821827e-05
4.0541583146402953e-07,5.609149144703725e-07,3.4955678816099466e-07,2.636576059811479e-05
4.0420724436370647e-07,5.630439268670397e-07,3.524106381737251e-07,2.6913298284824288e-05
4.032714556108492e-07,5.651634701887269e-07,3.553059042857987e-07,2.745472811962831e-05
4.026123533756117e-07,5.67261274204864e-07,3.582191819856001e-07,2.798999643959572e-05
4.022296998588019e-07,5.693245998892541e-07,3.6112884299684797e-07,2.8518606793649327e-05
4.021194734652815e-07,5.71342033451856e-07,3.640172956084868e-07,2.9039685178241212e-05
4.0227414643434036e-07,5.733032107034532e-07,3.668708794174343e-07,2.955216598572656e-05
4.026830236126466e-07,5.751974872100303e-07,3.696793798641567e-07,3.005499503658069e-05
4.0333215820990243e-07,5.770128626084037e-07,3.724375448853808e-07,3.0547600080710434e-05
4.0420466422542475e-07,5.787366575623371e-07,3.7514685710684315e-07,3.1031295955085513e-05
4.052811746902898e-07,5.803576098572822e-07,3.778152469619696e-07,3.1511182340074575e-05
4.06539791442888e-07,5.818681702526853e-07,3.8045350863586717e-07,3.199669962570059e-05
4.0795632382531424e-07,5.832681486062879e-07,3.830702128974503e-07,3.2500427044589466e-05
4.0950534729901314e-07,5.845666390283553e-07,3.8567001841619784e-07,3.303647323839285e-05
4.1116230964909437e-07,5.857777322265347e-07,3.8825598732076985e-07,3.3619133082778885e-05
4.1290706273285814e-07,5.869147288355666e-07,3.908324971070337e-07,3.4261701991106964e-05
4.147265149468446e-07,5.879888100771161e-07,3.93406796924794e-07,3.497542796621225e-05
4.1661331447118847e-07,5.890107383446242e-07,3.9598823799970656e-07,3.576881378752394e-05
4.185619039731858e-07,5.899910896567025e-07,3.9858589069795006e-07,3.6647623312435605e-05
4.2056560874575593e-07,5.909373819419561e-07,4.012067383026906e-07,3.761548684871938e-05
4.2261705086055133e-07,5.91851502855535e-07,4.038559398120625e-07,3.8674585238858456e-05
4.2471080506148406e-07,5.927301319851672e-07,4.0653915280921974e-07,3.982612140847214e-05
4.268436709308685e-07,5.93566157255719e-07,4.092636739211589e-07,4.107057976457617e-05
4.290121366174614e-07,5.943487947055502e-07,4.1203571837442213e-07,4.240782077441002e-05
4.312114671706994e-07,5.950635860585093e-07,4.148568278992719e-07,4.3837133349221944e-05
4.3343638653985546e-07,5.956964102932038e-07,4.1772336019385685e-07,4.535829715366289e-05
4.3568125011012527e-07,5.962426409986196e-07,4.206283231092585e-07,4.6974862749496195e-05
4.379406149185804e-07,5.967138025485979e-07,4.2356294103046787e-07,4.869754088080853e-05
4.4020958180014963e-07,5.971353583386784e-07,4.265173519958872e-07,5e-06
4.4248240245848645e-07,5.975406488787484e-07,4.2948040011424963e-07,5e-06
4.447508675894205e-07,5.979664059986591e-07,4.324387273555087e-07,5e-06
4.4700362442813427e-07,5.984494734356697e-07,4.353766446703361e-07,5e-06
4.4922611763792937e-07,5.99024002691893e-07,4.38277722820823e-07,5e-06
4.5140201005494593e-07,5.997183414993421e-07,4.411271614394685e-07,5e-06
4.535155270481863e-07,6.005527603372021e-07,4.439126884442813e-07,5e-06
4.555520507254897e-07,6.01539853463468e-07,4.4662338843708707e-07,5e-06
4.5749728118210795e-07,6.026857933127372e-07,4.4924843540621796e-07,5e-06
4.5933730506121814e-07,6.039915503605975e-07,4.517767678473939e-07,5e-06
4.6105900683374683e-07,6.054549833230475e-07,4.541971778099039e-07,5e-06
4.626502286183151e-07,6.070727936125328e-07,4.564985390692854e-07,5e-06
4.641005539874032e-07,6.088421815531608e-07,4.586702214452966e-07,5e-06
4.6540156809916193e-07,6.107623200934443e-07,4.607029377642803e-07,5e-06
4.6654647392634257e-07,6.128343779023228e-07,4.62590550786994e-07,5e-06
4.675308265526147e-07,6.150608228644114e-07,4.64332034336545e-07,5e-06
4.683528897544164e-07,6.174443126136785e-07,4.6593083115941296e-07,5e-06
4.690115259079255e-07,6.199844715142394e-07,4.673917778338129e-07,5e-06
4.6950402743688277e-07,6.226747766213148e-07,4.6872003074706276e-07,5e-06
4.6982743575132323e-07,6.255034505812831e-07,4.699227872503169e-07,5e-06
4.6998204902395446e-07,6.284559662892965e-07,4.710099594269308e-07,5e-06
4.699720460465563e-07,6.315147621509919e-07,4.7199269918206404e-07,5e-06
4.698021994708298e-07,6.346580341169531e-07,4.728812717954259e-07,5e-06
4.694754665250365e-07,6.378606414685033e-07,4.7368354317907937e-07,5e-06
4.689950019517493e-07,6.410949427272672e-07,4.7440505495265846e-07,5e-06
4.6836827901995145e-07,6.443306425176946e-07,4.750498403995873e-07,5e-06
4.6760753826033706e-07,6.475363902566997e-07,4.756205448397439e-07,5e-06
4.667257206502595e-07,6.506815931671539e-07,4.761175167915058e-07,5e-06
4.6573382402969637e-07,6.537357678150001e-07,4.765372359886915e-07,5e-06
4.6464164758190364e-07,6.566687626647333e-07,4.768714616999713e-07,5e-06
4.6345802190874614e-07,6.594530473925721e-07,4.771083590775759e-07,5e-06
4.6218997686770437e-07,6.620637666735189e-07,4.772356299904489e-07,5e-06
4.6084299484441577e-07,6.64476352649041e-07,4.772435049954701e-07,5e-06
4.594215281077921e-07,6.666653283657196e-07,4.771246022530383e-07,5e-06
4.579286313481578e-07,6.686047961480515e-07,4.768718185456063e-07,5e-06
4.563657595311e-07,6.702687239928408e-07,4.764776360445952e-07,5e-06
4.547332514894065e-07,6.716310890377263e-07,4.759349217026308e-07,5e-06
4.5303065597345655e-07,6.72667779737661e-07,4.7523764190771246e-07,5e-06
4.5125648143153065e-07,6.733586467359614e-07,4.7438107683867255e-07,5e-06
4.4940772631042244e-07,6.736863012914079e-07,4.733621019791642e-07,5e-06
4.4747985819823673e-07,6.736338078990336e-07,4.721794393261859e-07,5e-06
4.4546838266242544e-07,6.731848155257503e-07,4.7083281884075955e-07,5e-06
4.4337142126641214e-07,6.723250899846056e-07,4.693217754600728e-07,5e-06
4.4119048892438486e-07,6.71043663362613e-07,4.676455555021111e-07,5e-06
4.3892991064670104e-07,6.693330572798617e-07,4.658032213255969e-07,5e-06
4.3659815362974004e-07,6.671885596026958e-07,4.637931952231138e-07,5e-06
4.3420969273418456e-07,6.646087561262337e-07,4.6161373883898536e-07,5e-06
4.317834597573771e-07,6.615987014364171e-07,4.5926456047632646e-07,5e-06
4.2933870307553306e-07,6.58172484265379e-07,4.5674728256113757e-07,5e-06
4.2689150111446313e-07,6.543517081792384e-07,4.540643423207661e-07,5e-06
4.244530057130757e-07,6.501611071934593e-07,4.5121839610201066e-07,5e-06
4.2202905698623354e-07,6.456258084101465e-07,4.4821285683958684e-07,5e-06
4.1962051178822927e-07,6.407734049037512e-07,4.4505276383339603e-07,5e-06
4.1722378810620533e-07,6.356392782646086e-07,4.417456721342778e-07,5e-06
4.1483164457286156e-07,6.302690831518794e-07,4.383016901522586e-07,5e-06
4.124345195103779e-07,6.247140482913419e-07,4.347320838540473e-07,5e-06
4.1002255003766925e-07,6.190233597795875e-07,4.310485294223712e-07,5e-06
4.075874197744324e-07,6.13240257923487e-07,4.272649142652417e-07,5e-06
4.051230095375846e-07,6.074018769000249e-07,4.233991201135288e-07,5e-06
4.026253848755225e-07,6.01540177719795e-07,4.1947159691434533e-07,5e-06
4.000925563433042e-07,5.956831745292257e-07,4.155028383323953e-07,5e-06
3.9752369281912774e-07,5.898562900178425e-07,4.1151258273904393e-07,5e-06
3.9491902732881243e-07,5.840834079214854e-07,4.075198928889179e-07,5e-06
3.922806975146832e-07,5.783863959591746e-07,4.0354363531155865e-07,5e-06
3.896128030330038e-07,5.727831500947097e-07,3.9960300523361137e-07,5e-06
3.869209812888753e-07,5.672865668401225e-07,3.957163325780993e-07,5e-06
3.842125845149456e-07,5.619048328498696e-07,3.9189855666708176e-07,5e-06
3.8149725178890357e-07,5.566413926078217e-07,3.8815995795642975e-07,5e-06
3.787870187044628e-07,5.514948692203058e-07,3.845073441105707e-07,5e-06
3.7609481583317594e-07,5.464597725208e-07,3.809460820182008e-07,5e-06
3.7343277099457393e-07,5.415275410583115e-07,3.774811337131634e-07,5e-06
3.7081300830005997e-07,5.366879603925029e-07,3.741176272299949e-07,5e-06
3.6824920302357076e-07,5.319310057507779e-07,3.70861023698573e-07,5e-06
3.657557364999209e-07,5.272475654893756e-07,3.677159714100918e-07,5e-06
3.633456179926804e-07,5.226291735570301e-07,3.6468501400595606e-07,5e-06
3.6102942071162717e-07,5.180686069836819e-07,3.617684492721825e-07,5e-06
3.588155334692925e-07,5.135608929095121e-07,3.5896544405672e-07,5e-06
3.567119652591929e-07,5.091032538272866e-07,3.5627547920963565e-07,5e-06
3.547285647342461e-07,5.04693524458126e-07,3.5369864925544245e-07,5e-06
3.528770531685553e-07,5.003278573559339e-07,3.512359603513236e-07,5e-06
3.511694377363553e-07,4.959996162969803e-07,3.488907158902803e-07,5e-06
3.496168949633596e-07,4.917001730469414e-07,3.4666841332536577e-07,5e-06
3.482283663376217e-07,4.874201661338849e-07,3.4457458249528125e-07,5e-06
3.470089936614609e-07,4.831496544344847e-07,3.4261362977923003e-07,5e-06
3.459606985180773e-07,4.788778883444182e-07,3.407884537088216e-07,5e-06
3.450840043322013e-07,4.7459429820391677e-07,3.390990130264957e-07,5e-06
3.4437881341012557e-07,4.7029041729865025e-07,3.375414737079704e-07,5e-06
3.4384536246892147e-07,4.659617774772303e-07,3.3610869123219447e-07,5e-06
3.434863747486725e-07,4.616087616044649e-07,3.347908372684258e-07,5e-06
3.433078964725297e-07,4.5723511972242615e-07,3.335763114342987e-07,5e-06
3.4331675412145855e-07,4.5284520733082477e-07,3.3245367732945557e-07,5e-06
3.435164216239753e-07,4.4844249871029384e-07,3.314147153805498e-07,5e-06
3.439048674398679e-07,4.4402973568773096e-07,3.304564047695171e-07,5e-06
3.444753289579332e-07,4.3960961982008713e-07,3.2957998473908555e-07,5e-06
3.4521812058595646e-07,4.3518626485163834e-07,3.287893560602594e-07,5e-06
3.4612260333098696e-07,4.30768055119311e-07,3.280899050362745e-07,5e-06
3.471789716151084e-07,4.26369898422668e-07,3.2748625487973736e-07,5e-06
3.483780864070715e-07,4.220127228958797e-07,3.269799557976755e-07,5e-06
3.497099509563109e-07,4.1772115082683725e-07,3.2656892789766346e-07,5e-06
3.511638019872792e-07,4.135201007412536e-07,3.262482609718963e-07,5e-06
3.527295801773128e-07,4.094308763706093e-07,3.2601106409374546e-07,5e-06
3.543985250070131e-07,4.054697128524846e-07,3.258488528926296e-07,4.93456441048406e-05
3.561631648953467e-07,4.016513136927597e-07,3.257515413630797e-07,4.642332346206543e-05
3.5801739242720704e-07,3.9799513211576025e-07,3.2570743666832905e-07,4.3670257867665555e-05
3.5995523472759905e-07,3.9452799877514454e-07,3.25704188124582e-07,4.108597640711648e-05
3.6196869035656685e-07,3.9128182566920965e-07,3.257298038167929e-07,3.8669225062782395e-05
3.640475117248774e-07,3.882913841646803e-07,3.2577273678021715e-07,3.6418162395627533e-05
3.6618070358584274e-07,3.855925254764617e-07,3.2582337286049626e-07,3.433072494644679e-05
3.6835702782828177e-07,3.832205052078509e-07,3.2587658732674863e-07,3.240484144317881e-05
3.705648845345549e-07,3.8121089782971703e-07,3.259313588617489e-07,3.063836676646541e-05
3.727928163091653e-07,3.795994915993038e-07,3.259880263548076e-07,2.902890824104067e-05
3.750294978929368e-07,3.784182785996162e-07,3.260462934338261e-07,2.757365414626869e-05
3.772630165644968e-07,3.7769218414636456e-07,3.261039260075775e-07,2.626922238986361e-05
3.7948084755220826e-07,3.774388494135403e-07,3.261559264676909e-07,2.5111663272845786e-05
3.816714436730585e-07,3.7766936446369817e-07,3.2619498698628487e-07,2.4096730188003006e-05
3.838269235905673e-07,3.7838930720131026e-07,3.262126051287817e-07,2.3220215548921005e-05
3.859443540609145e-07,3.796000461259685e-07,3.2619975503985487e-07,2.247803464969472e-05
3.88025308006246e-07,3.812987791854474e-07,3.261470835812468e-07,2.1866057440600416e-05
3.900756878681736e-07,3.8347695981631045e-07,3.2604533017843213e-07,2.1379914576825985e-05
3.921048494899858e-07,3.861189432281207e-07,3.258868514485582e-07,2.101488457235213e-05
3.941228607914169e-07,3.8920177056697297e-07,3.256672705691024e-07,2.0765837546186385e-05
3.961377943023986e-07,3.926957711822663e-07,3.253847019075273e-07,2.0627220174606968e-05
3.981552144031532e-07,3.965656967000992e-07,3.2503712778036945e-07,2.059309325828608e-05
4.001791689679854e-07,4.0077229496646985e-07,3.2462074007141773e-07,2.0657221968423126e-05
4.022129130921733e-07,4.052753358347555e-07,3.241301636498568e-07,2.0813168274577705e-05
4.0425994217773726e-07,4.100372946784193e-07,3.235601333724974e-07,2.1054319031417653e-05
4.063255454627757e-07,4.150241965342601e-07,3.229069413776502e-07,2.13738526956578e-05
4.084169776746384e-07,4.202032727431747e-07,3.221679789837488e-07,2.1764702346710454e-05
4.105411341115114e-07,4.2554053940189186e-07,3.213404453768765e-07,2.2219570156744908e-05
4.127016617189582e-07,4.310010421917389e-07,3.2042064798208385e-07,2.273102496658389e-05
4.1489825728668976e-07,4.3655203934961683e-07,3.194040937048341e-07,2.3291665070506914e-05
4.171277028345453e-07,4.42165035745661e-07,3.1828653034089745e-07,2.3894293706382307e-05
4.1938514769580863e-07,4.478135286693717e-07,3.170650522715032e-07,2.453205057570651e-05
4.2166537218899977e-07,4.534702723035195e-07,3.15738199523824e-07,2.5198451383090578e-05
4.23963396873882e-07,4.5910773637192505e-07,3.143057949480188e-07,2.588734086372856e-05
4.2627392389532093e-07,4.647002046903517e-07,3.127699064046053e-07,2.659281082120241e-05
4.285900735727803e-07,4.7022680121885604e-07,3.1113675521467944e-07,2.730912856664237e-05
4.3090214405358904e-07,4.756753929206545e-07,3.094171405643506e-07,2.803069292706312e-05
4.331971259117756e-07,4.810449983011157e-07,3.076243855597937e-07,2.875201294864659e-05
4.354591585071914e-07,4.863447919951682e-07,3.057727503026051e-07,2.946774348065636e-05
4.376703808908674e-07,4.915892787146427e-07,3.0387796888851674e-07,3.017280912545862e-05
4.3981285290862245e-07,4.967920158996497e-07,3.019573939025186e-07,3.0862527040902664e-05
4.418719002772318e-07,5.019618027924428e-07,3.000279046807955e-07,3.153263132198089e-05
4.438378692012349e-07,5.071022537908894e-07,2.981034735947103e-07,3.217924403982496e-05
4.4570425092963723e-07,5.122129249178458e-07,2.9619492317389986e-07,3.2798884332951635e-05
4.4746438986980325e-07,5.172900307302735e-07,2.943116520754272e-07,3.338852640422643e-05
4.491096812900485e-07,5.223271679377079e-07,2.924629558605494e-07,3.394561591881305e-05
4.5063031584199753e-07,5.273179820930709e-07,2.906574489984843e-07,3.446800197687562e-05
4.5201706329234504e-07,5.322596808796714e-07,2.8890207479559e-07,3.4953952269812946e-05
4.532616274140773e-07,5.371535421583676e-07,2.87202481846727e-07,3.54023288322201e-05
4.5435602257387077e-07,5.42001166434177e-07,2.8556355034119645e-07,3.581270931587118e-05
4.552930553274951e-07,5.467997686361566e-07,2.8398884282786785e-07,3.618532959176046e-05
4.560675732692605e-07,5.515399573261986e-07,2.824799106554807e-07,3.652091929658908e-05
4.5667713816989213e-07,5.562060099268528e-07,2.8103601876845226e-07,3.6820494694385746e-05
4.571222486960947e-07,5.607772873170386e-07,2.796540363674254e-07,3.708515889657423e-05
4.574060025324006e-07,5.65229850765929e-07,2.7832859588263265e-07,3.731593857968681e-05
4.5753292542209e-07,5.695376329012613e-07,2.7705259518273566e-07,3.751368198993171e-05
4.575081978487265e-07,5.736738323861568e-07,2.758180715488704e-07,3.767906360478009e-05
4.573379497039668e-07,5.776145550829532e-07,2.7461788078119164e-07,3.781266865747092e-05
4.570296965937972e-07,5.813454213569915e-07,2.734475289135321e-07,3.791506631393607e-05
4.565917761686491e-07,5.848668900779356e-07,2.723058520844831e-07,3.7986815608622854e-05
4.5603208574901676e-07,5.881924905144425e-07,2.7119467576919644e-07,3.802844211726141e-05
4.5535886851942426e-07,5.913422036713608e-07,2.7011757332090497e-07,3.804054461662668e-05
4.5458387024563034e-07,5.943391422319678e-07,2.690776547054004e-07,3.80240618452202e-05
4.537241719947093e-07,5.972106391031143e-07,2.680756517369256e-07,3.798039877965329e-05
4.528017920279357e-07,5.999877089832867e-07,2.671097732294268e-07,3.791121206176313e-05
4.51842459487247e-07,6.027014731885308e-07,2.6617744380355137e-07,3.781807425248661e-05
4.5087436103481856e-07,6.053798901658226e-07,2.652771224195943e-07,3.770229058040268e-05
4.4992772946532075e-07,6.080458501779294e-07,2.6440827203470426e-07,3.756489349760234e-05
4.490333945007081e-07,6.107171035645039e-07,2.6357007863549514e-07,3.740671771034899e-05
4.482189637777241e-07,6.134078315558932e-07,2.627607680041903e-07,3.722849280788632e-05
4.475057499183278e-07,6.161289121488275e-07,2.6197845720911214e-07,3.703094290003736e-05
4.4690831003044404e-07,6.188866917249993e-07,2.612235271227351e-07,3.6814884338820336e-05
4.464351988243128e-07,6.216820771300835e-07,2.605006831110781e-07,3.658128070109713e-05
4.4608965600829173e-07,6.245093419268383e-07,2.59818067324332e-07,3.633123330268181e-05
4.458700227846856e-07,6.273561806863245e-07,2.591844952196911e-07,3.606593712438605e-05
4.457704804039775e-07,6.302071019897217e-07,2.5860835451579745e-07,3.578663799287122e-05
4.45783166377471e-07,6.330462675096109e-07,2.580982354506686e-07,3.549461929436751e-05
4.459012156642232e-07,6.358560956319772e-07,2.576634416741976e-07,3.519124562593831e-05
4.461213330102515e-07,6.386146585017542e-07,2.573134215118892e-07,3.487805215887901e-05
4.464461655604664e-07,6.412955254662989e-07,2.570558180647503e-07,3.455679638108657e-05
4.4688572625162936e-07,6.438694130701842e-07,2.5689522120433103e-07,3.422936750339812e-05
4.4745576400369566e-07,6.463054729209618e-07,2.568341689898636e-07,3.389757502682001e-05
4.481732871802842e-07,6.485720145099024e-07,2.568748663735817e-07,3.356296761239113e-05
4.490514908294646e-07,6.506380244707984e-07,2.570199947701373e-07,3.322675729586111e-05
4.5009712658639995e-07,6.524758252902588e-07,2.5727266970602194e-07,3.2889816965694676e-05
4.51311701314309e-07,6.540638252394892e-07,2.5763682341935377e-07,3.255273328120927e-05
4.5269386410706084e-07,6.55386844994377e-07,2.5811771907952445e-07,3.221589637146405e-05
4.5423966378586607e-07,6.564330870249813e-07,2.5872187842855395e-07,3.1879596059279744e-05
4.559414172269124e-07,6.571912783013255e-07,2.5945770696822373e-07,3.154412653297828e-05
4.5778770474655685e-07,6.576497416139849e-07,2.603357615861596e-07,3.120988988584689e-05
4.5976454809554957e-07,6.577960144880976e-07,2.613668662968638e-07,3.0877441257217346e-05
4.618565392996439e-07,6.576179857743353e-07,2.625607106360315e-07,3.054743920712275e-05
4.640476049282346e-07,6.571064728820197e-07,2.639264558136392e-07,3.0220545172496392e-05
4.663226619888665e-07,6.562558054248569e-07,2.6547306877477724e-07,2.989733039244393e-05
4.6866960007260285e-07,6.550617565145566e-07,2.672090717612146e-07,2.95782147740224e-05
4.710779733201935e-07,6.535198473922359e-07,2.6914313965460696e-07,2.92634820966622e-05
4.7353497249065687e-07,6.516253865346647e-07,2.712847726719544e-07,2.8953349724145648e-05
4.7602321376776676e-07,6.493750561912636e-07,2.736432708299145e-07,2.864796722777389e-05
4.78521908357251e-07,6.467712979928687e-07,2.762253314165164e-07,2.8347344347950102e-05
4.810104199970518e-07,6.438272451377221e-07,2.790333505709272e-07,2.8051316906584253e-05
4.834718140979921e-07,6.405661441162262e-07,2.8206555728387204e-07,2.775957144102003e-05
4.858933486192896e-07,6.370168575917293e-07,2.853174466082225e-07,2.7471721031195065e-05
4.882642932092023e-07,6.332121607758688e-07,2.88783313270251e-07,2.7187397800051216e-05
4.905737831544981e-07,6.291888963878443e-07,2.9245654073246286e-07,2.690625970707652e-05
4.928092112702747e-07,6.24985724180471e-07,2.963285032771562e-07,2.662791312971567e-05
4.949554439972081e-07,6.206391702748e-07,3.003877983676559e-07,2.635188401390024e-05
4.969966493540193e-07,6.161809769939052e-07,3.046208867726501e-07,2.6077696469257393e-05
4.989192982809708e-07,6.116382890314376e-07,3.09012932812181e-07,2.5805020321189668e-05
5.007122202027646e-07,6.070350717246976e-07,3.1354788425164454e-07,2.5533855619992545e-05
5.023638461547536e-07,6.023921151240793e-07,3.1820829203569607e-07,2.526466790989217e-05
5.038606183462485e-07,5.977264457429539e-07,3.229750336272841e-07,2.4998350326510226e-05
5.051880967355293e-07,5.930518040685802e-07,3.2782728382459953e-07,2.4736019054419933e-05
5.063324681133178e-07,5.88380063600211e-07,3.3274289872960737e-07,2.447876952657841e-05
5.072804790933636e-07,5.837255760671934e-07,3.376980813854875e-07,2.422751071088891e-05
5.080185204580234e-07,5.791142234571507e-07,3.4266681277976605e-07,2.3982917516809303e-05
5.085322169134741e-07,5.745925657515014e-07,3.4762222922353075e-07,2.37454596827624e-05
5.088072474572085e-07,5.702287428875529e-07,3.5253910615122925e-07,2.351546526984101e-05
5.088312936587744e-07,5.661041336295969e-07,3.573941795644677e-07,2.3293261972501714e-05
5.085950439146449e-07,5.623049281168721e-07,3.621643733607439e-07,2.307940693992068e-05
5.080907623150326e-07,5.589178694821402e-07,3.668261691815471e-07,2.287482532391646e-05
5.073105939287655e-07,5.560258826234954e-07,3.713576689172242e-07,2.2680700973055866e-05
5.062467379295265e-07,5.537033241927521e-07,3.7574108390165293e-07,2.249822301206986e-05
5.04892863397951e-07,5.520127889071368e-07,3.799622083019197e-07,2.2328359248750774e-05
5.032458349442644e-07,5.510022553683268e-07,3.840080561409524e-07,2.2171763247543484e-05
5.013065783495936e-07,5.507030091699074e-07,3.8786695625590206e-07,2.202894170023797e-05
4.990789835389289e-07,5.511300207763756e-07,3.9153096843295494e-07,2.190064488229557e-05
4.965679965830679e-07,5.522832020661624e-07,3.949970351189307e-07,2.178815852427433e-05
4.937790167964146e-07,5.54147812368364e-07,3.98265744724164e-07,2.1693282986712745e-05
4.90719338597111e-07,5.566955483896851e-07,4.013389545571917e-07,2.1618134035775008e-05
4.87400140562536e-07,5.598877105418132e-07,4.042175954798592e-07,2.156495957741716e-05
4.838362235471428e-07,5.63679703912852e-07,4.0690069736111604e-07,2.1536023534392373e-05
4.800430270357186e-07,5.680245623916485e-07,4.0938601437512345e-07,2.1533531209408498e-05
4.760342364497183e-07,5.728733230289039e-07,4.116711974766984e-07,2.1559549180648848e-05
4.718228464815384e-07,5.781738827736709e-07,4.1375390169514726e-07,2.1615907490289385e-05
4.674237645377496e-07,5.838719846420018e-07,4.1563150041646965e-07,2.1704130011292386e-05
4.6285387899471275e-07,5.899133700080939e-07,4.1730217803471477e-07,2.182540195884571e-05
4.5813020521064274e-07,5.962436412918418e-07,4.1876685251268136e-07,2.1980510585373185e-05
4.53270544080081e-07,6.028077354508795e-07,4.20029806801284e-07,2.216972801957861e-05
4.4829661286049956e-07,6.095523106413964e-07,4.2109693301730406e-07,2.239269340420122e-05
4.4323500644691494e-07,6.164285567093021e-07,4.219735478755464e-07,2.264836769083128e-05
4.3811435283393386e-07,6.233914003998691e-07,4.2266473754027216e-07,2.2935091573814537e-05
4.329617872157485e-07,6.303955141323269e-07,4.231771179850073e-07,2.3250732943086648e-05
4.278021612456449e-07,6.37391903134559e-07,4.2351832934092864e-07,2.359286898043122e-05
4.2265959333222343e-07,6.443275748993975e-07,4.236946641616218e-07,2.3958943482195968e-05
4.1755791220519536e-07,6.511478263849775e-07,4.2371079691123524e-07,2.4346386578939115e-05
4.125190753099706e-07,6.577990963557128e-07,4.235724014964632e-07,2.475270814427625e-05
4.075628852309649e-07,6.642298386107581e-07,4.232880576262174e-07,2.5175535632383515e-05
4.027093054700719e-07,6.703899637990135e-07,4.22868054564575e-07,2.5612556383496687e-05
3.979801009470818e-07,6.7623274552925e-07,4.223222209819851e-07,2.606140948341849e-05
3.933985860785471e-07,6.817179366081615e-07,4.2165918735946156e-07,2.651960886007665e-05
3.8898978673333954e-07,6.868109942841828e-07,4.208862759444336e-07,2.6984505633134976e-05
3.847807136291336e-07,6.914798956675261e-07,4.200095729945997e-07,2.745326974214816e-05
3.8079912659132437e-07,6.956936851956353e-07,4.190349516919331e-07,2.792289835837298e-05
3.770727050157383e-07,6.994225482377976e-07,4.1796876170397346e-07,2.8390244348952284e-05
3.736300999674168e-07,7.026381634711985e-07,4.168168376206986e-07,2.8852046942617932e-05
3.705014982210271e-07,7.053139115534637e-07,4.1558315570350044e-07,2.9304967202914973e-05
3.677170953623454e-07,7.074253209598312e-07,4.1426940582297e-07,2.9745632191708282e-05
3.653049665827317e-07,7.089518233464482e-07,4.1287489239657154e-07,3.017071266719704e-05
3.632894829843089e-07,7.098786083045676e-07,4.113965124333272e-07,3.057710039177019e-05
3.616905534297589e-07,7.101958418260328e-07,4.098297537285979e-07,3.096214590629713e-05
3.6052495277491007e-07,7.09896093988762e-07,4.08170504223847e-07,3.1323782557274445e-05
3.598080985342902e-07,7.089737395609385e-07,4.064160040187614e-07,3.1660501770011464e-05
3.5955228452049226e-07,7.074267233317784e-07,4.045649217667577e-07,3.197130006334689e-05
3.59762979574451e-07,7.052579773334205e-07,4.0261732210512564e-07,3.2255614580093436e-05
3.604372106967818e-07,7.024758193206109e-07,4.005739638888815e-07,3.2513201915655405e-05
3.615636145215797e-07,6.990938609861431e-07,3.984357296524847e-07,3.274399732485517e-05
3.631232314628948e-07,6.951305272785561e-07,3.962048419329576e-07,3.294799628703075e-05
3.650916911997183e-07,6.906084828715685e-07,3.9388688928854864e-07,3.312515679590073e-05
3.674420682754228e-07,6.855535290022686e-07,3.9149142922624156e-07,3.327535726824753e-05
3.701476606272985e-07,6.799931548245564e-07,3.890309076987087e-07,3.33984611696495e-05
3.7318402803963533e-07,6.739561417543212e-07,3.865192795037025e-07,3.349444519527901e-05
3.7652785860464103e-07,6.674732715472188e-07,3.839708441450364e-07,3.356347899669153e-05
3.80153102940369e-07,6.605791087978051e-07,3.813996062387321e-07,3.3605888257409616e-05
3.840293515983729e-07,6.533157463026989e-07,3.7881983012267326e-07,3.362203601713217e-05
3.8812534536732507e-07,6.457349188532288e-07,3.76246411977175e-07,3.361224676778929e-05
3.924147088177756e-07,6.378932215557512e-07,3.7369353472134217e-07,3.357686627570415e-05
3.968788731342896e-07,6.298444592421596e-07,3.711727292189601e-07,3.3516392521064225e-05
4.0150616166292636e-07,6.216374889710742e-07,3.686920955548453e-07,3.343152881747844e-05
4.062890438566137e-07,6.133194847640456e-07,3.66257213995832e-07,3.3323125159224096e-05
4.1122105674128387e-07,6.049382245273819e-07,3.6387236765764384e-07,3.3192095866553245e-05
4.1629602832875295e-07,5.965402224068205e-07,3.615405879790761e-07,3.303937306739689e-05
4.2151021606659475e-07,5.881670918705759e-07,3.592642109838054e-07,3.286589090335191e-05
4.268629372290537e-07,5.798537511675324e-07,3.570473889012885e-07,3.267256952246718e-05
4.323533377246745e-07,5.716295833686096e-07,3.5489844701873093e-07,3.24602797208977e-05
4.3797638655937434e-07,5.635207792729e-07,3.528299938118355e-07,3.222979864108893e-05
4.437211516027569e-07,5.555516250420741e-07,3.5085655331868264e-07,3.198177320896629e-05
4.4957181574235523e-07,5.477443493586068e-07,3.4899172819589873e-07,3.171670658378562e-05
4.555107119100941e-07,5.401182353905803e-07,3.4724735607114265e-07,3.1434969212131373e-05
4.615207230762674e-07,5.326893012966013e-07,3.456334081233098e-07,3.1136823095415964e-05
4.675843735530282e-07,5.254725184126487e-07,3.4415680896175826e-07,3.082246513857502e-05
4.7368134787184456e-07,5.184855931146447e-07,3.4282026214349044e-07,3.0492083941552984e-05
4.797875682119706e-07,5.117496325844617e-07,3.416220396838331e-07,3.0145893421632482e-05
4.85876769684034e-07,5.052856192833847e-07,3.405564280385543e-07,2.978414002770084e-05
4.919246879688932e-07,4.991111790355928e-07,3.396148785219641e-07,2.9407117757775768e-05
4.979132600569902e-07,4.932405159281089e-07,3.387878200207554e-07,2.9015188974385066e-05
5.038299587124585e-07,4.87686088211164e-07,3.380657109421943e-07,2.860877572037909e-05
5.096625270953397e-07,4.824595852981554e-07,3.374388915927286e-07,2.818831719113756e-05
5.153947379178938e-07,4.775717263878922e-07,3.3689765675251326e-07,2.775423553340935e-05
5.210057787878526e-07,4.7303129650943096e-07,3.3643252605835e-07,2.730695122400456e-05
5.264715249563763e-07,4.688433275523768e-07,3.3603387744548693e-07,2.684693090269749e-05
5.317660007350597e-07,4.6500830137488994e-07,3.3569148545264567e-07,2.6374711463294384e-05
5.368619677035932e-07,4.615244243651492e-07,3.353946487808733e-07,2.589088919914086e-05
5.417304223871194e-07,4.5839105941901253e-07,3.351327322669155e-07,2.539611743580881e-05
5.463408476570272e-07,4.556103822548643e-07,3.3489558217537264e-07,2.4891133980992167e-05
5.506641592212433e-07,4.5318700086637354e-07,3.346738670607545e-07,2.4376789688598677e-05
5.546762611226571e-07,4.51125998052413e-07,3.344602490847799e-07,2.385403708235344e-05
5.58358136421606e-07,4.4942976368547545e-07,3.342506695734759e-07,2.332388297798287e-05
5.616942267791358e-07,4.4809566666126957e-07,3.340435541082551e-07,2.2787368313928226e-05
5.646735226268621e-07,4.471161135582402e-07,3.338377240390728e-07,2.2245582690744025e-05
5.672915376055692e-07,4.464802978773322e-07,3.33631575362114e-07,2.1699646048876817e-05
5.695500430996614e-07,4.4617615821192645e-07,3.334239851653289e-07,2.115066281435238e-05
5.714560766352824e-07,4.4619060065649215e-07,3.332162370734472e-07,2.0599701357060445e-05
5.730212630797713e-07,4.4650779321211127e-07,3.330133241740232e-07,2.0047796967156846e-05
5.742607519403775e-07,4.4710823507394745e-07,3.328225674098594e-07,1.9495966625070696e-05
5.751926629597066e-07,4.4796986496022407e-07,3.326505964428536e-07,1.8945251883239857e-05
5.758378232538997e-07,4.4906926866011705e-07,3.325014942505077e-07,1.8396801377087595e-05
5.762177467544397e-07,4.503818896895889e-07,3.323763285803429e-07,1.7851950527338082e-05
5.763513726022645e-07,4.518826768142228e-07,3.3227325582591763e-07,1.731223558221641e-05
5.762530849953706e-07,4.5354701081670106e-07,3.321883085584757e-07,1.677934293226558e-05
5.759331242768497e-07,4.5535001869519776e-07,3.321161964650329e-07,1.6255056358738808e-05
5.753989951145523e-07,4.572655881368245e-07,3.3205025742356337e-07,1.5741310351601572e-05
5.746560852075969e-07,4.5926684260068637e-07,3.319820730798469e-07,1.5240355316096668e-05
5.737081110835612e-07,4.613261356692317e-07,3.3190190946424477e-07,1.4754817119636866e-05
5.72557600241989e-07,4.634136253649602e-07,3.318005956144423e-07,1.4287547969330234e-05
5.712051807756108e-07,4.654971641519062e-07,3.3167137267836016e-07,1.3841433085290027e-05
5.696488684974764e-07,4.675459389602258e-07,3.3150933884299426e-07,1.341924727826386e-05
5.678854176943911e-07,4.6953673320381356e-07,3.313091617392712e-07,1.3023534021891027e-05
5.65913500846539e-07,4.7145877429898946e-07,3.310638154783872e-07,1.2656508885813844e-05
5.637364514897622e-07,4.7331306905171243e-07,3.3076547588407194e-07,1.2319995634219733e-05
5.613620459690607e-07,4.751065217521697e-07,3.304072960743842e-07,1.201541105545311e-05
5.58799729062654e-07,4.768465509360486e-07,3.299838792450341e-07,1.1743812784082025e-05
5.560582193876531e-07,4.785393548512129e-07,3.2949054457572277e-07,1.1505942426199938e-05
5.531449413937898e-07,4.801899346248589e-07,3.289230031966359e-07,1.1302201244509234e-05
5.500665975326574e-07,4.818039551274592e-07,3.2827764148909476e-07,1.1132604985287537e-05
5.468301609293141e-07,4.833923698430765e-07,3.275523782818555e-07,1.0996764462865414e-05
5.434431953479745e-07,4.849751423644671e-07,3.267479508544284e-07,1.0893914610930668e-05
5.399127777108689e-07,4.865790818579642e-07,3.258688681141985e-07,1.0823160681873993e-05
5.362445191442964e-07,4.882304441569787e-07,3.2492426154374324e-07,1.0784124421491246e-05
5.324426950415171e-07,4.899481280839428e-07,3.2392915061681326e-07,1.077760792004671e-05
5.285110542692536e-07,4.917416456784729e-07,3.2290520356066925e-07,1.0805601407525343e-05
5.244537359573854e-07,4.936133933707819e-07,3.2188006403809535e-07,1.0870701479125486e-05
5.202756187958743e-07,4.955622162563547e-07,3.2088525483975053e-07,1.0975497630862223e-05
5.159823182385672e-07,4.975853099241792e-07,3.1995251124051554e-07,1.1122162079894583e-05
5.115803342609026e-07,4.996773786538891e-07,3.1910996247921945e-07,1.1312206608289765e-05
5.070780377220418e-07,5.018289305409319e-07,3.183804380538978e-07,1.1546345365037895e-05
5.024876362942848e-07,5.040263997815271e-07,3.177811069161548e-07,1.1824455415094866e-05
4.97825278821784e-07,5.062534790504506e-07,3.173229119912877e-07,1.2145641555096992e-05
4.931084215098233e-07,5.084922942150681e-07,3.1701029905497263e-07,1.2508353911075587e-05
4.88354620020408e-07,5.107261351408047e-07,3.1684209102999e-07,1.2910484585883353e-05
4.835825100710607e-07,5.129440556069263e-07,3.1681421383035606e-07,1.3349435244382795e-05
4.788114083510985e-07,5.151439251812106e-07,3.169235070828199e-07,1.3822225424346545e-05
4.7405931706121815e-07,5.173319651819757e-07,3.171693503159525e-07,1.4325640161856493e-05
4.693417554993702e-07,5.195201992818355e-07,3.175516902202491e-07,1.4856341612639948e-05
4.646730609161842e-07,5.217225270295194e-07,3.180687132960602e-07,1.541096325406569e-05
4.6006933784128095e-07,5.239494057159813e-07,3.187173125648133e-07,1.598623343438078e-05
4.5554958034554464e-07,5.262038608605579e-07,3.1949460996807454e-07,1.657903874653372e-05
4.5113379192513773e-07,5.28481099525676e-07,3.203978195547544e-07,1.7186356326429044e-05
4.468399666901325e-07,5.307704887899468e-07,3.214242880930465e-07,1.7805187791261145e-05
4.426821372562178e-07,5.330580838482683e-07,3.225732259855149e-07,1.843257258300676e-05
4.3867144988783406e-07,5.35329491402599e-07,3.2384586822757417e-07,1.9065567068940424e-05
4.348183231651985e-07,5.375738067339106e-07,3.252433520264344e-07,1.970117256955979e-05
4.311326462392689e-07,5.397876687501985e-07,3.267669246248226e-07,2.033632797203164e-05
4.276239761858107e-07,5.419755049560037e-07,3.2842081921957914e-07,2.0968084921193626e-05
4.2430313626550523e-07,5.441440108990701e-07,3.302121926894806e-07,2.1594016697180138e-05
4.211827612550052e-07,5.462960529750725e-07,3.321472745502245e-07,2.2212613456324184e-05
4.18276019664954e-07,5.484310964633696e-07,3.342284979304534e-07,2.282329450305344e-05
4.1559459321640883e-07,5.505510607016585e-07,3.364540377901165e-07,2.34260831163676e-05
4.131463470941127e-07,5.526634289957263e-07,3.388179557409335e-07,2.402126054105718e-05
4.1093415031803277e-07,5.54778017937944e-07,3.413107869100841e-07,2.460912555266785e-05
4.089583525369101e-07,5.569016956492632e-07,3.4392053324380176e-07,2.5189867278946178e-05
4.0722265376824523e-07,5.590357036876326e-07,3.466327094492645e-07,2.576361523453989e-05
4.0573736017628475e-07,5.611763703585793e-07,3.494296264022518e-07,2.633059774220004e-05
4.045152794486897e-07,5.6331679088491e-07,3.5229054430451634e-07,2.6891153281132145e-05
4.0356556336950346e-07,5.654471780375306e-07,3.5519269272101124e-07,2.74455230934358e-05
4.0289215339518423e-07,5.67555211297853e-07,3.5811264644292257e-07,2.799361398502478e-05
4.024948625906065e-07,5.696281085910469e-07,3.610287542836466e-07,2.8534890420049652e-05
4.02369718279726e-07,5.716544174581605e-07,3.6392339944007844e-07,2.906844141266012e-05
4.025092414112713e-07,5.736237399129512e-07,3.667828961553514e-07,2.959316789750354e-05
4.0290278560908507e-07,5.75525401333826e-07,3.6959700828768174e-07,3.010798660322112e-05
4.03536796084025e-07,5.773467625506943e-07,3.723601664820867e-07,3.0611992528857376e-05
4.04396721850931e-07,5.790717661952132e-07,3.7507199207910203e-07,3.1104556215832594e-05
4.054699911293426e-07,5.806808773329103e-07,3.777354383756555e-07,3.1585354222270944e-05
4.067466169803524e-07,5.821538380869809e-07,3.803534208137878e-07,3.205434916339398e-05
4.082171354723485e-07,5.834755585777246e-07,3.829258594778252e-07,3.2511727578121965e-05
4.098714388670765e-07,5.846396791355594e-07,3.854499692285057e-07,3.295782298397146e-05
4.1170069564951275e-07,5.856447815349694e-07,3.8792353728876593e-07,3.339305058339827e-05
4.1370108507496906e-07,5.86488576420931e-07,3.903474809853543e-07,3.381780403415766e-05
4.158755029172297e-07,5.87167268890216e-07,3.9272578602144524e-07,3.423225468314481e-05
4.182304755133423e-07,5.876789725376793e-07,3.950637598905172e-07,3.463614974262757e-05
4.2077121551163176e-07,5.880252809236999e-07,3.9736626404561745e-07,3.50287908355183e-05
4.2349955727916187e-07,5.882086161253572e-07,3.9963730010417377e-07,3.5409205451736074e-05
4.2641533886926826e-07,5.882286999491901e-07,4.01881792026529e-07,3.577635737966183e-05
4.2951857913687325e-07,5.880817216363512e-07,4.041086335881157e-07,3.612928137275287e-05
4.3280914123362686e-07,5.877627450724796e-07,4.0633143076162986e-07,3.646713328625943e-05
4.362836772530601e-07,5.872685190334497e-07,4.085649621200561e-07,3.678919210158505e-05
4.399336084656144e-07,5.865976413490365e-07,4.108207048057814e-07,3.709484020870107e-05
4.4374617021591607e-07,5.85749594217611e-07,4.1310531341737947e-07,3.73835036296774e-05
4.477075838707639e-07,5.847245997633524e-07,4.1542122657636473e-07,3.7654536901281926e-05
4.518068926870291e-07,5.835228641371886e-07,4.177672763129454e-07,3.79071169811617e-05
4.5603800936933535e-07,5.821433175667129e-07,4.2013922405745567e-07,3.814020949560429e-05
4.603990510738992e-07,5.805841138005916e-07,4.22530275735146e-07,3.835257854178354e-05
4.648910537453521e-07,5.788436329478342e-07,4.2493236176233603e-07,3.8542818976708313e-05
4.695167181530997e-07,5.769195324028524e-07,4.27338445154751e-07,3.8709467025328205e-05
4.7427788213471003e-07,5.748074007804579e-07,4.2974333365335066e-07,3.885119141796929e-05
4.791725124002623e-07,5.725009144352471e-07,4.321425319411481e-07,3.896693930699749e-05
4.841931009286446e-07,5.699932591647751e-07,4.3453081957579354e-07,3.905593205868158e-05
4.893262608054306e-07,5.67278995757158e-07,4.369007009471226e-07,3.9117544605013306e-05
4.945530278251121e-07,5.643543497637403e-07,4.3924184300805456e-07,3.915117270461914e-05
4.998502025025678e-07,5.612156014447781e-07,4.4154231138967495e-07,3.915615888871723e-05
5.051921886638153e-07,5.578588271523017e-07,4.4378937623012074e-07,3.913177731296668e-05
5.105519839081536e-07,5.542816111097912e-07,4.4596886024471953e-07,3.9077258983607657e-05
5.159008397954356e-07,5.50483530930284e-07,4.4806492949465034e-07,3.899189551137076e-05
5.212080645770167e-07,5.464648865198693e-07,4.500614167726847e-07,3.887529566219265e-05
5.264420168125227e-07,5.422261808434337e-07,4.5194377236957094e-07,3.8727749193379424e-05
5.315716606754245e-07,5.377697132028686e-07,4.5370016696934844e-07,3.8550445857128305e-05
5.365677600485853e-07,5.331025812767438e-07,4.5532053657413827e-07,3.8345364263129655e-05
5.414028723071131e-07,5.28238668738299e-07,4.5679428018665723e-07,3.811495163462161e-05
5.460506321191947e-07,5.231972819694814e-07,4.581094246478756e-07,3.786178167583095e-05
5.504848561061215e-07,5.179997021736685e-07,4.5925406616385277e-07,3.7588306250354896e-05
5.546787215328296e-07,5.126669096919064e-07,4.6021718993716964e-07,3.729686847302859e-05
5.58605608723507e-07,5.072189138424149e-07,4.609872887372509e-07,3.698995505285665e-05
5.622408621347788e-07,5.01675086425851e-07,4.615509904029746e-07,3.667037786445847e-05
5.655622416028568e-07,4.960567725005792e-07,4.618933346743556e-07,3.6341248807038655e-05
5.68549841008441e-07,4.903902981604601e-07,4.619993577151499e-07,3.600586025260417e-05
5.711874760629471e-07,4.847051543100198e-07,4.618564355741989e-07,3.566752977391024e-05
5.734663331196701e-07,4.790284728181817e-07,4.6145570510462857e-07,3.53294304500201e-05
5.753876877415801e-07,4.7338223520215026e-07,4.607913107605682e-07,3.499445182219002e-05
5.769601506100545e-07,4.6778489052129296e-07,4.598588918456335e-07,3.466510351079053e-05
5.78194020364035e-07,4.6225485022732153e-07,4.5865485387305403e-07,3.434346821446887e-05
5.790982602162076e-07,4.5681530259909284e-07,4.571766463320393e-07,3.403122263239038e-05
5.796799361492266e-07,4.51500530709256e-07,4.5542351545984876e-07,3.372969155282437e-05
5.799440856619926e-07,4.4635945744787436e-07,4.533975333947804e-07,3.3439865383235065e-05
5.798942364412503e-07,4.4145089389856594e-07,4.5110518370424137e-07,3.3162365702885745e-05
5.795334034609909e-07,4.368327534294446e-07,4.4855775740329685e-07,3.289739394736889e-05
5.788647105898087e-07,4.325536017515992e-07,4.45769435058219e-07,3.2644710480318405e-05
5.778921340656834e-07,4.2865073103629935e-07,4.427553912073141e-07,3.2403679838733785e-05
5.766228979935061e-07,4.251521626728901e-07,4.3953096646325924e-07,3.217339138032257e-05
5.750710439666837e-07,4.220787816302216e-07,4.3611105871740295e-07,3.19528398528984e-05
5.732582424569481e-07,4.1944613396155356e-07,4.3251003867379124e-07,3.174109692570464e-05
5.712099729397958e-07,4.1726687531739296e-07,4.287419694681704e-07,3.1537397979001865e-05
5.689505709517835e-07,4.155515519558963e-07,4.24820295292545e-07,3.1341158733095777e-05
5.665006656614324e-07,4.143062566760593e-07,4.2075770927795404e-07,3.115195994774993e-05
5.638766598924156e-07,4.1353047251978774e-07,4.1656686891317923e-07,3.0969482354187226e-05
5.610909587606305e-07,4.132164503594168e-07,4.122613125865618e-07,3.079338126161418e-05
5.58153317174949e-07,4.1334981812784634e-07,4.0785594144086407e-07,3.062315611201441e-05
5.55072791085524e-07,4.139152525726669e-07,4.033666989335347e-07,3.0458125159494848e-05
5.518589210243175e-07,4.149083958280864e-07,3.9880984168106887e-07,3.0297554461805074e-05
5.485219083704336e-07,4.163447864752289e-07,3.942016256983632e-07,3.014081848934255e-05
5.450717929103814e-07,4.182559068625575e-07,3.89558453850829e-07,2.9987439966970387e-05
5.415174057941077e-07,4.206754721043845e-07,3.848967328773697e-07,2.9837019621260016e-05
5.3786587054335e-07,4.236280691793066e-07,3.8023173149591925e-07,2.9689159215287482e-05
5.341224636463366e-07,4.271259059948536e-07,3.755765568856119e-07,2.954343059047992e-05
5.302911715459987e-07,4.3116924927416476e-07,3.709425191520982e-07,2.9399372712697112e-05
5.263757690200584e-07,4.357468721542596e-07,3.663400287658888e-07,2.9256484105629755e-05
5.223804917572841e-07,4.4083735675218173e-07,3.61778731875752e-07,2.911423579529168e-05
5.183103980697792e-07,4.46411388911308e-07,3.572666523891279e-07,2.897213915517063e-05
5.141713754264561e-07,4.5243434428743774e-07,3.528094114946788e-07,2.8829827092858142e-05
5.099693661612006e-07,4.588684501253543e-07,3.484103334119872e-07,2.868710352257642e-05
5.057097271918062e-07,4.656733226594409e-07,3.4407062401508753e-07,2.8544002224046773e-05
5.013978681246317e-07,4.7280486443679315e-07,3.397891861241709e-07,2.8400907470400208e-05
4.970400681450032e-07,4.802142123022796e-07,3.3556357811636986e-07,2.8258658641185973e-05
4.926423840532546e-07,4.878481548011782e-07,3.313928007418143e-07,2.811849723554681e-05
4.882085486947936e-07,4.956514192473388e-07,3.2727916319490555e-07,2.7981833661458814e-05
4.837391657207981e-07,5.03570059837886e-07,3.232270901467588e-07,2.7849949128155444e-05
4.792320937032619e-07,5.115532368038386e-07,3.192409413382273e-07,2.772381176872183e-05
4.7468332959395096e-07,5.195524550043063e-07,3.153241767024044e-07,2.7604110105719323e-05
4.7008843246481677e-07,5.275205303806444e-07,3.11479349168368e-07,2.7491410708333992e-05
4.6544341331493724e-07,5.354106270042197e-07,3.077077867568579e-07,2.7386244450545115e-05
4.607441151788146e-07,5.431750581461221e-07,3.0400903259105156e-07,2.7289052090838745e-05
4.559853673679953e-07,5.507663580064773e-07,3.003806325009604e-07,2.72001460933246e-05
4.5116115976755113e-07,5.581409682876142e-07,2.9681879228792057e-07,2.7119782822119396e-05
4.462656833257351e-07,5.652616467498806e-07,2.9331999182450754e-07,2.704818362773361e-05
4.4129541485449457e-07,5.72096969331525e-07,2.898825293383221e-07,2.6985420685555144e-05
4.362512686542704e-07,5.786206084359278e-07,2.865064649800357e-07,2.693130371533872e-05
4.31138718023125e-07,5.848124395736441e-07,2.8319205931196487e-07,2.68854249411316e-05
4.2596714700838327e-07,5.906594930997318e-07,2.7993885582452716e-07,2.684744096077529e-05
4.207507970697096e-07,5.961534518421112e-07,2.7674657134235297e-07,2.681746820376013e-05
4.1551001350652103e-07,6.012861595884714e-07,2.736163429520276e-07,2.679628699566868e-05
4.102704386678157e-07,6.060473729241813e-07,2.7055099967373575e-07,2.6785211274938972e-05
4.0505957927011797e-07,6.104255834486839e-07,2.6755458294233806e-07,2.6785793731282745e-05
3.999027803106168e-07,6.144103887674107e-07,2.6463129190530445e-07,2.67995784322246e-05
3.948216211533153e-07,6.179945403609149e-07,2.617843341686329e-07,2.6827926480680537e-05
3.898341097236865e-07,6.211735835989774e-07,2.590158293955053e-07,2.687184596340527e-05
3.849547100628121e-07,6.239435735384207e-07,2.5632847462102263e-07,2.693183561048574e-05
3.801957604428946e-07,6.26300064824176e-07,2.537287229249666e-07,2.7007825166931492e-05
3.7557106717328523e-07,6.282399379340915e-07,2.512290308646801e-07,2.7099230538215e-05
3.710982042167242e-07,6.297646925848132e-07,2.488468681700541e-07,2.720503903366963e-05
3.6679692117890096e-07,6.308822942062629e-07,2.466019616438169e-07,2.7323867567871187e-05
3.62685475513059e-07,6.31605329582495e-07,2.4451379774832324e-07,2.745402530710644e-05
3.5877823608263605e-07,6.319473246331495e-07,2.425995292538519e-07,2.7593612431805297e-05
3.550853519948328e-07,6.319211673181882e-07,2.4087275431046425e-07,2.774064244945149e-05
3.5161271488234804e-07,6.315396892713255e-07,2.393434567885339e-07,2.789316670421233e-05
3.483624411371317e-07,6.308155035262364e-07,2.380183483949757e-07,2.8049379603891352e-05
3.4533734106407644e-07,6.297597492179426e-07,2.3690163857118586e-07,2.820767361041852e-05
3.425487530521445e-07,6.283816351100716e-07,2.3599670615364184e-07,2.836661735857925e-05
3.400204971863358e-07,6.266892265520764e-07,2.353071582385057e-07,2.8524876651465223e-05
3.3778488938857377e-07,6.246906978593481e-07,2.348354196738554e-07,2.8681160174749517e-05
3.358745413276617e-07,6.223959862254593e-07,2.3458035932276053e-07,2.88342355437897e-05
3.343155802266477e-07,6.198184273273007e-07,2.3453649586788626e-07,2.8982955079499226e-05
3.3312499730441515e-07,6.169745452305888e-07,2.3469438699874988e-07,2.912622587260237e-05
3.3231103904659507e-07,6.138822860805973e-07,2.3504101291541014e-07,2.9262933481735902e-05
3.318744973210673e-07,6.10561414973467e-07,2.3556045983458317e-07,2.9391883769978352e-05
3.3181014973177163e-07,6.070376035481939e-07,2.3623532233454498e-07,2.9511857796597143e-05
3.3210790630798325e-07,6.033462812685957e-07,2.370490365411078e-07,2.9621784102088146e-05
3.327530759293457e-07,5.995317070338044e-07,2.3798815026817194e-07,2.97208744860439e-05
3.337267540674769e-07,5.956422182482631e-07,2.390418347130056e-07,2.9808619192201445e-05
3.350082065055845e-07,5.917267832002728e-07,2.401989504698348e-07,2.988470988924416e-05
3.365777240844752e-07,5.878344807874436e-07,2.4144628079509923e-07,2.994898155608417e-05
3.3841638217576605e-07,5.840124914309806e-07,2.427692168991216e-07,3.0001387426706767e-05
3.4050400380000173e-07,5.803013137230475e-07,2.441543581299093e-07,3.0041961522639892e-05
3.428198768517293e-07,5.767330065829156e-07,2.4559335034630253e-07,3.007072704495095e-05
3.4534649553202573e-07,5.733348163402933e-07,2.4708458070421764e-07,3.008759461791279e-05
3.480719386953632e-07,5.7013421202139e-07,2.486304829965714e-07,3.0092343574161687e-05
3.509879077557556e-07,5.671623196850752e-07,2.5023418965523164e-07,3.0084715046338707e-05
3.5408595097968343e-07,5.644549325626326e-07,2.5189805740972627e-07,3.0064580628716133e-05
3.573560161103041e-07,5.620504951733384e-07,2.5362199794337623e-07,3.0032142124970385e-05
3.6078683445078156e-07,5.599866811945625e-07,2.5540249850011396e-07,2.9988069697159765e-05
3.6436497159893546e-07,5.582990377130548e-07,2.5723598263942557e-07,2.9933458639059368e-05
3.680728574042332e-07,5.570204399546871e-07,2.591251701692193e-07,2.986960309802506e-05
3.718884872379008e-07,5.561779650009413e-07,2.610818398769375e-07,2.9797715296306926e-05
3.757868472242026e-07,5.557901484569835e-07,2.6312355279785534e-07,2.971873901235525e-05
3.797417386290096e-07,5.558684633119661e-07,2.652685738914045e-07,2.9633324495460066e-05
3.8372750896195385e-07,5.564208796554019e-07,2.6753211834674937e-07,2.9541897293244664e-05
3.877194030462605e-07,5.574534923242779e-07,2.699246742073817e-07,2.944471074075793e-05
3.9169205938227406e-07,5.589692112455122e-07,2.7245270070275717e-07,2.9341895819769844e-05
3.956181880967021e-07,5.609662558986152e-07,2.751202247126333e-07,2.9233632446884363e-05
3.9946886413056327e-07,5.634380701339542e-07,2.779293838340221e-07,2.912038793769229e-05
4.032146866115932e-07,5.663725531192301e-07,2.808798171126781e-07,2.9002968962724708e-05
4.06826498686196e-07,5.697515491354309e-07,2.83968215295276e-07,2.8882346497767475e-05
4.102760381295356e-07,5.735535422753058e-07,2.8718868510537467e-07,2.8759446333758724e-05
4.135382736972517e-07,5.77756173503782e-07,2.9053350643570465e-07,2.863503106151326e-05
4.165942332714533e-07,5.82334669337269e-07,2.939936081984247e-07,2.8509753367700842e-05
4.194313388649193e-07,5.872595084206032e-07,2.975581732374873e-07,2.838439834282032e-05
4.220426276912427e-07,5.924974947369986e-07,3.0121356132620497e-07,2.8260105716831208e-05
4.244274572664967e-07,5.98014653218974e-07,3.049428661531588e-07,2.813835289996951e-05
4.2659167956306024e-07,6.037764550375989e-07,3.087274305003707e-07,2.802076447050627e-05
4.2854514998156585e-07,6.097448569535578e-07,3.125501008726184e-07,2.790892146093139e-05
4.302984386240111e-07,6.158762923943181e-07,3.163975838844157e-07,2.780422503834369e-05
4.3186045646813824e-07,6.221223565525046e-07,3.202591742696596e-07,2.770779518398601e-05
4.3323668785334904e-07,6.28431206212927e-07,3.241233904684423e-07,2.7620380318775733e-05
4.3442854910166273e-07,6.347496553306139e-07,3.279763590335145e-07,2.7542287159018486e-05
4.3543551874210995e-07,6.410282645912989e-07,3.318021121774153e-07,2.747336869425888e-05
4.362606759818957e-07,6.472288323219899e-07,3.355830453395303e-07,2.741307564242e-05
4.3691649186521245e-07,6.533280545003595e-07,3.393013788403588e-07,2.7360531767603532e-05
4.374246331129814e-07,6.593128897505122e-07,3.42941733122795e-07,2.7314594973881547e-05
4.378091451646257e-07,6.651742218387795e-07,3.46491999517628e-07,2.727390010726916e-05
4.380903709336177e-07,6.709059067770558e-07,3.4994203464012926e-07,2.723689942354677e-05
4.382839098008434e-07,6.765051201722697e-07,3.5328325485900417e-07,2.7201909038526222e-05
4.3840240208358176e-07,6.819694947126593e-07,3.565096830954226e-07,2.716716605779361e-05
4.3845758103505857e-07,6.872932410271129e-07,3.596174722117203e-07,2.7130936947884657e-05
4.3846061951244116e-07,6.924656563394871e-07,3.6260265911195117e-07,2.709172012528272e-05
4.3842053448111716e-07,6.974743152793631e-07,3.6546024337258187e-07,2.704847724444677e-05
4.383432666475561e-07,7.0231125570483e-07,3.6818536379082424e-07,2.7000766373349576e-05
4.38232130466708e-07,7.069753814655833e-07,3.707743125644118e-07,2.6948754427465947e-05
4.3808831140988283e-07,7.114684376813306e-07,3.732236278439104e-07,2.6893179405488185e-05
4.3791159959609204e-07,7.157901786390627e-07,3.755279272966567e-07,2.683531964127665e-05
4.3770195434516286e-07,7.199367849957152e-07,3.776786439057296e-07,2.677701419254423e-05
4.37461383601284e-07,7.239024621511178e-07,3.796649702944326e-07,2.672075999983981e-05
4.3719482190527745e-07,7.276860974471019e-07,3.8147663215771e-07,2.6669842222871426e-05
4.3691053975368e-07,7.31300983025363e-07,3.8310613768595524e-07,2.6628398688786425e-05
4.3662125256709824e-07,7.347776990635634e-07,3.8454848145032187e-07,2.660133858854801e-05
4.3634363732263354e-07,7.38156337290871e-07,3.857996157138273e-07,2.6594142216500047e-05
4.3609677612986185e-07,7.414756606169258e-07,3.8685556949294684e-07,2.6612649068227885e-05
4.3590339191062326e-07,7.447657570634775e-07,3.8771290353203994e-07,2.6662884747801372e-05
4.3579059544455243e-07,7.480453300049655e-07,3.883701399455488e-07,2.675085918590821e-05
4.357865276513578e-07,7.513224385829335e-07,3.88828186311556e-07,2.6882208840056862e-05
4.359178013220776e-07,7.545959330038287e-07,3.8908953223207543e-07,2.706176113511456e-05
4.3621061282177173e-07,7.578563410497526e-07,3.891575011948654e-07,2.729344349273704e-05
4.36692522791609e-07,7.610870380398722e-07,3.89035278148429e-07,2.758075419288603e-05
4.373921972791209e-07,7.642662314679063e-07,3.887250825804334e-07,2.7927435539962262e-05
4.383370590090608e-07,7.673694147024641e-07,3.8822800103212047e-07,2.8337943351787653e-05
4.3955250442664003e-07,7.703705987040624e-07,3.875437375407787e-07,2.8817638849330176e-05
4.410634456926812e-07,7.732415800958647e-07,3.866707182932201e-07,2.9372785637082092e-05
4.4289278160049744e-07,7.759521154946161e-07,3.8560727179827405e-07,3.001047846825806e-05
4.450562825967884e-07,7.7847314814905e-07,3.8435285733528366e-07,3.073858600486537e-05
4.4755945733324596e-07,7.807802483390572e-07,3.8290817054080683e-07,3.156563164703117e-05
4.503983655482586e-07,7.828545762600485e-07,3.812745858524519e-07,3.250053734915394e-05
4.535632789337632e-07,7.846840787677927e-07,3.794536478710284e-07,3.355233308357404e-05
4.5704345308881654e-07,7.862673193571603e-07,3.774464731812353e-07,3.4729946260796186e-05
4.6082894016044646e-07,7.876150178947363e-07,3.752538098669919e-07,3.604202522052313e-05
4.649084291943821e-07,7.887438186813854e-07,3.7287791997635117e-07,3.7496748189478175e-05
