3.6317338531391897e-07,9.316733455142864e-07,8.98752773028722e-07,3.105760604107716e-05
3.6353477647781524e-07,9.255410739199198e-07,8.885838285195921e-07,3.128124520657513e-05
3.637139795843158e-07,9.19339336766677e-07,8.782239510149685e-07,3.147802859760122e-05
3.6371597706422256e-07,9.130768604302572e-07,8.676821006819133e-07,3.1647661926081936e-05
3.635519830004797e-07,9.067684241937487e-07,8.569653026894695e-07,3.178981826207473e-05
3.6323639588246133e-07,9.004302998130018e-07,8.460785713231147e-07,3.190416097445069e-05
3.627837890417025e-07,8.940775715795691e-07,8.35026953726714e-07,3.199034875250441e-05
3.6220723785789635e-07,8.877258165953979e-07,8.238174723005779e-07,3.2048070910532155e-05
3.6151793413465854e-07,8.813920894929888e-07,8.124580896477559e-07,3.207723650302864e-05
3.607259301336529e-07,8.750944019834654e-07,8.009556941615876e-07,3.2078262136846064e-05
3.5984107796323037e-07,8.688551997601291e-07,7.893165123043329e-07,3.205219202671167e-05
3.588732053497061e-07,8.627065850739912e-07,7.77548071321422e-07,3.200054782510918e-05
3.578316557102622e-07,8.566889857296156e-07,7.656593185466911e-07,3.1925070810554194e-05
3.5672565302329224e-07,8.508429102306805e-07,7.536590718667034e-07,3.182750891133105e-05
3.555655225324367e-07,8.452005962073859e-07,7.41556148946388e-07,3.1709557912144635e-05
3.543630742393698e-07,8.397831129367131e-07,7.293616621296752e-07,3.157305038552337e-05
3.5313193749325103e-07,8.346036640441709e-07,7.170919346459743e-07,3.142026045720361e-05
3.5188868833820884e-07,8.296719581582001e-07,7.047715696311491e-07,3.1254050434684955e-05
3.506530670315985e-07,8.249952205690633e-07,6.924344063694235e-07,3.1077814960594994e-05
3.4944682227845865e-07,8.205815863802985e-07,6.801196205588145e-07,3.08953572299796e-05
3.482921670139552e-07,8.164523023689066e-07,6.678652782610602e-07,3.071074848868089e-05
3.47210607068789e-07,8.126533829802273e-07,6.557046407207405e-07,3.0528155555399734e-05
3.462231411707033e-07,8.092528813716087e-07,6.436669895670583e-07,3.035164476271344e-05
3.453511663794399e-07,8.063269037711214e-07,6.317802458932323e-07,3.0185003274096082e-05
3.4461537182051437e-07,8.039485448781357e-07,6.200725979155783e-07,3.0031622469889477e-05
3.440325664247562e-07,8.021864215218177e-07,6.085722756076886e-07,2.989444588944115e-05
3.436135626153643e-07,8.011071775782894e-07,5.973061267845015e-07,2.9775934644280717e-05
3.4336341242075765e-07,8.007728026131806e-07,5.862997093304947e-07,2.9678019567894173e-05
3.43282459997447e-07,8.012321463018701e-07,5.755789596205723e-07,2.9602054612701702e-05
3.4336689953253624e-07,8.025138643775062e-07,5.651695499945472e-07,2.9548781115270466e-05
3.436093748742607e-07,8.046247093971012e-07,5.550950169721532e-07,2.9518338290006763e-05
3.440002738900762e-07,8.075509717756491e-07,5.453781840703422e-07,2.9510377837722414e-05
3.4452886427131147e-07,8.11260647301423e-07,5.360449783381168e-07,2.952424011559737e-05
3.4518452039401586e-07,8.157064654593162e-07,5.271259941606486e-07,2.955909052150013e-05
3.45959202691148e-07,8.208311334564292e-07,5.186536781366736e-07,2.961401458531396e-05
3.4684922105053594e-07,8.265784200058043e-07,5.106593436060783e-07,2.9688142433128803e-05
3.478540307292594e-07,8.329115374188969e-07,5.031758007702449e-07,2.978079727377111e-05
3.489737270052641e-07,8.398289343930451e-07,4.962446429333439e-07,2.9891577094453278e-05
3.502073136976659e-07,8.473648155523198e-07,4.899207967674305e-07,3.0020313083914965e-05
3.515512687652049e-07,8.555753929387607e-07,4.84266935520047e-07,3.016692641718177e-05
3.5299832337274315e-07,8.64522755795386e-07,4.793408168044064e-07,3.0331228317260414e-05
3.545374931129543e-07,8.742652335445526e-07,4.751883247974599e-07,3.0512717502949804e-05
3.5615492685232023e-07,8.848525038312506e-07,4.7184644610054673e-07,3.0710466907321524e-05
3.578346082487571e-07,8.963188056721497e-07,4.6934771699071724e-07,3.092314195502074e-05
3.5955875331379686e-07,9.0867623368513e-07,4.677196585858222e-07,3.1149063297281624e-05
3.6130821712644327e-07,9.219148596749644e-07,4.66980898530021e-07,3.138624665958174e-05
3.630632369986797e-07,9.360072972011904e-07,4.671390113766777e-07,3.163246962334284e-05
3.6480369421680607e-07,9.509123103343399e-07,4.6819376158214435e-07,3.188538923534413e-05
3.665087445050322e-07,9.665783862719214e-07,4.701448010595066e-07,3.2142624804024895e-05
3.6815716944035637e-07,9.829485874480185e-07,4.72997971755198e-07,3.2401731388583795e-05
3.697280652547065e-07,9.999649499782205e-07,4.767646440977312e-07,3.266011857629975e-05
3.71201356573882e-07,1.0175704991838142e-06,4.814543356097317e-07,3.2915024621880475e-05
3.7255983336565144e-07,1.035707465488687e-06,4.870672213630337e-07,3.316357218186187e-05
3.7379175284210906e-07,1.0543122970673366e-06,4.935928826321439e-07,3.3402872400860465e-05
3.748903285702342e-07,1.0733104470509425e-06,5.010142940808297e-07,3.3630177588349904e-05
3.758509583353831e-07,1.0926135510985625e-06,5.093110907156315e-07,3.3843049542336834e-05
3.766699228225876e-07,1.112119716500078e-06,5.184588343778687e-07,3.403942475653001e-05
3.773444070242288e-07,1.131716025623689e-06,5.284268593402047e-07,3.4217527622364976e-05
3.778720058247839e-07,1.1512821904356802e-06,5.391774607892184e-07,3.4375727813445534e-05
3.782499366760904e-07,1.1706941175970278e-06,5.506649356144257e-07,3.4512463284610854e-05
3.784749640975689e-07,1.1898263604337242e-06,5.628340147894151e-07,3.462625106901432e-05
3.7854419979567214e-07,1.2085538874005215e-06,5.756198830798022e-07,3.4715703051546405e-05
3.784562235306539e-07,1.226753642838764e-06,5.889503519051856e-07,3.4779497637612616e-05
3.782122062457982e-07,1.2443076025729641e-06,6.027494419481175e-07,3.48163819146664e-05
3.7781598200749615e-07,1.2611090667967829e-06,6.169411524780399e-07,3.4825333243819956e-05
3.772727624235933e-07,1.2770683551096187e-06,6.314515864122772e-07,3.480585979448925e-05
3.7658920786992395e-07,1.2921122103656505e-06,6.462095192885357e-07,3.475818582331438e-05
3.757754636557834e-07,1.3061780792944605e-06,6.611472704197202e-07,3.468315936355957e-05
3.748456889800762e-07,1.3192087019757325e-06,6.76202025007953e-07,3.4582018939078525e-05
3.738164780781593e-07,1.3311487288764502e-06,6.913152582103204e-07,3.445617637080314e-05
3.727060714878045e-07,1.3419437772616094e-06,7.064294897448615e-07,3.4307073466261315e-05
3.715342192176386e-07,1.351542721318885e-06,7.214863979718277e-07,3.4136225058830946e-05
3.703207761479335e-07,1.3598996333383295e-06,7.364291408887391e-07,3.394543576180752e-05
3.690842326162655e-07,1.3669727796030494e-06,7.512050236280026e-07,3.3736924234452836e-05
3.678418004724396e-07,1.3727237361482989e-06,7.65765416431438e-07,3.351322848701007e-05
3.6660940387196285e-07,1.3771180764383159e-06,7.800657877885838e-07,3.3277032567908304e-05
3.654001074014715e-07,1.380125464843235e-06,7.940675458118736e-07,3.303102956415496e-05
3.642225066757796e-07,1.3817195337576175e-06,8.077397249527672e-07,3.277783696419184e-05
3.630805711944943e-07,1.3818824179523544e-06,8.210587530545577e-07,3.251994071926177e-05
3.619750179050118e-07,1.380615730504187e-06,8.340064221170629e-07,3.2259631620332755e-05
3.60905115688384e-07,1.3779507426500728e-06,8.465707494774827e-07,3.199895106620361e-05
3.598691429023561e-07,1.373950184958109e-06,8.58753283040745e-07,3.1739690910748605e-05
3.588640636214042e-07,1.36870057099991e-06,8.705757940205768e-07,3.14834146993407e-05
3.578864831680931e-07,1.3622982704848422e-06,8.820771822665035e-07,3.123142704799641e-05
3.569339004997921e-07,1.3548394516826958e-06,8.933024178994143e-07,3.0984694735546056e-05
3.560039268401381e-07,1.346423563976564e-06,9.042916664837342e-07,3.074378535924397e-05
3.5509261944120534e-07,1.3371643501654706e-06,9.150734305197569e-07,3.0508870903753248e-05
3.541945100497312e-07,1.3271953878868554e-06,9.256618179621679e-07,3.0279810661680883e-05
3.533040451632333e-07,1.3166665926873215e-06,9.36058093134708e-07,3.005629747198141e-05
3.5241651458997886e-07,1.305733946811327e-06,9.462552419069963e-07,2.9838010543636322e-05
3.5152794809536717e-07,1.2945455653974483e-06,9.562419163117448e-07,2.9624719401237565e-05
3.5063507212308785e-07,1.2832304221657407e-06,9.660029688795488e-07,2.9416323556099957e-05
3.4973581642859626e-07,1.2718950689727572e-06,9.75518186911384e-07,2.9212830615853334e-05
3.488289999493068e-07,1.2606273220873482e-06,9.84762235377086e-07,2.9014291275257752e-05
3.479125049963915e-07,1.2495006972834587e-06,9.937050581882955e-07,2.8820716803121062e-05
3.469817380951674e-07,1.238574227448935e-06,1.0023109326576694e-06,2.8631984692688317e-05
3.460300543275372e-07,1.2278898733053483e-06,1.010537685355184e-06,2.844776813209364e-05
3.450503113523484e-07,1.2174738558220841e-06,1.018337561678129e-06,2.826757411246357e-05
3.4403577255447657e-07,1.2073428027476822e-06,1.025658623076487e-06,2.8090909149267687e-05
3.429805289235064e-07,1.1975094255735814e-06,1.0324464413301458e-06,2.791745731756277e-05
3.418803008620698e-07,1.1879841281682126e-06,1.0386467493159869e-06,2.774714669628561e-05
3.4073280510630604e-07,1.1787766727281442e-06,1.0442078489021657e-06,2.758011336633648e-05
3.395368216730433e-07,1.1699018829244048e-06,1.049081351220842e-06,2.7416648092058145e-05
3.382905501690445e-07,1.1613822430299505e-06,1.053222245727224e-06,2.7257167174956505e-05
3.3699052929280803e-07,1.1532406340352982e-06,1.056589977265874e-06,2.7102183226088835e-05
3.356319143701714e-07,1.145490325241022e-06,1.0591493228792485e-06,2.695222072053974e-05
3.342100100930083e-07,1.1381305591471713e-06,1.0608697435893542e-06,2.680769772086249e-05
3.327218513635494e-07,1.1311471783802715e-06,1.0617261798277417e-06,2.666890989557557e-05
3.311664075344784e-07,1.1245161917861135e-06,1.0617032332300987e-06,2.653616132282016e-05
3.295439218683231e-07,1.1182084681040035e-06,1.0607981773836135e-06,2.6409908588684562e-05
3.278557526383386e-07,1.1121945019750901e-06,1.0590194818581689e-06,2.6290817461846336e-05
3.2610520396414517e-07,1.10645105258054e-06,1.0563839888658687e-06,2.617974054857009e-05
3.242990614796897e-07,1.100967838723432e-06,1.0529145569825682e-06,2.607764065449037e-05
3.22448436828679e-07,1.0957490215378695e-06,1.0486380759040645e-06,2.598547713232778e-05
3.205678257932227e-07,1.09080825145316e-06,1.0435866626193864e-06,2.5904060731013173e-05
3.1867278921617677e-07,1.0861601311867364e-06,1.0378015476518112e-06,2.583389264407705e-05
3.167781832030765e-07,1.0818130923549583e-06,1.0313326824401649e-06,2.5775056019763087e-05
3.1489875459584906e-07,1.0777667071617229e-06,1.0242319622517795e-06,2.572721645480252e-05
3.130502042223199e-07,1.074010629659437e-06,1.016547810976515e-06,2.5689695276128406e-05
3.112479804475303e-07,1.0705232153574864e-06,1.0083255219586106e-06,2.5661558432224623e-05
3.095052685145061e-07,1.0672718023431624e-06,9.996085557966423e-07,2.564177468968579e-05
3.078321896340095e-07,1.0642143661707143e-06,9.90437957200745e-07,2.562950244034195e-05
3.0623541839060487e-07,1.0613008388024879e-06,9.80852106235939e-07,2.562429829237989e-05
3.047179766083964e-07,1.0584747325232348e-06,9.708878873918212e-07,2.5626014587680342e-05
3.032800259559352e-07,1.0556753675168117e-06,9.605838088573914e-07,2.563458637547797e-05
3.019201826347485e-07,1.0528400781584424e-06,9.499838555231628e-07,2.5649972262437275e-05
3.006368901755741e-07,1.0499069903651348e-06,9.391375770165131e-07,2.5672153060344338e-05
2.994303252370779e-07,1.0468173379264791e-06,9.280966611957428e-07,2.5701073288281148e-05
2.983046686888843e-07,1.0435148569369774e-06,9.169122959676485e-07,2.5736563112330856e-05
2.972691965439751e-07,1.0399438296734008e-06,9.056333280587858e-07,2.577826755763816e-05
2.963363539049544e-07,1.03604987475199e-06,8.94305118616148e-07,2.582560083171917e-05
2.955175591605661e-07,1.0317849007318103e-06,8.82971744630407e-07,2.5877745702816905e-05
2.9481986446786016e-07,1.0271121080028104e-06,8.716798494971971e-07,2.593369004741717e-05
2.942450978550736e-07,1.022004960077193e-06,8.60479370418144e-07,2.5992272033240546e-05
2.937907958305847e-07,1.0164418759160954e-06,8.49420750450601e-07,2.605220572617699e-05
2.9345171101453126e-07,1.0104031376505263e-06,8.385509222789024e-07,2.6112088490281227e-05
2.932215205156116e-07,1.0038712738069004e-06,8.279091856715725e-07,2.6170424280168522e-05
2.930944027710006e-07,9.96833402166003e-07,8.175248720871509e-07,2.6225696404100514e-05
2.930650854464277e-07,9.892843062888885e-07,8.074186955485268e-07,2.6276477752621203e-05
2.9312745625410143e-07,9.812275849330478e-07,7.976064716348814e-07,2.632151441152576e-05
2.9327371827310054e-07,9.726736704498738e-07,7.881017806157508e-07,2.6359730676309408e-05
2.934948979859756e-07,9.636388303592966e-07,7.789161498386687e-07,2.6390167088324703e-05
2.937824855224555e-07,9.541483094958113e-07,7.700582322133026e-07,2.6411900629208986e-05
2.941300882703983e-07,9.442376168248256e-07,7.615333393764203e-07,2.642398920759238e-05
2.945330164892664e-07,9.339473428931776e-07,7.533437048007166e-07,2.6425458331263454e-05
2.94986152567482e-07,9.233184549851564e-07,7.454893056471445e-07,2.6415319560593248e-05
2.954833484654936e-07,9.123935187107937e-07,7.379694643067356e-07,2.63925888297838e-05
2.9602022677774375e-07,9.012206063668787e-07,7.307856874715865e-07,2.6356294848583906e-05
2.965974430678875e-07,8.898563313947493e-07,7.239443113180406e-07,2.630551161913914e-05
2.9721975089900853e-07,8.78364850765533e-07,7.174575517619023e-07,2.623942590696578e-05
2.9789150617450005e-07,8.668113517624563e-07,7.113422383744965e-07,2.615740299994195e-05
2.9861318806280826e-07,8.552552686694882e-07,7.056155037651707e-07,2.6059026296746785e-05
2.993808758694808e-07,8.437479047461387e-07,7.002896892644331e-07,2.594409856359386e-05
3.0018796809206404e-07,8.323322643099416e-07,6.953696202283542e-07,2.5812591292847143e-05
3.0102794867924235e-07,8.210422795786705e-07,6.908532880989235e-07,2.5664568124261404e-05
3.018960772386979e-07,8.09902413536798e-07,6.867351866059003e-07,2.550014296757687e-05
3.0278934234503656e-07,7.98929738681449e-07,6.830088794310977e-07,2.531951893735512e-05
3.037063533575047e-07,7.881376877056016e-07,6.796666794110976e-07,2.5123099288749484e-05
3.046473054627905e-07,7.775386494037355e-07,6.76697921948762e-07,2.4911570916753508e-05
3.056130126356403e-07,7.67145269814293e-07,6.740869216075643e-07,2.468585649418847e-05
3.066035860257965e-07,7.569713499535305e-07,6.718115511025874e-07,2.444699183771979e-05
3.076180470002661e-07,7.470317323349661e-07,6.698435358468123e-07,2.419606251634394e-05
3.0865465399392793e-07,7.373429536367505e-07,6.681492505458455e-07,2.3934193247904622e-05
3.0971043311161233e-07,7.279257028999743e-07,6.6668991523777e-07,2.366250357308052e-05
3.107803560619277e-07,7.188047643499136e-07,6.654226522905921e-07,2.338204036338403e-05
3.1185803137382586e-07,7.100048071961145e-07,6.643032690602583e-07,2.3093770306803296e-05
3.129370804863047e-07,7.015466734759148e-07,6.632888941299287e-07,2.279868655601246e-05
3.140112053355993e-07,6.934476733505711e-07,6.623387256125891e-07,2.2498003030505843e-05
3.1507359459601266e-07,6.857241247788187e-07,6.614138746806196e-07,2.21933102863602e-05
3.161171423867061e-07,6.783912834965822e-07,6.604774847137934e-07,2.188656009700997e-05
3.171348324706467e-07,6.714598079003994e-07,6.594948002008943e-07,2.1579878616398398e-05
3.1811903331549037e-07,6.649342521502953e-07,6.584350564768211e-07,2.127531935429347e-05
3.190605847644129e-07,6.588150959344987e-07,6.572775560370351e-07,2.097468082867387e-05
3.1994915051276817e-07,6.530994229399029e-07,6.560177174799013e-07,2.067947010049829e-05
3.2077426888017285e-07,6.477797866703871e-07,6.546660860894958e-07,2.0390978394398793e-05
3.215259940405065e-07,6.428442777524429e-07,6.532410245025353e-07,2.0110371928914325e-05
3.22195243213532e-07,6.382776115044607e-07,6.517628585883013e-07,1.983880952629612e-05
3.227745659855974e-07,6.34063781552196e-07,6.502538197529999e-07,1.9577644239678527e-05
3.232592583721445e-07,6.301919404514693e-07,6.48741206680419e-07,1.932859379851651e-05
3.236473182737273e-07,6.266615018187731e-07,6.472595249942954e-07,1.9093708441999093e-05
3.239380149406972e-07,6.234798233524325e-07,6.458484746026368e-07,1.887516303773216e-05
3.2413116058312337e-07,6.20653819591384e-07,6.445469289076531e-07,1.867500629955781e-05
3.242278329273817e-07,6.181832402975231e-07,6.433870011159804e-07,1.8494985519153114e-05
3.242316617517411e-07,6.160591414961359e-07,6.42391347981276e-07,1.8336623612348527e-05
3.241496517120022e-07,6.142654592218814e-07,6.415738472497536e-07,1.8201595991889762e-05
3.23991051133324e-07,6.127815445118915e-07,6.409422121078112e-07,1.8092098650496845e-05
3.237648014446237e-07,6.115845944428356e-07,6.404997856167589e-07,1.8010908921279003e-05
3.234784264053781e-07,6.106500488478762e-07,6.402449066052223e-07,1.79612268815403e-05
3.231388712151701e-07,6.09950066241635e-07,6.401699220701865e-07,1.794650451240636e-05
3.227536579410275e-07,6.094544584025161e-07,6.402617720998686e-07,1.7970306342284848e-05
3.2233211604564555e-07,6.091360857619247e-07,6.405028436194666e-07,1.803617712394467e-05
3.218857776726069e-07,6.089762089652904e-07,6.408710140623942e-07,1.8147517239368968e-05
3.2142643046656365e-07,6.08964780648942e-07,6.413399160540807e-07,1.8307471788195973e-05
3.209639450650881e-07,6.090957110073759e-07,6.418803362973329e-07,1.851882451300964e-05
3.2050609687242686e-07,6.093609281351987e-07,6.42461755145001e-07,1.8783880155112e-05
3.200590410266763e-07,6.097473904550615e-07,6.430527138668857e-07,1.910434273280586e-05
3.196280254567277e-07,6.102388311891455e-07,6.436205527413933e-07,1.9481218789210807e-05
3.192191635805228e-07,6.108209056302728e-07,6.44132020789168e-07,1.991474959116035e-05
3.188406885582095e-07,6.114879777249469e-07,6.44555221368004e-07,2.040434888414783e-05
3.185024334976341e-07,6.122477571309507e-07,6.448614802658619e-07,2.094855782538599e-05
3.1821464356186485e-07,6.131177362037488e-07,6.450276887733786e-07,2.154508939104867e-05
3.179864519295773e-07,6.141160266542926e-07,6.450414743928041e-07,2.219100561108845e-05
3.178244669668966e-07,6.152568445553224e-07,6.44905649970036e-07,2.288295548940297e-05
3.17733559002022e-07,6.165532038865093e-07,6.446360439654514e-07,2.3617379022415197e-05
3.177189843429629e-07,6.180216696680488e-07,6.442546097144043e-07,2.4390662533207846e-05
3.177867437221304e-07,6.196843161097468e-07,6.437859259262498e-07,2.519923614032388e-05
3.179427058723153e-07,6.215648330622469e-07,6.432598116372291e-07,2.6039584363383067e-05
3.181920037681607e-07,6.23682293132117e-07,6.427126892948925e-07,2.6908204412097746e-05
3.185382372905585e-07,6.260492223576464e-07,6.421824383856149e-07,2.7801578778797713e-05
3.189826356091241e-07,6.286718664954808e-07,6.417008889148376e-07,2.8716158559361286e-05
3.1952361519425073e-07,6.315484775474014e-07,6.412898137140136e-07,2.964830942886002e-05
3.2015701519429565e-07,6.346689884379643e-07,6.409624013883391e-07,3.0594236862839535e-05
3.208768753290361e-07,6.380187500917525e-07,6.407275470955897e-07,3.154995825978173e-05
3.2167536648196485e-07,6.415837995139652e-07,6.4059170812207e-07,3.251133154003047e-05
3.2254188127163894e-07,6.453541673531114e-07,6.405568444453925e-07,3.347408984009796e-05
3.2346274819693524e-07,6.493227404961639e-07,6.406182783830785e-07,3.4433845483021865e-05
3.244216975382996e-07,6.53480941485299e-07,6.407656138644669e-07,3.538606961388039e-05
3.254006249648243e-07,6.5781640006015e-07,6.409871060860879e-07,3.632609903535285e-05
3.2638131375397885e-07,6.623148047384457e-07,6.412758278511872e-07,3.724921296712774e-05
3.273488079145063e-07,6.669622479542642e-07,6.416333932702058e-07,3.815074248380254e-05
3.282945079130173e-07,6.71745145108607e-07,6.420685692003579e-07,3.902616182146377e-05
3.2921633152448424e-07,6.766481100238407e-07,6.425924366984062e-07,3.9871182277534536e-05
3.3011686399656226e-07,6.816506058935794e-07,6.432136032576751e-07,4.0681874706862516e-05
3.3100139757057534e-07,6.867253617795909e-07,6.439360081687082e-07,4.1454779530986026e-05
3.318756919249576e-07,6.918417762969975e-07,6.4475898822425e-07,4.218692263991019e-05
3.3274387987221946e-07,6.969711325622179e-07,6.456780787912618e-07,4.2875703964612106e-05
3.3360761828520216e-07,7.020876667594839e-07,6.466861800168697e-07,4.351873710967685e-05
3.3446683272241714e-07,7.071658267018018e-07,6.477749012475387e-07,4.411375871281711e-05
3.353222877831469e-07,7.121794767689673e-07,6.489350953727636e-07,4.46586474012007e-05
3.3617827542042785e-07,7.171055396901568e-07,6.501556616570346e-07,4.51514973052945e-05
3.370428208013619e-07,7.219272842105948e-07,6.514216101059675e-07,4.559067572782845e-05
3.37925959054042e-07,7.266323482570149e-07,6.527144579053911e-07,4.5974828096564753e-05
3.388376278298468e-07,7.312084833158005e-07,6.540159842303479e-07,4.630285831061386e-05
3.397858112922472e-07,7.356424398241446e-07,6.553112921027248e-07,4.657400051599261e-05
3.40775839292616e-07,7.399217160312303e-07,6.565874221590895e-07,4.678797393678144e-05
3.418102938718534e-07,7.440359249335105e-07,6.578301036327938e-07,4.6945005230591444e-05
3.4288846369064415e-07,7.479756066537579e-07,6.59023523484188e-07,4.704565857865354e-05
3.440065668959528e-07,7.517295725229055e-07,6.60152652714595e-07,4.709064115385496e-05
3.451593824826576e-07,7.552848804488709e-07,6.612047460043261e-07,4.7080712171525e-05
3.4634122866557194e-07,7.586289887512175e-07,6.621699194238982e-07,4.70167863347999e-05
3.475457272342904e-07,7.617494271667763e-07,6.630412485523476e-07,4.6900249457044175e-05
3.487664087836893e-07,7.646322481637605e-07,6.638140754731337e-07,4.673324942168986e-05
3.499981582575745e-07,7.672651784253818e-07,6.644850540009748e-07,4.651869931153385e-05
3.5123755647038534e-07,7.69646568464297e-07,6.65050460247075e-07,4.626005551859927e-05
3.5248192901280105e-07,7.717943016924378e-07,6.655039251087626e-07,4.596108518623523e-05
3.5372819231746455e-07,7.73747902935461e-07,6.658351938396826e-07,4.562569486194288e-05
3.549721513391835e-07,7.755618567026769e-07,6.660311239314093e-07,4.525780358366525e-05
3.562082397791903e-07,7.772941742500908e-07,6.660791073036035e-07,4.486125383925693e-05
3.574291440590328e-07,7.789992206012277e-07,6.659712076735929e-07,4.44397443494558e-05
3.586255125767972e-07,7.807293171008909e-07,6.657067681192911e-07,4.399676525457774e-05
3.5978714590809453e-07,7.825385863379266e-07,6.652916748142882e-07,4.353553334964481e-05
3.609055112980992e-07,7.844820978972617e-07,6.647341423673483e-07,4.305891941426043e-05
3.619751230319422e-07,7.866100226723681e-07,6.640409061106329e-07,4.256937336313504e-05
3.629924203164896e-07,7.889614867819977e-07,6.632166088825848e-07,4.2068897082946004e-05
3.639532884519794e-07,7.915643456329639e-07,6.622636083181993e-07,4.155909225944181e-05
3.6485128947037365e-07,7.94439142199333e-07,6.611803358561479e-07,4.10412599417124e-05
3.6567767120190407e-07,7.975996942375284e-07,6.59960757951839e-07,4.051654430874085e-05
3.664223978071675e-07,8.010498745446926e-07,6.5859589026424e-07,3.998610642597549e-05
3.670754581775841e-07,8.047819439142848e-07,6.57075176813851e-07,3.945124513044577e-05
3.6762794342563455e-07,8.087808000929646e-07,6.553871319625469e-07,3.891340787291977e-05
3.680715862795428e-07,8.130354896448877e-07,6.535208408707757e-07,3.837415419864438e-05
3.683975011918106e-07,8.175517842839625e-07,6.514684033025508e-07,3.783514011019482e-05
3.6859638271212004e-07,8.223561411340918e-07,6.49226040369948e-07,3.729810379856399e-05
3.686595375821414e-07,8.274895436502694e-07,6.467935403828922e-07,3.6764834338273826e-05
3.685794137768142e-07,8.329962272056642e-07,6.44174591953084e-07,3.623713173203548e-05
3.683500681821553e-07,8.389117057573177e-07,6.413786003130799e-07,3.5716718488825105e-05
3.6796707206126796e-07,8.452548861659411e-07,6.384212224352835e-07,3.5205091464739116e-05
3.674263282780173e-07,8.520272645012429e-07,6.353210581780565e-07,3.470343618430542e-05
3.667238974964129e-07,8.592155697995289e-07,6.320940135945463e-07,3.421267756585488e-05
3.6585884917637315e-07,8.667929893678431e-07,6.287497505124646e-07,3.3733553768883e-05
3.6483649321374666e-07,8.747192822157865e-07,6.252924584853346e-07,3.326662347921398e-05
3.6366752675561226e-07,8.829415060374736e-07,6.217249689197643e-07,3.281225845142059e-05
3.623643507265756e-07,8.913958488505821e-07,6.180534670253897e-07,3.2370677584089745e-05
3.6093886422919384e-07,9.000116769684046e-07,6.142903353275691e-07,3.194198106191322e-05
3.5940237860858544e-07,9.087165628950704e-07,6.104547121612354e-07,3.152610909723088e-05
3.5776598766278037e-07,9.174378517996916e-07,6.065700943344336e-07,3.112276134522986e-05
3.560401677275475e-07,9.26100700452355e-07,6.026591928326771e-07,3.073137830050026e-05
3.542337532416385e-07,9.346281686819449e-07,5.987396865696011e-07,3.0351190216310986e-05
3.523533504834231e-07,9.429450880255327e-07,5.948237598513956e-07,2.9981301335550892e-05
3.504036651057252e-07,9.509808005427751e-07,5.909210656465297e-07,2.962083089580569e-05
3.4838904129846484e-07,9.586685913629986e-07,5.870418054500421e-07,2.926906852292812e-05
3.463163175248361e-07,9.659465031689506e-07,5.831963394832713e-07,2.8925510667663543e-05
3.441971832804582e-07,9.727617348139029e-07,5.793926965993856e-07,2.8589753903134057e-05
3.420472340946795e-07,9.790740115055577e-07,5.756356464023073e-07,2.8261380377338337e-05
3.398822546430017e-07,9.848554100812024e-07,5.719284934494925e-07,2.7939932652570887e-05
3.377159407542316e-07,9.900880649979289e-07,5.682756176882987e-07,2.7624945959366633e-05
3.355618417561653e-07,9.947602215258298e-07,5.646824154361968e-07,2.731598210477335e-05
3.334368953828649e-07,9.988635409606005e-07,5.611544411845294e-07,2.701263841088212e-05
3.313610346617223e-07,1.0023936453161555e-06,5.577001970251201e-07,2.6714549597143165e-05
3.2935306346698304e-07,1.0053487593268928e-06,5.543349787108984e-07,2.6421489803316422e-05
3.274283737778317e-07,1.0077247657061723e-06,5.510806558590589e-07,2.6133583877772962e-05
3.255991252975359e-07,1.0095124535063101e-06,5.479615892157412e-07,2.5851404793307777e-05
3.23873794206794e-07,1.0106993303084574e-06,5.449996652046441e-07,2.5575840098295e-05
3.222568833818277e-07,1.011273205899034e-06,5.422113350700616e-07,2.530788006957733e-05
3.207507210519256e-07,1.011225322567902e-06,5.396080213426999e-07,2.504845612315108e-05
3.193576859538732e-07,1.0105520239650213e-06,5.371984305505267e-07,2.4798374925713314e-05
3.18080410312465e-07,1.0092543770849055e-06,5.349912364317921e-07,2.455843587035729e-05
3.1692106971418337e-07,1.0073370129461435e-06,5.329978024900084e-07,2.4329669356720225e-05
3.1588154807486093e-07,1.0048080198284195e-06,5.312341209559551e-07,2.411343762504216e-05
3.1496346837972825e-07,1.0016797756324603e-06,5.297203227448972e-07,2.391131819263629e-05
3.141677158913605e-07,9.979689020717198e-07,5.284774714047414e-07,2.372492476535068e-05
3.1349453369961127e-07,9.936942916474864e-07,5.275247342765402e-07,2.3555767220702812e-05
3.1294379003710087e-07,9.888750591809894e-07,5.26878435286431e-07,2.3405147634280757e-05
3.125148265450089e-07,9.835298003649788e-07,5.265507289978074e-07,2.3274092794033373e-05
3.1220697161523644e-07,9.776753549604955e-07,5.26548206363941e-07,2.316334126902253e-05
3.12021536006576e-07,9.713246738557912e-07,5.268721541329152e-07,2.307337326656851e-05
3.119633239438199e-07,9.644867313966576e-07,5.275188274956161e-07,2.300444381567243e-05
3.120390080525093e-07,9.571702377435647e-07,5.28478885761326e-07,2.2956590446312328e-05
3.1225399956809844e-07,9.493883427805081e-07,5.297388037001138e-07,2.292961199556515e-05
3.126120212468569e-07,9.411602307572336e-07,5.312851613035915e-07,2.292302855381745e-05
3.131177012794245e-07,9.325107493015192e-07,5.331075351492792e-07,2.2936032905918908e-05
3.1377845910828016e-07,9.234703515783043e-07,5.351965513574471e-07,2.2967469704057694e-05
3.146031392633039e-07,9.140722930131584e-07,5.375399978911109e-07,2.3015893746950114e-05
3.1559842433590176e-07,9.043473436584801e-07,5.401218049392373e-07,2.30797001003337e-05
3.1676571425182947e-07,8.94322929563751e-07,5.429248075281941e-07,2.315726682330327e-05
3.1810013785667837e-07,8.840279936026188e-07,5.459337124716911e-07,2.3247076434928783e-05
3.1959133341540125e-07,8.734967482770504e-07,5.491339840318099e-07,2.334781252096201e-05
3.2122474107637617e-07,8.627673101804098e-07,5.525079673224041e-07,2.3458413413791893e-05
3.2298275829019745e-07,8.518775394879072e-07,5.560324341712306e-07,2.357805599137813e-05
3.248462364370509e-07,8.40860998367001e-07,5.596781971865781e-07,2.3706078677369124e-05
3.267966473310153e-07,8.297448789456654e-07,5.634110463723721e-07,2.38418883906924e-05
3.288175443497709e-07,8.185517648991062e-07,5.671936909041114e-07,2.398486496809292e-05
3.308941345468403e-07,8.073052253646629e-07,5.709880301342898e-07,2.4134256967302027e-05
3.330119186278129e-07,7.960366591244425e-07,5.747571177257968e-07,2.428913318065929e-05
3.351559790138711e-07,7.8478984670158e-07,5.784659870215771e-07,2.444842714944156e-05
3.373112829243753e-07,7.736201864485435e-07,5.820811629724322e-07,2.461098464591925e-05
3.3946333244765396e-07,7.625886580451874e-07,5.855702434257918e-07,2.4775562659307573e-05
3.4159853579457267e-07,7.517543233288208e-07,5.889022615338971e-07,2.49408326773761e-05
3.43704057754152e-07,7.411685785909506e-07,5.920492205967577e-07,2.510541805320332e-05
3.4576777038136437e-07,7.308722985278249e-07,5.949894877143324e-07,2.5267928308241685e-05
3.477786599376745e-07,7.20896476371126e-07,5.977097578316303e-07,2.542694131879803e-05
3.497268171627653e-07,7.112643312507667e-07,6.002022298091621e-07,2.5580952671970746e-05
3.516032278928097e-07,7.019916425408555e-07,6.024599413072286e-07,2.5728362701893915e-05
3.533995923961515e-07,6.930857496543989e-07,6.044742039634115e-07,2.5867525778149122e-05
3.551072581242236e-07,6.845453945553377e-07,6.062341706587144e-07,2.5996848795664725e-05
3.567162738206551e-07,6.763616854597619e-07,6.077271886451446e-07,2.6114952197445706e-05
3.582157227580289e-07,6.685195295095066e-07,6.089409892538632e-07,2.6220864855498675e-05
3.5959434720530845e-07,6.609999552669993e-07,6.098700051006713e-07,2.631412049530075e-05
3.60841334615668e-07,6.537844881873479e-07,6.105231303716094e-07,2.6394664912899806e-05
3.6194771001915204e-07,6.468598206593584e-07,6.109256765366071e-07,2.6462631972212187e-05
3.629072386789576e-07,6.40218748380139e-07,6.111135072297074e-07,2.651812745733261e-05
3.637159444882429e-07,6.33856964056412e-07,6.111259025289491e-07,2.6561137480560826e-05
3.6437075880876296e-07,6.277689232992517e-07,6.11004548552084e-07,2.659156217124373e-05
3.648685149691688e-07,6.2194547136922e-07,6.107981541115286e-07,2.6609277206493537e-05
3.652059651671657e-07,6.163740108968014e-07,6.105642680775219e-07,2.6614168185884053e-05
3.6538059381629e-07,6.110397584069178e-07,6.103644669430397e-07,2.6606209451034146e-05
3.653916763902739e-07,6.059265033230303e-07,6.102590031251626e-07,2.6585639500203508e-05
3.6524054313034526e-07,6.010174232333223e-07,6.10304511341991e-07,2.655307949401648e-05
3.649304940538021e-07,5.962958114354148e-07,6.105519181504064e-07,2.650942191084332e-05
3.6446751490289606e-07,5.917451121843689e-07,6.110443066270092e-07,2.645556660729548e-05
3.638599073783485e-07,5.873490529475196e-07,6.118163945588975e-07,2.639222553530505e-05
3.631159308226552e-07,5.830911910308424e-07,6.128942785997448e-07,2.631997187235549e-05
3.6224203240348283e-07,5.789545591987207e-07,6.142953201999201e-07,2.623957426375511e-05
3.6124309782143395e-07,5.749249071717861e-07,6.160305513063694e-07,2.6152394124841127e-05
3.601239057151928e-07,5.709948058991315e-07,6.181089639973241e-07,2.6060504427894424e-05
3.5889012313615274e-07,5.671620712131501e-07,6.20540065554196e-07,2.596647749663046e-05
3.5754797839321535e-07,5.634246609828077e-07,6.233329729801912e-07,2.5873073817999406e-05
3.56103207102594e-07,5.597781906836003e-07,6.264935033486268e-07,2.5782995702376417e-05
3.545599585485206e-07,5.562158301812575e-07,6.300216176623845e-07,2.5698707153682525e-05
3.529208387675611e-07,5.527284205383826e-07,6.339112974997629e-07,2.5622296601439206e-05
3.5118891267437966e-07,5.493051664271599e-07,6.381531362211785e-07,2.5555400695333865e-05
3.493699248635113e-07,5.459353503749258e-07,6.427364844799978e-07,2.5499199652206054e-05
3.474728610438038e-07,5.426115900699178e-07,6.47648883212655e-07,2.5454451756215092e-05
3.455089814770408e-07,5.393327647512622e-07,6.528753017646439e-07,2.5421514662211292e-05
3.434899794548159e-07,5.361031952182653e-07,6.583997928947209e-07,2.540033805351525e-05
3.414266722898872e-07,5.329301715364173e-07,6.642071806124739e-07,2.539048703568409e-05
3.393289376611689e-07,5.298229140681328e-07,6.702809699710838e-07,2.5391248819715047e-05
3.37205410054122e-07,5.267914838475214e-07,6.765989286042513e-07,2.540178419032308e-05
3.350628264473629e-07,5.238455698670809e-07,6.831313127125561e-07,2.542125609934492e-05
3.329064794585581e-07,5.209960841483553e-07,6.89843265623287e-07,2.5448911857390225e-05
3.307417680402352e-07,5.182591167475767e-07,6.966987302559258e-07,2.548411362123484e-05
3.285754850803151e-07,5.156571204509822e-07,7.036630033757028e-07,2.552631625981618e-05
3.264153314682313e-07,5.1321604351485e-07,7.107025471512149e-07,2.557503342035627e-05
3.242681753137118e-07,5.109635948167242e-07,7.177826516018623e-07,2.5629835950899026e-05
3.221397146552335e-07,5.089303797441137e-07,7.248654484297707e-07,2.569036041996036e-05
3.2003617323222545e-07,5.071499913312437e-07,7.319093361431394e-07,2.5756283481686105e-05
3.1796612240870573e-07,5.056559076984518e-07,7.388690191388238e-07,2.5827265210820527e-05
3.159409405149623e-07,5.044774279519556e-07,7.456970013169616e-07,2.590287771814764e-05
3.1397401278961665e-07,5.036389171460094e-07,7.523472181571227e-07,2.5982533222812838e-05
3.120804413904725e-07,5.031624710973209e-07,7.587788084096303e-07,2.6065480844585888e-05
3.102772112366469e-07,5.030693835865292e-07,7.649571192870749e-07,2.615089616227572e-05
3.0858124149100745e-07,5.03378947312733e-07,7.708509429740267e-07,2.623795315822058e-05
3.0700618444284764e-07,5.041059026400064e-07,7.764298675173608e-07,2.632581522879096e-05
3.0556166560948896e-07,5.052579165556146e-07,7.816665097772289e-07,2.6413606994298746e-05
3.042559612754705e-07,5.068366407844449e-07,7.865421690311905e-07,2.6500416147528496e-05
3.030993283907212e-07,5.088430819335628e-07,7.910510717103526e-07,2.658529339411701e-05
3.021049355866567e-07,5.112816989616668e-07,7.951997015764508e-07,2.6667203789934852e-05
3.012885986298914e-07,5.141593918291553e-07,7.990013384779722e-07,2.6744970051777152e-05
3.0066898255702747e-07,5.174825530182861e-07,8.024707648202655e-07,2.681727878506497e-05
3.0026688535881925e-07,5.21257558539969e-07,8.056221454613309e-07,2.688275150569124e-05
3.0010424825747827e-07,5.254950904934824e-07,8.084681178314323e-07,2.69400749286343e-05
3.0020406684431644e-07,5.30212147778357e-07,8.110184771977126e-07,2.6988184334340835e-05
3.0058922476474e-07,5.354274536470624e-07,8.132789519663754e-07,2.702640737763645e-05
3.012795472222307e-07,5.411537255821622e-07,8.152512782247486e-07,2.705446343703328e-05
3.022888037068112e-07,5.473925794785383e-07,8.169343526731909e-07,2.7072334347197492e-05
3.036227499206036e-07,5.541341866660808e-07,8.183253387758673e-07,2.708008919018952e-05
3.05279003303837e-07,5.613586594245537e-07,8.194216516293995e-07,2.7077726892795326e-05
3.0724975241273565e-07,5.690369702493979e-07,8.202251453425801e-07,2.706510558787645e-05
3.095261632547113e-07,5.771350271994921e-07,8.207469491454829e-07,2.7041977720098372e-05
3.1210113888715785e-07,5.856206417614128e-07,8.210096057683589e-07,2.7008048943905616e-05
3.1496917922020824e-07,5.944662952884592e-07,8.210449539554011e-07,2.6963005558340052e-05
3.18125112537748e-07,6.036457742873953e-07,8.208888511644924e-07,2.690657526887408e-05
3.215624280725649e-07,6.131293226942222e-07,8.205747102074141e-07,2.6838699779476684e-05
3.2527086752887405e-07,6.228807824024806e-07,8.201284597342634e-07,2.675971752259609e-05
3.2923449698431385e-07,6.328572080863926e-07,8.195668226640552e-07,2.6670358053643013e-05
3.334315354278533e-07,6.43010690664587e-07,8.188978997373881e-07,2.6571558975481587e-05
3.378358280037149e-07,6.532914582698467e-07,8.181226258111705e-07,2.646428789914061e-05
3.424191044816581e-07,6.636501196297516e-07,8.172366545940073e-07,2.6349530588163227e-05
3.471526647900361e-07,6.740403466964657e-07,8.162311246058878e-07,2.622850569367665e-05
3.5200776117520344e-07,6.844252338227067e-07,8.15091928226738e-07,2.610292313425874e-05
3.5695499153927007e-07,6.947824677060671e-07,8.137996492034012e-07,2.597502378205953e-05
3.6196314364164314e-07,7.051004624414835e-07,8.123307754671624e-07,2.584740850415498e-05
3.669985514098638e-07,7.153682390253367e-07,8.106590485019167e-07,2.572282820643263e-05
3.7202594227839593e-07,7.255680368406896e-07,8.087567025217406e-07,2.560401867597848e-05
3.77009831345581e-07,7.356736243594054e-07,8.065957293957683e-07,2.5493572076189285e-05
3.819154567353763e-07,7.456517480662312e-07,8.041490171856544e-07,2.53938302832418e-05
3.867098604817509e-07,7.554657645802959e-07,8.013910574031944e-07,2.530681592825709e-05
3.91362968190673e-07,7.650820396043734e-07,7.982979500389788e-07,2.523419991081964e-05
3.958475439834733e-07,7.744764682985164e-07,7.948472893871106e-07,2.517727806493052e-05
4.001387156580453e-07,7.836361192451045e-07,7.91018990031977e-07,2.513694972347917e-05
4.042143604627561e-07,7.925543319564995e-07,7.867966324648031e-07,2.511369191144484e-05
4.0805534019874564e-07,8.01223494737254e-07,7.82167724064168e-07,2.510752298559659e-05
4.11644522354475e-07,8.096310716019901e-07,7.77122420987368e-07,2.511799953846625e-05
4.1496577305576027e-07,8.177593712368715e-07,7.716518221669557e-07,2.514430399683664e-05
4.180039515630255e-07,8.255868423830937e-07,7.657479369896043e-07,2.518540684498905e-05
4.2074545640476606e-07,8.330928721922668e-07,7.594069091242163e-07,2.5240232648554456e-05
4.231785201439681e-07,8.40266707450387e-07,7.526333047328348e-07,2.530778258858436e-05
4.252930439059968e-07,8.471113734120237e-07,7.454413165856744e-07,2.538721004973229e-05
4.2708047379878394e-07,8.536367212113822e-07,7.378535753571854e-07,2.5477861485717503e-05
4.2853415998664117e-07,8.598503649632583e-07,7.299011141398001e-07,2.5579275898818545e-05
4.2965136932979813e-07,8.657557500903143e-07,7.216227853021379e-07,2.5691130951718014e-05
4.3043700338195867e-07,8.713565407383893e-07,7.130608486906505e-07,2.581316115815943e-05
4.3090553532692183e-07,8.766615980977303e-07,7.042555342740305e-07,2.594508010706275e-05
4.3107924781686496e-07,8.81685039267474e-07,6.952424292780002e-07,2.6086491067085565e-05
4.3098415733404253e-07,8.864415146392954e-07,6.860525502202693e-07,2.6236785423122422e-05
4.3064535053423684e-07,8.909427436871731e-07,6.767139146074411e-07,2.639511535452837e-05
4.3008449432403213e-07,8.951974446624733e-07,6.672527120802238e-07,2.656048452955083e-05
4.2932065772325384e-07,8.992108257955238e-07,6.576926088101654e-07,2.6731856224287118e-05
4.2837187296633037e-07,9.029822650569479e-07,6.480538550031697e-07,2.690819941592574e-05
4.2725522798378713e-07,9.065041439773712e-07,6.383541746469862e-07,2.7088499462852786e-05
4.25985600530021e-07,9.09762941023066e-07,6.286103933411696e-07,2.727174494463349e-05
4.245746401509253e-07,9.127399797708971e-07,6.188389499757454e-07,2.7456874925536168e-05
4.2303121035447285e-07,9.154108962347393e-07,6.090563269893375e-07,2.7642710630367357e-05
4.2136230586047923e-07,9.177459843264992e-07,5.992805037089611e-07,2.782790655013841e-05
4.195735520245565e-07,9.19711989364347e-07,5.895325256553268e-07,2.8010930118974067e-05
4.176698382631813e-07,9.212737840099505e-07,5.79838572891937e-07,2.8190082753005443e-05
4.156564594223366e-07,9.223961086800995e-07,5.702310223658586e-07,2.836359843445932e-05
4.135407372876985e-07,9.23046326816312e-07,5.607454245015763e-07,2.8529832078107964e-05
4.113332502776963e-07,9.231962163403921e-07,5.514173850197063e-07,2.86874713986935e-05
4.090475588314956e-07,9.228214163863859e-07,5.422842483236812e-07,2.8835659924380012e-05
4.0669850580699136e-07,9.219020732859491e-07,5.333871095184664e-07,2.897397442051009e-05
4.0429991265209243e-07,9.204265197507813e-07,5.247683347296339e-07,2.910227910096297e-05
4.018635397173549e-07,9.183932653017278e-07,5.164680323842203e-07,2.922050134023736e-05
3.994009468822942e-07,9.158093208803543e-07,5.08522870499191e-07,2.9328413965601538e-05
3.9692654294819287e-07,9.126892821607123e-07,5.009647068466564e-07,2.942552752126913e-05
3.944586393320729e-07,9.090569481023632e-07,4.938179295899885e-07,2.9511098869557417e-05
3.92018506366505e-07,9.049475060704029e-07,4.870985440888873e-07,2.958421180450145e-05
3.8962924569312573e-07,9.004080869376444e-07,4.808155177972865e-07,2.9643966309687768e-05
3.873137825293839e-07,8.954935000421423e-07,4.749723090090864e-07,2.9689786062245117e-05
3.8509156528772134e-07,8.902578549203163e-07,4.69567902521741e-07,2.9721633700690388e-05
3.8297677226895535e-07,8.847481037863169e-07,4.645970862809125e-07,2.973991374088753e-05
3.809792889070304e-07,8.7900209985353e-07,4.6005013057301206e-07,2.9745166886529668e-05
3.7910676288860937e-07,8.73048768429961e-07,4.559130772746338e-07,2.9737814266496454e-05
3.7736615329316564e-07,8.669089362621815e-07,4.521683383652851e-07,2.9718104793055946e-05
3.757640038644874e-07,8.605972310755749e-07,4.487946954555185e-07,2.9686337786709008e-05
3.743067417639418e-07,8.541248431038673e-07,4.45767695155779e-07,2.9643256140265252e-05
3.7300216083981217e-07,8.475021100758376e-07,4.4306112969087095e-07,2.9590293517783635e-05
3.7185963137796784e-07,8.407399425617205e-07,4.4064903109475667e-07,2.9529513930059667e-05
3.7088790355748026e-07,8.338498704536424e-07,4.3850713544376486e-07,2.946340049461332e-05
3.700934150628276e-07,8.268442061090269e-07,4.3661237974964855e-07,2.9394657110234288e-05
3.6948035171161853e-07,8.197372443509345e-07,4.349413602149191e-07,2.932603534189808e-05
3.690503968135692e-07,8.125455363306167e-07,4.3347096028416575e-07,2.9260175893830823e-05
3.6880191544009093e-07,8.052865092239852e-07,4.321819188706768e-07,2.9199483523124127e-05
3.687305256598053e-07,7.979774850486788e-07,4.310625431316781e-07,2.9146049398849762e-05
3.688304018211437e-07,7.906350914504688e-07,4.301088399202834e-07,2.9101620278462248e-05
3.6909446496315065e-07,7.832748463994229e-07,4.293203776195009e-07,2.9067592672365163e-05
3.6951370012168995e-07,7.75913363574887e-07,4.28695811441705e-07,2.9044984390823743e-05
3.7007677345020493e-07,7.685714081307306e-07,4.282309834831685e-07,2.9034360740124157e-05
3.707710124598768e-07,7.61274025855188e-07,4.279184356918596e-07,2.9035767035744398e-05
3.7158412041923595e-07,7.540495842647265e-07,4.277478200197519e-07,2.904873365380509e-05
3.7250467874198255e-07,7.469279784936964e-07,4.2770859673616687e-07,2.9072366906586804e-05
3.735216430043139e-07,7.399364753175283e-07,4.2779424795064244e-07,2.9105500670133807e-05
3.746241743913178e-07,7.330980484983288e-07,4.280044135935494e-07,2.9146853947812092e-05
3.7580140427885497e-07,7.264365486177707e-07,4.283431937836418e-07,2.9195131319746117e-05
3.77041676680555e-07,7.199854376255827e-07,4.288164973729951e-07,2.924907044672975e-05
3.783319102411815e-07,7.137925000386905e-07,4.294319685410544e-07,2.9307498115385242e-05
3.796575310568101e-07,7.079153544303645e-07,4.301997431279832e-07,2.936939940964577e-05
3.810029478353101e-07,7.024113769834855e-07,4.311307913340415e-07,2.943394157771839e-05
3.823520530696448e-07,6.973295851421818e-07,4.3223586318576935e-07,2.9500435677151442e-05
3.836885680895414e-07,6.927069502867467e-07,4.335280291992604e-07,2.956826333134574e-05
3.849967249179703e-07,6.885682305527916e-07,4.350259834289157e-07,2.9636780307979048e-05
3.862619918590976e-07,6.849287329694335e-07,4.367556885653943e-07,2.9705225877800233e-05
3.874709705479865e-07,6.817993618596436e-07,4.38748750363908e-07,2.9772690445379742e-05
3.8861042808573387e-07,6.791917881632143e-07,4.4103696544948967e-07,2.983813028285316e-05
3.896662429026757e-07,6.771195496440877e-07,4.436487814407382e-07,2.990037978727771e-05
3.9062294107848365e-07,6.755935743636828e-07,4.4661211359826937e-07,2.9958159395066997e-05
3.914641701497872e-07,6.746166482396119e-07,4.4995872033402776e-07,3.001009604117022e-05
3.921740335038349e-07,6.741811051737858e-07,4.537243086600151e-07,3.0054766177519518e-05
3.927381055899321e-07,6.742686827248554e-07,4.579438104387194e-07,3.009078467814185e-05
3.931433977256264e-07,6.748515309184049e-07,4.626442835021238e-07,3.011693217690033e-05
3.933784499641937e-07,6.758954440098739e-07,4.678392012792613e-07,3.0132244029117926e-05
3.934339077363204e-07,6.773626244503367e-07,4.7352690078817274e-07,3.013602520218908e-05
3.933024731531058e-07,6.792107929998096e-07,4.796928780801187e-07,3.012785026527649e-05
3.929782969836376e-07,6.813922346950721e-07,4.863134259407024e-07,3.0107569484957484e-05
3.924561640935128e-07,6.838571537968413e-07,4.933585608792876e-07,3.0075288937796868e-05
3.917305477593144e-07,6.865586808353972e-07,5.007939532084574e-07,3.0031316891721916e-05
3.907957700985493e-07,6.894557486480524e-07,5.085816082728959e-07,2.997606610308745e-05
3.896476133909421e-07,6.925153240822122e-07,5.166791992317272e-07,2.9909919858875245e-05
3.882847423973653e-07,6.957156075985752e-07,5.250391658835487e-07,2.9833148594406396e-05
3.867089636790303e-07,6.990480017506079e-07,5.336085925435512e-07,2.9745932740836876e-05
3.849249134919608e-07,7.025145559450478e-07,5.423311982295394e-07,2.9648408343701288e-05
3.829392957965402e-07,7.061207146817774e-07,5.511520927054092e-07,2.9540649140108974e-05
3.807593754926301e-07,7.098682668211942e-07,5.600223385671235e-07,2.9422620079305475e-05
3.7839185417314713e-07,7.137521504001629e-07,5.688995199231903e-07,2.9294200657008002e-05
3.758436316010408e-07,7.177593503040591e-07,5.777442485289957e-07,2.9155296638470082e-05
3.7312388921192173e-07,7.21868635342378e-07,5.865158543626193e-07,2.9005915697799373e-05
3.702445344895897e-07,7.260519629983748e-07,5.951700101286468e-07,2.884614462029853e-05
3.6721817577988454e-07,7.302769970111671e-07,6.03658657413106e-07,2.8676112416932464e-05
3.640566576805246e-07,7.345093433709471e-07,6.119323064390324e-07,2.8495976273155604e-05
3.607711350252626e-07,7.387128716448549e-07,6.199439655407037e-07,2.830591973366214e-05
3.57371892007094e-07,7.428486027317647e-07,6.276510892684403e-07,2.810619146044195e-05
3.538677977102813e-07,7.46875496444801e-07,6.350138785402457e-07,2.789718016334194e-05
3.5026642251682283e-07,7.507523444591371e-07,6.419939550980047e-07,2.76794617956667e-05
3.465745852495051e-07,7.544374077177633e-07,6.485564929163562e-07,2.7453788042167294e-05
3.427990295069884e-07,7.578872629101972e-07,6.546729890159303e-07,2.722104805944775e-05
3.389477004743333e-07,7.610575794345593e-07,6.603213848735847e-07,2.6982232206251528e-05
3.350307932465694e-07,7.639056040045494e-07,6.654838934857261e-07,2.673840306220037e-05
3.310601827276694e-07,7.663929125570319e-07,6.70145023204367e-07,2.64906664022403e-05
3.270479882454086e-07,7.684874627802343e-07,6.742926147285136e-07,2.6240125178312438e-05
3.230065000093577e-07,7.701651209569801e-07,6.779203721239031e-07,2.598781992362414e-05
3.189501903094623e-07,7.714120091985986e-07,6.810264410689112e-07,2.5734677868649797e-05
3.1489786545738157e-07,7.722275273698235e-07,6.836083998097615e-07,2.548147057797973e-05
3.1087368076382926e-07,7.726240523489716e-07,6.856603862607975e-07,2.522878135193112e-05
3.0690741526258925e-07,7.726209298238668e-07,6.871748317405999e-07,2.497701521820941e-05
3.03033477265161e-07,7.722374894864065e-07,6.881480482247459e-07,2.472645566488548e-05
2.9928897223517373e-07,7.714915455447709e-07,6.885861598977362e-07,2.447732315174524e-05
2.95712366150946e-07,7.704038002158585e-07,6.88505336457156e-07,2.4229814581213254e-05
2.923422844609158e-07,7.690036076823278e-07,6.879256256470278e-07,2.3984141725851208e-05
2.8921545754180005e-07,7.673308712509173e-07,6.868650530437097e-07,2.3740564213084242e-05
2.8636430886151127e-07,7.65431097784027e-07,6.853391232775592e-07,2.349940070873783e-05
2.838149086632115e-07,7.633479537943915e-07,6.83363533469785e-07,2.326103957856476e-05
2.8158584995905237e-07,7.61120372131987e-07,6.809550107635917e-07,2.3025959002757998e-05
2.796883442218473e-07,7.587829697454258e-07,6.781302162960294e-07,2.279471619491201e-05
2.78127105233403e-07,7.563650841157178e-07,6.749059615211892e-07,2.2567887489076857e-05
2.7690207552390624e-07,7.538885576502484e-07,6.713010439933107e-07,2.2345987900085755e-05
2.7601115995612197e-07,7.513665027900393e-07,6.673381224142303e-07,2.2129392276707768e-05
2.7545176038263144e-07,7.488039862728847e-07,6.630437026416977e-07,2.1918293708107307e-05
2.7521946408618477e-07,7.461993548359552e-07,6.584452059115626e-07,2.1712742419154323e-05
2.753065318925233e-07,7.435454361843341e-07,6.53567405992533e-07,2.1512710677905925e-05
2.757027885726123e-07,7.408323120728055e-07,6.4843092702192e-07,2.1318090531888065e-05
2.76397477965353e-07,7.380510488061401e-07,6.430530157965087e-07,2.1128645017980727e-05
2.773795883663433e-07,7.351949118948583e-07,6.374493280799536e-07,2.09439977486704e-05
2.7863680482037604e-07,7.322582220568619e-07,6.31634786525157e-07,2.0763703739333705e-05
2.801551672679829e-07,7.292376737826757e-07,6.256231560754085e-07,2.0587394053905288e-05
2.8191994135932336e-07,7.26137323848698e-07,6.19427211411626e-07,2.0414936303469206e-05
2.839158412922689e-07,7.229715535176731e-07,6.13060908610643e-07,2.024650667528472e-05
2.861260711549195e-07,7.197622541058377e-07,6.065439013210988e-07,2.0082499138434e-05
2.885319677549673e-07,7.165325777344897e-07,5.999059960852867e-07,1.992335429402037e-05
2.911136866823904e-07,7.133012365356244e-07,5.931864612263933e-07,1.9769524965476292e-05
2.938509128718308e-07,7.100801104061702e-07,5.864275372508693e-07,1.962162136908675e-05
2.9672319766047397e-07,7.068754186216626e-07,5.796679534674485e-07,1.9480502176850108e-05
2.997098686534309e-07,7.036911927829949e-07,5.729404786350171e-07,1.934717636731946e-05
3.027904995351656e-07,7.005334735283954e-07,5.662722798972106e-07,1.922262334515852e-05
3.059480029628628e-07,6.974131845156684e-07,5.596871175828598e-07,1.9107643417703186e-05
3.0917297702936823e-07,6.943469880926793e-07,5.53209054826638e-07,1.9002769782250908e-05
3.124638753433715e-07,6.913557886543968e-07,5.468645817891902e-07,1.890824263833913e-05
3.1582201392504656e-07,6.88460203686288e-07,5.406806806135068e-07,1.8824032691138152e-05
3.192472628548836e-07,6.856761841615229e-07,5.346805528837101e-07,1.8749897867972432e-05
3.2273820574875467e-07,6.830143458560406e-07,5.288808894250799e-07,1.868543477771853e-05
3.26294047119395e-07,6.804805170218379e-07,5.232927438905405e-07,1.8630118893345262e-05
3.299144019990443e-07,6.780747200872565e-07,5.179241719565094e-07,1.8583436026731927e-05
3.335978025557186e-07,6.757905314991318e-07,5.127828443716822e-07,1.8545108388948048e-05
3.3734155749006665e-07,6.736162287483107e-07,5.078796405400373e-07,1.851519681411493e-05
3.4114223004221764e-07,6.715358728368664e-07,5.032318141366118e-07,1.849398380891048e-05
3.449958301863973e-07,6.695295001759615e-07,4.988614126429011e-07,1.848182814266158e-05
3.488987251434223e-07,6.675745683737857e-07,4.947893606140622e-07,1.847915293621459e-05
3.5284861779045406e-07,6.656488738044271e-07,4.910306343935302e-07,1.8486480776209604e-05
3.56844087034652e-07,6.637317375933944e-07,4.875933134496951e-07,1.850436591735333e-05
3.6088356428493796e-07,6.618030693872504e-07,4.844803181091471e-07,1.853324136335894e-05
3.6496476053196577e-07,6.598437648179189e-07,4.816927569972431e-07,1.8573284278745844e-05
3.690837331357624e-07,6.578391595494658e-07,4.79233845674419e-07,1.8624352744991386e-05
3.7323427723406e-07,6.557827082039325e-07,4.771111409258139e-07,1.8686008781383647e-05
3.774090234120153e-07,6.536754199589034e-07,4.753356723204731e-07,1.8757603732396355e-05
3.8160096587322345e-07,6.515211329413702e-07,4.739189750887167e-07,1.8838361008275995e-05
3.85803710915731e-07,6.493220663020156e-07,4.728705944657581e-07,1.8927409990478647e-05
3.900102117083069e-07,6.470771424910796e-07,4.721990687558367e-07,1.9023782413032025e-05
3.9421082850451275e-07,6.447826272438491e-07,4.7191639600467023e-07,1.9126414336237195e-05
3.9839217723698655e-07,6.42435060285445e-07,4.720408718025464e-07,1.9234175898625007e-05
4.0253731775103686e-07,6.400358068363996e-07,4.7259509337330883e-07,1.934590546489419e-05
4.066267741841732e-07,6.375930804966609e-07,4.7360154307314425e-07,1.946042850553277e-05
4.106395954143746e-07,6.351189746849022e-07,4.750786176868622e-07,1.9576570803382103e-05
4.145538704834747e-07,6.326255806467066e-07,4.770404124998419e-07,1.9693157991583662e-05
4.183476214568652e-07,6.301238090266108e-07,4.79501973848457e-07,1.9808997217613746e-05
4.220005660129961e-07,6.276231999174029e-07,4.824837419278272e-07,1.9922869236871087e-05
4.254946890276986e-07,6.251306078645678e-07,4.860095693543374e-07,2.0033535067747592e-05
4.288136052847076e-07,6.226487517358889e-07,4.901026120594039e-07,2.0139735704177807e-05
4.319439991537799e-07,6.201776203058612e-07,4.947832185653102e-07,2.0240187665526334e-05
4.348784810723235e-07,6.177185389401999e-07,5.000668779313232e-07,2.033359256274012e-05
4.37615002544277e-07,6.15275671478482e-07,5.059617207416401e-07,2.04186567994106e-05
4.401530122171141e-07,6.128535523029636e-07,5.124675639393253e-07,2.049410471421407e-05
4.424915197841903e-07,6.104553324812139e-07,5.195766110576051e-07,2.0558692713128963e-05
4.446300092199435e-07,6.080835266081849e-07,5.272739826887875e-07,2.0611230495335136e-05
4.4656970303616544e-07,6.057410508783387e-07,5.355364025078336e-07,2.0650598180267012e-05
4.483150799370093e-07,6.034314196101771e-07,5.443297274692036e-07,2.067578348475996e-05
4.4987583178581096e-07,6.011596347682783e-07,5.53608205654237e-07,2.0685953723029397e-05
4.512671919519736e-07,5.989351174528719e-07,5.63316729573846e-07,2.068048703849946e-05
4.5250766685788346e-07,5.967735481575523e-07,5.733943131515516e-07,2.0658922769187248e-05
4.5361644895767995e-07,5.946942907722878e-07,5.837781322911897e-07,2.062094194438093e-05
4.5461192827141675e-07,5.927160605798964e-07,5.944101060693163e-07,2.0566433944317443e-05
4.5551081102314577e-07,5.908540751529356e-07,6.052437417434546e-07,2.049551683317729e-05
4.563278046765483e-07,5.891182318196011e-07,6.162442659947856e-07,2.040844297502475e-05
4.5707507783451994e-07,5.875127359587812e-07,6.273814099221069e-07,2.030549476209515e-05
4.577612038340309e-07,5.86037809436505e-07,6.386215358217313e-07,2.0186947286291488e-05
4.583908165979585e-07,5.846921854811903e-07,6.499240868774998e-07,2.0053096512547485e-05
4.5896522969213353e-07,5.834770958920296e-07,6.612435803650004e-07,1.990433303744432e-05
4.594830501975303e-07,5.824014140098203e-07,6.725361515764904e-07,1.974122819323552e-05
4.599401302780922e-07,5.814821059653218e-07,6.837663626669128e-07,1.9564639529895927e-05
4.6032927535679633e-07,5.807376784259254e-07,6.949093432364192e-07,1.937584339188754e-05
4.6064057752824744e-07,5.801813917803443e-07,7.059478984088334e-07,1.9176604375025765e-05
4.6086322592646654e-07,5.79819281565616e-07,7.168675860751491e-07,1.8969089828852565e-05
4.609884552660447e-07,5.796509274764823e-07,7.276534538221366e-07,1.875564900054555e-05
4.610109120897891e-07,5.796708864483589e-07,7.382917614903543e-07,1.8538552094574482e-05
4.609274679032565e-07,5.798703777815756e-07,7.487759501009394e-07,1.8319800452682912e-05
4.6073695596443357e-07,5.8023820841535e-07,7.591116078084855e-07,1.810107049933468e-05
4.6044177540040274e-07,5.807609320446741e-07,7.693163262053431e-07,1.7883775194575504e-05
4.6004736430171225e-07,5.81423666705843e-07,7.794150701511413e-07,1.7669206394332634e-05
4.595588628437833e-07,5.822126428439467e-07,7.894343812489057e-07,1.7458742250689705e-05
4.5897846006355936e-07,5.831187592919289e-07,7.993980537845463e-07,1.7254046075392167e-05
4.583047680794371e-07,5.841391387235109e-07,8.09323957050615e-07,1.7057097214341e-05
4.575337402140758e-07,5.852746556366135e-07,8.192209072281653e-07,1.6870001001885325e-05
4.5666131202074316e-07,5.865263162355678e-07,8.29086896875738e-07,1.6694717858716982e-05
4.556859432886305e-07,5.878943548958077e-07,8.389086659870328e-07,1.6532883127718558e-05
4.546077996078521e-07,5.893796904830855e-07,8.486612437516482e-07,1.6385852353723548e-05
4.5342572194623797e-07,5.909850658409405e-07,8.583090907194319e-07,1.6255017762706605e-05
4.52135633511627e-07,5.92713998850529e-07,8.678091316110575e-07,1.614218768391055e-05
4.5073085304240505e-07,5.945688626312534e-07,8.771127788965124e-07,1.6049714401033317e-05
4.49202980834019e-07,5.965505405519204e-07,8.861663101760185e-07,1.5980327685589637e-05
4.475432336480941e-07,5.986579308510939e-07,8.949112952866895e-07,1.5936861938652334e-05
4.4574479097723295e-07,6.008860010227753e-07,9.032859284943588e-07,1.5922013186068635e-05
4.4380490106807745e-07,6.032255190759611e-07,9.112270313377559e-07,1.5938177293766442e-05
4.4172428261759045e-07,6.05665188898235e-07,9.18672264772708e-07,1.5987376313886778e-05
4.3950439155963544e-07,6.081931776327499e-07,9.255615626126328e-07,1.6071230352045255e-05
4.37146004865357e-07,6.10797923225438e-07,9.318379881048742e-07,1.6190940893821405e-05
4.346504724242508e-07,6.134707676827272e-07,9.374522087988968e-07,1.6347284537760854e-05
4.3202171074325726e-07,6.162075697991304e-07,9.423729345243495e-07,1.6540596417364248e-05
4.29267014622803e-07,6.190057334751611e-07,9.465964779450668e-07,1.6770712594985915e-05
4.263961172415464e-07,6.218628021340807e-07,9.50146487241953e-07,1.7036897435886256e-05
4.2341911097669883e-07,6.247812225644544e-07,9.530631883009613e-07,1.7337823066906534e-05
4.2034515615728066e-07,6.277735227721661e-07,9.55389577549343e-07,1.7671644819418537e-05
4.1718262034383244e-07,6.308615625308718e-07,9.571637520660185e-07,1.803615997565552e-05
4.139389703872638e-07,6.340693917808882e-07,9.584194713389392e-07,1.8428984054905217e-05
4.1062001043285384e-07,6.374169374282628e-07,9.59189367679217e-07,1.884767510689547e-05
4.072295682606519e-07,6.409232084192257e-07,9.59506602800825e-07,1.9289787274953905e-05
4.0376992910226867e-07,6.446170901299809e-07,9.594040228851226e-07,1.9752894096639607e-05
4.002428365589961e-07,6.485454960086497e-07,9.589107977539075e-07,2.0234616390443687e-05
3.9665020472820677e-07,6.527728089179813e-07,9.580487147580628e-07,2.073262731115424e-05
3.929939547851282e-07,6.573731024584753e-07,9.568315749304336e-07,2.124459951351727e-05
3.8927618224925704e-07,6.62418537505351e-07,9.552678845719706e-07,2.1768111545722558e-05
3.8550067981386243e-07,6.679678817468925e-07,9.533625134417949e-07,2.230055861315505e-05
3.816753584961044e-07,6.740604995253029e-07,9.511161441632608e-07,2.283911296363662e-05
3.7781344582341033e-07,6.807175379979253e-07,9.485272200130472e-07,2.338076298788832e-05
3.7393175937313537e-07,6.879459082100822e-07,9.455967128255494e-07,2.392239728737064e-05
3.7004783009736927e-07,6.957407335548404e-07,9.423305820776392e-07,2.446086375991259e-05
3.661778182979921e-07,7.040881380818924e-07,9.387399197896437e-07,2.4993004348879332e-05
3.623353313902885e-07,7.129709319960149e-07,9.348411400641693e-07,2.5515707485310888e-05
3.585317285010063e-07,7.223727307417994e-07,9.306538981612343e-07,2.60259603360922e-05
3.5477737528284935e-07,7.322761218930039e-07,9.26196520324192e-07,2.6520890573572133e-05
3.51082183928232e-07,7.426597931209993e-07,9.214830892767107e-07,2.699785429166996e-05
3.474555629496715e-07,7.535020998196943e-07,9.16524743728045e-07,2.745454513663404e-05
3.439065427972478e-07,7.647903775911588e-07,9.113345199808892e-07,2.7889019051710805e-05
3.40444193745086e-07,7.765293055951714e-07,9.059323548635477e-07,2.8299650580827974e-05
3.3707771855955487e-07,7.887431339755301e-07,9.003475122664291e-07,2.8685099394537323e-05
3.3381544214381205e-07,8.014706409094466e-07,8.946174297691145e-07,2.9044284202585133e-05
3.306642454292428e-07,8.147537933522102e-07,8.887822707652408e-07,2.93763354447716e-05
3.2763069174921625e-07,8.286237410282709e-07,8.828786948308233e-07,2.9680511497303114e-05
3.247216961288724e-07,8.430937012687062e-07,8.769381178892913e-07,2.9956101131402625e-05
3.219442919717308e-07,8.581637389667029e-07,8.709889241052765e-07,3.0202399725819847e-05
3.193061555560973e-07,8.738277286956904e-07,8.650592456714239e-07,3.041880003178507e-05
3.168152462234634e-07,8.900732559626059e-07,8.591787321022665e-07,3.060491353821146e-05
3.1447763968778377e-07,9.068779995774649e-07,8.53378506013875e-07,3.076062028243295e-05
3.1229673801804496e-07,9.242077732204164e-07,8.476891305676611e-07,3.088603078745731e-05
3.10275408521362e-07,9.420152031881778e-07,8.42138509138164e-07,3.0981404558988625e-05
3.0841899492706926e-07,9.60238121378008e-07,8.36751861980819e-07,3.104706618467299e-05
3.067364583545624e-07,9.78800263924743e-07,8.315518800128458e-07,3.108336070221182e-05
3.052388376944084e-07,9.976151077055277e-07,8.265560498707435e-07,3.109069039308237e-05
3.0393653614304236e-07,1.0165895372513085e-06,8.21772862837276e-07,3.1069594550118634e-05
3.028369827759491e-07,1.0356252796747754e-06,8.17200128860846e-07,3.102078618958656e-05
3.0194343720006663e-07,1.0546194586565123e-06,8.128257245406206e-07,3.09451367994454e-05
3.012553840918084e-07,1.0734651453641927e-06,8.086303691318195e-07,3.0843640599862106e-05
3.0077074898682496e-07,1.0920522376555802e-06,8.045926294862936e-07,3.0717364975346736e-05
3.0048877108237893e-07,1.1102702576973222e-06,8.006946500567601e-07,3.056740121312473e-05
3.004109921062941e-07,1.128013095013553e-06,7.969260375930226e-07,3.039483003659292e-05
3.005407579320239e-07,1.145182206983425e-06,7.932857011994425e-07,3.020068565506337e-05
3.008830347261256e-07,1.1616854230060048e-06,7.897823108998086e-07,2.9985904960883758e-05
3.014433285115434e-07,1.1774333694737186e-06,7.864315663463157e-07,2.9751289770284248e-05
3.022260489943161e-07,1.1923375080740302e-06,7.832492228258432e-07,2.949750910224821e-05
3.032342912699803e-07,1.2063113656935335e-06,7.802450082181806e-07,2.9225127680248768e-05
3.044693965281014e-07,1.2192731975995145e-06,7.774242194441455e-07,2.8934641012342518e-05
3.059295526945149e-07,1.2311468462287015e-06,7.747950220962051e-07,2.862650641360744e-05
3.0761070528286147e-07,1.2418610848129142e-06,7.723732037214087e-07,2.8301160016109472e-05
3.095099852812145e-07,1.251350779622296e-06,7.701810428479134e-07,2.7959039638959864e-05
3.116273371937837e-07,1.2595599163030708e-06,7.682429447306119e-07,2.7600643240816595e-05
3.1396379411861096e-07,1.2664431477217542e-06,7.665802727872152e-07,2.7226595556422063e-05
3.165191658581557e-07,1.271964922801491e-06,7.652072844522174e-07,2.68376767464986e-05
3.192913870009661e-07,1.2760990500160368e-06,7.641313372639524e-07,2.643481751375261e-05
3.2227663180042465e-07,1.2788291381801795e-06,7.633564603089827e-07,2.60190799475851e-05
3.254683747572905e-07,1.2801474881813982e-06,7.628843467938594e-07,2.559163385407509e-05
3.288557502856635e-07,1.2800539066922757e-06,7.627109746133901e-07,2.515374452455959e-05
3.324226736323967e-07,1.2785560871477956e-06,7.628234862346753e-07,2.4706773692965052e-05
3.3614815001233467e-07,1.2756693856077636e-06,7.632008104626843e-07,2.425218130979091e-05
3.400071775893563e-07,1.2714158809340614e-06,7.638167348483678e-07,2.379152034555286e-05
3.4397197904225414e-07,1.2658233498665769e-06,7.646420466437023e-07,2.3326415240640023e-05
3.4801390081382017e-07,1.2589236714162378e-06,7.65644623543292e-07,2.285851726017554e-05
3.521048384501594e-07,1.2507518428152186e-06,7.667914775219979e-07,2.2389448630839718e-05
3.562169353711821e-07,1.241345233176104e-06,7.680560591238365e-07,2.1920750100434016e-05
3.6032264513085367e-07,1.230742124695636e-06,7.694260233774331e-07,2.1453843256376126e-05
3.64397293226663e-07,1.2189811014554588e-06,7.709057677880286e-07,2.0990034927836804e-05
3.6842180292756745e-07,1.2061021088255122e-06,7.725156513392458e-07,2.0530548358994346e-05
3.7238304746483743e-07,1.192147653177917e-06,7.742909320205925e-07,2.007651966316886e-05
3.762733000690406e-07,1.1771622677527624e-06,7.762782649080046e-07,1.9628976108875175e-05
3.8008975818933524e-07,1.1611912505802131e-06,7.785273650290071e-07,1.9188871569246696e-05
3.8383304894106383e-07,1.1442817577635297e-06,7.810809539118854e-07,1.8757195824969088e-05
3.875053589040989e-07,1.126486351098348e-06,7.83968755561063e-07,1.8335082180464426e-05
3.911091576663768e-07,1.1078654771426882e-06,7.872068499430407e-07,1.79237876329522e-05
3.946455804506417e-07,1.0884864565746318e-06,7.907996994245093e-07,1.7524528367837913e-05
3.981125131120941e-07,1.0684210072358331e-06,7.94742660393972e-07,1.7138316431178312e-05
4.0150468174404436e-07,1.0477455731430977e-06,7.990226783934059e-07,1.6765898335025142e-05
4.0481651392823466e-07,1.0265446682600415e-06,8.036180697148906e-07,1.640776334176164e-05
4.0804442806020076e-07,1.0049112304300924e-06,8.085027876417407e-07,1.6064180224640432e-05
4.11185700550272e-07,9.829405180010041e-07,8.136553870482781e-07,1.5735241912813167e-05
4.1423593699408174e-07,9.607227165121515e-07,8.190670070685498e-07,1.5420893960752952e-05
4.17187666600455e-07,9.383394872305356e-07,8.247445311639598e-07,1.5120952580787165e-05
4.2002998410965575e-07,9.158638734473677e-07,8.307085007958282e-07,1.4835132635000308e-05
4.2274904487083957e-07,8.933620867861141e-07,8.369876319779509e-07,1.456306884025052e-05
4.25329391138131e-07,8.708962324993437e-07,8.436114782583311e-07,1.4304306238421946e-05
4.277561941769511e-07,8.485268044009396e-07,8.506025275355998e-07,1.4058280558829598e-05
4.300180193320027e-07,8.26315441689006e-07,8.579712192240518e-07,1.382432068243311e-05
4.321082676332856e-07,8.043287268663066e-07,8.657152366312094e-07,1.3601699100909081e-05
4.34024503146404e-07,7.826408914499445e-07,8.738192974077827e-07,1.3389759182873407e-05
4.3576724421550673e-07,7.613311946127476e-07,8.822536004493809e-07,1.3188062335284124e-05
4.373392017690566e-07,7.404760777159834e-07,8.909744288474375e-07,1.2996468383914215e-05
4.387437012801007e-07,7.201423656504773e-07,8.999285157985409e-07,1.2815233071736375e-05
4.3998225843209674e-07,7.003857856585339e-07,9.090578419860128e-07,1.2645164276188969e-05
4.410534016514309e-07,6.812531537889886e-07,9.183024942266843e-07,1.2487630324673693e-05
4.419527568324276e-07,6.627847098430286e-07,9.276021727888328e-07,1.2344334077807362e-05
4.426729442331209e-07,6.45014770773968e-07,9.368982457443672e-07,1.221702357933085e-05
4.432035330042905e-07,6.27971544525591e-07,9.461384231587594e-07,1.2107269210931889e-05
4.4353206614909117e-07,6.11678663321008e-07,9.55281780241073e-07,1.2016337661420568e-05
4.4364651228358746e-07,5.961600056195859e-07,9.642983193576503e-07,1.1945186937072172e-05
4.435376681430566e-07,5.814450396034521e-07,9.731621906442163e-07,1.1894560790857285e-05
4.431991555203372e-07,5.675696132550226e-07,9.81844296601314e-07,1.1865066053333826e-05
4.4262580949409674e-07,5.545721806191525e-07,9.903093938816943e-07,1.1857146652126285e-05
4.418133503814535e-07,5.424900245719214e-07,9.985178292086291e-07,1.1871047991713038e-05
4.407597187577814e-07,5.313564822545039e-07,1.0064282239047364e-06,1.190690131292479e-05
4.3946669061453115e-07,5.211974439307261e-07,1.0139984339967215e-06,1.1964873159019025e-05
4.379407955417682e-07,5.120293589045879e-07,1.0211861594398792e-06,1.2045232819294679e-05
4.3619231578097494e-07,5.038624009394052e-07,1.027949067604656e-06,1.2148329880869113e-05
4.342326813354207e-07,4.967068151855285e-07,1.0342431544409938e-06,1.22747020652975e-05
4.3207268844467603e-07,4.905755794190384e-07,1.0400228962601973e-06,1.2425504010110068e-05
4.297220030445652e-07,4.854799095354762e-07,1.0452462014537917e-06,1.2602945661505827e-05
4.2718893771296405e-07,4.814217044982786e-07,1.0498807224057631e-06,1.281022996919745e-05
4.244808202163233e-07,4.783889874083615e-07,1.0539063179219622e-06,1.305105236127988e-05
4.216046975678704e-07,4.763563747513277e-07,1.057313375029859e-06,1.3329066014448606e-05
4.1856739612989896e-07,4.7528807144499157e-07,1.0600996155379957e-06,1.3647500682216756e-05
4.153753495781068e-07,4.751406730386029e-07,1.0622658341715764e-06,1.4008992460601127e-05
4.120347927250429e-07,4.758678777151357e-07,1.0638119055130868e-06,1.4415639192311905e-05
4.0855176106432275e-07,4.774290442056125e-07,1.0647362597232665e-06,1.4869122625099729e-05
4.049319007870604e-07,4.797969821936944e-07,1.0650388429675459e-06,1.5370642893436878e-05
4.0118136178094824e-07,4.829605116519693e-07,1.0647241452600156e-06,1.5920704705712462e-05
3.973082028819856e-07,4.869217499098817e-07,1.0638006475058769e-06,1.6519137193703554e-05
3.9332241366231946e-07,4.916884730393968e-07,1.062276451820929e-06,1.7165511704029558e-05
3.892359206177244e-07,4.972648042200132e-07,1.060155131906601e-06,1.7859738853034035e-05
3.8506379206369357e-07,5.036481023535281e-07,1.0574350241845456e-06,1.8602537717584258e-05
3.808237845514174e-07,5.108338649584571e-07,1.054111057049517e-06,1.9395509241902343e-05
3.7653336456287523e-07,5.188206457095138e-07,1.050176473143573e-06,2.024087626426001e-05
3.722071736572093e-07,5.276103278767424e-07,1.045623626533869e-06,2.114122352884513e-05
3.678565099554048e-07,5.372058855987299e-07,1.0404453433549357e-06,2.2099268834875158e-05
3.634904915409296e-07,5.476072367192375e-07,1.0346378997450285e-06,2.3117524539453697e-05
3.5911799566444905e-07,5.588057675109096e-07,1.0282052419707635e-06,2.4197923759734524e-05
3.5474875745999454e-07,5.707806940375119e-07,1.0211629659199878e-06,2.534152044044832e-05
3.503930474601208e-07,5.834987897560633e-07,1.0135384466209192e-06,2.654824999158336e-05
3.460606246262217e-07,5.969160271568815e-07,1.0053655723087795e-06,2.78167381385966e-05
3.4175985491253423e-07,6.109796050778386e-07,9.96679209005368e-07,2.9144266590508784e-05
3.37498070119105e-07,6.25631867047314e-07,9.875129802123598e-07,3.052696914876653e-05
3.3328276274725325e-07,6.40817092635318e-07,9.77897883561667e-07,3.196011888126307e-05
3.291222137547673e-07,6.564861850161717e-07,9.67861089278618e-07,3.3438370372593496e-05
3.2502527374353124e-07,6.725951038309582e-07,9.57425931983804e-07,3.495598855425749e-05
3.210004811961412e-07,6.891015669504228e-07,9.466131643747265e-07,3.6507229190930856e-05
3.1705518193224213e-07,7.059650234849979e-07,9.354443455821243e-07,3.8087022291437925e-05
3.131952983792865e-07,7.231466252352786e-07,9.239450613490171e-07,3.969163666310888e-05
3.0942544213232324e-07,7.406053834485634e-07,9.121447924963785e-07,4.1318782279039445e-05
3.0574976696189945e-07,7.58294706968358e-07,9.000757965489481e-07,4.2967211856493954e-05
3.021737852260973e-07,7.761660898542496e-07,8.877723703669819e-07,4.4636197224141584e-05
2.987055567752868e-07,7.941791422725645e-07,8.752688978943572e-07,4.6325011863058314e-05
2.953551476866292e-07,8.12309313014761e-07,8.625987830105395e-07,4.803246512278116e-05
2.9213269787683284e-07,8.305470548559005e-07,8.497954131999985e-07,4.975652893795216e-05
2.890465409678199e-07,8.488895016751312e-07,8.368918967813642e-07,5e-06
2.8610323887007017e-07,8.673295030220115e-07,8.239187402607113e-07,5e-06
2.833087436941748e-07,8.858488418880919e-07,8.109020192440291e-07,5e-06
2.8066818654025717e-07,9.044187744561226e-07,7.978630133910461e-07,5e-06
2.781845903604849e-07,9.23001757211982e-07,7.84818426748725e-07,5e-06
2.7585825514778836e-07,9.415501851143835e-07,7.717813213410516e-07,5e-06
2.736871446697101e-07,9.60007610639849e-07,7.587631587499199e-07,5e-06
2.716681635537177e-07,9.78313689708088e-07,7.457760964791873e-07,5e-06
2.69797989774828e-07,9.964072792755863e-07,7.328351838903284e-07,5e-06
2.680721420566626e-07,1.0142287637876142e-06,7.199600377006713e-07,5e-06
2.664842757922802e-07,1.0317239683759589e-06,7.07174651234292e-07,5e-06
2.6502742866441214e-07,1.048844222604298e-06,6.945069099018487e-07,5e-06
2.6369558787090693e-07,1.0655406994823623e-06,6.819900075055252e-07,5e-06
2.62484347621792e-07,1.0817593276695894e-06,6.696622327704275e-07,5e-06
2.6139088630914513e-07,1.097439993549383e-06,6.575628595955582e-07,5e-06
2.604127841519031e-07,1.1125180444909049e-06,6.457299735708196e-07,5e-06
2.59546072992718e-07,1.126925786493891e-06,6.342033033136779e-07,5e-06
2.5878436839431073e-07,1.1405937907109406e-06,6.230266156206445e-07,5e-06
2.5811945775267557e-07,1.1534521862917758e-06,6.12246682660395e-07,5e-06
2.575420184444073e-07,1.1654322076650697e-06,6.019109305797635e-07,5e-06
2.570419534514577e-07,1.1764680911745714e-06,5.920639343255248e-07,5e-06
2.5660941551770417e-07,1.1864975660606425e-06,5.82743844902756e-07,5e-06
2.56236674623448e-07,1.1954612134240895e-06,5.739819368913308e-07,5e-06
2.5591863118881464e-07,1.2033036676587223e-06,5.6580349648722e-07,5e-06
2.5565109890627904e-07,1.2099755473275694e-06,5.582271089632075e-07,5e-06
2.554291094220968e-07,1.2154329994065964e-06,5.512642144926714e-07,5e-06
2.5524673757349105e-07,1.219635968716613e-06,5.449208240850816e-07,5e-06
2.55097712027136e-07,1.2225478788122072e-06,5.392006841617196e-07,5e-06
2.5497569594507825e-07,1.2241377340239494e-06,5.341073409520731e-07,5e-06
2.548738561957925e-07,1.2243838769156386e-06,5.296433587811891e-07,5e-06
2.5478440710220824e-07,1.2232762893591848e-06,5.258105960686373e-07,5e-06
2.5469904136945824e-07,1.2208149449268809e-06,5.226153358507514e-07,5e-06
2.54610379734493e-07,1.217006364004782e-06,5.200748201430334e-07,5e-06
2.545132076435108e-07,1.2118621753279319e-06,5.182198396851335e-07,5e-06
2.544041163807165e-07,1.205399616175277e-06,5.170919451299197e-07,5e-06
2.5428037045827515e-07,1.197641385556167e-06,5.167377876250625e-07,5e-06
2.541397913217825e-07,1.1886148479783545e-06,5.17203489099361e-07,5e-06
2.539819100311975e-07,1.1783523673423406e-06,5.185303342169114e-07,5e-06
2.5380944610201074e-07,1.1668925086882557e-06,5.207515530355972e-07,5e-06
2.536289930951888e-07,1.1542812951697388e-06,5.238883424202682e-07,5e-06
2.5344996327189213e-07,1.1405727643427117e-06,5.279465015549827e-07,5e-06
2.5328346919205925e-07,1.1258266544077496e-06,5.329168051243926e-07,5e-06
2.531440611743247e-07,1.1101045278148563e-06,5.387769331435754e-07,5e-06
2.530513842691491e-07,1.0934691025274264e-06,5.45492087698309e-07,5e-06
2.5302739829264604e-07,1.0759862876262717e-06,5.53015184390261e-07,5e-06
2.530917116226891e-07,1.0577266429134115e-06,5.612885595732407e-07,5e-06
2.5325927849488695e-07,1.038767922454947e-06,5.702491271427793e-07,5e-06
2.535410763803317e-07,1.019199486082305e-06,5.79836205174874e-07,5e-06
2.539460671436884e-07,9.991245102074668e-07,5.899972218212452e-07,5e-06
2.544826302090756e-07,9.78657559853458e-07,6.006878366302294e-07,5e-06
2.55158710751447e-07,9.579177984760378e-07,6.118674807423804e-07,5e-06
2.559806984255464e-07,9.370208338686667e-07,6.234935995647264e-07,5e-06
2.569520704887853e-07,9.160763107335931e-07,6.3551869079139e-07,5e-06
2.5807284316248964e-07,8.951926974920465e-07,6.478927598959698e-07,5e-06
2.5933952743316177e-07,8.744805783058098e-07,6.60568062073841e-07,5e-06
2.607454947625925e-07,8.540492442456965e-07,6.734994406174429e-07,5e-06
2.622823727610581e-07,8.340005294614617e-07,6.866404154788846e-07,5e-06
2.639420184680999e-07,8.144243137503938e-07,6.999436798078961e-07,5e-06
2.657179844451113e-07,7.953966605605037e-07,7.133686353954134e-07,5e-06
2.6760613683588045e-07,7.769798252391792e-07,7.268883243504647e-07,5e-06
2.6960394443091657e-07,7.592228074075391e-07,7.404911326392275e-07,5e-06
2.717082328493599e-07,7.421617130416916e-07,7.541773254770527e-07,5e-06
2.7391378874547573e-07,7.258219729883975e-07,7.679507772918176e-07,4.819465415252132e-05
2.762155404650975e-07,7.102251343643781e-07,7.8181179204238e-07,4.633345715316878e-05
2.786117713898545e-07,6.953961114436283e-07,7.957570552289945e-07,4.451394951173453e-05
2.811037177952557e-07,6.813636669834244e-07,8.097831149531209e-07,4.274280916913932e-05
2.8369271487870607e-07,6.681557917132608e-07,8.23887044349594e-07,4.102599247460559e-05
2.8637858975072214e-07,6.557956591382574e-07,8.380632281164588e-07,3.9368702961304414e-05
2.891601360335787e-07,6.44299173640795e-07,8.522993329272291e-07,3.777537959696164e-05
2.9203742564374e-07,6.336761249790979e-07,8.665739198465166e-07,3.624966509018244e-05
2.950147980251061e-07,6.239364312311569e-07,8.808552157622394e-07,3.4794362901905594e-05
2.98101683654602e-07,6.150966802508674e-07,8.951017483127368e-07,3.3411444076615476e-05
3.013093780704956e-07,6.071829845571214e-07,9.092662886180729e-07,3.210211175985427e-05
3.046459128628621e-07,6.00229054213546e-07,9.233014932316921e-07,3.086687226177448e-05
3.0811334108440807e-07,5.942685298037409e-07,9.371647365683287e-07,2.970562781586081e-05
3.1170937660027964e-07,5.893262463088844e-07,9.508190285805019e-07,2.8617850037607286e-05
3.154313642375089e-07,5.854155637651998e-07,9.64228180962293e-07,2.7602785157445368e-05
3.192779337955936e-07,5.825402957902012e-07,9.77351192584117e-07,2.665957161310081e-05
3.232465602984003e-07,5.80695446936685e-07,9.901437104374944e-07,2.578727105717631e-05
3.273304963212793e-07,5.798679738912912e-07,1.0025672520442557e-06,2.4984886118169973e-05
3.3151790473059484e-07,5.800406878410813e-07,1.0145978391119556e-06,2.425134368598615e-05
3.357935823562146e-07,5.811952735038686e-07,1.0262264014833788e-06,2.358541322865476e-05
3.401438608596961e-07,5.833119805492668e-07,1.0374525868676592e-06,2.2985606869037547e-05
3.44562366006666e-07,5.86369488994517e-07,1.0482782345955669e-06,2.2450111275855704e-05
3.49052209479507e-07,5.903441806091415e-07,1.058703541018149e-06,2.197680139468457e-05
3.5362512445449254e-07,5.952060546984022e-07,1.068725743197335e-06,2.156336468491035e-05
3.5830040016601633e-07,6.009139577515875e-07,1.0783388537327931e-06,2.1207442850409367e-05
3.6310303159490745e-07,6.074137144791783e-07,1.0875327394109622e-06,2.090666836521728e-05
3.680597141803092e-07,6.146394121978086e-07,1.0962921746125249e-06,2.065862332360644e-05
3.731941858472454e-07,6.225168905804625e-07,1.1045969592094169e-06,2.046082888997883e-05
3.785241605139208e-07,6.309691236489622e-07,1.112421939184359e-06,2.031079009458706e-05
3.840602050509641e-07,6.399217577189904e-07,1.1197386422196181e-06,2.0206018702459922e-05
3.8980669865368276e-07,6.493055978823811e-07,1.1265219143835924e-06,2.0143974829436747e-05
3.957636665423889e-07,6.590557261251646e-07,1.1327573243846156e-06,2.0121995197252104e-05
4.0192682762812134e-07,6.691093273865082e-07,1.1384427626912857e-06,2.013728435481605e-05
4.0828675430554156e-07,6.79402941017163e-07,1.1435845458931826e-06,2.018693489024545e-05
4.148294385301149e-07,6.898700416992135e-07,1.1481910559818087e-06,2.026796532772055e-05
4.215375630817293e-07,7.004410544008979e-07,1.1522681081664931e-06,2.0377449932213738e-05
4.283915912009575e-07,7.110469879113447e-07,1.1558204510902628e-06,2.0512734381029393e-05
4.353709161503464e-07,7.216252895949865e-07,1.1588560768176516e-06,2.0671581065918352e-05
4.424544308712834e-07,7.321226542772006e-07,1.1613862323605305e-06,2.085212501784208e-05
4.4961961390183677e-07,7.424918319633883e-07,1.1634222396297078e-06,2.1052676738811027e-05
4.5684117058030043e-07,7.526893883534953e-07,1.1649737211495885e-06,2.1271477685100863e-05
4.640913397788106e-07,7.626812699935723e-07,1.166047186333371e-06,2.1506530810717857e-05
4.713413463985739e-07,7.724504273084249e-07,1.1666447586148999e-06,2.175557109609131e-05
4.78562073783296e-07,7.819964982017732e-07,1.1667655331518931e-06,2.201612537963612e-05
4.857245284784296e-07,7.913271561374063e-07,1.1664081773350971e-06,2.228564268344417e-05
4.928004283791228e-07,8.00450753866867e-07,1.1655718338821377e-06,2.256176860469484e-05
4.997613880317126e-07,8.093784422414066e-07,1.1642547170869312e-06,2.2842718944893906e-05
5.065773047424071e-07,8.181319565269823e-07,1.1624521990180041e-06,2.3127500339182785e-05
5.132160853450033e-07,8.267471193096799e-07,1.1601566206579387e-06,2.3415819827861162e-05
5.196444928089121e-07,8.352699440729295e-07,1.1573580196104471e-06,2.370783116151277e-05
5.258288046770511e-07,8.437487016304803e-07,1.1540443450665064e-06,2.400388471873221e-05
5.317355190811753e-07,8.522255998405193e-07,1.1502031174270672e-06,2.430431315619432e-05
5.37332133101226e-07,8.607312497022288e-07,1.1458257245324509e-06,2.4609382517496147e-05
5.425882782428012e-07,8.692830739184635e-07,1.1409119159112294e-06,2.49194965974249e-05
5.474785502963522e-07,8.778858834225203e-07,1.1354720748270969e-06,2.523541239893574e-05
5.51984612039763e-07,8.865335510910509e-07,1.1295254142567344e-06,2.5558220078545155e-05
5.560932954207209e-07,8.952128771185923e-07,1.1230936987339495e-06,2.588916599683096e-05
5.597933406916468e-07,9.039086399543012e-07,1.116195219336035e-06,2.622950232843392e-05
5.630738898779301e-07,9.126051258806641e-07,1.1088446375954884e-06,2.6580428116599398e-05
5.659240686629784e-07,9.212828650357195e-07,1.1010581142878343e-06,2.694308495542689e-05
5.683329947183283e-07,9.299152419325041e-07,1.0928585910291343e-06,2.7318544235435708e-05
5.70290363476758e-07,9.384678194902781e-07,1.084276554281186e-06,2.7707772776936945e-05
5.717871624983618e-07,9.468992436396006e-07,1.0753459353198792e-06,2.811160863376277e-05
5.72815956225625e-07,9.551625707800067e-07,1.0661004050896317e-06,2.853074251445063e-05
5.733712782527808e-07,9.63206407219776e-07,1.0565741133976769e-06,2.896566535394176e-05
5.734502929138218e-07,9.709765919488063e-07,1.0468037665758325e-06,2.941658516045852e-05
5.730526280572248e-07,9.784192888406678e-07,1.0368272785437592e-06,2.988334606922569e-05
5.721801240559206e-07,9.854830083857599e-07,1.0266794198967235e-06,3.0365344881265996e-05
5.708383043665483e-07,9.921176265503435e-07,1.0163881981731345e-06,3.086144715994317e-05
5.690378140251778e-07,9.982727900764926e-07,1.0059736224220969e-06,3.1369984070965825e-05
5.667929012020961e-07,1.0038981666438117e-06,9.954485237022542e-07,3.188887385876151e-05
5.641190081186161e-07,1.008945609186998e-06,9.848220021227478e-07,3.2415774304439163e-05
5.610334228896875e-07,1.0133713445670557e-06,9.74104896957315e-07,3.294818617449335e-05
5.575576086477003e-07,1.0171361224490775e-06,9.6331439179333e-07,3.3483528211412345e-05
5.537167287751265e-07,1.0202057334225612e-06,9.524753407206032e-07,3.401920324724275e-05
5.495362108149463e-07,1.0225547498607149e-06,9.416184384653986e-07,3.4552644571565485e-05
5.45038990945119e-07,1.0241695788673493e-06,9.307790654457234e-07,3.5081343627622605e-05
5.402447509086867e-07,1.0250469888743785e-06,9.199984114243071e-07,3.5602861865474383e-05
5.351703619860993e-07,1.0251921349526395e-06,9.09321729339057e-07,3.611479771746851e-05
5.298315342907029e-07,1.024621544028967e-06,8.987916822105104e-07,3.6614695422585605e-05
5.242448694233552e-07,1.0233684167935335e-06,8.884421906266999e-07,3.7099970596779826e-05
5.18428443292298e-07,1.021483082346413e-06,8.782966726995519e-07,3.756790999303653e-05
5.124008616015586e-07,1.019028377553169e-06,8.683702110450941e-07,3.801570460688873e-05
5.061806299541003e-07,1.0160747897882944e-06,8.586734308316323e-07,3.844050421316935e-05
4.99786325429752e-07,1.0126955297829052e-06,8.492149403950484e-07,3.883951731255509e-05
4.932363991774602e-07,1.0089606257254672e-06,8.400010490334009e-07,3.921011037249249e-05
4.865488358028333e-07,1.0049339548373908e-06,8.310347488264808e-07,3.954983032556786e-05
4.797415665960495e-07,1.0006744170145337e-06,8.223162411620851e-07,3.985634827757976e-05
4.728327414307889e-07,9.96236200477938e-07,8.138446476000898e-07,4.012740979597892e-05
4.658405229461272e-07,9.916670305683631e-07,8.056193496982244e-07,4.036086522771734e-05
4.5878328661694443e-07,9.870079026062716e-07,7.976410524318399e-07,4.055476995428885e-05
4.5167926311422605e-07,9.822932637915528e-07,7.89912883853336e-07,4.0707527193846705e-05
4.445451898446079e-07,9.77549116308298e-07,7.824414478479272e-07,4.0818064320680294e-05
4.373965138216816e-07,9.727911767913003e-07,7.752384369074731e-07,4.088596078570305e-05
4.302499580024083e-07,9.680263251796525e-07,7.683219750483369e-07,4.091141018273071e-05
4.2312499996523965e-07,9.63257127212466e-07,7.61714992209963e-07,4.089501892174649e-05
4.160419837275727e-07,9.584873136145485e-07,7.554397450154486e-07,4.0837557833562405e-05
4.090195129664721e-07,9.53727011006684e-07,7.495121037564573e-07,4.073980498593218e-05
4.020737358366649e-07,9.489976234238094e-07,7.439396469407665e-07,4.0602540094818954e-05
3.952187848965328e-07,9.443352710532744e-07,7.387219227422335e-07,4.042661060963863e-05
3.884670330177077e-07,9.397890173821682e-07,7.338500400515566e-07,4.0212963850096186e-05
3.818287145039646e-07,9.354135723504787e-07,7.293073771123245e-07,3.996267439746924e-05
3.7531168404775636e-07,9.31261306633884e-07,7.250727614026306e-07,3.9677088164232066e-05
3.689221593259779e-07,9.273753274324629e-07,7.211243561400438e-07,3.9358025363695205e-05
3.6266576412584076e-07,9.237841476418491e-07,7.174429277547944e-07,3.900781642691658e-05
3.5654818418608533e-07,9.205007481236737e-07,7.140137626090899e-07,3.862914651689986e-05
3.50575154633015e-07,9.175250235671101e-07,7.108260240392157e-07,3.822485920820787e-05
3.447515987437249e-07,9.148463340874674e-07,7.078698015592745e-07,3.779779853800356e-05
3.390813321027991e-07,9.124469485110269e-07,7.051342265691516e-07,3.735077565595824e-05
3.33569125689645e-07,9.103073149983237e-07,7.026087232981403e-07,3.688672834460666e-05
3.282243367396554e-07,9.084094693737127e-07,7.002844309485604e-07,3.6408914023240085e-05
3.230631878619039e-07,9.067354023203413e-07,6.981530604787445e-07,3.592091165474432e-05
3.181085544325646e-07,9.052630766372718e-07,6.962042174136215e-07,3.542644618928691e-05
3.133889717298604e-07,9.039650112393991e-07,6.944233023480432e-07,3.4929187100357645e-05
3.089372893525981e-07,9.028108262060178e-07,6.927907983893936e-07,3.4432595794266934e-05
3.047878024691508e-07,9.017706405378898e-07,6.912821955114641e-07,3.3939817884940744e-05
3.009726540868999e-07,9.008155839911928e-07,6.898685250157636e-07,3.345360560856031e-05
2.975187818389429e-07,8.999163635554319e-07,6.885178818988825e-07,3.2976279688755924e-05
2.9444567443354865e-07,8.990423959041754e-07,6.871968840304449e-07,3.2509746310352896e-05
2.91764769929858e-07,8.981615984297913e-07,6.858719972281335e-07,3.205554091493552e-05
2.894803241242848e-07,8.9724191462481e-07,6.845118065527351e-07,3.161484386398685e-05
2.875903710779397e-07,8.962536911353094e-07,6.830902923088715e-07,3.1188465923897595e-05
2.8608775789010283e-07,8.951689374866463e-07,6.815897484380366e-07,3.0776840920994735e-05
2.8496134955911284e-07,8.939584732410457e-07,6.800008018485737e-07,3.038003877912713e-05
2.8419689708006937e-07,8.925917250395037e-07,6.78318760000825e-07,2.999781597020384e-05
2.837784935711289e-07,8.910401786065802e-07,6.765389584324793e-07,2.962972580980617e-05
2.8369087721978284e-07,8.892826808927532e-07,6.746542709957288e-07,2.927524889843557e-05
2.8391986574102487e-07,8.873108284819597e-07,6.726549917397169e-07,2.8933870376706914e-05
2.844503316068975e-07,8.851310531538835e-07,6.70529513765614e-07,2.860508990512867e-05
2.8526537934373484e-07,8.827603477633705e-07,6.682664924187963e-07,2.8288410135947496e-05
2.863474887551084e-07,8.802183844773384e-07,6.658587162681003e-07,2.7983341811328248e-05
2.8767855612345124e-07,8.775228627787045e-07,6.633057635334104e-07,2.7689421294683332e-05
2.892386473201002e-07,8.746910038566912e-07,6.606153501942489e-07,2.740621470127174e-05
2.910063249347832e-07,8.717451364062988e-07,6.578050525239477e-07,2.713329012799136e-05
2.9296102243044107e-07,8.687183592741625e-07,6.549012874349807e-07,2.6870164198907128e-05
2.9508434759701964e-07,8.656548190632969e-07,6.519340479699112e-07,2.661627374333868e-05
2.973588676765136e-07,8.626051040018323e-07,6.489331873619332e-07,2.637101065838463e-05
2.9976653564532674e-07,8.596234556003231e-07,6.459301351662875e-07,2.613377131514989e-05
3.022878442492377e-07,8.567658826544022e-07,6.429610220542654e-07,2.590396558014993e-05
3.0490110938762195e-07,8.540834580975269e-07,6.400667888086343e-07,2.568099287971968e-05
3.0758254307664337e-07,8.516139464788381e-07,6.372910345770735e-07,2.5464209553111505e-05
3.103077127920784e-07,8.493785320147671e-07,6.346781451593925e-07,2.5252913393521593e-05
3.130532440049193e-07,8.473835478567916e-07,6.322721475920412e-07,2.504634689675854e-05
3.1579769672242123e-07,8.456242281044021e-07,6.301140323513663e-07,2.4843691664357752e-05
