3.7796751253199674e-07,6.117711488454643e-07,3.8980731972533113e-07,1.921301801882586e-05
3.7751394034027023e-07,6.103843835042731e-07,3.871957505995505e-07,1.9165810097165365e-05
3.772212581506211e-07,6.088229690186206e-07,3.847232358661518e-07,1.9112174823844484e-05
3.770784619915302e-07,6.071070323415725e-07,3.823974217558605e-07,1.905185697073316e-05
3.770734715791596e-07,6.052561943000141e-07,3.802211035731728e-07,1.8984755894477247e-05
3.771931007089871e-07,6.032869259092652e-07,3.7819381246860593e-07,1.8910962259629637e-05
3.774239908577104e-07,6.012133801684447e-07,3.7631390966648656e-07,1.8830648377013013e-05
3.777531032597515e-07,5.99049320321762e-07,3.745795463972036e-07,1.8743931561528102e-05
3.781687277097649e-07,5.968089176022761e-07,3.7298863409500435e-07,1.8650841766800377e-05
3.7866504127225206e-07,5.945071631004529e-07,3.7153854492012344e-07,1.855140478816953e-05
3.792469465978435e-07,5.921613751288811e-07,3.70226037849566e-07,1.8445777545053507e-05
3.7992947451371705e-07,5.897914320944015e-07,3.690485367536351e-07,1.8334341200316733e-05
3.8073307113586103e-07,5.874167362134162e-07,3.680077684764141e-07,1.8217690736472386e-05
3.816786984226374e-07,5.850528255314492e-07,3.671130713959301e-07,1.8096542957030967e-05
3.827845980668067e-07,5.827099626126855e-07,3.6637965917395813e-07,1.797160858754988e-05
3.8406624118362345e-07,5.803928582387148e-07,3.658228098363761e-07,1.7843487255418364e-05
3.8553895640645593e-07,5.781011567125975e-07,3.654532380460212e-07,1.771267289999404e-05
3.872202867255447e-07,5.758308103993842e-07,3.652761873421619e-07,1.7579665462852153e-05
3.891305155029808e-07,5.735750798605922e-07,3.6529326629993844e-07,1.7445059360043505e-05
3.9129244826137705e-07,5.713248881136512e-07,3.655036894991501e-07,1.7309519531151874e-05
3.937305788978753e-07,5.690699447065377e-07,3.6590328248371e-07,1.7173676740766266e-05
3.964685385339773e-07,5.667996856513353e-07,3.664838006547125e-07,1.7038031512656256e-05
3.995271873032202e-07,5.645030336397862e-07,3.6723366972728097e-07,1.690292724163364e-05
4.029261752613514e-07,5.621691638068504e-07,3.681387222121184e-07,1.6768593395962182e-05
4.0668775887606174e-07,5.59789094630603e-07,3.691833196169101e-07,1.6635239718580926e-05
4.108414780943042e-07,5.57354980542456e-07,3.703524751611015e-07,1.6503198591802878e-05
4.154284956199784e-07,5.54857852638009e-07,3.716337393720308e-07,1.6373140079731283e-05
4.205015618433558e-07,5.52287324942686e-07,3.730181085391517e-07,1.6246291884246106e-05
4.261178230835528e-07,5.496334484150848e-07,3.7449966141011743e-07,1.6124471014515954e-05
4.323286938037693e-07,5.468880562992065e-07,3.760732037142634e-07,1.6009879600263488e-05
4.391732089953853e-07,5.44044095570075e-07,3.7773125970602843e-07,1.5904829088302988e-05
4.466752183221467e-07,5.410941365564198e-07,3.7946298633733295e-07,1.5811514090446467e-05
4.548428740227314e-07,5.380298731852139e-07,3.8125494421528506e-07,1.5731886243041575e-05
4.636718148465971e-07,5.348422735731263e-07,3.8309208407750284e-07,1.5667737549031547e-05
4.7315119604304274e-07,5.31521291555211e-07,3.8495897401953047e-07,1.5620958772751942e-05
4.832686109170318e-07,5.280554340413425e-07,3.8684191870868357e-07,1.559369729297056e-05
4.940122570327203e-07,5.244321045210771e-07,3.887314567083864e-07,1.5588298597204427e-05
5.053719026233221e-07,5.206389802861164e-07,3.9062471129637903e-07,1.5607170226189347e-05
5.173394960229026e-07,5.166656207341324e-07,3.92526470666501e-07,1.56526572985728e-05
5.299086904864334e-07,5.125049754816236e-07,3.9444740548268654e-07,1.5726923432226903e-05
5.430746849009734e-07,5.081546314920183e-07,3.96400859744491e-07,1.5831836148432605e-05
5.568360861346564e-07,5.036165500769443e-07,3.984005511081061e-07,1.5968879582842068e-05
5.711964847631032e-07,4.988966070575828e-07,4.004585877421997e-07,1.6139115798598662e-05
5.861629145559221e-07,4.940060917648201e-07,4.0258300983515866e-07,1.6343174864752658e-05
6.017409795170641e-07,4.889621605333905e-07,4.0477579991755157e-07,1.658122533996727e-05
6.179279981860803e-07,4.837855586716028e-07,4.070326536528953e-07,1.685291053061135e-05
6.347072065724774e-07,4.78500391508712e-07,4.0934525435867683e-07,1.715729144369941e-05
6.5204567348256e-07,4.731369838802927e-07,4.117052685179587e-07,1.7492851789223036e-05
6.698955300743356e-07,4.6773199994163416e-07,4.141080691875551e-07,1.7857590599042726e-05
6.881968469551182e-07,4.6232441954325296e-07,4.1655448507980493e-07,1.824918618972701e-05
7.068809738944023e-07,4.5695285489736576e-07,4.190494828665913e-07,1.8665192398650056e-05
7.258736099255336e-07,4.516568651280989e-07,4.215986012678393e-07,1.9103215900623747e-05
7.450976625690817e-07,4.464783590818474e-07,4.2420514243943727e-07,1.9561026116688267e-05
7.644759350477162e-07,4.414599972024761e-07,4.268699541288157e-07,2.0036602993425078e-05
7.839336184127063e-07,4.366424753583106e-07,4.295927051516694e-07,2.0528160360875905e-05
8.034003845304391e-07,4.320623696953474e-07,4.323722130606439e-07,2.103413807145519e-05
8.228103566023181e-07,4.2775102592121357e-07,4.352052241269335e-07,2.155313411631764e-05
8.420992636876926e-07,4.2373640137247424e-07,4.380857361360668e-07,2.2083785683457518e-05
8.612007774838646e-07,4.200469979573546e-07,4.4100587003756724e-07,2.2624627840566936e-05
8.800448953757227e-07,4.1671254901961655e-07,4.4395674308399036e-07,2.31739654525636e-05
8.98560092685625e-07,4.137601563285124e-07,4.469282065407836e-07,2.372983804235029e-05
9.166763984222616e-07,4.1121108713149526e-07,4.4990828409415524e-07,2.429011719924184e-05
9.343251269113985e-07,4.090815077167298e-07,4.528832117130001e-07,2.485264049964101e-05
9.514364935864895e-07,4.0738631928380277e-07,4.5583747206682727e-07,2.541528870911157e-05
9.679388958216872e-07,4.0614331109777005e-07,4.5875380322099866e-07,2.5976021083656092e-05
9.837610206591636e-07,4.0537351420462243e-07,4.6161487991032725e-07,2.653287561347591e-05
9.98835563517609e-07,4.0509758851486525e-07,4.6440672124415844e-07,2.708390393511651e-05
1.0131016213759405e-06,4.053322340913589e-07,4.6712164519269454e-07,2.762711057228385e-05
1.0265034165983256e-06,4.060883290628987e-07,4.6975956655990154e-07,2.8160487365840425e-05
1.0389871739716606e-06,4.073724425693117e-07,4.723267482820263e-07,2.8682088910273974e-05
1.0504996803703123e-06,4.091940414732423e-07,4.748313844725009e-07,2.9190070387141716e-05
1.0609890251008886e-06,4.1157354327936657e-07,4.772786944913802e-07,2.968267075498504e-05
1.0704061884481515e-06,4.145432706248655e-07,4.796688492996056e-07,3.01581448175292e-05
1.0787074393469364e-06,4.181409749299232e-07,4.819974663273128e-07,3.0614700466615594e-05
1.08585709485379e-06,4.2240044925002106e-07,4.842568945458812e-07,3.105050473040455e-05
1.0918284412102342e-06,4.273436062351353e-07,4.864375934143238e-07,3.146375727434282e-05
1.09660292795341e-06,4.329780524541089e-07,4.885293601650446e-07,3.18527957832171e-05
1.100169640670183e-06,4.392987603789978e-07,4.905230598951289e-07,3.221617918668024e-05
1.1025252867103443e-06,4.4628868987167474e-07,4.924142773585347e-07,3.255268533035973e-05
1.1036737982243036e-06,4.5391859832530097e-07,4.942075880335387e-07,3.286121784512298e-05
1.1036247360845452e-06,4.621487903681402e-07,4.959172618903766e-07,3.314070460892657e-05
1.1023911158196713e-06,4.709315978262687e-07,4.975627177028374e-07,3.339010273303009e-05
1.0999875177367173e-06,4.802125652177368e-07,4.991629373862824e-07,3.3608534000709334e-05
1.0964287259558071e-06,4.899310804708183e-07,5.007342504903157e-07,3.379539803793005e-05
1.0917304118395254e-06,5.000218582412755e-07,5.022898741125818e-07,3.395031839555033e-05
1.085912103093238e-06,5.104183459266975e-07,5.038391229490125e-07,3.407300592640389e-05
1.0789998764558724e-06,5.210584540966968e-07,5.053876940133237e-07,3.41631824843341e-05
1.0710263856671095e-06,5.318901314819758e-07,5.069390283246741e-07,3.422055591392503e-05
1.062028230945502e-06,5.428731347521326e-07,5.084950571189877e-07,3.424480349327592e-05
1.052043357746735e-06,5.539760332697312e-07,5.100558852719594e-07,3.4235583450676085e-05
1.0411103544514941e-06,5.651721647136445e-07,5.116189052853664e-07,3.419257743168886e-05
1.0292684102439252e-06,5.764384762785622e-07,5.131781683671836e-07,3.411552984007709e-05
1.0165569338605026e-06,5.877547203449746e-07,5.147259238653513e-07,3.400425935791259e-05
1.0030157251092191e-06,5.991001127974737e-07,5.162579803644571e-07,3.385865118265636e-05
9.886862493973988e-07,6.104507312391238e-07,5.177799519128246e-07,3.3678660786520084e-05
9.736125774515542e-07,6.217796131808894e-07,5.193087476354038e-07,3.3464336530062304e-05
9.578406436451108e-07,6.330569843948672e-07,5.208683037136937e-07,3.321585252855555e-05
9.414174144940605e-07,6.442494731962183e-07,5.224835028882576e-07,3.293356442468055e-05
9.243913828639505e-07,6.553193762135644e-07,5.241768517978032e-07,3.261808283978907e-05
9.068129551677313e-07,6.662260598269935e-07,5.259702629918026e-07,3.227031650483533e-05
8.887336672809374e-07,6.769311120803584e-07,5.278899528310921e-07,3.189143992207126e-05
8.702056843538708e-07,6.874036845060028e-07,5.299706332795341e-07,3.1482793364804084e-05
8.512831615183001e-07,6.976202498735894e-07,5.32257410146012e-07,3.1045778679895505e-05
8.320236581539163e-07,7.075597646064669e-07,5.348042180532639e-07,3.058180167885821e-05
8.124877338363896e-07,7.172009757143163e-07,5.376667821305242e-07,3.009225690626152e-05
7.927383909302911e-07,7.265240141076708e-07,5.408928206316571e-07,2.957852837336236e-05
7.728404830057646e-07,7.355113282887481e-07,5.445178032090971e-07,2.9041992960084804e-05
7.528589549315442e-07,7.441454617157694e-07,5.485683843529344e-07,2.8484034558874077e-05
7.328576069275745e-07,7.524067129666923e-07,5.530650481701898e-07,2.790608475771831e-05
7.128988265585362e-07,7.60272905736705e-07,5.580190785817441e-07,2.7309702771603656e-05
6.930428517349412e-07,7.67721614594837e-07,5.634288960136747e-07,2.6696675358289475e-05
6.733468775004343e-07,7.747332716927948e-07,5.692799285632564e-07,2.606906458333508e-05
6.538643801627632e-07,7.81291217523895e-07,5.755464752958632e-07,2.542915711021581e-05
6.346445472124425e-07,7.873786521046687e-07,5.821933520466131e-07,2.477935345777005e-05
6.157322046313797e-07,7.929772863920373e-07,5.891771942841964e-07,2.412205233222094e-05
5.971676965242696e-07,7.980693880271859e-07,5.96447908792954e-07,2.3459560517937366e-05
5.789865879070708e-07,8.02639494286956e-07,6.039498938564412e-07,2.2794055530147066e-05
5.612203590803521e-07,8.066730089049842e-07,6.116227019329936e-07,2.212759203020344e-05
5.438975511126506e-07,8.101540735392744e-07,6.194014749948836e-07,2.1462110182496928e-05
5.270441878098074e-07,8.130657447627754e-07,6.272179359192386e-07,2.07994503988654e-05
5.106845332828767e-07,8.153919476363629e-07,6.350030303828157e-07,2.014140848666824e-05
4.948422499224758e-07,8.171199939789052e-07,6.426918637347692e-07,1.948983035042305e-05
4.795402423713463e-07,8.182429231455836e-07,6.502303758370457e-07,1.8846711009537124e-05
4.647997731756493e-07,8.187602720372695e-07,6.575809822821454e-07,1.8214233333250032e-05
4.506404954868583e-07,8.186772480821003e-07,6.647242579939806e-07,1.7594700709597606e-05
4.370814169976778e-07,8.180039682999098e-07,6.71656228748576e-07,1.699040283265932e-05
4.2414185923043595e-07,8.167564569308927e-07,6.783817191575486e-07,1.6403488073107282e-05
4.1184106638532706e-07,8.149587734398518e-07,6.849068286596871e-07,1.5835897096795466e-05
4.0019620421687325e-07,8.126426706173557e-07,6.912366072843689e-07,1.5289382532362285e-05
3.892206419882774e-07,8.09843967481646e-07,6.973775117634211e-07,1.4765557803332416e-05
3.789237201699077e-07,8.065991663303013e-07,7.033370100822644e-07,1.426590176443779e-05
3.693105257845864e-07,8.029440326369539e-07,7.091191346654015e-07,1.3791720861229416e-05
3.603808163719972e-07,7.989132938510723e-07,7.147232348584445e-07,1.3344084715768435e-05
3.521285418136468e-07,7.94541067267727e-07,7.201490285948927e-07,1.292376494698631e-05
3.445422045089397e-07,7.898607630891117e-07,7.254031808385216e-07,1.2531233187804753e-05
3.376052509324573e-07,7.849027242494062e-07,7.305031127393104e-07,1.2166705463994334e-05
3.312969475944904e-07,7.796911071244252e-07,7.354773521932693e-07,1.1830184582262493e-05
3.25593533875764e-07,7.742429507579732e-07,7.403614010139805e-07,1.1521531086210393e-05
3.2046908424709806e-07,7.685696652719497e-07,7.451904062979728e-07,1.1240640028475059e-05
3.158968835698114e-07,7.626796610524145e-07,7.499942610908862e-07,1.0987696617073747e-05
3.118509696767507e-07,7.56581259187844e-07,7.547973009247264e-07,1.0763319919005375e-05
3.083062877657017e-07,7.502854694295434e-07,7.596195476203602e-07,1.05684668855332e-05
3.0523856651546056e-07,7.438086700581904e-07,7.644766524493391e-07,1.0404189520284351e-05
3.026259763671877e-07,7.371742068337314e-07,7.693773583077266e-07,1.027140885813241e-05
3.004511550972038e-07,7.304115563707655e-07,7.743199384685194e-07,1.0170870394961344e-05
2.98701370353717e-07,7.23554040243979e-07,7.792914630372731e-07,1.0103296780195867e-05
2.973675078580821e-07,7.166366618450332e-07,7.842717981678434e-07,1.0069493457187653e-05
2.9644247789461175e-07,7.096943996622412e-07,7.892388163899049e-07,1.007027060028416e-05
2.959182359582343e-07,7.02760587401214e-07,7.941697573099501e-07,1.0106290047440497e-05
2.957830148394702e-07,6.958645150140075e-07,7.990395582374051e-07,1.0177939310684537e-05
2.9602076155008467e-07,6.890293284496628e-07,8.038204196417885e-07,1.0285277460226917e-05
2.966116809578372e-07,6.822722164000957e-07,8.084832298003425e-07,1.0428050823099214e-05
2.975333090726151e-07,6.756061119209321e-07,8.129992359634756e-07,1.0605722914206274e-05
2.9876242381011693e-07,6.690412439260468e-07,8.173413435382608e-07,1.0817479981442407e-05
3.002760424940955e-07,6.625855805799736e-07,8.21483988290893e-07,1.1062220752125816e-05
3.020507203622958e-07,6.562443597565782e-07,8.254013125381415e-07,1.1338551193796308e-05
3.040626939659459e-07,6.500200902933232e-07,8.29066567631703e-07,1.164477885824778e-05
3.062901815636674e-07,6.439131697589813e-07,8.324547483008406e-07,1.1978899521606415e-05
3.08715572077343e-07,6.379228814927192e-07,8.355468124851846e-07,1.2338603412654773e-05
3.113265648846752e-07,6.320482824903413e-07,8.383331869725454e-07,1.2721327241999468e-05
3.1411675838697966e-07,6.262872478536132e-07,8.408165374025592e-07,1.312434178449262e-05
3.170839208813095e-07,6.206349040794997e-07,8.430160237324193e-07,1.3544844463425552e-05
3.202259300640038e-07,6.150848796727204e-07,8.4497191878264e-07,1.398003208683566e-05
3.235378978829413e-07,6.096320422763296e-07,8.467448990993395e-07,1.4427143997190549e-05
3.270120858898564e-07,6.042727339473406e-07,8.484081425150548e-07,1.4883468531499935e-05
3.3063855509755967e-07,5.990033306486748e-07,8.500360562423012e-07,1.5346321413668662e-05
3.344045977067866e-07,5.938210546770707e-07,8.516935268246488e-07,1.5813038633311247e-05
3.3829423687354323e-07,5.887269105062797e-07,8.534288220303013e-07,1.628100958909554e-05
3.422893580613441e-07,5.837263403390149e-07,8.552718160950606e-07,1.6747728303675747e-05
3.463709701277379e-07,5.788258585615433e-07,8.57235822430386e-07,1.721082030783971e-05
3.5051971508279505e-07,5.740289113547777e-07,8.593215178218431e-07,1.766800897976866e-05
3.547170010457339e-07,5.693340235124772e-07,8.615223863458482e-07,1.8117055179178195e-05
3.5894748294535494e-07,5.647353990893077e-07,8.638287224650191e-07,1.855577890481234e-05
3.632016147366685e-07,5.602246511491557e-07,8.662280595296454e-07,1.8982182822026803e-05
3.6747470250669326e-07,5.557928793161934e-07,8.687048943402296e-07,1.9394557038739792e-05
3.717618774296461e-07,5.51433837542691e-07,8.71243510570624e-07,1.979149153924784e-05
3.76054880728208e-07,5.471469185965011e-07,8.738325885068608e-07,2.0171819438156853e-05
3.8034442183090975e-07,5.429360722044273e-07,8.764680561497181e-07,2.0534509893283375e-05
3.8462415906556137e-07,5.388058626385892e-07,8.791541940251243e-07,2.087857279021743e-05
3.8889208357224886e-07,5.347603370852664e-07,8.81903668093993e-07,2.1203050253295723e-05
3.931504714213028e-07,5.308041545874004e-07,8.847352794487759e-07,2.150705630845605e-05
3.97404994292799e-07,5.269420054821291e-07,8.876709749145523e-07,2.1789839051990658e-05
4.0166124816434e-07,5.231790531403037e-07,8.907347588535837e-07,2.2050883810315773e-05
4.0592065884654387e-07,5.195258934768238e-07,8.939505584404984e-07,2.2289962082883435e-05
4.101790025738068e-07,5.160037951061257e-07,8.973362039335898e-07,2.250705568281185e-05
4.1442720250627096e-07,5.126445723965504e-07,9.008982199753105e-07,2.270224340594017e-05
4.186527480110656e-07,5.0948616854062e-07,9.046327265165865e-07,2.287563526153445e-05
4.228409578584235e-07,5.0656861802989e-07,9.085312579291088e-07,2.302734191472334e-05
4.269756981433173e-07,5.039314620182347e-07,9.125863354041063e-07,2.315744790936896e-05
4.3103988958880616e-07,5.016115631490233e-07,9.167927967284478e-07,2.326600628558571e-05
4.3501622384084733e-07,4.996420637982596e-07,9.211453233737531e-07,2.3353059018050963e-05
4.3888707995362455e-07,4.980523689142401e-07,9.256348923094343e-07,2.341863858836933e-05
4.426333976693799e-07,4.968677645562498e-07,9.302450313067758e-07,2.346275235470717e-05
4.462345877278263e-07,4.961078970886082e-07,9.349489227836077e-07,2.348542383262471e-05
4.496705818753251e-07,4.957841176753887e-07,9.397097274690506e-07,2.348687666982045e-05
4.529235466896494e-07,4.958978252381326e-07,9.444832079564541e-07,2.346783645454127e-05
4.559769552494796e-07,4.964412361353568e-07,9.492191796346695e-07,2.3429690376541025e-05
4.5881373257943137e-07,4.973984297466336e-07,9.538614689252262e-07,2.3374292173406563e-05
4.6141560492969045e-07,4.987454015214533e-07,9.58349407510527e-07,2.3303643418739946e-05
4.637635864334616e-07,5.004507904373516e-07,9.626233316706999e-07,2.3219781326160142e-05
4.6583899905284566e-07,5.024788959182749e-07,9.666324652025543e-07,2.3124825410872285e-05
4.6762445344790065e-07,5.047953991991062e-07,9.70339128906409e-07,2.30210062977607e-05
4.6910457667390393e-07,5.073736433722835e-07,9.737151721857788e-07,2.291063458100652e-05
4.702663427037493e-07,5.101968554092689e-07,9.767341934669887e-07,2.2796016189646788e-05
4.710989006425704e-07,5.132545212742591e-07,9.79367029294648e-07,2.2679340048667776e-05
4.7159316302766287e-07,5.165366898381615e-07,9.815842323810594e-07,2.256257510821675e-05
4.7174178922422105e-07,5.20031045770444e-07,9.833625941499088e-07,2.244739705254359e-05
4.7154066988017855e-07,5.237229460547573e-07,9.846888972403955e-07,2.233515523025758e-05
4.709907969224513e-07,5.27594934821696e-07,9.855567392312013e-07,2.2226870168527305e-05
4.7009866511463356e-07,5.316249356094785e-07,9.859602868760594e-07,2.2123247108545003e-05
4.68876312875289e-07,5.357857257325453e-07,9.858920171457412e-07,2.2024716782120567e-05
4.6734062813834886e-07,5.400463204115735e-07,9.853455134477555e-07,2.1931504383317868e-05
4.655103420399437e-07,5.443738898764468e-07,9.843187647692983e-07,2.1843687050901527e-05
4.63402987242245e-07,5.487362188058747e-07,9.828142209607336e-07,2.17611994581022e-05
4.6103401191824723e-07,5.531045113470453e-07,9.808366081931218e-07,2.1683800460297657e-05
4.5841710557862814e-07,5.574549568977434e-07,9.78391845812872e-07,2.161107132357396e-05
4.555646608152792e-07,5.617678509473204e-07,9.75487980433608e-07,2.1542488691918527e-05
4.524883705386019e-07,5.660245699556419e-07,9.721375257203643e-07,2.147752937909734e-05
4.492002031209143e-07,5.702051774178503e-07,9.683595316899316e-07,2.14157391116887e-05
4.4571348124370643e-07,5.742902669630918e-07,9.641778735444805e-07,2.1356746033947408e-05
4.4204408619737626e-07,5.782668785871035e-07,9.59615606349974e-07,2.1300254897416565e-05
4.382113821187645e-07,5.821334241038523e-07,9.546903858939974e-07,2.1246059032894275e-05
4.3423706389903753e-07,5.858997600556554e-07,9.494142388770796e-07,2.119406000640208e-05
4.301429845243555e-07,5.895835178708101e-07,9.437964808207264e-07,2.1144251842416878e-05
4.259507927123578e-07,5.93204411387488e-07,9.378485218204836e-07,2.1096645053210773e-05
4.2168237252468813e-07,5.967779627532914e-07,9.315890522382604e-07,2.1051162004152364e-05
4.173595403109817e-07,6.003113405890149e-07,9.250465383178877e-07,2.100757033647202e-05
4.1300369285837933e-07,6.038026062910646e-07,9.182587092673849e-07,2.0965517938267026e-05
4.0863547785168717e-07,6.072428397987913e-07,9.112703653432815e-07,2.092467539162453e-05
4.04274454614324e-07,6.10619532055142e-07,9.041289251264255e-07,2.0884869234994508e-05
3.999393767778491e-07,6.139190310308332e-07,8.968783723866566e-07,2.0846063754997213e-05
3.9564885430007524e-07,6.171287252593415e-07,8.895552245052462e-07,2.0808208462035643e-05
3.9142103648408864e-07,6.202418867009101e-07,8.821896488516304e-07,2.0771102086702696e-05
3.872715788765246e-07,6.232629251218464e-07,8.748102877634497e-07,2.0734370230147065e-05
3.8321171452058113e-07,6.262060484153321e-07,8.674481840566534e-07,2.0697549209301367e-05
3.79248808981791e-07,6.290883560294342e-07,8.601374064959974e-07,2.0660201329845348e-05
3.7538898140804905e-07,6.319278044171828e-07,8.529127251140784e-07,2.062194361473953e-05
3.716391221178345e-07,6.347485120669095e-07,8.458063196415327e-07,2.0582383095238238e-05
3.68006289126439e-07,6.375856807456403e-07,8.388463336385632e-07,2.0541079305120886e-05
3.64495922117316e-07,6.404872896770168e-07,8.32058958966008e-07,2.049757199079973e-05
3.6111216724387297e-07,6.435135009122489e-07,8.254741596912581e-07,2.045141890223148e-05
3.5785966086370074e-07,6.467320487558529e-07,8.19131724244904e-07,2.0402209437461506e-05
3.5474311815946395e-07,6.502104103588835e-07,8.130828446724382e-07,2.034955482765664e-05
3.517649670519061e-07,6.540086651083164e-07,8.073863060899583e-07,2.029306744490488e-05
3.489243789884697e-07,6.58174752914472e-07,8.021006930983758e-07,2.0232347295608577e-05
3.462183226140585e-07,6.627411868307908e-07,7.972751991052418e-07,2.01670208168476e-05
3.436425346838321e-07,6.677231435271982e-07,7.929435990726169e-07,2.00968348665528e-05
3.411914510985497e-07,6.731192779231012e-07,7.891239696285962e-07,2.0021696937244573e-05
3.3885796193964077e-07,6.789143555463362e-07,7.858231110752895e-07,1.994159276812884e-05
3.366332432141468e-07,6.850810118556396e-07,7.830416652171205e-07,1.9856486709083207e-05
3.345064551586376e-07,6.915803825121781e-07,7.807754991958135e-07,1.976634404498285e-05
3.324650417522233e-07,6.983635434605226e-07,7.790148467124006e-07,1.9671236453426644e-05
3.304968112101891e-07,7.053754129892366e-07,7.777454883551224e-07,1.957138139266948e-05
3.28593914120577e-07,7.125608224001495e-07,7.769505159665947e-07,1.9467136184056835e-05
3.2675577204692304e-07,7.198700196915813e-07,7.766094537919359e-07,1.935906382292612e-05
3.2498803924303194e-07,7.272608643590747e-07,7.766960997167664e-07,1.9247991383806774e-05
3.232994799844014e-07,7.346970626830375e-07,7.771783402507261e-07,1.9134971269527367e-05
3.2169942673976105e-07,7.42144915179697e-07,7.780207190777897e-07,1.9021239193008546e-05
3.201959145132755e-07,7.495720846012093e-07,7.79187251393833e-07,1.8908183977902455e-05
3.1879497310998093e-07,7.569474729569314e-07,7.806422291297029e-07,1.879723620094745e-05
3.175009932447662e-07,7.642401809905988e-07,7.823494123628311e-07,1.8689695687755985e-05
3.1631707312250726e-07,7.714194972496427e-07,7.842705200730316e-07,1.8586592866876548e-05
3.152454956062385e-07,7.784557746995643e-07,7.863634645562295e-07,1.8488654706783843e-05
3.142876337821087e-07,7.853190915203715e-07,7.885810621988406e-07,1.8396415379266063e-05
3.1344252595660966e-07,7.919765572777731e-07,7.908709143295745e-07,1.8310410345005397e-05
3.127058169041892e-07,7.983917519591043e-07,7.931765825237234e-07,1.8231285612886632e-05
3.1207009387350197e-07,8.045271581460455e-07,7.95440302276937e-07,1.815976636555264e-05
3.115257902747054e-07,8.103467618596662e-07,7.97606650754292e-07,1.809669763165016e-05
3.110620436915414e-07,8.15816229216595e-07,7.99624207441336e-07,1.8043354137450267e-05
3.106674513765798e-07,8.20902647082092e-07,8.014437526487177e-07,1.8001770165308853e-05
3.103309863668843e-07,8.255768458640731e-07,8.030159493737786e-07,1.7974693008992546e-05
3.100440141190721e-07,8.298170996264024e-07,8.042914661031317e-07,1.7965234876609134e-05
3.098034265413525e-07,8.336100343430686e-07,8.052229128036095e-07,1.7976550022961623e-05
3.0961317309672825e-07,8.369473266763239e-07,8.057666276433198e-07,1.8011704374536946e-05
3.0948213596986014e-07,8.398228272631416e-07,8.05883986760507e-07,1.80737157616134e-05
3.094204195334248e-07,8.422344314398007e-07,8.055416448926997e-07,1.816553961453928e-05
3.094376018196709e-07,8.44188383580996e-07,8.047096040939874e-07,1.8289833307313544e-05
3.0954312943175395e-07,8.457007267079748e-07,8.033590410045779e-07,1.844863318755589e-05
3.0974582530721586e-07,8.467940230111722e-07,8.014623013303148e-07,1.864315867101188e-05
3.100518594029116e-07,8.474922712118144e-07,7.989951062695394e-07,1.8873852793290327e-05
3.104637215921015e-07,8.478168071400433e-07,7.959403794204297e-07,1.9140697601209888e-05
3.109810162584825e-07,8.477840661322273e-07,7.922911553609285e-07,1.9443685467044813e-05
3.1160164127657863e-07,8.474073264204644e-07,7.880488123089638e-07,1.978314957588467e-05
3.123223624126564e-07,8.467023777441116e-07,7.83217902075068e-07,2.0159826265603102e-05
3.131399014584177e-07,8.45692451646899e-07,7.778028137314958e-07,2.057483277282561e-05
3.140540099353085e-07,8.444092341367178e-07,7.718076302725218e-07,2.102967234150102e-05
3.150696996303133e-07,8.42889916766206e-07,7.652370874425896e-07,2.152611676473148e-05
3.161952245954724e-07,8.411713518626035e-07,7.580979174932733e-07,2.206588773183013e-05
3.174381098066456e-07,8.392857580349084e-07,7.504006582934809e-07,2.2650320303505746e-05
3.188024350961329e-07,8.37261466975992e-07,7.421611924805003e-07,2.328017200577613e-05
3.2028732156842215e-07,8.351249797784273e-07,7.334008740513291e-07,2.395555220912253e-05
3.2188628939673664e-07,8.32901870651166e-07,7.24145179724275e-07,2.467588795880522e-05
3.235879431591192e-07,8.306198203723001e-07,7.144229246208923e-07,2.543986649847913e-05
3.253781027868168e-07,8.283129240196546e-07,7.042670067150963e-07,2.6245354638635746e-05
3.272422129948082e-07,8.260221042990781e-07,6.937141175096051e-07,2.708938733104593e-05
3.291662605924233e-07,8.237903221236709e-07,6.828018603077041e-07,2.7968311178289588e-05
3.311367093339833e-07,8.216554234699988e-07,6.715660494479174e-07,2.8878026422116994e-05
3.331410527900628e-07,8.196446661226401e-07,6.60040798464866e-07,2.981419526801969e-05
3.351692903129405e-07,8.177746834078322e-07,6.482596857143712e-07,3.077236414062298e-05
3.372157620635261e-07,8.160582431806301e-07,6.36255925223979e-07,3.1748013518307765e-05
3.39279691675643e-07,8.145144791103081e-07,6.240633423936978e-07,3.27365473060345e-05
3.413647378767396e-07,8.131760966312666e-07,6.1171930392147e-07,3.3733265432110404e-05
3.434797389846072e-07,8.120897616384941e-07,5.992662452235636e-07,3.4733366273961737e-05
3.4563863194376265e-07,8.113110185208159e-07,5.867499319639796e-07,3.573193503446396e-05
3.4785684750779645e-07,8.108965799133307e-07,5.742187547251211e-07,3.672389651452075e-05
3.501475453610516e-07,8.108958349557127e-07,5.617279641877432e-07,3.7704014691828005e-05
3.5252142017959814e-07,8.113439527677174e-07,5.493469293492433e-07,3.866695782520304e-05
3.5498838343637474e-07,8.122592584478766e-07,5.371656388405599e-07,3.9607369351941524e-05
3.5755860471369815e-07,8.136449161503813e-07,5.252963321396311e-07,4.051992524863038e-05
3.6024273262042253e-07,8.154926521932136e-07,5.138664430772427e-07,4.139940210655826e-05
3.630511844236896e-07,8.17786933369016e-07,5.030052872775114e-07,4.224078426383349e-05
3.659928366231521e-07,8.20508857748705e-07,4.92831754344086e-07,4.30393818602394e-05
3.690751214596539e-07,8.236377350631879e-07,4.834475711657043e-07,4.379088941408424e-05
3.723055844249053e-07,8.271488112025108e-07,4.7493638474627684e-07,4.449139056041551e-05
3.756915309118645e-07,8.310101677367887e-07,4.673670820995753e-07,4.513739526272961e-05
3.792366967008322e-07,8.351831256123945e-07,4.6079821816576175e-07,4.572592811203878e-05
3.8293809136142395e-07,8.396251232735312e-07,4.5527905132007896e-07,4.6254585535598436e-05
3.8678524575002337e-07,8.442910980378487e-07,4.508465227536221e-07,4.67214957188565e-05
3.9076174452472575e-07,8.491326741439969e-07,4.475224251218661e-07,4.712519956512215e-05
3.9484870411720117e-07,8.540972528236009e-07,4.4531416563367215e-07,4.746458337549579e-05
3.99028295649889e-07,8.591285801086434e-07,4.4421825547498724e-07,4.773896706303089e-05
4.0328421140679607e-07,8.641690830605259e-07,4.442237449814501e-07,4.7948225808075894e-05
4.0759962288785467e-07,8.691636006048895e-07,4.4531550740592394e-07,4.809276614747889e-05
4.119562328193619e-07,8.74062303736302e-07,4.4747808205787746e-07,4.817335296431752e-05
4.163353690701453e-07,8.788193506492573e-07,4.506990653504049e-07,4.8190911067491134e-05
4.2071891293168997e-07,8.833890320136216e-07,4.5496973407777117e-07,4.8146433236333286e-05
4.2508887950658654e-07,8.877252239017916e-07,4.6027965214870976e-07,4.804102093372598e-05
4.2942660739220905e-07,8.917836500472364e-07,4.666082553853654e-07,4.7875959252967936e-05
4.337124711524743e-07,8.955221462189737e-07,4.7392252186250716e-07,4.765274293280164e-05
4.379265518873337e-07,8.988998486972288e-07,4.821820630241868e-07,4.737311137258683e-05
4.420507952756731e-07,9.01878732716378e-07,4.913449978641249e-07,4.703918889714741e-05
4.4607371433641454e-07,9.044253687182459e-07,5.013711218142814e-07,4.6653622711688063e-05
4.499975717762153e-07,9.065093111281849e-07,5.122212667684262e-07,4.621953530678866e-05
4.53842659494565e-07,9.080998614573227e-07,5.238527729252602e-07,4.57403492830383e-05
4.5764332280630606e-07,9.091649468457926e-07,5.362156081485302e-07,4.5219636076753364e-05
4.6144034043116894e-07,9.096722927852484e-07,5.492526166641867e-07,4.466102097984324e-05
4.6527684548207635e-07,9.09590954979656e-07,5.629015887950454e-07,4.406819738701889e-05
4.6919590726828325e-07,9.088934358138188e-07,5.77096273145156e-07,4.344509431438441e-05
4.732359322009137e-07,9.075597680149515e-07,5.917670133406192e-07,4.2796027361987135e-05
4.774258885447921e-07,9.055814295764215e-07,6.068427764267331e-07,4.2125649968409166e-05
4.817828860240578e-07,9.029616373016287e-07,6.222533619240665e-07,4.143877924858557e-05
4.863131068092965e-07,8.997139744281794e-07,6.379289707195292e-07,4.074023899295446e-05
4.910166659795007e-07,8.95863959932946e-07,6.537970261031447e-07,4.0034733480944984e-05
4.958933989433628e-07,8.91452996735453e-07,6.697791923482249e-07,3.932673163626776e-05
5.009454587418799e-07,8.865406350012968e-07,6.857907840488932e-07,3.862038637116737e-05
5.061776355964294e-07,8.812027522018832e-07,7.017419177542388e-07,3.791951857600285e-05
5.115980889037594e-07,8.755243975752917e-07,7.175393906070844e-07,3.7227660137974294e-05
5.172185827810804e-07,8.695890879270027e-07,7.330890791428968e-07,3.6548102828128414e-05
5.230532259597097e-07,8.634707160376007e-07,7.482984928679019e-07,3.588387676374033e-05
5.291171057155682e-07,8.572321718795322e-07,7.630798934819402e-07,3.523765051727063e-05
5.354250570978014e-07,8.509302174189231e-07,7.773535644234191e-07,3.4611631606951125e-05
5.419897875250198e-07,8.446234849306729e-07,7.91048444917351e-07,3.400754019430237e-05
5.488200809349178e-07,8.383784781585094e-07,8.040994466854137e-07,3.342667392013024e-05
5.559192821870161e-07,8.322701782685848e-07,8.164448540843329e-07,3.287001964753051e-05
5.632827408381096e-07,8.263781755756367e-07,8.280270862736605e-07,3.233833421030612e-05
5.708950139995266e-07,8.207817204868382e-07,8.387952721025506e-07,3.183216474063976e-05
5.787292729653352e-07,8.15555122795963e-07,8.487052820261381e-07,3.13518586013708e-05
5.867487226081762e-07,8.107621084359528e-07,8.577182614398711e-07,3.089761473138101e-05
5.94908188421717e-07,8.064510523224155e-07,8.658030974818297e-07,3.046954496709943e-05
6.031563178255599e-07,8.02654524614296e-07,8.729437201576027e-07,3.0067686330751287e-05
6.11440338845035e-07,7.993910998183891e-07,8.791459326652935e-07,2.969197197407013e-05
6.197109138420015e-07,7.966665696065953e-07,8.844365269826324e-07,2.9342190074361986e-05
6.279219161760732e-07,7.944751615131278e-07,8.888529470264668e-07,2.901792741145975e-05
6.360268952975427e-07,7.928022853196517e-07,8.924316681757656e-07,2.871852226740536e-05
6.43977615658626e-07,7.91628478405522e-07,8.952051736734932e-07,2.844307777797984e-05
6.517248000464764e-07,7.909305870551933e-07,8.972101442683214e-07,2.819052289707992e-05
6.592192517629946e-07,7.906789737318803e-07,8.985007870584458e-07,2.795966975725576e-05
6.664129843839164e-07,7.908352298698404e-07,8.991562245724127e-07,2.7749230995717462e-05
6.732606226867764e-07,7.913530627365563e-07,8.992767647826052e-07,2.7557783062640772e-05
6.79721843402261e-07,7.921810555924007e-07,8.989744984829567e-07,2.738372425427225e-05
6.857639390105547e-07,7.932653588711104e-07,8.983645352265232e-07,2.722528742250769e-05
6.913628497022764e-07,7.945517500363045e-07,8.975571900934629e-07,2.7080621661850048e-05
6.965028313053766e-07,7.959866610884652e-07,8.966501326058649e-07,2.694793929222665e-05
7.011754405070548e-07,7.975167131612806e-07,8.957229985129619e-07,2.6825670739119487e-05
7.053789011713339e-07,7.990880866636598e-07,8.94836877828689e-07,2.6712536731989045e-05
7.09118753545743e-07,8.006470719593389e-07,8.940370399674204e-07,2.66075154042932e-05
7.124092305684977e-07,8.021428403631653e-07,8.933569120980114e-07,2.6509734660163518e-05
7.152741571819598e-07,8.035324737410651e-07,8.928218187225168e-07,2.6418325030185814e-05
7.177451078470104e-07,8.047833931086498e-07,8.924494400445013e-07,2.6332301339194667e-05
7.198555935267655e-07,8.058697145073098e-07,8.922483667477337e-07,2.625056112640679e-05
7.216346241534444e-07,8.067678656894895e-07,8.922197116250578e-07,2.617200918732941e-05
7.231038533204964e-07,8.074556406039405e-07,8.923618782633181e-07,2.609570803248233e-05
7.24278324109875e-07,8.079122044464748e-07,8.92675280824723e-07,2.6020954040415826e-05
7.251680524201964e-07,8.08118519254535e-07,8.931644673079787e-07,2.5947259297215312e-05
7.257789908945541e-07,8.08058500119452e-07,8.938370478906698e-07,2.5874260077295403e-05
7.261140106150496e-07,8.07718550507369e-07,8.947027077351977e-07,2.580163604856867e-05
7.261740915206955e-07,8.070873388019411e-07,8.957751835622427e-07,2.572918258257304e-05
7.259596491191886e-07,8.061604354429731e-07,8.970734453658787e-07,2.565695256777806e-05
7.25471633721737e-07,8.049464198741202e-07,8.986170522370478e-07,2.558520408611811e-05
7.247106527906213e-07,8.034664269476998e-07,9.004188193384182e-07,2.5514228584893882e-05
7.236746195184113e-07,8.017481502806081e-07,9.02482386268597e-07,2.544429695527782e-05
7.22357482331434e-07,7.998219040770435e-07,9.048053812848484e-07,2.5375648330855185e-05
7.207496624193654e-07,7.977192171650126e-07,9.073817735666306e-07,2.530840963631309e-05
7.188395269343319e-07,7.954702573606795e-07,9.102003064816645e-07,2.524251089581203e-05
7.166146122021511e-07,7.931027894493922e-07,9.132418171722088e-07,2.517764782915949e-05
7.14061806870933e-07,7.906449224726188e-07,9.164781737924444e-07,2.511329073031176e-05
7.111679067678808e-07,7.881260578056866e-07,9.1987328336825e-07,2.504871716961174e-05
7.079217969181515e-07,7.855724923919462e-07,9.233852464524577e-07,2.498304884682408e-05
7.043173636537515e-07,7.830027811831053e-07,9.269689990174606e-07,2.491529876430261e-05
7.003555775864985e-07,7.804286529257006e-07,9.305797596794852e-07,2.484442535109884e-05
6.960443537626571e-07,7.778619059628095e-07,9.341765507811364e-07,2.4769370616267635e-05
6.913956158800188e-07,7.75323380194483e-07,9.377237717607624e-07,2.4689064593305968e-05
6.864216720867225e-07,7.728468399210928e-07,9.411889269655363e-07,2.46024142930814e-05
6.81133593069887e-07,7.704749637621583e-07,9.445377389735572e-07,2.450831299166326e-05
6.75541962084858e-07,7.682549668657868e-07,9.477315338337223e-07,2.440566881975139e-05
6.696602490103642e-07,7.662378270955058e-07,9.507282822732157e-07,2.429344658654697e-05
6.635116220992518e-07,7.644758276392098e-07,9.534840615475781e-07,2.417072705180968e-05
6.571381340107494e-07,7.630193837204798e-07,9.559542147301805e-07,2.403674026303487e-05
6.506072114121417e-07,7.619177972085464e-07,9.580955505281885e-07,2.3890838087192385e-05
6.440080420597272e-07,7.612194586637773e-07,9.598683837178876e-07,2.373245261945845e-05
6.374378940580868e-07,7.609669050693807e-07,9.612369526201946e-07,2.3561084293255414e-05
6.309885981605419e-07,7.611904846692882e-07,9.62169724717999e-07,2.337630353408668e-05
6.247419738620404e-07,7.619046149429401e-07,9.626411314170554e-07,2.317775313644121e-05
6.187741399976879e-07,7.631066135075641e-07,9.62632879059191e-07,2.296515498316493e-05
6.131624872435771e-07,7.64777467903028e-07,9.62132250749511e-07,2.273830913079293e-05
6.079910804558845e-07,7.668839677327016e-07,9.611290513261897e-07,2.2497082718384366e-05
6.03355123897386e-07,7.693814753277248e-07,9.596143652354362e-07,2.2241401346127992e-05
5.993617486123185e-07,7.722169177593818e-07,9.5758058301281e-07,2.197125375810332e-05
5.961234603169629e-07,7.753322974521495e-07,9.550214689116257e-07,2.168674822047172e-05
5.93748604189364e-07,7.786698488756925e-07,9.519324034421751e-07,2.1388254780297933e-05
5.923354036287146e-07,7.821781537028976e-07,9.483100420718443e-07,2.107655522703645e-05
5.919716803476397e-07,7.858160550938677e-07,9.441512451831606e-07,2.075284384866332e-05
5.927390536743218e-07,7.895519179585167e-07,9.394532628033116e-07,2.0418547237023888e-05
5.947215399207429e-07,7.933586709696852e-07,9.342163252509764e-07,2.007512808729224e-05
5.980195532502651e-07,7.972080859205184e-07,9.284461097550915e-07,1.972403673744377e-05
6.027604469549182e-07,8.010679665577173e-07,9.221530529675384e-07,1.936680185073321e-05
6.090910566564721e-07,8.049035264970344e-07,9.15350415334248e-07,1.9005131730379567e-05
6.171540074215897e-07,8.086812100548541e-07,9.080549967473013e-07,1.8640905799132834e-05
6.270637337515325e-07,8.123707379922261e-07,9.002887886182144e-07,1.827604404345927e-05
6.388932243941775e-07,8.159434523017118e-07,8.920775646970478e-07,1.7912362418269126e-05
6.526742610804856e-07,8.193698663337768e-07,8.834478572427816e-07,1.755153097296239e-05
6.684076865948041e-07,8.226193261122729e-07,8.744257257789101e-07,1.719516980975766e-05
6.860762034149703e-07,8.256613259088213e-07,8.650387906336939e-07,1.684503818490918e-05
7.056543294282431e-07,8.284682036676144e-07,8.553200605526695e-07,1.6503193911239565e-05
7.271134347891695e-07,8.310205348096677e-07,8.453083453609497e-07,1.6171978706554962e-05
7.50423818781834e-07,8.333115283443594e-07,8.350451579486563e-07,1.5853816024001862e-05
7.755574711131726e-07,8.353435727748529e-07,8.245730141387148e-07,1.5550955130834807e-05
8.024903154124253e-07,8.37119414359517e-07,8.139341894949369e-07,1.5265303430176984e-05
8.312006960213019e-07,8.386377161364163e-07,8.031683433973062e-07,1.4998410518810046e-05
8.616643611247538e-07,8.398962049193952e-07,7.923132226817241e-07,1.4751565857430213e-05
8.938498481301421e-07,8.408972071870456e-07,7.814107115683345e-07,1.4525923229639965e-05
9.277179519683304e-07,8.416495876073423e-07,7.705132432464428e-07,1.4322651254467019e-05
9.6322353909777e-07,8.421650545201948e-07,7.596848985662897e-07,1.4143165614342249e-05
1.0003156647522153e-06,8.42452114204327e-07,7.489994723114769e-07,1.3989329800463572e-05
1.0389352513525343e-06,8.425129209716669e-07,7.385407251947873e-07,1.3863418285730332e-05
1.0790107852894009e-06,8.423435211186563e-07,7.284022616602875e-07,1.3767871348697193e-05
1.1204523641244112e-06,8.419355494634496e-07,7.186816817690396e-07,1.3705023832228705e-05
1.1631460895450745e-06,8.412812983355203e-07,7.094712178815332e-07,1.3676878084494973e-05
1.2069507450377806e-06,8.403805526190055e-07,7.008516683431067e-07,1.3684979300984607e-05
1.2516973877348692e-06,8.392409646370937e-07,6.928937567002765e-07,1.3730520024901893e-05
1.2971921017865593e-06,8.378719871352081e-07,6.856631450242432e-07,1.3814614328978948e-05
1.3432214916801832e-06,8.362820843863533e-07,6.79220047281144e-07,1.3938480919857046e-05
1.3895607145685344e-06,8.344818807314352e-07,6.736132414046615e-07,1.4103430935771134e-05
1.4359835842785543e-06,8.324862300571749e-07,6.688763301501071e-07,1.4310759563783512e-05
1.4822712920789731e-06,8.303130063484992e-07,6.650291967008087e-07,1.4561624327511066e-05
1.5282154547893326e-06,8.279841899543116e-07,6.620830761453288e-07,1.4856943339091749e-05
1.5736146611109653e-06,8.25530091668618e-07,6.60047261874496e-07,1.5197329847546383e-05
1.6182682650469064e-06,8.22992004657591e-07,6.589367727588111e-07,1.5583051457215245e-05
1.6619731468777103e-06,8.204203959559335e-07,6.587801749298878e-07,1.6014002060655855e-05
1.704524897637166e-06,8.17867579355555e-07,6.596237030493296e-07,1.6489694773466993e-05
1.7457207445530326e-06,8.153781273363673e-07,6.615288494177074e-07,1.7009260862738755e-05
1.7853633958176472e-06,8.12984078434255e-07,6.645640968686962e-07,1.7571414213237608e-05
1.8232647170401e-06,8.107065523119131e-07,6.687928959562386e-07,1.817437998628333e-05
1.8592472843353187e-06,8.085603266674485e-07,6.742621859244419e-07,1.8815821775220936e-05
1.893145943500132e-06,8.065591426334116e-07,6.809976942799107e-07,1.9492803855078373e-05
1.9248110427613723e-06,8.047177470145593e-07,6.890074661030427e-07,2.0201828948224047e-05
1.954110960271024e-06,8.030477510014413e-07,6.982874526332227e-07,2.0938964638353416e-05
1.980932936945982e-06,8.015528000672722e-07,7.088226559888494e-07,2.170002499055781e-05
2e-07,8.002285837126491e-07,7.20583003296733e-07,2.2480765238671246e-05
2e-07,7.99066314997771e-07,7.335185993023924e-07,2.3277057146524344e-05
2e-07,7.98057541183148e-07,7.475595032563868e-07,2.408500053842868e-05
2e-07,7.971983186970174e-07,7.626207267265652e-07,2.4900925886564428e-05
2e-07,7.964888568970968e-07,7.786103043506641e-07,2.572130957249901e-05
2e-07,7.959286107723755e-07,7.954383086015777e-07,2.654268505783238e-05
2e-07,7.955129507986116e-07,8.130253310571766e-07,2.7361581702703643e-05
2e-07,7.952341421679923e-07,8.313100845894233e-07,2.817445720848152e-05
2e-07,7.950818932029136e-07,8.502550370851464e-07,2.89776324570286e-05
2e-07,7.950409797190641e-07,8.698465635413817e-07,2.9767277930595545e-05
2e-07,7.950894910098877e-07,8.90086961325359e-07,3.053945628841849e-05
2e-07,7.952002470970277e-07,9.109804687176943e-07,3.129019691410062e-05
2e-07,7.953445088802771e-07,9.325205828611582e-07,3.201559519769618e-05
2e-07,7.954967209579752e-07,9.546861954320594e-07,3.271191642436397e-05
2e-07,7.956387233954868e-07,9.774462171685532e-07,3.337564575434141e-05
2e-07,7.957601381445158e-07,1.0007654463334187e-06,3.400345982141521e-05
2e-07,7.95854231668449e-07,1.0246064499049887e-06,3.4592192081379526e-05
1.9996344224457282e-06,7.959148049801089e-07,1.0489268903179465e-06,3.513886721465288e-05
1.9761115320517646e-06,7.959378113629045e-07,1.0736738890396865e-06,3.5640781163329495e-05
1.9504330566934867e-06,7.959228225706617e-07,1.0987788098123307e-06,3.6095584281652194e-05
1.9226901927851244e-06,7.958694124582374e-07,1.1241563393233151e-06,3.650138432846158e-05
1.8929783171751441e-06,7.957716680800715e-07,1.1497086854377443e-06,3.685683304476111e-05
1.8613972965470416e-06,7.956164056491338e-07,1.1753315739001593e-06,3.716108860830028e-05
1.828050728057273e-06,7.953851459582025e-07,1.2009183765808649e-06,3.741366077856447e-05
1.7930450824647732e-06,7.95055750555783e-07,1.2263624684097817e-06,3.761426333054857e-05
1.7564903918572518e-06,7.946021082374224e-07,1.2515598487633756e-06,3.776274166132775e-05
1.7185021196379108e-06,7.939944906506134e-07,1.2764130950276691e-06,3.785905821419415e-05
1.6792021798537604e-06,7.932024744339713e-07,1.3008360479737314e-06,3.790330350458221e-05
1.6387179853468481e-06,7.921988952962347e-07,1.324755460219077e-06,3.789570556872952e-05
1.5971808826677587e-06,7.909627252724785e-07,1.3481059978490642e-06,3.783666656486732e-05
1.5547265213144515e-06,7.89480671296916e-07,1.3708218800554415e-06,3.772693861974401e-05
1.5114955197620222e-06,7.877470711245253e-07,1.3928337543690231e-06,3.7567906242115694e-05
1.4676303735608022e-06,7.857611230015502e-07,1.4140742401370903e-06,3.73617082583302e-05
1.4232705335348369e-06,7.835235970908456e-07,1.4344850994672276e-06,3.711108247764374e-05
1.3785500254216662e-06,7.810356334360807e-07,1.4540181713120481e-06,3.6819104537329186e-05
1.3335977756256294e-06,7.782979461519783e-07,1.4726313544677402e-06,3.648897139437325e-05
1.2885384957051693e-06,7.7530866223811e-07,1.4902860374629698e-06,3.612391062780991e-05
1.2434922263591964e-06,7.720620976526915e-07,1.5069485948516571e-06,3.572732091623807e-05
1.1985733121869478e-06,7.685511274029886e-07,1.522592324772675e-06,3.530304288228282e-05
1.1538905449659785e-06,7.647718625643243e-07,1.5371958977311192e-06,3.4855457132516056e-05
1.1095475381346062e-06,7.607263522833585e-07,1.5507389070394874e-06,3.4389341616893735e-05
1.0656424651531664e-06,7.564212256967624e-07,1.5631971200326462e-06,3.390967707139644e-05
1.0222680943139312e-06,7.518647869969269e-07,1.5745409675974282e-06,3.3421509610653024e-05
9.795125638952364e-07,7.470665577857424e-07,1.5847384932896872e-06,3.2929848618894105e-05
9.374598231931128e-07,7.420415881724927e-07,1.593758334648317e-06,3.2439563076055514e-05
8.961892143578049e-07,7.368162535704804e-07,1.6015712289947918e-06,3.195528128139411e-05
8.557752725583061e-07,7.314271638742956e-07,1.608152399121372e-06,3.148131938609016e-05
8.162872143807284e-07,7.259123234693604e-07,1.6134823724093722e-06,3.102162973837843e-05
7.777875112218782e-07,7.203041672529502e-07,1.6175445042995926e-06,3.0579726718966417e-05
7.403318414396231e-07,7.146297838557602e-07,1.6203239952082963e-06,3.0158580045956933e-05
7.039704584361195e-07,7.089147107809686e-07,1.6218117108753412e-06,2.976052379250332e-05
6.687482023050714e-07,7.031851329808958e-07,1.6220093683371803e-06,2.938721942216775e-05
6.347033320629401e-07,6.974660968015519e-07,1.6209309444924171e-06,2.903968382474524e-05
6.018678353348533e-07,6.917780149134446e-07,1.6186000527909471e-06,2.871839224760386e-05
5.702708743463965e-07,6.861357148464467e-07,1.6150464291206384e-06,2.842343550161215e-05
5.399439222160471e-07,6.805510862464734e-07,1.610301897845771e-06,2.8154690980109253e-05
5.109245691535672e-07,6.750375100668555e-07,1.6043961470487228e-06,2.7911983259164208e-05
4.832575066462471e-07,6.69613211908312e-07,1.597355666039876e-06,2.7695210131771522e-05
4.5699100163252974e-07,6.643005074722629e-07,1.5892054300371991e-06,2.750440659073748e-05
4.3216906789094116e-07,6.59122068923317e-07,1.5799699352464976e-06,2.7339748153656266e-05
4.088246244879387e-07,6.540984811828707e-07,1.5696734523980881e-06,2.7201512034824438e-05
3.869776942224772e-07,6.49246999877429e-07,1.5583395438316662e-06,2.7089998806097706e-05
3.666375537518016e-07,6.445799671219609e-07,1.545989307651043e-06,2.7005417973161226e-05
3.478057112316361e-07,6.401051451088584e-07,1.5326404951400317e-06,2.6947742420643868e-05
3.304776872687309e-07,6.358286951408839e-07,1.518308978744129e-06,2.691655439197219e-05
3.146435076757858e-07,6.31758304376917e-07,1.5030103885210716e-06,2.691095217726351e-05
3.002871501926139e-07,6.279044331105275e-07,1.4867599023623153e-06,2.6929556795174328e-05
2.8738586176889554e-07,6.242793296676683e-07,1.4695716318161243e-06,2.697059101248413e-05
2.759103647493967e-07,6.208951607335654e-07,1.4514593624922502e-06,2.703200252172749e-05
2.6582528389063485e-07,6.177617859376176e-07,1.4324380611356726e-06,2.7111596732882432e-05
2.5708996578005447e-07,6.14884331537171e-07,1.4125254887772723e-06,2.720710960985693e-05
2.4966014488022427e-07,6.122631280245638e-07,1.3917436770211249e-06,2.7316197581802066e-05
2.434886244764127e-07,6.09897567838415e-07,1.3701199257712309e-06,2.7436410088893083e-05
2.385241989118336e-07,6.077909566301289e-07,1.3476873864028531e-06,2.7565200492027644e-05
2.347106365507709e-07,6.059513085779893e-07,1.3244846766616406e-06,2.7699969769249604e-05
2.3198678981295282e-07,6.043866789519113e-07,1.3005558613491577e-06,2.783813327184732e-05
2.3028771877533819e-07,6.030998317055908e-07,1.2759537296236878e-06,2.7977235043468097e-05
2.295471840900733e-07,6.020872930243367e-07,1.2507427830172702e-06,2.8115100512858546e-05
2.2970128540421987e-07,6.013423404958498e-07,1.2249957514137488e-06,2.8249926571042213e-05
2.306916067842338e-07,6.00858203525745e-07,1.1987864372607516e-06,2.8380221430807988e-05
2.324659232885396e-07,6.006290242388338e-07,1.1721852020262388e-06,2.8504638118213665e-05
2.3497632866970477e-07,6.006485062825671e-07,1.1452574573788886e-06,2.862185031547397e-05
2.3817678081389842e-07,6.00907198937513e-07,1.1180633881780492e-06,2.8730559582856128e-05
2.420208084008428e-07,6.013907022868545e-07,1.0906596954644146e-06,2.8829558697509068e-05
2.464596856282159e-07,6.020823016539525e-07,1.0631040180661863e-06,2.891774261795658e-05
2.514435493922716e-07,6.029692351425349e-07,1.0354584301285623e-06,2.8994090033115058e-05
2.569257831038323e-07,6.040456350422788e-07,1.007788194122056e-06,2.905777481575174e-05
2.628667133238034e-07,6.053080175433436e-07,9.801593186607257e-07,2.9108443965742292e-05
2.6923345180647416e-07,6.067484698518785e-07,9.526394567504629e-07,2.9146390014551147e-05
2.759971585507434e-07,6.083525851278375e-07,9.252996980527223e-07,2.91724051089236e-05
2.8313027454008717e-07,6.101015095684622e-07,8.982156155379564e-07,2.9187461634238696e-05
2.906036480243225e-07,6.119740990065823e-07,8.714692782185543e-07,2.919244885070697e-05
2.983836574375491e-07,6.139492459996232e-07,8.451497246549976e-07,2.918808438111723e-05
3.06431637521277e-07,6.160083909141795e-07,8.193487423045066e-07,2.9175091251446477e-05
3.1470619744783697e-07,6.18135770379815e-07,7.941553037472331e-07,2.9154554509137804e-05
3.231655381082582e-07,6.203162501936028e-07,7.696540408437062e-07,2.912813547211344e-05
3.317676615908384e-07,6.225330694976628e-07,7.45926562104583e-07,2.9097997003481848e-05
3.404698784238256e-07,6.247677780407654e-07,7.230497274695774e-07,2.9066595764105864e-05
3.492288998908259e-07,6.270024132537621e-07,7.010919019451885e-07,2.903649397563253e-05
3.5800099291373547e-07,6.29220508974839e-07,6.80114749911001e-07,2.9010220804718397e-05
3.6674234369197704e-07,6.314060112539727e-07,6.60181109823413e-07,2.899015292990573e-05
3.754098100928525e-07,6.335443051303811e-07,6.413611890933009e-07,2.8978402002430147e-05
3.839610281660621e-07,6.356252968063304e-07,6.237330623811952e-07,2.897675347223883e-05
3.923537661458015e-07,6.376428064811735e-07,6.073805515443837e-07,2.8986686624185883e-05
4.0054631577382563e-07,6.395897895308285e-07,5.923899944484844e-07,2.9009430375614788e-05
4.08500023759341e-07,6.414545699480909e-07,5.788427558713478e-07,2.9045983692336592e-05
4.1618158588164985e-07,6.432203463151611e-07,5.668040832087686e-07,2.9097070686151454e-05
4.235620866202461e-07,6.448669275105132e-07,5.563153033225958e-07,2.9163046608251508e-05
4.306142875913931e-07,6.463742928299129e-07,5.473932282623775e-07,2.9243802268864546e-05
4.373112497104202e-07,6.477263647384862e-07,5.400333455601239e-07,2.93387388848581e-05
4.436264020338498e-07,6.489115054516643e-07,5.342142532402243e-07,2.94468700091868e-05
4.4953396193829916e-07,6.499199927434407e-07,5.299062299188781e-07,2.9567013570640674e-05
4.550093434026205e-07,6.507416463589672e-07,5.270815561256542e-07,2.969796295023761e-05
4.6002988731177847e-07,6.513650857476747e-07,5.257167651804562e-07,2.983858310325285e-05
4.6457577408655826e-07,6.517790914520722e-07,5.257886507070236e-07,2.99878557247018e-05
4.686303039818096e-07,6.519756156888575e-07,5.272762936333981e-07,3.0144894630485986e-05
4.721803150738736e-07,6.519536551689961e-07,5.301694297899595e-07,3.0308931331482202e-05
4.7521810898673574e-07,6.517218643051819e-07,5.344745500932718e-07,3.0479270908414507e-05
4.777441398930326e-07,6.512956953622556e-07,5.402159877507283e-07,3.065521936637751e-05
4.797695483982103e-07,6.506904229125812e-07,5.474320774869218e-07,3.0835977505417077e-05
4.813182456830414e-07,6.499168696625778e-07,5.561653830849475e-07,3.1020529493109376e-05
4.82427154317143e-07,6.489813621752226e-07,5.664490046928671e-07,3.1207587300723104e-05
4.831435205403931e-07,6.478868703946229e-07,5.782950711460058e-07,3.139559270589757e-05
4.835194716267679e-07,6.466349147617125e-07,5.916912456881623e-07,3.158273432133152e-05
4.836060984198538e-07,6.452292012599225e-07,6.066050988244086e-07,3.176698409125653e-05
4.834500377085111e-07,6.436797982794878e-07,6.229895234173235e-07,3.194617785449019e-05
4.830919263097194e-07,6.420051638826718e-07,6.407832777625674e-07,3.2118106517901677e-05
4.825653076225602e-07,6.402302994855462e-07,6.599089545900037e-07,3.228055003885105e-05
4.818976366563107e-07,6.383818597509282e-07,6.802732329346699e-07,3.243127922304921e-05
4.811156782271167e-07,6.364828341601844e-07,7.017703546799305e-07,3.2568153960106766e-05
4.802530012667585e-07,6.345492527506864e-07,7.242916491487086e-07,3.2689345584741445e-05
4.793524759531814e-07,6.325898237001839e-07,7.477413386597823e-07,3.2793516757237874e-05
4.784619066553626e-07,6.306075110191343e-07,7.720450332584702e-07,3.2879818669385235e-05
4.776291276035903e-07,6.28601530752623e-07,7.971400819735016e-07,3.294775293429716e-05
4.76900380929943e-07,6.265691011562417e-07,8.229599921803484e-07,3.2997002965575515e-05
4.7631931642793997e-07,6.24507317249952e-07,8.494300148820315e-07,3.302729068700136e-05
4.759244373653386e-07,6.224156060612224e-07,8.764717348816656e-07,3.303831203772814e-05
4.7574606762337933e-07,6.20297871734272e-07,9.04004979847547e-07,3.302979029392676e-05
4.7580419415869827e-07,6.181639020459479e-07,9.319438168414242e-07,3.300158148217405e-05
4.7610788156667175e-07,6.160306678023862e-07,9.601910073986874e-07,3.2953712200169405e-05
4.76656359539933e-07,6.139226326742401e-07,9.886349992573648e-07,3.288632919144753e-05
4.774415166071637e-07,6.118714568300589e-07,1.017150339674957e-06,3.2799634084420965e-05
4.784511649259984e-07,6.099176842390909e-07,1.045600059688205e-06,3.269390880784995e-05
4.796711601891675e-07,6.081128590266184e-07,1.0738389156214556e-06,3.256970738736665e-05
4.810859993208926e-07,6.065173876424371e-07,1.1017179245052606e-06,3.2428073368318536e-05
4.82681274351952e-07,6.051944355807288e-07,1.1290901955764085e-06,3.227051540243797e-05
4.84448838946475e-07,6.042040244458165e-07,1.1558166512656191e-06,3.209877263151831e-05
4.863892851822025e-07,6.035982565084181e-07,1.1817698422545395e-06,3.191465352810471e-05
4.88508463856385e-07,6.03418006372233e-07,1.206833818086872e-06,3.172001800442739e-05
4.9081202817721e-07,6.036953408291832e-07,1.230900726517844e-06,3.151676709350506e-05
4.9330210566809e-07,6.04461626074107e-07,1.25387018603272e-06,3.130680560632941e-05
4.959756999609183e-07,6.057531704623887e-07,1.275654542236952e-06,3.1092024504581605e-05
4.98823689504363e-07,6.076089675404183e-07,1.2961846306942144e-06,3.0874293714522026e-05
5.018305635338123e-07,6.10063102039053e-07,1.3154105347919165e-06,3.0655420694240976e-05
5.049745945233768e-07,6.131374918756e-07,1.3332962028982236e-06,3.043707141462117e-05
5.0822829721704e-07,6.168386370405175e-07,1.3498101702313582e-06,3.0220698375637304e-05
5.115597141633904e-07,6.211586360311365e-07,1.364918320242378e-06,3.0007509973417522e-05
5.149338143596258e-07,6.260807256893056e-07,1.3785824207277552e-06,2.97984813230833e-05
5.183131084521396e-07,6.315883167046444e-07,1.3907619690476669e-06,2.9594392051930744e-05
5.216582642469757e-07,6.376702114159887e-07,1.4014160582175658e-06,2.939587544921172e-05
5.249291629142884e-07,6.443166136593869e-07,1.4105046646540419e-06,2.920346406200572e-05
5.28085834116302e-07,6.515113754370179e-07,1.417990629845707e-06,2.9017612011780908e-05
5.310892710307485e-07,6.592275722817211e-07,1.423844302008214e-06,2.8838664913728508e-05
5.339021534434301e-07,6.674282234576082e-07,1.4280510642775645e-06,2.8666774714920812e-05
5.36489159429332e-07,6.760726136710629e-07,1.4306182595328188e-06,2.850182779147088e-05
5.388171469988065e-07,6.851244809309807e-07,1.431575464298866e-06,2.8343472087795423e-05
5.408553585288385e-07,6.945547846142243e-07,1.4309662027325325e-06,2.8191251575684894e-05
5.425750775353371e-07,7.043390419763991e-07,1.4288397369431419e-06,2.8044785928403993e-05
5.439488199605204e-07,7.144548958756248e-07,1.4252526746882867e-06,2.790392757131535e-05
5.44950508916004e-07,7.248816283780266e-07,1.42027692760487e-06,2.776885890423296e-05
5.455581042594286e-07,7.355994435289028e-07,1.414003906232322e-06,2.7640126379682343e-05
5.457572415676234e-07,7.4658589362474e-07,1.4065414937515199e-06,2.7518610510620116e-05
5.455419088312384e-07,7.57809991006579e-07,1.3980053707891795e-06,2.740543250693301e-05
5.449113179586256e-07,7.692283916179834e-07,1.3885081959916495e-06,2.730182767723988e-05
5.43866262811703e-07,7.807863649222931e-07,1.378153062146885e-06,2.720900439973656e-05
5.42407138826749e-07,7.92422691784593e-07,1.367033696948436e-06,2.712798047212757e-05
5.405332960450884e-07,8.040750097164739e-07,1.3552367636551751e-06,2.705945011094375e-05
5.382436789018181e-07,8.156813096627716e-07,1.342843145438256e-06,2.7003773932055506e-05
5.355396923719889e-07,8.27179039698633e-07,1.329928711856707e-06,2.696105277477912e-05
5.324291958276678e-07,8.385080030153305e-07,1.3165644527084423e-06,2.693113883859649e-05
5.289276331258079e-07,8.496163123006959e-07,1.3028164541464507e-06,2.691356521308792e-05
5.250553426226902e-07,8.604626369290586e-07,1.2887460030157922e-06,2.690753775900174e-05
5.208347170174889e-07,8.710144571884705e-07,1.274408145741567e-06,2.69120652714604e-05
5.162893124332521e-07,8.812478010570748e-07,1.2598494247164551e-06,2.6926101186355108e-05
5.114443206703675e-07,8.91150383479826e-07,1.245107706767769e-06,2.6948551295886827e-05
5.06327113650031e-07,9.007240037965479e-07,1.230214333359705e-06,2.6978204243502754e-05
5.009660078045808e-07,9.099808126314077e-07,1.2151979053143013e-06,2.701370681621284e-05
4.953876201557035e-07,9.189341981660476e-07,1.2000884827588184e-06,2.7053564769252266e-05
4.896160536103496e-07,9.275915396595431e-07,1.1849180820472295e-06,2.709612405037029e-05
4.8367525351419e-07,9.359537496651829e-07,1.169716599784008e-06,2.7139569348500392e-05
4.775918539708935e-07,9.440194871599552e-07,1.1545084915381665e-06,2.7181968702506752e-05
4.7139581932104653e-07,9.517900159746037e-07,1.1393130386379284e-06,2.722134350010423e-05
4.65119126077437e-07,9.592722300889731e-07,1.124146414742757e-06,2.725572868599805e-05
4.5879403932490006e-07,9.66478616240819e-07,1.1090252414505225e-06,2.7283210650030425e-05
4.524526412697442e-07,9.734252572376276e-07,1.093971278612547e-06,2.730195207071924e-05
4.4612835420449646e-07,9.801291283099052e-07,1.0790151049566849e-06,2.7310211433832097e-05
4.398571250526354e-07,9.86604584987685e-07,1.064199177364462e-06,2.730638434579396e-05
4.336751563377221e-07,9.928624232942726e-07,1.049579808258685e-06,2.7289092810261788e-05
4.2761453139565346e-07,9.989163114810235e-07,1.0352227711543793e-06,2.725732081661628e-05
4.2170135602249023e-07,1.0047932980424325e-06,1.021191960975118e-06,2.721052367208504e-05
4.159581906680872e-07,1.0105383855969362e-06,1.007539582328688e-06,2.7148566820353368e-05
4.104073044005262e-07,1.016207780670185e-06,9.943032505965669e-07,2.707153408277476e-05
4.050704291124618e-07,1.0218551382673151e-06,9.815068260267635e-07,2.697960632264425e-05
3.9996581509811417e-07,1.0275196135857995e-06,9.691619741142515e-07,2.687304505464613e-05
3.951062135153444e-07,1.0332225151975604e-06,9.57272335690106e-07,2.6752214824445075e-05
3.904984867982006e-07,1.0389730300585564e-06,9.45841894862064e-07,2.661762202628963e-05
3.8614372609790897e-07,1.0447767412884312e-06,9.348839624250703e-07,2.6469959603040882e-05
3.820380162889471e-07,1.0506412533280186e-06,9.24424646861144e-07,2.631015971821733e-05
3.7817461342943174e-07,1.0565772851358762e-06,9.14498257888488e-07,2.6139452744467206e-05
3.7454640496109674e-07,1.0625940043587609e-06,9.051381068520731e-07,2.595939912147369e-05
3.711465351926061e-07,1.0686906856810283e-06,8.963685565950215e-07,2.577183710420314e-05
3.679677367723975e-07,1.0748512778085438e-06,8.882019219690201e-07,2.557873805230325e-05
3.650019735800386e-07,1.0810448937975978e-06,8.806407039228065e-07,2.5382039851623905e-05
3.622401458729565e-07,1.0872294684752246e-06,8.736827788095983e-07,2.5183520644647345e-05
3.596718551999689e-07,1.0933558512466664e-06,8.67324797790481e-07,2.49847159532158e-05
3.5728561545885894e-07,1.0993725651130479e-06,8.61560233546891e-07,2.4786875568977906e-05
3.550686717056304e-07,1.1052310061419763e-06,8.563747684674514e-07,2.4590990370342332e-05
3.530062879670621e-07,1.11088731673779e-06,8.517450520126914e-07,2.43978910291288e-05
3.5108145602343267e-07,1.1162994004617079e-06,8.476413112728673e-07,2.420834349147117e-05
3.49275716301025e-07,1.1214228760375879e-06,8.440303502603224e-07,2.4023093149100917e-05
3.475713023208986e-07,1.126209541555641e-06,8.408780415834066e-07,2.384290119356161e-05
3.45952924336335e-07,1.1306110646200753e-06,8.381512077828769e-07,2.366859130140972e-05
3.4440724210718805e-07,1.1345867153508848e-06,8.358177562718799e-07,2.3501086462276494e-05
3.429215305429317e-07,1.1381072879142565e-06,8.338445234618241e-07,2.334146249867136e-05
3.414834707254926e-07,1.1411528716879032e-06,8.321942115542454e-07,2.319104904796655e-05
3.4008101026069045e-07,1.1437096448293249e-06,8.308249018580166e-07,2.305158250172599e-05
3.387019398483037e-07,1.14576675414171e-06,8.296926364637423e-07,2.292532492818858e-05
3.373350415351722e-07,1.147313095276791e-06,8.287528306977329e-07,2.281497709643068e-05
3.359723262382069e-07,1.1483357548098573e-06,8.279603186004631e-07,2.272338170984259e-05
3.346096030420085e-07,1.1488186960353028e-06,8.272731049880353e-07,2.265318905873541e-05
3.332452945930385e-07,1.1487412577402494e-06,8.266590509417505e-07,2.260660953077421e-05
3.318795726867144e-07,1.1480789196341144e-06,8.260976275039663e-07,2.258536590478231e-05
3.305140901296918e-07,1.1468055962083963e-06,8.255743149044434e-07,2.259092307525516e-05
3.2915095983689406e-07,1.1448957808575482e-06,8.250763427719422e-07,2.2624771743155616e-05
3.277915109597806e-07,1.1423266964818465e-06,8.245972606689156e-07,2.268843939507644e-05
3.264365292310958e-07,1.139078825184721e-06,8.241452462176952e-07,2.278329088253673e-05
3.2508659801817426e-07,1.1351343625799792e-06,8.237466534453534e-07,2.2910375824458528e-05
3.237411606598609e-07,1.1304764451773344e-06,8.234436148534397e-07,2.3070369225609706e-05
3.223985494305946e-07,1.1250898027950388e-06,8.232881824518804e-07,2.32635561361052e-05
3.210574796835614e-07,1.1189623575948822e-06,8.233344224959795e-07,2.3489860284105046e-05
3.197177148363508e-07,1.1120889097701958e-06,8.236304555516378e-07,2.3748891932696968e-05
3.183799847498289e-07,1.104474239333304e-06,8.242156581121288e-07,2.403996954058917e-05
3.1704630656929216e-07,1.0961311515732137e-06,8.251241531797206e-07,2.4362120938378657e-05
3.157196988677893e-07,1.0870764929433213e-06,8.263875192640366e-07,2.4714075299125578e-05
3.1440305429783745e-07,1.0773302243525296e-06,8.280352791127115e-07,2.509423159079657e-05
3.130987518677034e-07,1.0669168621562018e-06,8.300979316229266e-07,2.5500631606055736e-05
3.1180846533294613e-07,1.0558681796702193e-06,8.326095779792245e-07,2.593097716195405e-05
3.105324867619947e-07,1.044226672612052e-06,8.356051733355017e-07,2.6382661798019136e-05
3.0927037053604986e-07,1.032046669799654e-06,8.391148208866955e-07,2.685277767744447e-05
3.080220196880344e-07,1.0193909914464757e-06,8.43158804903987e-07,2.7338143538879613e-05
3.0678707089899373e-07,1.0063251890079272e-06,8.477448149518919e-07,2.783541509320105e-05
3.055644434685373e-07,9.929129117312029e-07,8.528676534043135e-07,2.8341243958343214e-05
3.0435328944147856e-07,9.792137253402536e-07,8.585092276739466e-07,2.8852400328403014e-05
3.0315353843543246e-07,9.65282549548436e-07,8.646388562454781e-07,2.9365813676803718e-05
3.019652464382719e-07,9.511699057891857e-07,8.712201736829193e-07,2.987855257121361e-05
3.0078766792140365e-07,9.369224696891596e-07,8.782271369431289e-07,3.0387801936623805e-05
2.9961914556699025e-07,9.225828576943821e-07,8.856583340731804e-07,3.089084849372571e-05
2.984576814217155e-07,9.08188367205269e-07,8.935363222378992e-07,3.138502811984988e-05
2.973012850359764e-07,8.937716323361713e-07,9.018960816150572e-07,3.186763771168189e-05
2.961482491319753e-07,8.793665499524474e-07,9.107817100662216e-07,3.233588919352054e-05
2.949978260716416e-07,8.650166494547844e-07,9.202591313639791e-07,3.2786945977655056e-05
2.938511628567524e-07,8.507784791528331e-07,9.304316188528019e-07,3.3217981781473594e-05
2.9271225288548194e-07,8.367172440111006e-07,9.414431028344101e-07,3.362620273163117e-05
2.915886670263386e-07,8.228986898995154e-07,9.534655088282824e-07,3.4008874727420424e-05
2.9049134031709387e-07,8.093823577160881e-07,9.666747614618731e-07,3.436341978234883e-05
2.8943274408874705e-07,7.962186580211937e-07,9.81224997615568e-07,3.46875356962479e-05
2.884241237005909e-07,7.834499104507504e-07,9.972322391776348e-07,3.497924572705756e-05
2.8747335448162014e-07,7.711142345832028e-07,1.014772092938585e-06,3.5236883429138626e-05
2.865846549891706e-07,7.59248392941511e-07,1.0338862860007992e-06,3.5459068125512346e-05
2.8576003714689284e-07,7.478863741798312e-07,1.0545903708890894e-06,3.564468234898789e-05
2.850007032320044e-07,7.370576340405224e-07,1.0768759470305172e-06,3.579284410719442e-05
2.8430749022281385e-07,7.267897612624247e-07,1.1007056517606038e-06,3.5902876263170344e-05
2.8368163606513484e-07,7.171119104742363e-07,1.1260092771723326e-06,3.597429618444262e-05
2.831258125566873e-07,7.080531512231798e-07,1.1526879944518415e-06,3.6006830197912796e-05
2.826435723615963e-07,6.996368280406227e-07,1.180620925436844e-06,3.600039920709055e-05
2.822384657999986e-07,6.918764728339105e-07,1.2096681746171215e-06,3.595505210101963e-05
2.81915573582806e-07,6.847780844716175e-07,1.239676692484458e-06,3.587090084155104e-05
2.8168378688590105e-07,6.783486800745836e-07,1.270494040505448e-06,3.574809755171864e-05
2.815555276493889e-07,6.726029957248246e-07,1.301980577609672e-06,3.5586848474969105e-05
2.81544180489708e-07,6.675614704059219e-07,1.3340095714173356e-06,3.5387466444948e-05
2.816621599558373e-07,6.632435482514521e-07,1.3664571194181367e-06,3.515050171183207e-05
2.819212618966832e-07,6.596627055779317e-07,1.39919026249025e-06,3.487701093489537e-05
2.823333968149394e-07,6.568249859921507e-07,1.432061280885725e-06,3.4568879305296996e-05
2.8290955802409996e-07,6.547319086283407e-07,1.464911240917995e-06,3.422892232785779e-05
2.836581945815181e-07,6.533863061289047e-07,1.4975770711446432e-06,3.3860652320347726e-05
2.8458457782601976e-07,6.527960240495245e-07,1.5298945703038696e-06,3.346790226688606e-05
2.856908846539627e-07,6.529718338726725e-07,1.5616969699553946e-06,3.305450653302776e-05
2.869766171268911e-07,6.539207585023707e-07,1.592814177517448e-06,3.2624132407595065e-05
2.884394867028924e-07,6.556400483664155e-07,1.6230759154032162e-06,3.218035767667918e-05
2.900781312060257e-07,6.581159749676308e-07,1.652315766837497e-06,3.1726922270192685e-05
2.918965695465034e-07,6.613258602834815e-07,1.6803721191961659e-06,3.126786422591636e-05
2.939053670092684e-07,6.652392488278093e-07,1.7070890711790104e-06,3.0807419177300785e-05
2.961174696188322e-07,6.698174992364007e-07,1.7323222090717868e-06,3.0349825363185248e-05
2.9854417569210573e-07,6.750134727869393e-07,1.755945746120678e-06,2.989915727807209e-05
3.0119450587251413e-07,6.807714846876019e-07,1.7778540820334686e-06,2.945920280004046e-05
3.040752063203492e-07,6.870281190677953e-07,1.7979575043651108e-06,2.903335291678629e-05
3.0718979284047853e-07,6.937159642624007e-07,1.8161761114709462e-06,2.86244947215458e-05
3.105377557265091e-07,7.007680579158454e-07,1.83243495525825e-06,2.8234950885886433e-05
3.141142713043274e-07,7.081178688707993e-07,1.8466623266602643e-06,2.7866483225811762e-05
3.179106296731458e-07,7.156957532004574e-07,1.8587911627571446e-06,2.7520307025932043e-05
3.2191480562774127e-07,7.234272150406473e-07,1.8687616346301361e-06,2.7197086044127536e-05
3.2611104450132214e-07,7.312345600033523e-07,1.8765245450428609e-06,2.689694564580289e-05
3.304793427872514e-07,7.39040587404551e-07,1.882045861319653e-06,2.6619525289144847e-05
3.3499578978485866e-07,7.467732715863227e-07,1.8853096129845988e-06,2.63640520413688e-05
3.3963343307773363e-07,7.543698470566484e-07,1.8863166241587043e-06,2.6129433333407653e-05
3.4436361715513465e-07,7.617773984458754e-07,1.8850810821343383e-06,2.5914382743734275e-05
3.4915876087583195e-07,7.689485722163296e-07,1.8816269360120205e-06,2.571755586669973e-05
3.5399597134048577e-07,7.758365236528752e-07,1.8759839364309063e-06,2.553764475059738e-05
3.588575411976965e-07,7.823945737125935e-07,1.868185368529733e-06,2.5373418299952967e-05
3.6372713540845133e-07,7.885793901703015e-07,1.8582699530523731e-06,2.5223734314317332e-05
3.685859089343379e-07,7.943524811576909e-07,1.8462862469667184e-06,2.5087530960785862e-05
3.7341153124450686e-07,7.996788031617026e-07,1.832296381762252e-06,2.496378468463749e-05
3.781799754953271e-07,8.045257601041962e-07,1.8163775920539212e-06,2.485143941836988e-05
3.828689161400651e-07,8.088650661558613e-07,1.7986205002748646e-06,2.4749343038620465e-05
3.8745989019725616e-07,8.126752217155205e-07,1.779124854367595e-06,2.4656245141582512e-05
3.919373910844702e-07,8.159406420852209e-07,1.7579959886765182e-06,2.4570890095888885e-05
3.962869470719953e-07,8.186477528818396e-07,1.7353428237934498e-06,2.4492150324061428e-05
4.004948995703467e-07,8.207819453768853e-07,1.7112757178960526e-06,2.441909856930304e-05
4.045498375686722e-07,8.223282784697655e-07,1.685905186229194e-06,2.4351003436698928e-05
4.0844312219537283e-07,8.232746237511999e-07,1.6593426202314174e-06,2.4287301606445137e-05
4.121671374060826e-07,8.236129962713469e-07,1.6317023153835996e-06,2.422757391725788e-05
4.157136009857811e-07,8.23337875048763e-07,1.6031052035706762e-06,2.4171496449676564e-05
4.1907338526088313e-07,8.224446087406118e-07,1.5736847426381406e-06,2.411874527743211e-05
4.2223628902626685e-07,8.209305641433763e-07,1.543593687928595e-06,2.4068950573514864e-05
4.251910374264032e-07,8.187985186065971e-07,1.5130079212219872e-06,2.4021796572277733e-05
4.2792685629997976e-07,8.160596185890791e-07,1.4821238347300202e-06,2.397716518497643e-05
4.304349332536253e-07,8.127353738435816e-07,1.4511501217234214e-06,2.3935161273666338e-05
4.3270809357188026e-07,8.088604956659471e-07,1.4202960547424715e-06,2.389601716544026e-05
4.3473961650415276e-07,8.044831492232735e-07,1.389758665144608e-06,2.385997573684047e-05
4.365224465039714e-07,7.996579451627199e-07,1.3597149043617571e-06,2.3827205298990147e-05
4.380499477072564e-07,7.944372214605444e-07,1.3303234505922028e-06,2.3797735119314748e-05
4.393178643221953e-07,7.888679744177257e-07,1.301732207626937e-06,2.377141923374057e-05
4.403247809230849e-07,7.829938286782964e-07,1.274083116339882e-06,2.374797567757649e-05
4.4107103163275823e-07,7.768594491539312e-07,1.2475105269269672e-06,2.3727084585341066e-05
4.415586837994666e-07,7.705147218646045e-07,1.222135562809485e-06,2.3708440145539208e-05
4.4179239110592526e-07,7.640155580923556e-07,1.1980611549691142e-06,2.3691706284545254e-05
4.41779723424784e-07,7.574213859860337e-07,1.1753720351410012e-06,2.3676490971732652e-05
4.415311720867225e-07,7.507914876328969e-07,1.154140435835498e-06,2.366251067680131e-05
4.410594072381307e-07,7.441811365246507e-07,1.1344325449140318e-06,2.364987163203468e-05
4.4037742139214284e-07,7.376385564451101e-07,1.1163110216303455e-06,2.3639142924277107e-05
4.3949719635171945e-07,7.31204453074163e-07,1.0998346094181002e-06,2.3631156357072324e-05
4.384295979658247e-07,7.249134066390601e-07,1.0850559287968878e-06,2.362683373816061e-05
4.3718453095937204e-07,7.187951622756631e-07,1.0720152098009165e-06,2.3627157386348897e-05
4.357714004064764e-07,7.128753655953711e-07,1.0607324428338552e-06,2.363312851606386e-05
4.341995889730152e-07,7.071751664213581e-07,1.0512065079574195e-06,2.3645662603212703e-05
4.3247786425531675e-07,7.017103111446046e-07,1.0434237901418972e-06,2.3665485442337618e-05
4.3061313136299496e-07,6.964923736458748e-07,1.0373688222763115e-06,2.369304823359821e-05
4.286100086987017e-07,6.915321610212316e-07,1.0330290233848827e-06,2.372845928039632e-05
4.2647193463031063e-07,6.868430750180496e-07,1.0303912356155752e-06,2.377146905093804e-05
4.2420280234046606e-07,6.824440078377815e-07,1.0294342028438286e-06,2.382153883713663e-05
4.2180766362863507e-07,6.783615203087729e-07,1.030123652941639e-06,2.387795657309575e-05
4.192923748918645e-07,6.746299421193185e-07,1.0324109982569895e-06,2.3939940812670888e-05
4.166629171131164e-07,6.712887800837492e-07,1.0362323351818285e-06,2.4006703225727067e-05
4.1392488676325094e-07,6.683778886546405e-07,1.0415070379719747e-06,2.407746799613813e-05
4.1108321299822616e-07,6.65931862826676e-07,1.0481376197639409e-06,2.415146499550633e-05
4.0814174634990776e-07,6.639764909519938e-07,1.05601357939682e-06,2.4227923447959505e-05
4.051028162413065e-07,6.625305858057833e-07,1.0650206757938394e-06,2.43060997690524e-05
4.019676322602672e-07,6.616115586156632e-07,1.0750518557740558e-06,2.4385347201532794e-05
3.9873742130067377e-07,6.61237069119996e-07,1.0860136087992737e-06,2.446516706550424e-05
3.9541504714318203e-07,6.614207873539825e-07,1.0978234427095578e-06,2.4545169544727663e-05
3.920071285571936e-07,6.621695232054721e-07,1.1104003518349613e-06,2.462495450263519e-05
3.88524804863515e-07,6.634856439757754e-07,1.1236580747398484e-06,2.4703990121665548e-05
3.849824227989272e-07,6.653719493725766e-07,1.1375068325008715e-06,2.4781567690975688e-05
3.813958923795592e-07,6.678363145649943e-07,1.1518580381816542e-06,2.485686913822747e-05
3.77781223306031e-07,6.708945317360403e-07,1.166627067065906e-06,2.4929094665882265e-05
3.7415322138403366e-07,6.745700491141976e-07,1.1817331077762682e-06,2.4997548080670998e-05
3.705247803776164e-07,6.788897059060259e-07,1.1970944380078942e-06,2.5061648456322126e-05
3.6690631066721024e-07,6.838758867974511e-07,1.2126230573321258e-06,2.512090819028403e-05
3.633052085987255e-07,6.895386521678182e-07,1.2282254407655364e-06,2.517490675626199e-05
3.5972608582211244e-07,6.958718328576567e-07,1.2438081180356563e-06,2.522328576662217e-05
3.5617199605478184e-07,7.028545370309459e-07,1.259282323139362e-06,2.526581417150321e-05
3.5264573916329755e-07,7.104564800698899e-07,1.2745647784688285e-06,2.53025195517608e-05
3.4915004561730573e-07,7.18642838861943e-07,1.2895748731467274e-06,2.533374902170157e-05
3.456872037613658e-07,7.273755051123123e-07,1.304230621423432e-06,2.5360023137832282e-05
3.422591160247707e-07,7.36611323927938e-07,1.318446896305516e-06,2.538176576125089e-05
3.3886738900990263e-07,7.462994259469225e-07,1.3321365997467794e-06,2.5399121891616685e-05
3.3551300579221055e-07,7.563802318447958e-07,1.3452127826864044e-06,2.5411947882613486e-05
3.32195561756688e-07,7.667875985229127e-07,1.3575940211474923e-06,2.5419918660762602e-05
3.2891251643470405e-07,7.774516321285688e-07,1.3692139902373936e-06,2.542264237621948e-05
3.256592734037796e-07,7.882992563180384e-07,1.3800269332447037e-06,2.5419684610964027e-05
3.224302396697304e-07,7.992542556434878e-07,1.3900046206769052e-06,2.5410552543922697e-05
3.192201004159959e-07,8.102401586947702e-07,1.3991306615796336e-06,2.539476529309835e-05
3.160245046518148e-07,8.211853255081716e-07,1.407395694997313e-06,2.53719930946633e-05
3.128401636002307e-07,8.320263484775106e-07,1.4147949707308278e-06,2.534218013532723e-05
3.096645695369862e-07,8.427080648947146e-07,1.4213329748680396e-06,2.5305622824285238e-05
3.0649542777575696e-07,8.531829337128257e-07,1.4270339315415374e-06,2.5262948667050822e-05
3.0333042051528073e-07,8.634111376779913e-07,1.4319501944411445e-06,2.5214948611105733e-05
3.00168163429344e-07,8.733578831907337e-07,1.4361635133127544e-06,2.5162356156972645e-05
2.9700977870350763e-07,8.829895593265628e-07,1.439779522061422e-06,2.510573473855893e-05
2.938588059561561e-07,8.92276649164838e-07,1.4429181706613968e-06,2.504550185064929e-05
2.907190509044513e-07,9.012002849687729e-07,1.4457042856011856e-06,2.498196938758057e-05
2.8759276186513855e-07,9.09750602197946e-07,1.4482615662114202e-06,2.491531929116108e-05
2.8448042744214874e-07,9.179176201988321e-07,1.450707174516575e-06,2.4845565983522555e-05
2.813816003264577e-07,9.256852722870836e-07,1.4531426355124614e-06,2.4772625797672105e-05
2.7829596042175534e-07,9.330314587506464e-07,1.455645344528888e-06,2.469652477855085e-05
2.752238449448878e-07,9.399307994827718e-07,1.4582677534818481e-06,2.4617569837893467e-05
2.721658551662086e-07,9.463581229108988e-07,1.4610429107894219e-06,2.453630633208317e-05
2.691221808681065e-07,9.522901324234136e-07,1.4639898784565213e-06,2.445332209861589e-05
2.660928212955155e-07,9.577039610125128e-07,1.4671159465569876e-06,2.436906506396655e-05
2.6307875775857374e-07,9.625751364781072e-07,1.4704174815739969e-06,2.428379616983052e-05
2.6008260633462684e-07,9.668768039371291e-07,1.4738831089320699e-06,2.4197762160712423e-05
2.5710824573083627e-07,9.705807064382125e-07,1.4774996838731786e-06,2.4111513433083067e-05
2.541612127125754e-07,9.7366086738392e-07,1.4812564970465745e-06,2.402610766034781e-05
2.5125075046501235e-07,9.76098568171844e-07,1.485144913382462e-06,2.394306793607933e-05
2.48391132015978e-07,9.778848420427384e-07,1.4891564344317731e-06,2.3864219105952224e-05
2.456004081504758e-07,9.79019054714927e-07,1.4932816982996996e-06,2.379153534031776e-05
2.4289875744988024e-07,9.795058476996874e-07,1.4975087833310546e-06,2.372701146369989e-05
2.403082838049424e-07,9.793532281199541e-07,1.501819943189387e-06,2.367253782225008e-05
2.378521392058084e-07,9.785717615947944e-07,1.5061879223701181e-06,2.362978150579105e-05
2.3555206543950638e-07,9.771727814394498e-07,1.5105726120970987e-06,2.3600082568092714e-05
2.334267431003912e-07,9.751658864304786e-07,1.5149203464052968e-06,2.35843665737144e-05
2.3149205957519302e-07,9.725578900420426e-07,1.5191672883035655e-06,2.3583090548210664e-05
2.297624032276285e-07,9.693533748290498e-07,1.523243448291368e-06,2.3596261384813136e-05
2.282519990381423e-07,9.65555492630047e-07,1.5270756616496832e-06,2.3623521692101144e-05
2.269759761824257e-07,9.61167098731702e-07,1.5305919826444999e-06,2.3664240401847635e-05
2.259505569839397e-07,9.561939967190256e-07,1.5337258935598592e-06,2.3717581332025642e-05
2.2519115631057573e-07,9.506492681922158e-07,1.5364166029522663e-06,2.378257925430791e-05
2.2471010401031237e-07,9.445537834573574e-07,1.5386072032771532e-06,2.385824584403552e-05
2.245168566740177e-07,9.379313910669371e-07,1.5402442650552533e-06,2.3943695977801792e-05
2.246191646108863e-07,9.308040977603714e-07,1.5412782056473924e-06,2.403826607059528e-05
2.2502266194186139e-07,9.231916187285524e-07,1.5416619308370796e-06,2.414160993779318e-05
2.2572938039492326e-07,9.151125922805678e-07,1.5413482332016115e-06,2.425377470552376e-05
2.2673708791096922e-07,9.065853682418242e-07,1.5402884254934328e-06,2.437522807392011e-05
2.2804117773712267e-07,8.976319183256296e-07,1.538432587621784e-06,2.450678750750979e-05
2.296403024405159e-07,8.882834082539056e-07,1.535729903519221e-06,2.4649453096717363e-05
2.3154766637900453e-07,8.785811223520191e-07,1.5321289885710815e-06,2.480418065421847e-05
2.3380486253728967e-07,8.685745030914673e-07,1.5275797539759667e-06,2.497164738253977e-05
2.3648676278612352e-07,8.583216139150368e-07,1.5220367043421572e-06,2.515214010490971e-05
2.396915532898332e-07,8.478913195294545e-07,1.5154624008543802e-06,2.534563758679595e-05
2.43523250028486e-07,8.373637872025237e-07,1.5078326104017936e-06,2.5551933812809383e-05
2.480769241304389e-07,8.268265913856707e-07,1.499145189620547e-06,2.577064298516217e-05
2.534305109716821e-07,8.163668248829822e-07,1.4894295318915197e-06,2.600112721826397e-05
2.5964346711176525e-07,8.060635661919051e-07,1.4787498434286846e-06,2.6242460720790437e-05
2.667622922210073e-07,7.95983509442537e-07,1.4671999771160617e-06,2.649346787715191e-05
2.748288835213913e-07,7.86179361817261e-07,1.4548938507808047e-06,2.675278270871697e-05
2.838864795977616e-07,7.766909625291371e-07,1.4419547738934259e-06,2.701888246516835e-05
2.9398210916056363e-07,7.675484630614373e-07,1.4285041229967832e-06,2.729011532832221e-05
3.0516598872034263e-07,7.587754032095013e-07,1.4146514433795516e-06,2.7564723874227123e-05
3.174893685170845e-07,7.503931691109706e-07,1.4004894422126671e-06,2.7840846129396428e-05
3.310044071229823e-07,7.424273083519978e-07,1.3860949868334e-06,2.8116519409298866e-05
3.457688088672931e-07,7.349083847907241e-07,1.3715350747453152e-06,2.8389681963364173e-05
3.618576318038315e-07,7.278659965048145e-07,1.3568760814495859e-06,2.865814984330833e-05
3.7938371538568526e-07,7.213245255508195e-07,1.3421928285485649e-06,2.8919606388611574e-05
3.9851664478038633e-07,7.153031757480414e-07,1.3275724946773972e-06,2.9171631425458715e-05
4.194810320749101e-07,7.098179020706019e-07,1.3131111762208514e-06,2.9411748751882124e-05
4.4252912022880633e-07,7.048872275977522e-07,1.2989056544124143e-06,2.9637477108545228e-05
4.67902721211413e-07,7.00541140177376e-07,1.285043917678812e-06,2.984639298057146e-05
4.958015658163036e-07,6.96823510764503e-07,1.2715969037264791e-06,3.0036203877724468e-05
5.263662059950691e-07,6.937823957337804e-07,1.2586154079366863e-06,3.0204802103507726e-05
5.596762770854681e-07,6.914562297716173e-07,1.246135887958997e-06,3.0350326855844977e-05
5.957612298234491e-07,6.898663701418457e-07,1.234190397794923e-06,3.047133305282252e-05
6.346176525684201e-07,6.890171183327167e-07,1.2228102138863675e-06,3.056699373523143e-05
6.762255352276231e-07,6.888979320772545e-07,1.212022726701185e-06,3.063712241420325e-05
7.205589418562913e-07,6.894856110377635e-07,1.2018503928779106e-06,3.06820102629493e-05
7.675917078808009e-07,6.907496084269532e-07,1.1923128382009774e-06,3.070224386760583e-05
8.173007667104555e-07,6.926598451516513e-07,1.1834257267387109e-06,3.069865995550877e-05
8.696683378147675e-07,6.951903302742828e-07,1.175198387997067e-06,3.0672492045387474e-05
9.246810929074335e-07,6.983153983418621e-07,1.167639842102503e-06,3.062552651530644e-05
9.823249643935216e-07,7.020029413804651e-07,1.160773206487981e-06,3.056006680934255e-05
1.0425796392141135e-06,7.062110262635602e-07,1.1546474607868266e-06,3.047874125848587e-05
1.1054162219859323e-06,7.108886979508123e-07,1.1493401504687693e-06,3.0384283671268542e-05
1.1707945631870015e-06,7.159775398071926e-07,1.1449513645506839e-06,3.02793597097498e-05
1.2386551788762822e-06,7.214144265263934e-07,1.1415883043042571e-06,3.0166449035920503e-05
1.3089070563505692e-06,7.271376492751669e-07,1.1393447005379095e-06,3.0047762460151946e-05
1.3814183192016951e-06,7.330925867850809e-07,1.1382881087921084e-06,2.992519152236827e-05
1.4560122893874614e-06,7.392315274629498e-07,1.1384600444356804e-06,2.9800303722294818e-05
1.5324658042705641e-06,7.455097961001977e-07,1.1398790675198936e-06,2.9674363746207506e-05
1.6105112545604172e-06,7.518835587662006e-07,1.142539798619702e-06,2.954833507646189e-05
1.689844671362174e-06,7.583091697116776e-07,1.1464109068715166e-06,2.9422859210590277e-05
1.7701350238749432e-06,7.647422161390559e-07,1.1514358700323556e-06,2.929826557067793e-05
1.8510309838450191e-06,7.711386985206381e-07,1.1575372317093717e-06,2.9174643135370533e-05
1.93216779751108e-06,7.774594731792161e-07,1.1646219784607348e-06,2.905194947203199e-05
2e-07,7.836728209861469e-07,1.1725864774751249e-06,2.893013307321109e-05
2e-07,7.897515213622319e-07,1.1813267464778035e-06,2.880924313507724e-05
2e-07,7.956686602737927e-07,1.1907560933574983e-06,2.8689477456761345e-05
2e-07,8.013965588701799e-07,1.2008167774655352e-06,2.8571155304298323e-05
2e-07,8.069073008066174e-07,1.211475220194377e-06,2.8454667224169008e-05
2e-07,8.121725694178824e-07,1.2227074375166036e-06,2.834045934283356e-05
2e-07,8.171625242863538e-07,1.2344848042980185e-06,2.822905559458473e-05
2e-07,8.21844620498522e-07,1.2467657053099174e-06,2.812108107651245e-05
2e-07,8.261841338895834e-07,1.259495720742885e-06,2.8017254069530242e-05
2e-07,8.301460344911047e-07,1.2726136016327611e-06,2.7918329938295485e-05
2e-07,8.336960868834458e-07,1.286058799749751e-06,2.7824998866330408e-05
2e-07,8.368012102598327e-07,1.2997780594431795e-06,2.773778780462501e-05
2e-07,8.394306989341811e-07,1.3137264559262377e-06,2.7657048792233003e-05
2e-07,8.415585350309501e-07,1.327860811132015e-06,2.758302829554837e-05
2e-07,8.431646216874271e-07,1.3421312880848645e-06,2.751592633822043e-05
2e-07,8.442328337171165e-07,1.3564772937141423e-06,2.745589892852499e-05
2e-07,8.447482377572161e-07,1.3708288964902384e-06,2.740299648174714e-05
2e-07,8.446974766414953e-07,1.3851104403770595e-06,2.735707238235268e-05
2e-07,8.44070621752363e-07,1.3992408955953766e-06,2.731774928360812e-05
2e-07,8.42860473752053e-07,1.413131859783815e-06,2.7284456730413572e-05
2e-07,8.410609030069184e-07,1.426689706993744e-06,2.7256484641919e-05
2e-07,8.386677924468794e-07,1.4398227131733712e-06,2.7233026600485213e-05
2e-07,8.356817823252914e-07,1.4524469694001156e-06,2.721319238985389e-05
2e-07,8.321098288373206e-07,1.4644864139777632e-06,2.719598425054821e-05
2e-07,8.279643203796866e-07,1.4758694836083525e-06,2.718028237346336e-05
2e-07,8.23261280561287e-07,1.4865277298146132e-06,2.716487679109061e-05
2e-07,8.180196668989796e-07,1.4963968523177468e-06,2.714851335464049e-05
2e-07,8.122615139092169e-07,1.5054184180317181e-06,2.7129904157367754e-05
2e-07,8.06013384404987e-07,1.5135444162996828e-06,2.7107724569418248e-05
2e-07,7.993107149372968e-07,1.5207446545408198e-06,2.7080643296555373e-05
2e-07,7.922015495229671e-07,1.5270086791759404e-06,2.7047372081299044e-05
2e-07,7.847440474522877e-07,1.5323383387710031e-06,2.70066932626811e-05
2e-07,7.769998802718134e-07,1.536743887646707e-06,2.6957465900899508e-05
2e-07,7.690299189309137e-07,1.540254154460233e-06,2.689871478255997e-05
2e-07,7.608930645642505e-07,1.5429307521082566e-06,2.6829897044099453e-05
2e-07,7.526453243218147e-07,1.5448727649048157e-06,2.6751194823379307e-05
2e-07,7.443379494325908e-07,1.5462092934787922e-06,2.6663587723583324e-05
2e-07,7.360151876789362e-07,1.5470835867221114e-06,2.6568698666886983e-05
2e-07,7.277130097991871e-07,1.5476346859854269e-06,2.6468555303374506e-05
2e-07,7.194598875964984e-07,1.5479828887703737e-06,2.6365325222466026e-05
2e-07,7.112789473908862e-07,1.5482239909509747e-06,2.626107498737721e-05
2e-07,7.031896967653903e-07,1.5484311655322416e-06,2.61577172684538e-05
2e-07,6.952089613942905e-07,1.5486581264092643e-06,2.6057169785427523e-05
2e-07,6.873517792521814e-07,1.5489409544378085e-06,2.596147060642638e-05
2e-07,6.796316395371226e-07,1.5492993291402461e-06,2.5872708206835934e-05
2e-07,6.720594961151257e-07,1.5497372027103301e-06,2.5792879702151574e-05
2e-07,6.646427622133573e-07,1.5502435633581797e-06,2.572379040602017e-05
2e-07,6.573855873488323e-07,1.5507933557969009e-06,2.566701297825242e-05
2e-07,6.502899003365561e-07,1.5513479854888866e-06,2.5623868742687548e-05
2e-07,6.433554673757748e-07,1.5518571871911638e-06,2.559541073260855e-05
2e-07,6.365794539085982e-07,1.5522634618541945e-06,2.5582431158980043e-05
2e-07,6.299582541637482e-07,1.552505571501467e-06,2.558547911465004e-05
2e-07,6.234908614283372e-07,1.5525185527889916e-06,2.5604828863362132e-05
2e-07,6.171802469596324e-07,1.5522334014441808e-06,2.564039660373627e-05
2e-07,6.110324851006953e-07,1.5515789521334257e-06,2.56916761641672e-05
2e-07,6.050545984077037e-07,1.550484675525959e-06,2.575773217028377e-05
2e-07,5.992515543092917e-07,1.5488823207016863e-06,2.583723577255044e-05
2e-07,5.93624543639889e-07,1.5467052633882616e-06,2.592854388792742e-05
2e-07,5.881714490034078e-07,1.5438869257600988e-06,2.6029820509535337e-05
2e-07,5.828886166315939e-07,1.5403611221575413e-06,2.6139153098394722e-05
2e-07,5.777742775194221e-07,1.5360654398978019e-06,2.625463990160578e-05
2e-07,5.728318618407385e-07,1.5309448925213954e-06,2.6374466959383496e-05
