5.435790266282874e-07,6.036495191852582e-07,4.150470719520066e-07,1.92303186039298e-05
5.370675442746197e-07,6.003687763608168e-07,4.104280090692388e-07,1.918900177461253e-05
5.302520541814184e-07,5.969830942712334e-07,4.059010475137988e-07,1.91510040129286e-05
5.231557460688201e-07,5.935111675777465e-07,4.0147424013124975e-07,1.911819180727236e-05
5.158076399744846e-07,5.899677383106085e-07,3.9715294631984697e-07,1.9092516110164808e-05
5.082398827364135e-07,5.863648475187746e-07,3.929410974743882e-07,1.907603187186644e-05
5.004859780792103e-07,5.827153360636495e-07,3.888417424323775e-07,1.9070870154011625e-05
4.925806084155697e-07,5.790359522623572e-07,3.8485639273428456e-07,1.9079234811044647e-05
4.845614470828425e-07,5.753484385416352e-07,3.8098432861835776e-07,1.9103477864551165e-05
4.7647153515741815e-07,5.716787492079825e-07,3.77224211234887e-07,1.9146107434967416e-05
4.6835780137892454e-07,5.680556732632637e-07,3.7357810639624635e-07,1.920964844037624e-05
4.602662623052723e-07,5.645100250764067e-07,3.7005296183997934e-07,1.929646745899122e-05
4.5224019599118366e-07,5.61073404075733e-07,3.666568969697055e-07,1.940860368807701e-05
4.4432363769497614e-07,5.577765777883996e-07,3.633952574333989e-07,1.954758194423768e-05
4.36565147371769e-07,5.546485028419424e-07,3.602710856416274e-07,1.9714308025953185e-05
4.290169088668053e-07,5.517150718621518e-07,3.5728801127127927e-07,1.9909130943163642e-05
4.21730135120996e-07,5.489970065653079e-07,3.5445149365333686e-07,2.0131983267309087e-05
4.147503236739302e-07,5.465078615041649e-07,3.517683047709702e-07,2.0382487520971068e-05
4.0811467626641027e-07,5.442532394858886e-07,3.492463419835458e-07,2.0660002410618927e-05
4.0185182143396346e-07,5.422318622746333e-07,3.4689471425498207e-07,2.0963624395751265e-05
3.9598265862948157e-07,5.404377526999374e-07,3.447229051950171e-07,2.1292179164956368e-05
3.9052160945886326e-07,5.388615959481279e-07,3.427391981764052e-07,2.164424521955004e-05
3.854781880164823e-07,5.374907065666096e-07,3.4094997942566854e-07,2.2018268531333757e-05
3.8085975081316855e-07,5.363086567604011e-07,3.393608764249389e-07,2.2412825646405904e-05
3.766758489148801e-07,5.352954761159702e-07,3.379788374287193e-07,2.282695388380825e-05
3.729411212045897e-07,5.344295536877e-07,3.3681418816187505e-07,2.3260303411155925e-05
3.696736929581116e-07,5.336916305240576e-07,3.358820431246131e-07,2.371298968490516e-05
3.668915357499869e-07,5.330676292938918e-07,3.352016756377395e-07,2.4185318701743825e-05
3.6461007693981703e-07,5.325467891261885e-07,3.347933292528041e-07,2.4677572728317772e-05
3.628406254885052e-07,5.32117447201344e-07,3.346743048081429e-07,2.518984834301521e-05
3.615897382976522e-07,5.317659055014841e-07,3.348562214300347e-07,2.5721957653163532e-05
3.6086064750436384e-07,5.31479601339467e-07,3.3534453089251534e-07,2.6273512047707167e-05
3.606548627435184e-07,5.31250775737472e-07,3.361402834615005e-07,2.6844096402206675e-05
3.6097100039075923e-07,5.310773520514768e-07,3.372411647683932e-07,2.743325132354492e-05
3.618020498561618e-07,5.309610043760611e-07,3.3864000340600373e-07,2.804024917533338e-05
3.631343010982419e-07,5.309036304236307e-07,3.403241004998209e-07,2.866390793539593e-05
3.6494778290610645e-07,5.309043299747206e-07,3.4227807746210844e-07,2.9302555038640132e-05
3.672175482123254e-07,5.309584064066889e-07,3.4448708973807826e-07,2.995405871354956e-05
3.699166449758193e-07,5.31057329912327e-07,3.4693622811379447e-07,3.061585904211578e-05
3.730195437578876e-07,5.311887947007607e-07,3.496076513049473e-07,3.128502829145226e-05
3.765038136141765e-07,5.313372887002678e-07,3.524793531513781e-07,3.195837734671458e-05
3.803493554333519e-07,5.314849242163314e-07,3.555258381111439e-07,3.263255227800805e-05
3.845356537636393e-07,5.31612974856236e-07,3.587199799078711e-07,3.3304089159187396e-05
3.890391069085961e-07,5.317047173853199e-07,3.6203591653327494e-07,3.3969463056187625e-05
3.938326854823027e-07,5.317466367976194e-07,3.654513023684405e-07,3.462514154589271e-05
3.9888722463865007e-07,5.317267666287493e-07,3.6894784908813967e-07,3.526761756851571e-05
4.041719736568075e-07,5.316342728345432e-07,3.7251041705012325e-07,3.589342282933076e-05
4.0965415011824e-07,5.314614565501232e-07,3.7612578568593345e-07,3.6499135400018296e-05
4.1529879886580436e-07,5.3120460782083e-07,3.7978283019735616e-07,3.7081394601511276e-05
4.210689920598095e-07,5.308619299955278e-07,3.8347263724584603e-07,3.763692012258672e-05
4.2692588072769655e-07,5.304304671204475e-07,3.8718664186511017e-07,3.816250875600913e-05
4.3282862016710405e-07,5.299045991236235e-07,3.909148620998754e-07,3.865502389490423e-05
4.3873439848587496e-07,5.292775227735354e-07,3.946458437282473e-07,3.91114224112154e-05
4.44599399382514e-07,5.285451319245265e-07,3.9836774266076754e-07,3.9528811089505657e-05
4.50380506899473e-07,5.277082091859943e-07,4.020692043043136e-07,3.9904492643364236e-05
4.560361375696169e-07,5.267708502056488e-07,4.057383199957508e-07,4.023599030228514e-05
4.615264709580516e-07,5.257389259292209e-07,4.0936124847943937e-07,4.0521086403787154e-05
4.6681398833290226e-07,5.246210211390776e-07,4.129231350859085e-07,4.075790383196523e-05
4.718631825799757e-07,5.234297073316404e-07,4.1640953527664685e-07,4.094497026175517e-05
4.7663935947309216e-07,5.221806152847683e-07,4.198062385633104e-07,4.1081182017460086e-05
4.811080639933221e-07,5.208893997687468e-07,4.230993090780818e-07,4.1165694389652254e-05
4.852360986980493e-07,5.195699208132566e-07,4.262773959032378e-07,4.119783398637004e-05
4.889945243487389e-07,5.182365303873354e-07,4.2933384924005775e-07,4.117707219138848e-05
4.923612769899058e-07,5.169079848771903e-07,4.3226532125432674e-07,4.110304419351353e-05
4.953203524033938e-07,5.156071850366623e-07,4.3506946844593904e-07,4.097561959357664e-05
4.978592159085839e-07,5.143557766265674e-07,4.37745310066716e-07,4.079502070783172e-05
4.999671230821928e-07,5.131693690961018e-07,4.4029419455484274e-07,4.056191406346279e-05
5.016346292686311e-07,5.120581282471759e-07,4.4271857951514253e-07,4.0277422574194136e-05
5.028542154533043e-07,5.110316557961432e-07,4.4501957685003874e-07,3.994309992701248e-05
5.036219430319699e-07,5.101043923883813e-07,4.471951761970295e-07,3.956092970566455e-05
5.039405803251801e-07,5.092983450241633e-07,4.4923966003296817e-07,3.913337097700715e-05
5.038228542234562e-07,5.086419543717853e-07,4.5114395692660074e-07,3.866338681052207e-05
5.032906113060125e-07,5.081663682432498e-07,4.528967526471798e-07,3.8154339086297385e-05
5.023703835074528e-07,5.079003670394982e-07,4.544870232130703e-07,3.7609744350826736e-05
5.010911508457103e-07,5.078661260275746e-07,4.55907746009714e-07,3.703303214788936e-05
4.994849524740834e-07,5.080786725810045e-07,4.571573892052518e-07,3.642741970505912e-05
4.975862464071527e-07,5.085467358955836e-07,4.5823742641878223e-07,3.5795887278601264e-05
4.954316050757227e-07,5.09272219231843e-07,4.5914955608896864e-07,3.5141199202076785e-05
4.93062349512031e-07,5.102506788606279e-07,4.5989510073613537e-07,3.4465946442419075e-05
4.905247486790008e-07,5.114725924621942e-07,4.604747384317972e-07,3.377262993064718e-05
4.878652040329385e-07,5.129232308324996e-07,4.6088783908836384e-07,3.306384805699532e-05
4.851260747344554e-07,5.145832815672979e-07,4.6113284327983273e-07,3.234250227110345e-05
4.82344665084354e-07,5.16430370425845e-07,4.612087554209992e-07,3.161178171064065e-05
4.795532996339263e-07,5.184387719927946e-07,4.611156773240325e-07,3.087492524113739e-05
4.767793774629777e-07,5.20579102021846e-07,4.608532333486542e-07,3.013499609417893e-05
4.7404536239833963e-07,5.228207047775916e-07,4.6041869337594203e-07,2.9394827409149608e-05
4.713705106496397e-07,5.251342506748522e-07,4.598067947040782e-07,2.865721158481123e-05
4.687764415666938e-07,5.274915385302602e-07,4.59010686973104e-07,2.7925273366988728e-05
4.662927434340701e-07,5.298647208537649e-07,4.5802300790813343e-07,2.720274381887372e-05
4.639559018382818e-07,5.322275557004931e-07,4.5683744000646925e-07,2.649393158719118e-05
4.6180203480422706e-07,5.345568760260274e-07,4.5544978608008155e-07,2.580348535150175e-05
4.5985993044762314e-07,5.368328452967396e-07,4.538570693760437e-07,2.513611950771929e-05
4.5814828951160774e-07,5.39038818498412e-07,4.520564769026945e-07,2.449638730566025e-05
4.566761806900213e-07,5.411606616487882e-07,4.50046246120104e-07,2.388851534791638e-05
4.5544497706917523e-07,5.431850965453519e-07,4.478267421694594e-07,2.3316268903866542e-05
4.544531483375697e-07,5.45097753669449e-07,4.45400092735425e-07,2.2782843926956715e-05
4.5370530628629255e-07,5.46882094333874e-07,4.427692720696889e-07,2.2290828984392662e-05
4.532207028217297e-07,5.485205280028821e-07,4.399374343292946e-07,2.184222924775209e-05
4.5303268145872743e-07,5.499980088977916e-07,4.369081020624764e-07,2.143846915954528e-05
4.531786923770226e-07,5.513045869290348e-07,4.336859709537609e-07,2.108034809019136e-05
4.536919535047346e-07,5.52433130046524e-07,4.3027723487277135e-07,2.076802518639844e-05
4.546016221120018e-07,5.533748658616778e-07,4.266894551214849e-07,2.0501072206544352e-05
4.55934831381213e-07,5.541177909424902e-07,4.229314797834476e-07,2.0278553972563465e-05
4.577149594710928e-07,5.546487142488168e-07,4.1901331098397497e-07,2.0099133239148225e-05
4.5995994108677275e-07,5.549557926924069e-07,4.1494554534812533e-07,1.996123155670448e-05
4.626834859861107e-07,5.550290820600696e-07,4.107397814706226e-07,1.986321502850343e-05
4.658962655775144e-07,5.548604807413397e-07,4.0641201544390477e-07,1.9803550499035408e-05
4.696046128258565e-07,5.544443308361779e-07,4.019859428819432e-07,1.978090920266683e-05
4.738090799009089e-07,5.537775595975861e-07,3.9749101845124937e-07,1.979419449543355e-05
4.785045967074002e-07,5.528589187591594e-07,3.9295754021574905e-07,1.9842488177079785e-05
4.836798532925261e-07,5.516877489123088e-07,3.884149501197076e-07,1.9924948235371887e-05
4.893158438038171e-07,5.502628920613183e-07,3.8389291243667567e-07,2.0040696524636028e-05
4.953861468620793e-07,5.485834450997817e-07,3.7942099761909946e-07,2.0188720278929268e-05
5.018607896940536e-07,5.466525509316789e-07,3.750282274302933e-07,2.0367778122290404e-05
5.087132072501311e-07,5.444815303246439e-07,3.707456688373507e-07,2.057630738850763e-05
5.159235281032585e-07,5.420896580369218e-07,3.666102167954491e-07,2.081238577241981e-05
5.234738712349303e-07,5.394989794308496e-07,3.6266585523896033e-07,2.107376514945246e-05
5.313431551125006e-07,5.367291045497695e-07,3.589606677665329e-07,2.1357913114107908e-05
5.395070245359218e-07,5.33797500529452e-07,3.555411843608728e-07,2.1662035306337264e-05
5.479379814277502e-07,5.307245495341918e-07,3.524492827716425e-07,2.1983120309354472e-05
5.566033835563867e-07,5.275373640033267e-07,3.497237470203105e-07,2.2318007563857773e-05
5.654647560936533e-07,5.242696154793597e-07,3.474012852272466e-07,2.2663432974899497e-05
5.74478894497565e-07,5.20958634999271e-07,3.455136357690368e-07,2.301605578314749e-05
5.835994696863335e-07,5.176422243786032e-07,3.4408492382632623e-07,2.33724951849418e-05
5.927788173538076e-07,5.143597899637392e-07,3.4313162991098897e-07,2.3729375237778908e-05
6.019690181701243e-07,5.111574731667638e-07,3.426622992528427e-07,2.4083398003293466e-05
6.111222162520858e-07,5.080898566859003e-07,3.4267661192936697e-07,2.4431485020504293e-05
6.20190883505547e-07,5.052165570523691e-07,3.431655679053572e-07,2.477093970735697e-05
6.291278144548821e-07,5.025986586320178e-07,3.441122846130953e-07,2.5099504775737405e-05
6.378856992946646e-07,5.002956709685404e-07,3.454934672053997e-07,2.541526553794364e-05
6.464167643312186e-07,4.983606930207633e-07,3.4728354786555626e-07,2.571648150352405e-05
6.546727145219838e-07,4.96835524416259e-07,3.494606753858761e-07,2.600147016418347e-05
6.626047766657318e-07,4.957490055449401e-07,3.5201032729652745e-07,2.626858504352389e-05
6.701637729716596e-07,4.951181789241976e-07,3.5492384049430525e-07,2.651622704514653e-05
6.773005005454871e-07,4.949495428834645e-07,3.581928620481849e-07,2.674286396176712e-05
6.839670004716061e-07,4.952395908248818e-07,3.61804495416165e-07,2.6947146268233028e-05
6.901188296436247e-07,4.959761581166267e-07,3.657416876963972e-07,2.712818753236825e-05
6.957170833314607e-07,4.971410712926781e-07,3.6998615478384547e-07,2.728585506867443e-05
7.007289387411749e-07,4.987138107924991e-07,3.74518429693764e-07,2.7420801065180506e-05
7.051270352351609e-07,5.006761093921477e-07,3.793158727429347e-07,2.7534210903358174e-05
7.088887900533837e-07,5.030142325869178e-07,3.843516902604902e-07,2.762746135736098e-05
7.119972222590431e-07,5.057163928274415e-07,3.895949649200009e-07,2.770186398805572e-05
7.14443299489274e-07,5.087702407809082e-07,3.9501086896576157e-07,2.775869095776281e-05
7.162260813469522e-07,5.12164958374813e-07,4.005611125647411e-07,2.7799555521835383e-05
7.173488251920084e-07,5.158948600989097e-07,4.062053335388984e-07,2.782683499608404e-05
7.178151423933527e-07,5.199610942397115e-07,4.119030515679448e-07,2.7843770861829658e-05
7.176287276732173e-07,5.243704590831401e-07,4.176148132642811e-07,2.7854276435736133e-05
7.167951026916179e-07,5.291300593135846e-07,4.2330202260893676e-07,2.7862689256040974e-05
7.153228867492562e-07,5.342405013554721e-07,4.2892612704172156e-07,2.7873570739202148e-05
7.132235245524208e-07,5.396934086712889e-07,4.344487892838068e-07,2.789153363371077e-05
7.105094222396849e-07,5.454731631193698e-07,4.3983318987447635e-07,2.792106222890929e-05
7.071932450540242e-07,5.515584772276912e-07,4.4504489011010637e-07,2.796631490788893e-05
7.032903422594503e-07,5.579238767336851e-07,4.5005198321740893e-07,2.8030948377053106e-05
6.988206702119334e-07,5.645425326742865e-07,4.548250489688629e-07,2.811801266434423e-05
6.93807065033239e-07,5.713882631803221e-07,4.5933713291639606e-07,2.822989506471529e-05
6.882728009185749e-07,5.784354280976553e-07,4.6356364972732613e-07,2.836825398198556e-05
6.822415491739776e-07,5.856569200814024e-07,4.6748192724120243e-07,2.853394792417367e-05
6.757390483423014e-07,5.930209336550286e-07,4.710712299558369e-07,2.87270171862585e-05
6.687942069990239e-07,6.00489966494995e-07,4.7431423077169006e-07,2.89467738952144e-05
6.614377358749691e-07,6.080243039458549e-07,4.77198644768775e-07,2.919203055160213e-05
6.536997483519094e-07,6.155867581351488e-07,4.797177613270482e-07,2.9461408227844257e-05
6.456092043175725e-07,6.231437020229447e-07,4.818719037561602e-07,2.9753584653979155e-05
6.371947956248974e-07,6.30661820212554e-07,4.836708711933717e-07,3.006740687570177e-05
6.284854454877239e-07,6.381050194757558e-07,4.851327741324425e-07,3.0401915788543254e-05
6.195112072004555e-07,6.454346049116893e-07,4.862793963447907e-07,3.0756340454044746e-05
6.103064125201283e-07,6.526107227505136e-07,4.871336254307003e-07,3.113006355850737e-05
6.009124173412125e-07,6.595928774254307e-07,4.87719554352581e-07,3.152255084569336e-05
5.913756532499831e-07,6.663409709867137e-07,4.880614307864736e-07,3.193324649349537e-05
5.817428267845931e-07,6.728173618887839e-07,4.881810640553724e-07,3.2361416783954385e-05
5.720581875407084e-07,6.789871524424304e-07,4.880966537109141e-07,3.2805952459804645e-05
5.623639190168295e-07,6.848168794608281e-07,4.878237553914192e-07,3.326523188307597e-05
5.52700874869259e-07,6.902750271819485e-07,4.873758768203413e-07,3.373711890182205e-05
5.431074718325855e-07,6.953340819342943e-07,4.867637709181414e-07,3.421902910081481e-05
5.336181954207387e-07,6.999724034112234e-07,4.85995309210485e-07,3.4707983746351115e-05
5.242636123135986e-07,7.041785180910256e-07,4.850764477935967e-07,3.5200656663529795e-05
5.150706850928139e-07,7.079573233874481e-07,4.840115915665524e-07,3.5693446304232244e-05
5.060627603883623e-07,7.11329810636528e-07,4.828030596572414e-07,3.618256953447452e-05
4.972603896481361e-07,7.143238860962284e-07,4.81451582427976e-07,3.6664144358061326e-05
4.886819537009605e-07,7.169648904105986e-07,4.799583200043983e-07,3.7134241301156425e-05
4.803434932552454e-07,7.192727578618642e-07,4.78326042896982e-07,3.758891846319348e-05
4.7225987669834287e-07,7.212648711236167e-07,4.765581871655239e-07,3.802427657460606e-05
4.644474537826367e-07,7.229594096868933e-07,4.7465777480957785e-07,3.8436561605383864e-05
4.5692588240440073e-07,7.243758401978716e-07,4.726277292874136e-07,3.882232109235018e-05
4.4971728469364997e-07,7.255332424322981e-07,4.704711259813738e-07,3.91785493688945e-05
4.42843022207965e-07,7.264475155667315e-07,4.6819057731398525e-07,3.9502700479626786e-05
4.3632203206360645e-07,7.271284968633566e-07,4.65788538114308e-07,3.979256677124633e-05
4.301739136359786e-07,7.275789551876968e-07,4.632691623516882e-07,4.004616895824004e-05
4.2442329374051656e-07,7.277955220368466e-07,4.6063931463906786e-07,4.026175127501085e-05
4.190997788133189e-07,7.277706322783276e-07,4.579069054433424e-07,4.043782825628583e-05
4.142336620598881e-07,7.274958917939945e-07,4.5507867444839656e-07,4.057319494606744e-05
4.098519827397136e-07,7.269659058466364e-07,4.521604371678275e-07,4.066688425002708e-05
4.059762508736157e-07,7.261794680908181e-07,4.4915972693797294e-07,4.0718136200155875e-05
4.0262014715363726e-07,7.251373823954941e-07,4.4608843449731255e-07,4.072649171846558e-05
3.9978826748466936e-07,7.238397824497122e-07,4.4296295287979343e-07,4.069199560108379e-05
3.9747758652979975e-07,7.222852179035351e-07,4.3980218156599216e-07,4.061529332533352e-05
3.9568027106765494e-07,7.204710211991304e-07,4.366254461423089e-07,4.049751992226639e-05
3.9438571960498816e-07,7.183938276287219e-07,4.334505149792392e-07,4.034011149218658e-05
3.935807519602029e-07,7.160511932018584e-07,4.3029164250458e-07,4.014464318247136e-05
3.9324805086111934e-07,7.134456716761526e-07,4.2715827816381476e-07,3.9912756343146255e-05
3.933647674849975e-07,7.105885642575169e-07,4.240548555417839e-07,3.964628314826228e-05
3.939029792966705e-07,7.074992970887086e-07,4.209818994397769e-07,3.934748700827901e-05
3.9483083532375405e-07,7.042012317736258e-07,4.1793746420938184e-07,3.9019144136851225e-05
3.961130798869464e-07,7.0071689697844e-07,4.1491755468667133e-07,3.866440449761898e-05
3.977116344499318e-07,6.970644691036834e-07,4.1191582217894543e-07,3.828660127051026e-05
3.995865336338578e-07,6.932570384352597e-07,4.0892352746169185e-07,3.7889108707240796e-05
4.016976650322457e-07,6.893042916205552e-07,4.0593004605580654e-07,3.747525464542553e-05
4.040075984204443e-07,6.85214035349634e-07,4.029236896937533e-07,3.704828981486004e-05
4.064824769035405e-07,6.809924391499785e-07,3.9989293078573386e-07,3.661139118881624e-05
4.0908939345011785e-07,6.766443574870821e-07,3.968287388489315e-07,3.616765355701675e-05
4.117939339276621e-07,6.721739857807776e-07,3.937276300125896e-07,3.5720060040081675e-05
4.145605944236994e-07,6.675846065800202e-07,3.905929268349562e-07,3.527143224559793e-05
4.173544738118143e-07,6.628782310588074e-07,3.874327674920301e-07,3.4824339163936855e-05
4.2014186535761963e-07,6.580566213840343e-07,3.8425684969310226e-07,3.4380981944495956e-05
4.228902500089517e-07,6.531227416495514e-07,3.8107494089655365e-07,3.394311257092682e-05
4.2556935160320725e-07,6.480814756214315e-07,3.778973830252628e-07,3.3512034509285356e-05
4.281520212009948e-07,6.429400944791146e-07,3.7473560305738994e-07,3.3088691077155956e-05
4.3061318806248635e-07,6.37708728688652e-07,3.716018003370304e-07,3.26737981198907e-05
4.3292816036265223e-07,6.324007010756919e-07,3.68508020741605e-07,3.226796868321043e-05
4.350727070899218e-07,6.270322599824842e-07,3.654655727390648e-07,3.1871809770509565e-05
4.370255943637914e-07,6.216210114006151e-07,3.624856129397581e-07,3.14860001472089e-05
4.387714119625001e-07,6.161843247790688e-07,3.5957923634881566e-07,3.111134389458479e-05
4.4030183333099853e-07,6.10739693071664e-07,3.567557887291252e-07,3.07487671743459e-05
4.4161761860719615e-07,6.053059476286489e-07,3.540212712426063e-07,3.0399257939346685e-05
4.4273143480029013e-07,5.99902868641479e-07,3.513786344026392e-07,3.006379435917841e-05
4.436654722665035e-07,5.945506317284743e-07,3.488290877643897e-07,2.974326672382885e-05
4.444434292012326e-07,5.89271325992305e-07,3.4637320127383947e-07,2.9438366134697808e-05
4.4508442840906803e-07,5.840902449648857e-07,3.440123684579897e-07,2.9149501018719678e-05
4.456018933743489e-07,5.790347761596734e-07,3.417503507537048e-07,2.8876806024202033e-05
4.460045460681607e-07,5.741317387100187e-07,3.395927266369555e-07,2.8620177798883666e-05
4.462976185514886e-07,5.694053508863004e-07,3.37544865164971e-07,2.8379287749836244e-05
4.464836219954199e-07,5.648780256344011e-07,3.356113851633083e-07,2.815362930540556e-05
4.465624669365312e-07,5.605721329381485e-07,3.3379631610190147e-07,2.794261954473157e-05
4.4653178465454643e-07,5.565088223052824e-07,3.321020851652245e-07,2.774567025681875e-05
4.463884723145073e-07,5.527045146259565e-07,3.305294033422802e-07,2.756215277266627e-05
4.46131743168892e-07,5.491683847901518e-07,3.290793408091503e-07,2.739130076667358e-05
4.457657636119045e-07,5.459023933660516e-07,3.277545050832764e-07,2.7232143499496546e-05
4.452985075381342e-07,5.429040035355841e-07,3.265573182653604e-07,2.7083498637488398e-05
4.4473765660176907e-07,5.401704691638358e-07,3.2548815135561e-07,2.694403332176091e-05
4.440878173039586e-07,5.377020739027225e-07,3.245458196095548e-07,2.6812415446858884e-05
4.433502992698797e-07,5.355029185415131e-07,3.237288997440213e-07,2.6687512914493346e-05
4.4252504440230894e-07,5.335794602236478e-07,3.230359333565464e-07,2.6568521158166268e-05
4.416138621747613e-07,5.319369606513324e-07,3.224645504433059e-07,2.645493546392481e-05
4.40621824741953e-07,5.305758600875001e-07,3.220103744908756e-07,2.6346392078093728e-05
4.395558878455162e-07,5.294906517944973e-07,3.216668340642371e-07,2.6242470306950743e-05
4.384235575113594e-07,5.286707803398713e-07,3.214258173032205e-07,2.614256539772573e-05
4.3723366971824024e-07,5.281023544872082e-07,3.212778590670118e-07,2.604589077513497e-05
4.359981405330985e-07,5.27769776772865e-07,3.212117133923387e-07,2.595154827206836e-05
4.347313796133757e-07,5.276558989816147e-07,3.2121425484746136e-07,2.585858813747016e-05
4.3344713119256037e-07,5.277408114566149e-07,3.212710737650281e-07,2.576612658831073e-05
4.321562130951298e-07,5.280007238868685e-07,3.2136724800725176e-07,2.5673572246987053e-05
4.3086702316992084e-07,5.284083882344093e-07,3.214875852012188e-07,2.558077559095809e-05
4.2958834704792974e-07,5.289352534677258e-07,3.216166864101282e-07,2.548793540572503e-05
4.283319857909264e-07,5.295532314724187e-07,3.21739681715612e-07,2.5395372972177865e-05
4.2711168360548894e-07,5.302349164954569e-07,3.2184299338948675e-07,2.530334947013373e-05
4.259391836569644e-07,5.309544197537741e-07,3.219138085792397e-07,2.5212019216563635e-05
4.2482177376354974e-07,5.316901793571922e-07,3.219394242788721e-07,2.512160513676463e-05
4.237627844840461e-07,5.324274299712979e-07,3.2190859270656585e-07,2.503272794306491e-05
4.2276298817755314e-07,5.331580063072432e-07,3.2181309392043057e-07,2.4946601096733245e-05
4.218213142601467e-07,5.338786192051842e-07,3.21647138957168e-07,2.486494577458334e-05
4.209355855379821e-07,5.345898475805181e-07,3.214060596362073e-07,2.478976013079407e-05
4.2010304865992994e-07,5.35296453175011e-07,3.210860411034541e-07,2.472309747616933e-05
4.1932009979693647e-07,5.360072405449896e-07,3.2068537481140785e-07,2.466689889257508e-05
4.1858405517606186e-07,5.367320688459386e-07,3.20206521744551e-07,2.4622863230606664e-05
4.178967805220033e-07,5.374780969759118e-07,3.196564757216302e-07,2.459233528904313e-05
4.172646501948632e-07,5.382484790566351e-07,3.190451336670322e-07,2.457622185490884e-05
4.166953049968084e-07,5.390422243003826e-07,3.1838467366337035e-07,2.4574949817438502e-05
4.1619643331127e-07,5.398540606171622e-07,3.1769025889006536e-07,2.458846169872261e-05
4.157759445910285e-07,5.406754585632413e-07,3.169789589257485e-07,2.4616243630724742e-05
4.154407074324915e-07,5.414976203939318e-07,3.162669662918918e-07,2.4657392850832127e-05
4.1519472894940297e-07,5.423150359228807e-07,3.1556859344542307e-07,2.471071257881108e-05
4.1503888425518045e-07,5.431266318314471e-07,3.148974352381389e-07,2.4774803112431146e-05
4.149730062394697e-07,5.439344245433326e-07,3.14266611141987e-07,2.484815288095265e-05
4.14999439086896e-07,5.447415832640679e-07,3.1368695510293146e-07,2.492924821570903e-05
4.151255025456392e-07,5.45550842959131e-07,3.1316529570837357e-07,2.501666581309693e-05
4.153626481098468e-07,5.463640378306604e-07,3.127045833152915e-07,2.5109096933619957e-05
4.157230816779505e-07,5.471821059001886e-07,3.123048295465535e-07,2.5205318879566737e-05
4.1621592542561007e-07,5.480047268880648e-07,3.1196339507098234e-07,2.530416569096819e-05
4.168443596853304e-07,5.488300975422461e-07,3.116751867507441e-07,2.5404513841896908e-05
4.1760518112318345e-07,5.496544323802888e-07,3.1143321673180946e-07,2.5505264161362385e-05
4.184907540456307e-07,5.504711887539997e-07,3.112289216489103e-07,2.5605300222645934e-05
4.1949142535540093e-07,5.512712858085143e-07,3.110523547353822e-07,2.5703434382536045e-05
4.2059764199491035e-07,5.520446465169054e-07,3.1089291251689945e-07,2.579842093092697e-05
4.218021589305485e-07,5.527824468065836e-07,3.107408483215961e-07,2.5889091121858288e-05
4.2310093989347247e-07,5.534781567229152e-07,3.1058887433422196e-07,2.5974503340664388e-05
4.244918958706084e-07,5.54126153658507e-07,3.1043296608727443e-07,2.6053973023275267e-05
4.2597449718068007e-07,5.547216957864493e-07,3.102722726787519e-07,2.6127008903605442e-05
4.275519326757619e-07,5.552653950079432e-07,3.101077586057856e-07,2.6193256018843093e-05
4.2923146828000703e-07,5.557669926256964e-07,3.099398141593561e-07,2.625248048724756e-05
4.3102091610730107e-07,5.562423498448129e-07,3.0976683874042413e-07,2.63045604060504e-05
4.329260713179678e-07,5.567070566346179e-07,3.095854776522812e-07,2.634941742863281e-05
4.349512740955508e-07,5.571741816759051e-07,3.09391056433007e-07,2.6386884732716665e-05
4.3709983061605615e-07,5.576577908953417e-07,3.091776498050202e-07,2.6416612437965385e-05
4.3937305005665226e-07,5.581790933548819e-07,3.089383789940772e-07,2.6438097391544346e-05
4.4177024739310943e-07,5.58771087208516e-07,3.086660911508734e-07,2.64508146969276e-05
4.442905456462142e-07,5.594777296306645e-07,3.083544380125877e-07,2.6454390302690196e-05
4.469339612934391e-07,5.603471653370549e-07,3.079990126081893e-07,2.6448766411574092e-05
4.497001723896364e-07,5.614229523179902e-07,3.0759741316103744e-07,2.643428136141296e-05
4.5258678845743676e-07,5.6273763663483e-07,3.071486652227872e-07,2.641160681174976e-05
4.555891302850849e-07,5.64310558286951e-07,3.066529827661159e-07,2.6381574181676814e-05
4.586999270132242e-07,5.661494030102399e-07,3.061111434463955e-07,2.634496095950497e-05
4.61907778028549e-07,5.682536879830604e-07,3.0552422571796146e-07,2.630231758502342e-05
4.6519787160217564e-07,5.706175771248515e-07,3.048953277747342e-07,2.625389811505784e-05
4.6855643280964643e-07,5.732302047391015e-07,3.042322115281117e-07,2.6199681217891918e-05
4.719740530751878e-07,5.760744251630985e-07,3.035483705510893e-07,2.613946600503906e-05
4.7544424051344956e-07,5.791261466847286e-07,3.0286083699643465e-07,2.607311103291753e-05
4.789604496675458e-07,5.823557960044986e-07,3.021864089658024e-07,2.6000909136803185e-05
4.825150948203376e-07,5.85732202894096e-07,3.015402886365576e-07,2.592386676162644e-05
4.860991914878873e-07,5.892273608349437e-07,3.009372982489074e-07,2.5843691363353038e-05
4.897019797335731e-07,5.928202174615157e-07,3.003918011478548e-07,2.576258440173017e-05
4.933114068056823e-07,5.964982624152021e-07,2.999153795097914e-07,2.5683002543528147e-05
4.969145396655771e-07,6.002560681814628e-07,2.995154580272642e-07,2.5607408339156698e-05
5.004978689570367e-07,6.040910134158761e-07,2.991958798249899e-07,2.553806503544412e-05
5.040482139917927e-07,6.0799761080121e-07,2.9895817368682245e-07,2.547700002180059e-05
5.075527997305069e-07,6.119630275065018e-07,2.988033848190999e-07,2.542608976439543e-05
5.109974808916446e-07,6.159659713052297e-07,2.987333211294323e-07,2.5387088459913002e-05
5.143650249799453e-07,6.199782621371611e-07,2.987497765041192e-07,2.5361575062375e-05
5.17635507360105e-07,6.239672997023589e-07,2.9885327171407663e-07,2.5350911438862273e-05
5.207875644066455e-07,6.278989726287492e-07,2.9904301753662327e-07,2.535623535875469e-05
5.237982916247768e-07,6.317402738174443e-07,2.9931679167550657e-07,2.53784593456746e-05
5.266422927407519e-07,6.354605860523094e-07,2.9966976594615934e-07,2.5418268440852398e-05
5.292915955244128e-07,6.39032426799401e-07,3.000941828161006e-07,2.5476134658639238e-05
5.317169500432701e-07,6.424316994091409e-07,3.005810971113544e-07,2.5552365289224425e-05
5.338900200538179e-07,6.456368872555148e-07,3.011227770767985e-07,2.5647173065866878e-05
5.3578598700205e-07,6.48630136738969e-07,3.0171465649926273e-07,2.576072662239291e-05
5.373856347805772e-07,6.514005577522376e-07,3.023562563082187e-07,2.589315551672358e-05
5.386750730958903e-07,6.539449560247928e-07,3.030496821638648e-07,2.6044509697644696e-05
5.396430276992234e-07,6.562660218726576e-07,3.0379689408752854e-07,2.621467295731709e-05
5.402783529603785e-07,6.583709996307192e-07,3.045987217303558e-07,2.640324305237865e-05
5.405696425390187e-07,6.602702217384047e-07,3.054549576864429e-07,2.6609415896769456e-05
5.40506419792249e-07,6.619749908818288e-07,3.063638397009731e-07,2.683192600496469e-05
5.40080553260287e-07,6.63495782515252e-07,3.073218320563255e-07,2.7069082701708144e-05
5.39287339833625e-07,6.648415810523454e-07,3.083241314192146e-07,2.7318885023549592e-05
5.381266186121126e-07,6.660196922734783e-07,3.093658114946844e-07,2.757915838849566e-05
5.366031048157561e-07,6.670344570736964e-07,3.104443810278693e-07,2.784767240175148e-05
5.347245455237427e-07,6.678863335951589e-07,3.1156228768700085e-07,2.812222626587957e-05
5.324992493394815e-07,6.685727188179824e-07,3.1272706024986963e-07,2.8400691727470197e-05
5.29936278301762e-07,6.690892307463779e-07,3.139492834279583e-07,2.868099514977251e-05
5.270482269289582e-07,6.694320028275747e-07,3.1523915705856573e-07,2.896105191274726e-05
5.238525434591086e-07,6.696001881660341e-07,3.1660336918630893e-07,2.9238727666987928e-05
5.203694971579924e-07,6.695950596306325e-07,3.180451079402679e-07,2.951186894690028e-05
5.166195414919301e-07,6.694164771336651e-07,3.195665519297464e-07,2.9778343526500874e-05
5.126226159816216e-07,6.690612956470136e-07,3.211707870782455e-07,3.0036045053200647e-05
5.083991493131949e-07,6.685263996500376e-07,3.228622741424964e-07,3.028290482151853e-05
5.039706675992561e-07,6.678136340812347e-07,3.246464232698831e-07,3.0516949030201204e-05
4.993584640010371e-07,6.669307186864719e-07,3.265287281748035e-07,3.0736372249721504e-05
4.945820507349218e-07,6.658885535742907e-07,3.285133736481896e-07,3.0939558344808745e-05
4.896598068828161e-07,6.646989769778065e-07,3.306013396528744e-07,3.112502162197909e-05
4.846108295138979e-07,6.633722702833725e-07,3.3278953030704165e-07,3.129132854318589e-05
4.794562738812313e-07,6.61914308579429e-07,3.350714336596808e-07,3.143705595316194e-05
4.7422015319257357e-07,6.603254222102026e-07,3.374378023472241e-07,3.156078186255238e-05
4.6892834546388647e-07,6.586007508323018e-07,3.398770227833105e-07,3.166113352399842e-05
4.636054785622016e-07,6.567312993895027e-07,3.423753604403424e-07,3.173693165968945e-05
4.582737481034686e-07,6.547054074387201e-07,3.449168657224896e-07,3.1787353034219926e-05
4.529558466158037e-07,6.525100688319814e-07,3.474844187345167e-07,3.1811975559616336e-05
4.4767736989834777e-07,6.501317616663867e-07,3.5006229617103185e-07,3.18106800648646e-05
4.4246511363528575e-07,6.47556748775058e-07,3.526379633995684e-07,3.1783482604316716e-05
4.3734512585789697e-07,6.447711320460924e-07,3.552031374420907e-07,3.1730387086170845e-05
4.323439740803156e-07,6.41761205063014e-07,3.5775548079862254e-07,3.1651321059901035e-05
4.274899151123213e-07,6.385141097278843e-07,3.602988317438804e-07,3.154614709494103e-05
4.228105600578924e-07,6.350189177533981e-07,3.628404467877533e-07,3.1414717272365324e-05
4.1832936885347717e-07,6.312679640118922e-07,3.65388373647727e-07,3.1257023287379636e-05
4.1406435258856344e-07,6.27256651938949e-07,3.67950722997281e-07,3.107349608621881e-05
4.100285729706381e-07,6.229820290122363e-07,3.705346531291607e-07,3.08652884344895e-05
4.0623130337667213e-07,6.184430566431625e-07,3.73144982896875e-07,3.063430168388814e-05
4.026796691530061e-07,6.136415733375181e-07,3.757841220730322e-07,3.0382996955166857e-05
3.9937950759318313e-07,6.085810081351493e-07,3.7845300759597456e-07,3.0114188204785744e-05
3.963348887490591e-07,6.032646736804753e-07,3.811518204887125e-07,2.9830860569473146e-05
3.9354773914550817e-07,5.976965196701204e-07,3.838797702205738e-07,2.953599292637049e-05
3.910179873341425e-07,5.918841352876824e-07,3.8663446573432607e-07,2.923249812362874e-05
3.8874337362268937e-07,5.858412757165888e-07,3.8941151461645997e-07,2.8923318683735943e-05
3.8671952491846867e-07,5.795864979556167e-07,3.922041444378124e-07,2.8611489111194056e-05
3.849406468811555e-07,5.731392239972767e-07,3.950034331901836e-07,2.8300070182220238e-05
3.8339986172714854e-07,5.665178450584998e-07,3.9779956980697755e-07,2.7992046654977752e-05
3.8209046415205156e-07,5.597401927127025e-07,4.0058216378267725e-07,2.7690246310727064e-05
3.810091979540522e-07,5.52823914692325e-07,4.0333855257512436e-07,2.7397279614308177e-05
3.801580493473279e-07,5.457870612489812e-07,4.060523698905632e-07,2.7115495907711946e-05
3.795422459118515e-07,5.386498061179733e-07,4.0870370538524826e-07,2.684695590061213e-05
3.791675049601862e-07,5.314354387091466e-07,4.112703087502461e-07,2.6593425545973725e-05
3.7903863272784657e-07,5.241699546431504e-07,4.137298330017417e-07,2.635637992384136e-05
3.791591851365789e-07,5.168814028040818e-07,4.1606209768545116e-07,2.6136987100635942e-05
3.7953335579050907e-07,5.095982598785086e-07,4.182493434565306e-07,2.59360748028304e-05
3.801695942560131e-07,5.0234712387064e-07,4.2027528091720257e-07,2.575411347973231e-05
3.810821058001655e-07,4.951516269908356e-07,4.221253583360826e-07,2.5591209460576755e-05
3.822881398806856e-07,4.880324037835315e-07,4.237877819590921e-07,2.5447095703833983e-05
3.838027789012103e-07,4.810073204293106e-07,4.252537453090572e-07,2.532116853051173e-05
3.856344695789689e-07,4.7409259277347524e-07,4.265170332750657e-07,2.521258720946397e-05
3.8778395652408025e-07,4.673042459610472e-07,4.2757359000455313e-07,2.512036623071143e-05
3.902473620338482e-07,4.6065758689795104e-07,4.284216232112969e-07,2.50434248085185e-05
3.9302030112957004e-07,4.5416559519569405e-07,4.2906195755288954e-07,2.498062302589556e-05
3.960980412033086e-07,4.478399220523156e-07,4.294969760893109e-07,2.493078911549908e-05
3.994726914823661e-07,4.4169430531018535e-07,4.297282893341569e-07,2.4892718384746426e-05
4.031326107996946e-07,4.3574622757227107e-07,4.297556361894539e-07,2.486514101470137e-05
4.0706391667804655e-07,4.3001463710826284e-07,4.295779691647176e-07,2.4846674658222252e-05
4.1125164331262605e-07,4.2451598158680047e-07,4.291950283808778e-07,2.483581873752833e-05
4.1568105283959677e-07,4.1926171110672067e-07,4.286074528898365e-07,2.4831062208094555e-05
4.203383126108129e-07,4.1425793528292714e-07,4.2781553576359203e-07,2.4831066021847985e-05
4.2520879882438907e-07,4.0950626256476505e-07,4.268186172237306e-07,2.483477294142089e-05
4.302747405863862e-07,4.050051073230189e-07,4.256159935212159e-07,2.484137084279181e-05
4.35514272242528e-07,4.007507232469315e-07,4.2420824238119594e-07,2.4850181208199248e-05
4.4090117350002325e-07,3.9673751778087675e-07,4.225979604401197e-07,2.4860588864334365e-05
4.4640472118309173e-07,3.9295869448742815e-07,4.207891860265317e-07,2.487204229281757e-05
4.519900353730161e-07,3.894070963261982e-07,4.187855187555817e-07,2.48840493441294e-05
4.576187069138583e-07,3.860747973159051e-07,4.1658882269811245e-07,2.489616493782226e-05
4.6324982676551505e-07,3.829520228706029e-07,4.142000515070368e-07,2.490806526952642e-05
4.6884148356605405e-07,3.8002670546603775e-07,4.1162152511258725e-07,2.491967713172261e-05
4.7435146884551145e-07,3.7728643076241243e-07,4.0885836876295575e-07,2.4931231283041078e-05
4.797369988669321e-07,3.7472474292573407e-07,4.059181719691349e-07,2.4943210795557182e-05
4.84954952920486e-07,3.723483964778904e-07,4.028109844195945e-07,2.495625303650089e-05
4.899628957635265e-07,3.7017844119767563e-07,3.9955062957327757e-07,2.4971061247401426e-05
4.9472006841168e-07,3.6824435445434496e-07,3.9615501137983216e-07,2.498834577575256e-05
4.991880131185371e-07,3.66577206966125e-07,3.926443598929395e-07,2.500876380321321e-05
5.033309808473318e-07,3.652064225362594e-07,3.890399907719485e-07,2.503281351732069e-05
5.071163120523251e-07,3.6415960529093686e-07,3.8536466675487406e-07,2.506070338907388e-05
5.105144874781935e-07,3.634615017174275e-07,3.816426044950736e-07,2.509228035801466e-05
5.134988854728693e-07,3.631308354157432e-07,3.7789824067190363e-07,2.512705795159747e-05
5.160458583508528e-07,3.6317885438720346e-07,3.74154306339137e-07,2.51642887321315e-05
5.181356376222382e-07,3.6361099647102155e-07,3.7043080581183367e-07,2.5203053503095325e-05
5.197545948012761e-07,3.644285348947004e-07,3.6674615632622717e-07,2.5242448562511238e-05
5.208969301507389e-07,3.656288701668528e-07,3.631189463645192e-07,2.528181128567655e-05
5.215631313875128e-07,3.6720583394301077e-07,3.595678553323756e-07,2.5320759431828118e-05
5.2175794823382e-07,3.691503568729929e-07,3.5610957116619867e-07,2.5359080209030372e-05
5.214907346880536e-07,3.7145033229840864e-07,3.527572529279143e-07,2.539667035956479e-05
5.207752184268944e-07,3.7408955821808904e-07,3.4952127307082056e-07,2.543350911864117e-05
5.196270063744882e-07,3.7704718794591173e-07,3.4641097777658203e-07,2.546959065728289e-05
5.180614305780679e-07,3.8029884033276405e-07,3.434362320371267e-07,2.550484169092644e-05
5.160930799244087e-07,3.8381938216960563e-07,3.406083050116238e-07,2.553903949554717e-05
5.137365377359632e-07,3.875858269425165e-07,3.3793908437490174e-07,2.557174104067953e-05
5.110082689324701e-07,3.915779524076592e-07,3.3544008919211803e-07,2.5602251926008425e-05
5.07928158991699e-07,3.957768511970687e-07,3.3312346267549895e-07,2.5629643904568304e-05
5.045186843938406e-07,4.0016406887769045e-07,3.3100235303116467e-07,2.565281165868232e-05
5.008030047510753e-07,4.047210347160181e-07,3.290890535063223e-07,2.5670555668095646e-05
4.968046123911982e-07,4.094270678076893e-07,3.273937716788394e-07,2.5681675917800148e-05
4.925487756152269e-07,4.1425775248442826e-07,3.259245416847095e-07,2.5685063234339137e-05
4.880646187717817e-07,4.1918603051456593e-07,3.246861912085712e-07,2.5679775400452552e-05
4.833864078299904e-07,4.241849454108265e-07,3.2367905582280776e-07,2.566508392167592e-05
4.785519033361778e-07,4.2922869818353317e-07,3.228996123071057e-07,2.564046634375965e-05
4.7359801912601645e-07,4.342918050149806e-07,3.223416374003778e-07,2.5605523818698208e-05
4.6855729133126964e-07,4.3934931781539223e-07,3.2199610854561073e-07,2.5559865433245985e-05
4.634568184630733e-07,4.4437754007105313e-07,3.2185154931580246e-07,2.5503047703324444e-05
4.583190968728417e-07,4.493533266235088e-07,3.21894916332742e-07,2.54346131025798e-05
4.531648840866089e-07,4.542528651724149e-07,3.221117634912369e-07,2.535418258007257e-05
4.480166477936124e-07,4.5905122595145323e-07,3.2248689490740065e-07,2.5261520713857047e-05
4.4289922036543167e-07,4.6372354155785686e-07,3.230058106226002e-07,2.5156541376554346e-05
4.378377399667017e-07,4.6824692911287223e-07,3.2365581034281877e-07,2.5039281057942204e-05
4.3285624022992354e-07,4.7260087032206566e-07,3.244270820543106e-07,2.4909878202195265e-05
4.279774488448349e-07,4.7676608087577846e-07,3.2531325531207647e-07,2.4768575845065365e-05
4.232220198626531e-07,4.807234911685639e-07,3.2630957467825216e-07,2.4615742370742042e-05
4.1860784868578243e-07,4.844538249441739e-07,3.2740986357369666e-07,2.4451899236713172e-05
4.1415083084414407e-07,4.879374778982363e-07,3.286051633920113e-07,2.427773249075789e-05
4.098655253591004e-07,4.91154972323023e-07,3.298841587154213e-07,2.4094045395637106e-05
4.0576473306452064e-07,4.940886014596135e-07,3.312335648719682e-07,2.390166169047909e-05
4.018597664532569e-07,4.96725109370336e-07,3.326379415920489e-07,2.3701384927604465e-05
3.981618624748167e-07,4.990576778083746e-07,3.340800265862431e-07,2.349403690406365e-05
3.946833504329343e-07,5.010849913523308e-07,3.3554163144992515e-07,2.328045996453233e-05
3.9143831572578843e-07,5.028082252681495e-07,3.37004222701905e-07,2.306148723268412e-05
3.8844373096875093e-07,5.042300096637021e-07,3.3844977207392e-07,2.283800024109297e-05
3.857202632110513e-07,5.053565279773869e-07,3.39862285385882e-07,2.2611086152768358e-05
3.832897571572795e-07,5.061983933935784e-07,3.4122861819155413e-07,2.2382200247312147e-05
3.811703475407013e-07,5.067676565798415e-07,3.4253766372049013e-07,2.2153225550470346e-05
3.793742719182922e-07,5.070746972014664e-07,3.4377881908424074e-07,2.1926391106069727e-05
3.779088288962222e-07,5.071286498605129e-07,3.449409967191065e-07,2.1704100361705967e-05
3.767766057618744e-07,5.069403579229312e-07,3.460127572299084e-07,2.1488732875448145e-05
3.759750169564698e-07,5.065258859404112e-07,3.469837660063174e-07,2.1282467875778607e-05
3.754985511358997e-07,5.059087185703021e-07,3.478465568916293e-07,2.1087189214691783e-05
3.7534281819556744e-07,5.051188088441251e-07,3.485962719304964e-07,2.0904507292573493e-05
3.7550567634950325e-07,5.041905030958858e-07,3.4922840703426217e-07,2.073583716183588e-05
3.7598449970138677e-07,5.031616572478492e-07,3.497374420421876e-07,2.058243206051703e-05
3.7677299908767244e-07,5.020712162534164e-07,3.501172981091447e-07,2.044535508878421e-05
3.7786005565532473e-07,5.009539649173129e-07,3.5036202586461265e-07,2.0325457355659624e-05
3.7923052124742883e-07,4.998368014234601e-07,3.504659586998541e-07,2.0223435355577732e-05
3.808674541471507e-07,4.987397941892128e-07,3.50423490692675e-07,2.0139945246042115e-05
3.827556548801769e-07,4.976789536827961e-07,3.502287748318076e-07,2.007568002649226e-05
3.848848449648813e-07,4.966664269948983e-07,3.498759598761958e-07,2.0031407638371133e-05
3.872499253115644e-07,4.95709069464484e-07,3.493597803512018e-07,2.0008066028238902e-05
3.898500711747222e-07,4.948082219558864e-07,3.4867605551786605e-07,2.0006892054999782e-05
3.926899762122856e-07,4.939610640261114e-07,3.478224001589157e-07,2.0029413311330904e-05
3.957808528681736e-07,4.931623043302659e-07,3.4679911448561905e-07,2.007726006652291e-05
3.9913749212021215e-07,4.924051651515079e-07,3.456097916917368e-07,2.0151933712543146e-05
4.027727697164463e-07,4.916817136260032e-07,3.4426100052220467e-07,2.0254617484813325e-05
4.066944721116184e-07,4.909825173662777e-07,3.427606126129465e-07,2.0386061303017188e-05
4.1090790013014653e-07,4.90295849228482e-07,3.411158473713252e-07,2.0546652904825825e-05
4.15421885254954e-07,4.896076504604281e-07,3.393324006613531e-07,2.0736665440482146e-05
4.202518690087564e-07,4.889025327751391e-07,3.374145865493479e-07,2.0956419786868844e-05
4.2541637640402825e-07,4.88165009197135e-07,3.353668303803442e-07,2.120623702490653e-05
4.309293809200899e-07,4.873810082714635e-07,3.331967599669669e-07,2.1486317736379973e-05
4.367949629119706e-07,4.865395995572063e-07,3.309169234982532e-07,2.179664082476479e-05
4.430079389163106e-07,4.856328304636766e-07,3.2854342532598893e-07,2.2136885873548985e-05
4.4955774988901994e-07,4.846533183093761e-07,3.2609448960996733e-07,2.2506383860061614e-05
4.5643093327523453e-07,4.835927697108558e-07,3.235900580571589e-07,2.2904087346594783e-05
4.636110110045429e-07,4.824426458628971e-07,3.210505681092528e-07,2.332855599850037e-05
4.7107797302302893e-07,4.811951224850531e-07,3.1849495308273093e-07,2.3777976673358382e-05
4.788086212392215e-07,4.798430408031986e-07,3.1593897249091566e-07,2.42502148064562e-05
4.867766567459367e-07,4.783788017414729e-07,3.133943687060757e-07,2.474286378884085e-05
4.949529374567453e-07,4.7679302003203094e-07,3.108688297490205e-07,2.5253277158006266e-05
5.033082123792927e-07,4.7507442538390534e-07,3.08366579322419e-07,2.577858018091121e-05
5.118167997372609e-07,4.732115730608557e-07,3.05889669575938e-07,2.631565969787648e-05
5.204561698552108e-07,4.7119482986624833e-07,3.034393765506103e-07,2.686115654951307e-05
5.292017754589128e-07,4.690172530608668e-07,3.010165836737976e-07,2.7411489418945708e-05
5.380222514439228e-07,4.666756045402735e-07,2.986212463918602e-07,2.796291666125839e-05
5.468788526139772e-07,4.641728349012083e-07,2.9625215855246704e-07,2.8511620421122333e-05
5.557286726855229e-07,4.615194451362271e-07,2.939082364770001e-07,2.905378560106016e-05
5.645292205086439e-07,4.5873059463279456e-07,2.915914767596538e-07,2.95856490845912e-05
5.732415790081344e-07,4.5582161065207426e-07,2.8930970640695145e-07,3.0103513647417927e-05
5.81831176399846e-07,4.5280653166438073e-07,2.870769614376156e-07,3.060376574027447e-05
5.902678148810165e-07,4.497000430664875e-07,2.849111162088764e-07,3.108293354188499e-05
5.985255880805143e-07,4.4652019261766565e-07,2.828301680372423e-07,3.1537758990123124e-05
6.065811339812643e-07,4.4328886278469524e-07,2.808497653295308e-07,3.1965265689677415e-05
6.144101855859779e-07,4.4002925170134104e-07,2.789829846745563e-07,3.2362827588091745e-05
6.219846934299872e-07,4.3676277113950823e-07,2.772410707680385e-07,3.272818395521369e-05
6.292719060653954e-07,4.335075410320776e-07,2.7563433342377824e-07,3.3059357081698326e-05
6.362353055931609e-07,4.302789575137229e-07,2.74172366699437e-07,3.3354538110074626e-05
6.428371536387788e-07,4.27092761453001e-07,2.728626768177608e-07,3.361203135049537e-05
6.490412878122912e-07,4.2397058054022045e-07,2.717092502538804e-07,3.383027069358834e-05
6.548140703239021e-07,4.2094309528880437e-07,2.707127004808918e-07,3.4007873913910674e-05
6.601239858548818e-07,4.1804568315977924e-07,2.698707153045522e-07,3.414372470607555e-05
6.649419587617e-07,4.1531253663986544e-07,2.6917771972744245e-07,3.423706791549854e-05
6.692423812785804e-07,4.1277677556421253e-07,2.686249528507004e-07,3.428757778664706e-05
6.730042902228529e-07,4.104723031704305e-07,2.6820166838232123e-07,3.4295413272507995e-05
6.762122813870705e-07,4.084326684294135e-07,2.678963750216765e-07,3.426129596394496e-05
6.788557212674118e-07,4.066884574477189e-07,2.676969725063467e-07,3.4186599716327936e-05
6.809268436083183e-07,4.0526463594432024e-07,2.675900167396582e-07,3.407342731553324e-05
6.824200953538532e-07,4.0417918758887157e-07,2.675601814870378e-07,3.3924620262581195e-05
6.833324542016764e-07,4.034432636275813e-07,2.675905479313428e-07,3.374364691236309e-05
6.836630123922875e-07,4.0306129203805606e-07,2.676637555115805e-07,3.3534394351608085e-05
6.834123354613122e-07,4.0303151020743705e-07,2.6776364039591906e-07,3.3300932603261655e-05
6.825830640673908e-07,4.033475259800932e-07,2.6787684892985074e-07,3.304730540256018e-05
6.811810692791253e-07,4.039997267721238e-07,2.679936505803711e-07,3.277737817467049e-05
6.792150267494711e-07,4.049757288141319e-07,2.681070791415996e-07,3.249474827128792e-05
6.766946690141113e-07,4.06259913531389e-07,2.682110154792093e-07,3.220273861348846e-05
6.736302507998214e-07,4.078327598087821e-07,2.6829896130375245e-07,3.190453418550552e-05
6.700337810807209e-07,4.0967117742874274e-07,2.683643071279579e-07,3.160341351944108e-05
6.659198590205068e-07,4.1175002074819906e-07,2.684011249706584e-07,3.1302829963569184e-05
6.613049869161558e-07,4.1404289133171464e-07,2.6840412385063746e-07,3.100619038872545e-05
6.56207130016523e-07,4.165210761359826e-07,2.6836853879246005e-07,3.0716514512571805e-05
6.506467168989171e-07,4.1915299980913867e-07,2.682913288420091e-07,3.043627330145381e-05
6.446479684535244e-07,4.219062934629867e-07,2.6817268596850266e-07,3.016756113574315e-05
6.38239177947922e-07,4.2475065610491036e-07,2.6801655064806874e-07,2.991256110111848e-05
6.314518551829309e-07,4.2765901927007936e-07,2.678300784188617e-07,2.9674050714301063e-05
6.243213345961313e-07,4.3060714358740255e-07,2.676220057687484e-07,2.945564925274051e-05
6.168903009540445e-07,4.3357330311013096e-07,2.674008618416353e-07,2.9261754335958745e-05
6.092101983895791e-07,4.3653900285870707e-07,2.671741826292122e-07,2.9097317723062543e-05
6.013358983453379e-07,4.3948931477611075e-07,2.6694795295762525e-07,2.896757754148571e-05
5.933184511447286e-07,4.4241094878772487e-07,2.6672585582472724e-07,2.88777976048546e-05
5.852025153472214e-07,4.452896338986894e-07,2.6650889517479894e-07,2.8833037258773835e-05
5.770270176228043e-07,4.4810978229545775e-07,2.662952362799604e-07,2.8837956820856435e-05
5.688257742170484e-07,4.5085708593957174e-07,2.6608049280779944e-07,2.8896668267092998e-05
5.606285258916175e-07,4.535224232369225e-07,2.658588505826445e-07,2.9012635817621727e-05
5.524619300488487e-07,4.5610350793313806e-07,2.6562436082597e-07,2.9188594645991308e-05
5.443489121240269e-07,4.5860290491907044e-07,2.6537205779628604e-07,2.9426438314087847e-05
5.363073634648314e-07,4.6102566307047646e-07,2.650987659377086e-07,2.972707227592097e-05
5.283503585888333e-07,4.6337734942692004e-07,2.648025536746476e-07,3.009029044158418e-05
5.204888518890478e-07,4.65660988944996e-07,2.644810842639391e-07,3.051474142177754e-05
5.127363782129418e-07,4.6787543447581074e-07,2.641311042754764e-07,3.0998034061775736e-05
5.051124919046012e-07,4.7001602215419064e-07,2.6375022418537267e-07,3.153698540585657e-05
4.976416923223378e-07,4.720752034851965e-07,2.6333975961724895e-07,3.212793258855943e-05
4.903509745082647e-07,4.7404394258134527e-07,2.6290654535848285e-07,3.2767008008161124e-05
4.832697991118365e-07,4.759133807396309e-07,2.6246249472545664e-07,3.3450329440731456e-05
4.764294673700965e-07,4.776740940611944e-07,2.620222258927528e-07,3.417410169359866e-05
4.6985967130253955e-07,4.793146412902814e-07,2.616001359656516e-07,3.4934645642098e-05
4.6358561088451145e-07,4.808215764155634e-07,2.6120861873834354e-07,3.572837030021944e-05
4.576286342761531e-07,4.821798477360153e-07,2.608583439468013e-07,3.6551706413204296e-05
4.5200840946610813e-07,4.833732045442903e-07,2.605597066307095e-07,3.740102628176669e-05
4.467424497763771e-07,4.84384700058065e-07,2.603239412133866e-07,3.827253398226784e-05
4.4184433311723406e-07,4.851967915211022e-07,2.601626356564181e-07,3.916210031924847e-05
4.3732555435788643e-07,4.857915333194537e-07,2.600855482002361e-07,4.0065124130856706e-05
4.331985036360526e-07,4.861517525923831e-07,2.6009871900710625e-07,4.097654313518872e-05
4.2947484642040034e-07,4.862633455453083e-07,2.602045211657824e-07,4.189097799067133e-05
4.261619560731064e-07,4.861177365208818e-07,2.6040395037492e-07,4.28028943276365e-05
4.2326283433333187e-07,4.857128582318054e-07,2.60699775665598e-07,4.370671560517035e-05
4.207792414426595e-07,4.850515924473964e-07,2.610981176300345e-07,4.459689300472326e-05
4.187146452342124e-07,4.841386675794954e-07,2.6160783736789644e-07,4.54679759320332e-05
4.170749102444475e-07,4.829790619342603e-07,2.622386307470349e-07,4.6314685777853054e-05
4.158672601542289e-07,4.81580070405457e-07,2.6299952970023906e-07,4.713194877940961e-05
4.150982405643971e-07,4.799557091431697e-07,2.638984666216489e-07,4.791490618705069e-05
4.147709489427606e-07,4.78129223854995e-07,2.649412836062212e-07,4.865895939204984e-05
4.148831279797302e-07,4.761303701103721e-07,2.661301844201652e-07,4.9359874979141387e-05
4.154266964322349e-07,4.739898720124258e-07,2.674639345510129e-07,5e-06
4.1638787413579384e-07,4.7173663765994607e-07,2.689408598555892e-07,5e-06
4.1774752126348257e-07,4.693980763530457e-07,2.705632127041125e-07,5e-06
4.194815161131989e-07,4.669998231425378e-07,2.72339668068414e-07,5e-06
4.21562415440255e-07,4.6456417546395036e-07,2.742829863169281e-07,5e-06
4.2396248103792976e-07,4.621091707556607e-07,2.764044243500244e-07,5e-06
4.2665446353622973e-07,4.596490530230481e-07,2.787098260212693e-07,5e-06
4.2960978104485033e-07,4.571945434790451e-07,2.81198897889044e-07,5e-06
4.3279897250051663e-07,4.547524771173274e-07,2.838661210719297e-07,5e-06
4.361959427429701e-07,4.5232689357183113e-07,2.8670324350343785e-07,5e-06
4.3978228916848716e-07,4.4992144110025904e-07,2.8970308597808147e-07,5e-06
4.4354850805878574e-07,4.475412788279729e-07,2.9286119897461384e-07,5e-06
4.474918005482521e-07,4.451937157408329e-07,2.961730434758293e-07,5e-06
4.516125668807562e-07,4.428874639255211e-07,2.996298450323903e-07,5e-06
4.5591151193882933e-07,4.4063234171302176e-07,3.0321709607137845e-07,5e-06
4.60387459235028e-07,4.3844035344939e-07,3.069157382656397e-07,5e-06
4.6503610067006005e-07,4.3632580945071706e-07,3.107041393742896e-07,5e-06
4.698499427482952e-07,4.343039877072342e-07,3.1456068874660066e-07,5e-06
4.7481837950150736e-07,4.3239047562777603e-07,3.184672272965684e-07,5e-06
4.799268366312178e-07,4.3060071817086276e-07,3.2241086113201785e-07,5e-06
4.851554737422571e-07,4.2894779922134845e-07,3.263829253438203e-07,5e-06
4.904793333032132e-07,4.274400909480138e-07,3.3037719027038567e-07,5e-06
4.958712481650978e-07,4.260814274312331e-07,3.343879873782175e-07,4.995351716451599e-05
5.013059522263046e-07,4.2487299678789256e-07,3.3840786741957196e-07,4.937119618887258e-05
5.067615506560494e-07,4.238145227081384e-07,3.42426306912757e-07,4.876220769763825e-05
5.122174282642931e-07,4.2290418655966744e-07,3.4643055000069626e-07,4.8130074100525644e-05
5.176535917464121e-07,4.2213931554329064e-07,3.504070486595829e-07,4.747789807827614e-05
5.230545183681157e-07,4.2151871386462325e-07,3.5434211895998367e-07,4.680835620208646e-05
5.284120353331235e-07,4.210443213235732e-07,3.582223444613392e-07,4.612371938137397e-05
5.337226954307493e-07,4.207202400064343e-07,3.6203450345546433e-07,4.542590395459595e-05
5.389840193220066e-07,4.205498551628944e-07,3.6576431476459975e-07,4.4716561250318075e-05
5.441928459725449e-07,4.205336203556543e-07,3.693952091058973e-07,4.399716443677119e-05
5.493431935156728e-07,4.20668694475572e-07,3.729085965294382e-07,4.326906527016272e-05
5.544239917871184e-07,4.2094900296273977e-07,3.762857094894962e-07,4.253356596095462e-05
5.594190805435218e-07,4.213652881537199e-07,3.7950974859388865e-07,4.179203143975042e-05
5.643084933883462e-07,4.2190637174556106e-07,3.8256613289751893e-07,4.104598725029014e-05
5.690693860944296e-07,4.22561844511161e-07,3.8544107988309176e-07,4.029715083734996e-05
5.736762350530698e-07,4.2332495967347843e-07,3.8812179819795273e-07,3.954740554424777e-05
5.781008897758647e-07,4.2419363902760725e-07,3.90598680494136e-07,3.879874207637152e-05
5.823133923795436e-07,4.251681083772304e-07,3.9286616292841036e-07,3.8053166897348436e-05
5.862832313589465e-07,4.262469038486928e-07,3.9492224334689173e-07,3.731257789464548e-05
5.899801406806732e-07,4.274242415613668e-07,3.967689955711896e-07,3.6578645805871204e-05
5.933742627640595e-07,4.2868901169272924e-07,3.984122295658578e-07,3.5852790001460796e-05
5.96436100916074e-07,4.3002454579341317e-07,3.9985848545056244e-07,3.5136318554990116e-05
5.991369088477853e-07,4.31409390234801e-07,4.011118902998486e-07,3.443065449078749e-05
6.014496886126182e-07,4.328196330226805e-07,4.021731540162746e-07,3.3737469489325325e-05
6.033512427610097e-07,4.342330616004984e-07,4.030405295071289e-07,3.3058654927011855e-05
6.048252677907676e-07,4.3563469888569003e-07,4.03711080812054e-07,3.2396215021492215e-05
6.058639618479458e-07,4.370218328317045e-07,4.0418097722740824e-07,3.175218846743012e-05
6.064670533438971e-07,4.384048847892193e-07,4.0444574821688986e-07,3.1128612370883884e-05
6.066404111417172e-07,4.398023012674302e-07,4.0450115811691603e-07,3.052745379816396e-05
6.063945855828032e-07,4.4123458397400884e-07,4.043436760536153e-07,2.9950477343676447e-05
6.057430211756716e-07,4.427233781997136e-07,4.0397022822798036e-07,2.939911102190173e-05
6.047015714171721e-07,4.4429336345757724e-07,4.0337788332787756e-07,2.887436131392389e-05
6.032890760596217e-07,4.4597313916595876e-07,4.0256436901649305e-07,2.8376806709282726e-05
6.015277926140964e-07,4.4779550702619887e-07,4.0152960549815116e-07,2.7906713576092675e-05
5.994435111550296e-07,4.497957205083681e-07,4.0027611861151145e-07,2.746424394123035e-05
5.970653743591444e-07,4.5200679099623043e-07,3.9880766122602587e-07,2.7049617949154176e-05
5.944264278493923e-07,4.544556249389597e-07,3.9712903848265294e-07,2.666311055480207e-05
5.915636775697561e-07,4.5716155402541197e-07,3.952471664375997e-07,2.6304896683660826e-05
5.885146452062103e-07,4.601358575561777e-07,3.9317061945204024e-07,2.597487154053387e-05
5.853122834383151e-07,4.633820403013411e-07,3.9090858903921256e-07,2.5672559856457385e-05
5.819824563765697e-07,4.6689619690645077e-07,3.884706451185887e-07,2.539712385197109e-05
5.785445148936468e-07,4.7066674967504776e-07,3.8586600030202844e-07,2.5147406706381868e-05
5.75013230289845e-07,4.746743601856247e-07,3.831021925068375e-07,2.492198967292699e-05
5.714007848127767e-07,4.788936968495164e-07,3.8018483145461037e-07,2.4719346667222494e-05
5.677177323709522e-07,4.832976546611954e-07,3.7711891725405813e-07,2.453815573636063e-05
5.639729551769343e-07,4.878605722145895e-07,3.7391046899976114e-07,2.4377601674719386e-05
5.601747700513387e-07,4.925567789848632e-07,3.7056728258795453e-07,2.4237426816016265e-05
5.563335644616315e-07,4.973570152519615e-07,3.670990120566477e-07,2.411774102883211e-05
5.524626270260546e-07,5.022273071235556e-07,3.635171868562492e-07,2.4018779110835746e-05
5.485768217245623e-07,5.071312998354225e-07,3.5983512660914615e-07,2.394070956093902e-05
5.446929142684115e-07,5.120347070385071e-07,3.5606750321842924e-07,2.388355777655768e-05
5.408313198213561e-07,5.169083724440466e-07,3.5223001621785045e-07,2.384731885342949e-05
5.370154596831403e-07,5.217266162520563e-07,3.4833922552755086e-07,2.383215539484448e-05
5.332690867882138e-07,5.264630364206539e-07,3.444116050790039e-07,2.3838451237520505e-05
5.296156767522127e-07,5.310883367787639e-07,3.404629074978665e-07,2.386668840736295e-05
5.260804583261603e-07,5.355707276747907e-07,3.365101733317125e-07,2.391727462409079e-05
5.226907918801655e-07,5.398770508236269e-07,3.3257419315457137e-07,2.3990385711715123e-05
5.194727400368481e-07,5.439740953186999e-07,3.2867841886989345e-07,2.408584316022593e-05
5.164483493024416e-07,5.478306983771633e-07,3.248463713076197e-07,2.4203055248206104e-05
5.136388047252758e-07,5.514207743710471e-07,3.211009247556839e-07,2.434102203778781e-05
5.110704971415149e-07,5.547254387157471e-07,3.1746423069913e-07,2.44983800534784e-05
5.087762054515231e-07,5.577327721303528e-07,3.139579847431381e-07,2.467346336433247e-05
5.067893026146786e-07,5.604375004377892e-07,3.1060449868098977e-07,2.486435734661525e-05
5.051365472931373e-07,5.628419709149694e-07,3.07425783368123e-07,2.506892575637453e-05
5.038358484014551e-07,5.649551439499881e-07,3.044401164566897e-07,2.5284811250403548e-05
5.028994655202911e-07,5.667879652067138e-07,3.016599911627151e-07,2.5509438793013435e-05
5.023367053106073e-07,5.68348749549234e-07,2.9909340922391236e-07,2.57400649862813e-05
5.021527836666065e-07,5.696425809988289e-07,2.9674596389384605e-07,2.5973886154486928e-05
5.023479041602762e-07,5.706748995647629e-07,2.946211932407588e-07,2.620817335219681e-05
5.02918146940159e-07,5.714552736806647e-07,2.927199188542027e-07,2.6440384494439208e-05
5.03854760518679e-07,5.719976463833365e-07,2.9104052945228447e-07,2.666822831894268e-05
5.051423750397319e-07,5.723184483712284e-07,2.8958157725475266e-07,2.6889699189502505e-05
5.067592507580072e-07,5.72435773620848e-07,2.883448699301153e-07,2.7103091486879746e-05
5.086790838494591e-07,5.723690229077274e-07,2.873347773871592e-07,2.7306963059271452e-05
5.108726829315782e-07,5.721365955855235e-07,2.8655436054338124e-07,2.750004831502461e-05
5.133092501199761e-07,5.717526915186234e-07,2.860028565704112e-07,2.7681159827392682e-05
5.159566301354941e-07,5.712264874982889e-07,2.856756737778216e-07,2.7849114641589862e-05
5.187803336960241e-07,5.705637908945258e-07,2.8556547590783904e-07,2.8002753272069592e-05
5.217426895912007e-07,5.69768287770428e-07,2.8566345128021364e-07,2.8141072682808808e-05
5.248030003724643e-07,5.688413188064347e-07,2.859599965988032e-07,2.826334659382257e-05
5.279193979811638e-07,5.677819675851418e-07,2.8644482960136545e-07,2.8369134643976838e-05
5.310529110270361e-07,5.665886646361185e-07,2.871074083547588e-07,2.8458240202728968e-05
5.341706264629267e-07,5.652608475606547e-07,2.87937008543324e-07,2.8530690782196502e-05
5.372443616387403e-07,5.6379941083089e-07,2.889215836567464e-07,2.858673258063155e-05
5.402471374409464e-07,5.622076190567741e-07,2.9004666373993876e-07,2.8626776184149248e-05
5.431518371414056e-07,5.604924108735358e-07,2.9129525968528616e-07,2.865127032181577e-05
5.45932418971115e-07,5.586640709279144e-07,2.926482150999584e-07,2.866063761812701e-05
5.485648260067561e-07,5.567371079640606e-07,2.9408477782129666e-07,2.8655408550899287e-05
5.510257867777472e-07,5.547347992008787e-07,2.9558402241965907e-07,2.8636427228903728e-05
5.53291015215144e-07,5.526918836498167e-07,2.971265465935101e-07,2.8604901038427107e-05
5.553348859683949e-07,5.506513195494296e-07,2.986951666430351e-07,2.8562271777428523e-05
5.571313184464171e-07,5.4865995438901e-07,3.002757040587738e-07,2.851002970618256e-05
5.586548555538731e-07,5.467659424769825e-07,3.0185798021647627e-07,2.8449551030239702e-05
5.598826987553057e-07,5.4501441785368e-07,3.0343457768879077e-07,2.838198265755302e-05
5.607978202694857e-07,5.434422019140299e-07,3.04998090955432e-07,2.830819562741589e-05
5.613907008331979e-07,5.420764771661726e-07,3.0653988558580237e-07,2.8228818173202777e-05
5.616585001082665e-07,5.409372028955668e-07,3.080508909257051e-07,2.814429338681318e-05
5.616029309417469e-07,5.400384261667694e-07,3.0952334061569764e-07,2.8054887166483857e-05
5.612281996462132e-07,5.393875502073539e-07,3.109520620314926e-07,2.7960667175265856e-05
5.605394851387121e-07,5.389864801165179e-07,3.123338286635445e-07,2.7861586698916862e-05
5.595417899244705e-07,5.388347098151204e-07,3.136652515126921e-07,2.775777539570498e-05
5.582392485078783e-07,5.389302521888189e-07,3.1494140458559125e-07,2.76498649668644e-05
5.566356655196174e-07,5.392695183645074e-07,3.1615597529183213e-07,2.7539003805587805e-05
5.547367604287492e-07,5.398500275374696e-07,3.1730198786275237e-07,2.742656496506731e-05
5.525525528656004e-07,5.406729605323248e-07,3.183725218554193e-07,2.731394423706991e-05
5.500977279111157e-07,5.41741018994836e-07,3.193613231844525e-07,2.720258913940832e-05
5.473901027720688e-07,5.430540940281588e-07,3.202625557252169e-07,2.709402121120711e-05
5.444483175878838e-07,5.446076140512293e-07,3.210697751189669e-07,2.698975223540465e-05
5.412897360567325e-07,5.463938822651034e-07,3.217757330925613e-07,2.689119006402908e-05
5.379300172904991e-07,5.484032023736441e-07,3.2237344717664343e-07,2.6799573196214345e-05
5.343844234920629e-07,5.506235420447649e-07,3.2285761041907445e-07,2.671592232427763e-05
5.306698928076991e-07,5.530396826803736e-07,3.232251731601003e-07,2.664101214214215e-05
5.268070981660701e-07,5.55632162466187e-07,3.2347456626896554e-07,2.6575373332291533e-05
5.228200687204218e-07,5.583772830737467e-07,3.236048204716392e-07,2.6519323270156464e-05
5.187326663584383e-07,5.612498650231153e-07,3.2361507664260685e-07,2.6473014524274828e-05
5.14565558893307e-07,5.642272260677168e-07,3.2350418928476073e-07,2.643649241727968e-05
5.103362877253303e-07,5.672905214141118e-07,3.232713274486412e-07,2.6409756135519463e-05
5.060609629610146e-07,5.704219020925222e-07,3.229168387539725e-07,2.6392805185485707e-05
5.01755098777994e-07,5.736009401146053e-07,3.2244147601875127e-07,2.638563055320049e-05
4.974342105718405e-07,5.768043578620947e-07,3.218448727931028e-07,2.638812230059805e-05
4.931158096996832e-07,5.800082372910283e-07,3.211255558078264e-07,2.6399935100173762e-05
4.888201716907114e-07,5.83189540282474e-07,3.202823849392155e-07,2.6420407893604927e-05
4.845673124736933e-07,5.863258483866003e-07,3.1931522304340585e-07,2.6448580149866832e-05
4.803734264293612e-07,5.89394832304702e-07,3.1822416368040607e-07,2.648326724421194e-05
4.762503226046868e-07,5.923760549401177e-07,3.170087818878645e-07,2.652316035597589e-05
4.7220670550066516e-07,5.952545099356961e-07,3.156685210279395e-07,2.6566936641322078e-05
4.6824917860796357e-07,5.980213420722312e-07,3.1420384766489193e-07,2.661336398399277e-05
4.643822552900613e-07,6.006705866091928e-07,3.1261689857021943e-07,2.666139242526343e-05
4.606074816928216e-07,6.031962840825737e-07,3.1091195002048714e-07,2.671021907485037e-05
4.569229062305727e-07,6.055925882416642e-07,3.0909654474482174e-07,2.6759293415859445e-05
4.5332433722448855e-07,6.078543242783826e-07,3.071812672825117e-07,2.6808248905996235e-05
4.498083415371073e-07,6.099756384470443e-07,3.051779186219897e-07,2.685678800640186e-05
4.4637449545694685e-07,6.119487929658105e-07,3.03098765899983e-07,2.6904561830979044e-05
4.43024895565336e-07,6.137654285048775e-07,3.009562911582027e-07,2.695110448105822e-05
4.397623891972657e-07,6.154191007907831e-07,2.987618545568469e-07,2.6995868135031352e-05
4.365891791063797e-07,6.169073245031885e-07,2.965245858950016e-07,2.7038300885621104e-05
4.3350639419924477e-07,6.182321036925901e-07,2.9425165723407645e-07,2.707785338730172e-05
4.305154782500074e-07,6.193984230409882e-07,2.919492446045528e-07,2.7113890424017887e-05
4.276209195722236e-07,6.204136150926949e-07,2.896229994400529e-07,2.714560834349718e-05
4.2483189874186955e-07,6.21288929362045e-07,2.872779608412243e-07,2.7172074907626238e-05
4.221608121731569e-07,6.220380503763664e-07,2.849188470485698e-07,2.719237333154952e-05
4.196199962454888e-07,6.226716521176731e-07,2.825509764141582e-07,2.720570999702583e-05
4.172195670145278e-07,6.23194541947917e-07,2.8018188200528645e-07,2.7211406928107378e-05
4.1496711854713224e-07,6.236081831727351e-07,2.778232566576849e-07,2.7208825608060573e-05
4.128683458188986e-07,6.239160389720317e-07,2.754912398351762e-07,2.7197301536169932e-05
4.1092737180540745e-07,6.241279544536486e-07,2.7320438190517397e-07,2.717617245841635e-05
4.09146400651712e-07,6.242600319390096e-07,2.709810714211493e-07,2.714495965831473e-05
4.07525016831091e-07,6.243300971648136e-07,2.68838017422292e-07,2.710362093132149e-05
4.060593772972453e-07,6.243524556042897e-07,2.6678992036349376e-07,2.7052685772873253e-05
4.0474271039814476e-07,6.243347234674096e-07,2.6484917536665845e-07,2.699317868124949e-05
4.035678355616305e-07,6.24277288787066e-07,2.6302531451114504e-07,2.692638208395031e-05
4.02528920535487e-07,6.241746186570262e-07,2.613252112867083e-07,2.6853553055407652e-05
4.016203130195853e-07,6.240165735094186e-07,2.597537738814661e-07,2.6775728740166414e-05
4.008347264371096e-07,6.237892980553164e-07,2.58314231638854e-07,2.6693687032447338e-05
4.0016359197939503e-07,6.234775059818923e-07,2.5700824696461487e-07,2.660800794643925e-05
3.995993485449623e-07,6.230675028606797e-07,2.558357290093721e-07,2.6519188278563518e-05
3.9913736603837783e-07,6.22547313810044e-07,2.5479417765554885e-07,2.6427836703586664e-05
3.9877543531100116e-07,6.219043121347413e-07,2.538784361417807e-07,2.6334880293300035e-05
3.985115603845327e-07,6.211246495736866e-07,2.530810174226431e-07,2.624159344703227e-05
3.9834284467588893e-07,6.201949385464439e-07,2.523925222487212e-07,2.614941770545877e-05
3.9826606428556424e-07,6.191041586442009e-07,2.518021029597751e-07,2.6059722460075118e-05
3.982782580372421e-07,6.178459236085891e-07,2.512978568562331e-07,2.59736234323936e-05
3.983775520752421e-07,6.164205036429793e-07,2.5086699701008417e-07,2.589197780801511e-05
3.985644401898249e-07,6.148351776042662e-07,2.5049573988459613e-07,2.581565919855393e-05
3.988412480605553e-07,6.131029017276466e-07,2.5016905545411e-07,2.5745943336932503e-05
3.992095284633246e-07,6.11239225453722e-07,2.4987094145728066e-07,2.5684670046335527e-05
3.9966804553909955e-07,6.092582687910546e-07,2.495859539121289e-07,2.563410584480911e-05
4.002128978335161e-07,6.07169942274694e-07,2.493016682257053e-07,2.559670401333349e-05
4.0083858575812655e-07,6.049791419110242e-07,2.490100895808649e-07,2.5574917994511136e-05
4.0153839764301033e-07,6.026862431592756e-07,2.487063227790452e-07,2.557107035177429e-05
4.023039991213521e-07,6.002887310042774e-07,2.4838588927113967e-07,2.558723191973013e-05
4.031246005722741e-07,5.977847841995796e-07,2.4804334287452133e-07,2.5625117528037188e-05
4.039872127550707e-07,5.951774049207546e-07,2.4767226214025346e-07,2.5686037737088212e-05
4.0487915184773726e-07,5.924746825192732e-07,2.472654438882945e-07,2.5770920315684862e-05
4.0579006958741314e-07,5.896864595317407e-07,2.468155177061861e-07,2.588036437994365e-05
4.0671101212715895e-07,5.868222169052039e-07,2.463163670712285e-07,2.601466305663024e-05
4.076328563631274e-07,5.838905538831307e-07,2.457643176057666e-07,2.617377252913268e-05
4.0854634062071564e-07,5.80898197067441e-07,2.451582758445469e-07,2.635725013816157e-05
4.0944294336696477e-07,5.778497628641825e-07,2.4450007588261554e-07,2.6564183640083885e-05
4.1031615953155153e-07,5.747495803892249e-07,2.437951488650749e-07,2.679314626871497e-05
4.111618959986072e-07,5.716044692218599e-07,2.4305145606098826e-07,2.704222896467193e-05
4.119767179900126e-07,5.684251762424198e-07,2.422778690861188e-07,2.730916379532781e-05
4.127560362615386e-07,5.652247816834275e-07,2.4148446425712925e-07,2.7591493867996632e-05
4.134937566035111e-07,5.620168369899859e-07,2.406829900419089e-07,2.7886732652168006e-05
4.141820737985901e-07,5.588173634964306e-07,2.3988585425634336e-07,2.8192483857697802e-05
4.148108834934515e-07,5.55648875586921e-07,2.3910477476702033e-07,2.8506513483390998e-05
4.1536766203154714e-07,5.525414286033984e-07,2.3834974200177718e-07,2.882676101418117e-05
4.158383077732204e-07,5.495290452540993e-07,2.37628327337008e-07,2.9151281080909063e-05
4.1620870692550654e-07,5.466445506290247e-07,2.369461751662272e-07,2.947813545447204e-05
4.164662774158518e-07,5.439159788164372e-07,2.3630952600555905e-07,2.9805277788804576e-05
4.1660080901421145e-07,5.413645160476038e-07,2.3572811435531923e-07,3.0130483091303337e-05
4.166045257785406e-07,5.390042164976885e-07,2.3521570522543398e-07,3.0451349877586505e-05
4.164717220066471e-07,5.368430943043279e-07,2.3478905855995307e-07,3.076534480033479e-05
4.1619868254899394e-07,5.348835152401275e-07,2.3446707010284967e-07,3.1069846265913333e-05
4.1578491422346843e-07,5.331230438406271e-07,2.342698175105996e-07,3.1362189144521364e-05
4.1523447151333755e-07,5.315570078864078e-07,2.342188407720829e-07,3.163973733955298e-05
4.145544826003564e-07,5.301803073103457e-07,2.343386702022725e-07,3.1899969303621824e-05
4.1375188116333596e-07,5.289884147971311e-07,2.346556662097103e-07,3.214054717677105e-05
4.128319929858487e-07,5.27979024426066e-07,2.3519465563461146e-07,3.2359418677543684e-05
4.117996294204019e-07,5.271524341567707e-07,2.3597786278850678e-07,3.255497714101416e-05
4.106605541730685e-07,5.265120227418802e-07,2.3702529279930962e-07,3.2726167046498736e-05
4.0942216688949904e-07,5.260677214168714e-07,2.3835293156009212e-07,3.2872456935886216e-05
4.080937479976249e-07,5.258372371423079e-07,2.399698626323566e-07,3.2993730239523825e-05
4.0668585015520797e-07,5.258404123911477e-07,2.418778844952414e-07,3.3090139197616415e-05
4.052096311137219e-07,5.260920845216908e-07,2.440741812547001e-07,3.316194119738518e-05
4.0367749348182954e-07,5.265993330917304e-07,2.4655397599662925e-07,3.32093634520427e-05
4.021025793799089e-07,5.273618477137826e-07,2.493102313275329e-07,3.3232536315509306e-05
4.004961389000313e-07,5.283726664860841e-07,2.523316340615488e-07,3.323149889183247e-05
3.9886645411768975e-07,5.296197968978346e-07,2.556018184886005e-07,3.3206245357748875e-05
3.972198709106132e-07,5.310882988148885e-07,2.591000815748973e-07,3.315677060744703e-05
3.955611609004594e-07,5.327604695026815e-07,2.62802316795802e-07,3.308308848456312e-05
3.9389331605489017e-07,5.346146508077889e-07,2.666816077546265e-07,3.298524790819289e-05
3.9221813955655843e-07,5.366246529286431e-07,2.7070889730307987e-07,3.2863470157726973e-05
3.90537167265411e-07,5.38760014739004e-07,2.7485401663136053e-07,3.2718424450667336e-05
3.888516414222818e-07,5.409872940345139e-07,2.790865247745357e-07,3.255136219230052e-05
3.871614813725771e-07,5.432720170140721e-07,2.833766197710695e-07,3.23639584698477e-05
3.8546542020711e-07,5.455794258741844e-07,2.87696513216463e-07,3.215811354428248e-05
3.837631960620904e-07,5.478742721253315e-07,2.9202082670798896e-07,3.193586966948724e-05
3.820570886440288e-07,5.501224154961368e-07,2.9632525592868856e-07,3.1699341221680864e-05
3.803512261728468e-07,5.52293797390964e-07,3.00585538306848e-07,3.145065276404535e-05
3.786507470248908e-07,5.543628033917468e-07,3.047783192858181e-07,3.1191931650018213e-05
3.769624970254506e-07,5.56306211472064e-07,3.088819244399043e-07,3.092529682982978e-05
3.7529630977062844e-07,5.581029826969519e-07,3.1287516859442017e-07,3.065279445029346e-05
3.7366538985149436e-07,5.597369050130972e-07,3.167363469645082e-07,3.037631159495829e-05
3.720850044665147e-07,5.611986252538836e-07,3.204443055705995e-07,3.0097522510379626e-05
3.705696608524221e-07,5.624835060924069e-07,3.239799191618154e-07,2.981787865815532e-05
3.6913097792579433e-07,5.635870267026278e-07,3.273265525135511e-07,2.9538612460946448e-05
3.6777791958639005e-07,5.645022773115778e-07,3.304708656229528e-07,2.9260743862743555e-05
3.665176118188211e-07,5.652200118137572e-07,3.3340451827322666e-07,2.898511200017958e-05
3.6535508582754605e-07,5.657292310571589e-07,3.361243120956484e-07,2.871243493922774e-05
3.6429277046364157e-07,5.660180043370689e-07,3.386303303616185e-07,2.844335689031222e-05
3.633310118851802e-07,5.660747683202927e-07,3.40925178633804e-07,2.817843148284345e-05
3.6246932745515367e-07,5.658888941873308e-07,3.430147301026748e-07,2.791803765387527e-05
3.6170709028026574e-07,5.654504973953154e-07,3.4490762299603386e-07,2.7662291910474543e-05
3.6104496008965976e-07,5.647517281154148e-07,3.466129804683052e-07,2.7411018520341665e-05
3.604883089787917e-07,5.637889388695484e-07,3.481386067494644e-07,2.7163780590729256e-05
3.6004972837718977e-07,5.625626517956226e-07,3.49490967552904e-07,2.6919947167922484e-05
3.597477921584021e-07,5.610761018235496e-07,3.506758522995609e-07,2.6678777127771806e-05
3.596027709955196e-07,5.593349453127832e-07,3.516988293446532e-07,2.643950171346941e-05
3.5963270510489525e-07,5.573468996909101e-07,3.525664895827841e-07,2.620139312622721e-05
3.5985173309062037e-07,5.551203697907733e-07,3.5328864583025134e-07,2.596381879707789e-05
3.602688340420556e-07,5.526651128034106e-07,3.5387956928539e-07,2.5726285593836385e-05
3.608867068135693e-07,5.499948952696485e-07,3.5435727568104897e-07,2.5488470890222408e-05
3.6170315413815327e-07,5.471273450540226e-07,3.547412204461312e-07,2.5250215098646763e-05
3.6271421499449507e-07,5.440806569317361e-07,3.550490237205829e-07,2.501145043409167e-05
3.639151686690445e-07,5.408720226091442e-07,3.552939331963567e-07,2.4772108040827986e-05
3.6529898310794354e-07,5.375190772186875e-07,3.5548445978039706e-07,2.453210599747959e-05
3.6685593472818815e-07,5.340409235878674e-07,3.5562585974758077e-07,2.4291414562980507e-05
3.685758334518994e-07,5.304565875396868e-07,3.557232015443134e-07,2.405006340170116e-05
3.704505906220193e-07,5.26782816090531e-07,3.5578524306466344e-07,2.38080677176138e-05
3.724764335946779e-07,5.230350641284193e-07,3.558251358802307e-07,2.356537417175131e-05
3.7465731971840095e-07,5.192315044779748e-07,3.5585679684598203e-07,2.332187052501507e-05
3.7700718436363825e-07,5.153945122399678e-07,3.5589235186218155e-07,2.3077440227414665e-05
3.7954728907009065e-07,5.115472478912587e-07,3.5594238266617326e-07,2.2832010873625e-05
3.823025788206449e-07,5.077093960127473e-07,3.560156553975864e-07,2.258557601085337e-05
3.8530227653280775e-07,5.038960134603296e-07,3.5611791318924626e-07,2.2338223774367067e-05
3.8858077852125404e-07,5.001208305631241e-07,3.5625076658721353e-07,2.209017571339928e-05
3.9217324223410297e-07,4.964023335072356e-07,3.564110363153498e-07,2.184181030832705e-05
3.9610821035311177e-07,4.92767332738181e-07,3.565912144621004e-07,2.1593647974883712e-05
4.004029498595296e-07,4.89248821052411e-07,3.5678088034078725e-07,2.1346303743432738e-05
4.0506350619214113e-07,4.858804625390341e-07,3.5696797966320184e-07,2.110044081320013e-05
4.100869519941552e-07,4.826919126846067e-07,3.571396713787568e-07,2.085672175850937e-05
4.154628513756554e-07,4.797076440778372e-07,3.5728289833854495e-07,2.0615740039766668e-05
4.2117402877526327e-07,4.769489217821757e-07,3.5738411791502147e-07,2.0377958531153327e-05
4.2719744139845536e-07,4.744364988928303e-07,3.574288712366221e-07,2.0143692571412546e-05
4.335055199537052e-07,4.7219113546341245e-07,3.574025369000575e-07,1.991313545242424e-05
4.4006879938164693e-07,4.702305372861736e-07,3.572911644763553e-07,1.9686403539751102e-05
4.46858288790524e-07,4.6856557198278495e-07,3.570813749415153e-07,1.946360436251214e-05
4.5384485733550073e-07,4.671996984071065e-07,3.5676080909192816e-07,1.924497654084822e-05
4.609968039551033e-07,4.661324123185875e-07,3.563195376910007e-07,1.9031056783789894e-05
4.682789167562021e-07,4.653643776936682e-07,3.5575080925353434e-07,1.8822672798940783e-05
4.7565459399690954e-07,4.6489961556772745e-07,3.5505092386061576e-07,1.8620761328880684e-05
4.830900533544082e-07,4.647426013970368e-07,3.5421954030256904e-07,1.842624975501112e-05
4.905568922070975e-07,4.648941864190334e-07,3.532599007724962e-07,1.824004962237492e-05
4.980303922340486e-07,4.653510877581359e-07,3.521776189566449e-07,1.806305398848511e-05
5.054861990103093e-07,4.661076339456507e-07,3.50979960982201e-07,1.7896121186990455e-05
5.128996237216348e-07,4.6715534627205583e-07,3.4967727884147357e-07,1.7740057341553526e-05
5.202475215004501e-07,4.684808501126975e-07,3.4828367815973e-07,1.7595575686685636e-05
5.27509540753602e-07,4.7006558666229755e-07,3.468149305059412e-07,1.7463242923648315e-05
5.346673325077445e-07,4.71887861058267e-07,3.452856322890038e-07,1.7343459139334462e-05
5.417023988472565e-07,4.739257467129881e-07,3.437076997566142e-07,1.7236471410053634e-05
5.485942116709241e-07,4.7615938796594096e-07,3.420914277207249e-07,1.7142379090648666e-05
5.553196665133872e-07,4.785718923619546e-07,3.40448728318264e-07,1.7061129120291033e-05
5.618535234848741e-07,4.811487066099215e-07,3.387946532877728e-07,1.6992535405574513e-05
5.681710103136802e-07,4.838753299512642e-07,3.371456244626054e-07,1.693632666795593e-05
5.742515916393322e-07,4.867343427872971e-07,3.3551801916779896e-07,1.6892206344062076e-05
5.800790198498928e-07,4.897038892488349e-07,3.339279645589561e-07,1.6859903241802488e-05
5.856388423637718e-07,4.927580439765754e-07,3.323902492002166e-07,1.683916096998044e-05
5.909179827249284e-07,4.95868310783023e-07,3.3091691520619194e-07,1.6829642279342396e-05
5.959043416124317e-07,4.990061656295277e-07,3.295169941955479e-07,1.6830816113823734e-05
6.00584512377793e-07,5.021456426683435e-07,3.2819781239206576e-07,1.684190673330073e-05
6.049429850953151e-07,5.052639083701949e-07,3.2696640092428626e-07,1.6861907062777038e-05
6.089636937813446e-07,5.083392646214001e-07,3.2582875584999215e-07,1.688961882655924e-05
6.12630837428088e-07,5.113494243541703e-07,3.247879150522301e-07,1.6923699867658043e-05
6.159278965235086e-07,5.142734187583536e-07,3.2384359785631573e-07,1.696270930716066e-05
6.18836819254956e-07,5.170953501792457e-07,3.229941027735621e-07,1.7005157304001033e-05
6.213392639603242e-07,5.198062554915097e-07,3.222382553094042e-07,1.7049580742866986e-05
6.234195469849315e-07,5.224035520980379e-07,3.215749788422613e-07,1.7094624381635417e-05
6.250664109764124e-07,5.248881641570087e-07,3.210017965554302e-07,1.7139073025782852e-05
6.262714270938133e-07,5.272603432362839e-07,3.2051445941605393e-07,1.718182807043316e-05
6.270260476842501e-07,5.295169421815101e-07,3.201072896672637e-07,1.7221873522827273e-05
6.273206816405406e-07,5.316513052482285e-07,3.1977388064257736e-07,1.7258254789173195e-05
6.271459772003129e-07,5.336552442104421e-07,3.19508760583738e-07,1.7290069938450507e-05
6.264941290408018e-07,5.355220323120102e-07,3.1930950410615723e-07,1.731649858639146e-05
6.25359792194286e-07,5.372480776203971e-07,3.191779910847884e-07,1.7336880825832585e-05
6.237413413195287e-07,5.388314359518928e-07,3.191203825627803e-07,1.7350776833667802e-05
6.216411236724601e-07,5.402700867288028e-07,3.1914591533069225e-07,1.7357926207773655e-05
6.190642086432289e-07,5.415644909773934e-07,3.192650242284961e-07,1.735814521128965e-05
6.160173979770799e-07,5.427218252641205e-07,3.194878424271295e-07,1.7351277810931524e-05
6.125093571290704e-07,5.437560517660414e-07,3.198238785983017e-07,1.733723051529527e-05
6.085510407682585e-07,5.446861936744796e-07,3.202824530352909e-07,1.7316003389622206e-05
6.041552344853564e-07,5.455380161538172e-07,3.208728879863026e-07,1.7287658139035907e-05
5.993361652165046e-07,5.463457601662961e-07,3.216048488625285e-07,1.725225688408741e-05
5.941103722037009e-07,5.471494768469651e-07,3.224884094372531e-07,1.7209820073047553e-05
5.884969977392012e-07,5.479900048547592e-07,3.2353212732275627e-07,1.716034381386243e-05
5.82516162217757e-07,5.489036521193817e-07,3.247405415186878e-07,1.710388998294516e-05
5.76187025718605e-07,5.499178766222477e-07,3.261135849501925e-07,1.7040680370831752e-05
5.695271249596946e-07,5.510509467374002e-07,3.276471928047581e-07,1.6971107888984422e-05
5.625532592328823e-07,5.523150358669301e-07,3.293333871992241e-07,1.6895665090450016e-05
5.552834578502855e-07,5.537179877887858e-07,3.3116047538622853e-07,1.681485433293568e-05
5.477381480664142e-07,5.552617415173315e-07,3.33115857511407e-07,1.6729142005209124e-05
5.399392346677845e-07,5.569402654263687e-07,3.351912033853624e-07,1.6638968088433726e-05
5.319093191099397e-07,5.58739714806834e-07,3.3738505931667407e-07,1.654476013995474e-05
5.236732018877939e-07,5.60639963716067e-07,3.3969956948897325e-07,1.6446936502357574e-05
5.15259622535174e-07,5.626153998502704e-07,3.421347213714982e-07,1.634598582820329e-05
5.067006556120951e-07,5.646351630542844e-07,3.446854669615274e-07,1.624267761141072e-05
4.980296803785001e-07,5.666648496240932e-07,3.4734299661295534e-07,1.6138246131436176e-05
4.892796843660153e-07,5.686704788236787e-07,3.5009811892585285e-07,1.6034347215840294e-05
4.804822737022801e-07,5.706222018336006e-07,3.529435092479201e-07,1.5932851807617455e-05
4.716683408309147e-07,5.724940780947356e-07,3.558730350285107e-07,1.5835653281630567e-05
4.6287129180542096e-07,5.742610029095897e-07,3.588798964563223e-07,1.574454365874012e-05
4.5413029700754693e-07,5.758977230798513e-07,3.619551266380889e-07,1.5661225512365883e-05
4.4548966998449757e-07,5.773806711975625e-07,3.6508622892561714e-07,1.5587524049911496e-05
4.3699608710067866e-07,5.786898315833881e-07,3.682566938441614e-07,1.552562455497409e-05
4.2869854621694953e-07,5.798099092004072e-07,3.71446806594293e-07,1.5478091593082592e-05
4.206497338238e-07,5.807301668009542e-07,3.7463434883036255e-07,1.5447692989473378e-05
4.129047751966905e-07,5.814424557212999e-07,3.777944946169692e-07,1.5437192637656672e-05
4.0551799930449674e-07,5.81939329752841e-07,3.809000342541239e-07,1.5449185986633044e-05
3.985390274042823e-07,5.822132624546411e-07,3.8392276816199203e-07,1.548598114685957e-05
3.920089865493322e-07,5.822569234540921e-07,3.868350081868618e-07,1.5549510226542002e-05
3.859592742939792e-07,5.820653852869125e-07,3.8960968769621204e-07,1.5641257172329925e-05
3.8041293427925036e-07,5.816387672320933e-07,3.922199408452889e-07,1.5762211949437496e-05
3.753871001639466e-07,5.809819327911061e-07,3.946400609956876e-07,1.5912855242251445e-05
3.708968609521858e-07,5.801027393802295e-07,3.968467415563097e-07,1.609313979296821e-05
3.669585349188922e-07,5.790121881591012e-07,3.9881860919972757e-07,1.6302459030920216e-05
3.6358835806070094e-07,5.777250592444888e-07,4.0053539607286854e-07,1.6539657067500905e-05
3.607988127908418e-07,5.762589580927736e-07,4.01978661373084e-07,1.6803117556698942e-05
3.5859803751966707e-07,5.746321769040365e-07,4.0313335787344776e-07,1.709090774806304e-05
3.5699161051645477e-07,5.728616855840964e-07,4.03988546023088e-07,1.7400931061405687e-05
3.559838646551153e-07,5.709620321122384e-07,4.0453645217700076e-07,1.773104145729677e-05
3.5557868726126277e-07,5.689448864914245e-07,4.047710594319129e-07,1.8079090530623275e-05
3.5577859870945566e-07,5.668199678721633e-07,4.0468812906698474e-07,1.844292497242934e-05
3.565832711501596e-07,5.645981277381318e-07,4.042860381734505e-07,1.882036668671008e-05
3.579921144405489e-07,5.622948710894235e-07,4.0356597174950685e-07,1.920917202839281e-05
3.60007700481976e-07,5.59931655383248e-07,4.0253189383678864e-07,1.960696843405664e-05
3.626332610337786e-07,5.57533310227455e-07,4.011905255642165e-07,2.0011209638286065e-05
3.6586775119139464e-07,5.551227074040564e-07,3.9955095103835133e-07,2.0419182888267816e-05
3.6970397020616934e-07,5.527164241528929e-07,3.976240136557133e-07,2.082806968905109e-05
3.741284750165197e-07,5.503239586534955e-07,3.954215379094094e-07,2.123506123089515e-05
3.791245331830919e-07,5.479501663496087e-07,3.9295582579602816e-07,2.163749368809221e-05
3.846802686608609e-07,5.455978243114949e-07,3.902396804412767e-07,2.203292636869508e-05
3.9079437538439314e-07,5.432679159623364e-07,3.8728636738747006e-07,2.2419141162068895e-05
3.974714944311468e-07,5.409600997175789e-07,3.8410991982300684e-07,2.2794115954334092e-05
4.047119392273888e-07,5.386758828760481e-07,3.8072577764399436e-07,2.315602014941433e-05
4.1250475773612316e-07,5.36422169783181e-07,3.7715022215612905e-07,2.350321541067974e-05
4.2082687444938e-07,5.342109340176734e-07,3.733988133844857e-07,2.3834230734889605e-05
4.296461031736561e-07,5.320551961642173e-07,3.6948595709628e-07,2.414778387832251e-05
4.389240402882106e-07,5.299672003524082e-07,3.654261704935465e-07,2.444288852715536e-05
4.4861679863267224e-07,5.279609065645614e-07,3.612353548050932e-07,2.4718929586532736e-05
4.586751068893344e-07,5.260546551663612e-07,3.569310293294921e-07,2.4975645743893843e-05
4.6904449797178743e-07,5.242715676462028e-07,3.5253227058735046e-07,2.521305613561316e-05
4.796653559425287e-07,5.226377214591189e-07,3.480596052624584e-07,2.543134633350914e-05
4.904746325050836e-07,5.211789375973453e-07,3.435344367888664e-07,2.5630749009063296e-05
5.01410219240369e-07,5.199181396078647e-07,3.389790103568265e-07,2.5811452697526167e-05
5.124152025022606e-07,5.188739002338485e-07,3.344173500938149e-07,2.5973536240934774e-05
5.234383021100697e-07,5.180587671721714e-07,3.29874984381817e-07,2.611695411768227e-05
5.344308500049846e-07,5.174774216831941e-07,3.2537764804918854e-07,2.624158728158851e-05
5.453455071163178e-07,5.171269356415879e-07,3.2095186258937485e-07,2.634730750990885e-05
5.561389436426667e-07,5.169988571841631e-07,3.166256179486715e-07,2.6434017563914002e-05
5.667726981116641e-07,5.170803645006679e-07,3.124258759484607e-07,2.650166187022205e-05
5.772089890631712e-07,5.173542627831118e-07,3.083757024821071e-07,2.6550225064682496e-05
5.874067957088628e-07,5.177992114571345e-07,3.044941304685637e-07,2.657980059528671e-05
5.973217151439527e-07,5.18390282895041e-07,3.0079669635648464e-07,2.6590707039555458e-05
6.069078323179292e-07,5.190999510875651e-07,2.972953244039347e-07,2.658349514899868e-05
6.16120054612915e-07,5.198998561905828e-07,2.9399945821499645e-07,2.655884265308406e-05
6.249162083551355e-07,5.207622761777537e-07,2.909182281510632e-07,2.6517462361762728e-05
6.332585861618365e-07,5.216602545433825e-07,2.880607523136074e-07,2.6460069127769034e-05
6.411150355860115e-07,5.225672061867063e-07,2.8543484365376557e-07,2.638738054281568e-05
6.484584571577743e-07,5.234577699699128e-07,2.830467528062119e-07,2.630010652286747e-05
6.552645791953807e-07,5.243104835488674e-07,2.809009904097925e-07,2.619889770060457e-05
6.615109103865059e-07,5.251097902742787e-07,2.789988618981745e-07,2.608427478223727e-05
6.671783163114434e-07,5.258447839973572e-07,2.7733792783963906e-07,2.5956592004239145e-05
6.722529831442126e-07,5.265062134290501e-07,2.75914083476716e-07,2.5816052892060182e-05
6.767258384478991e-07,5.27084678384712e-07,2.747251267841938e-07,2.5662745957684992e-05
6.805894376313199e-07,5.275700368723304e-07,2.737726572234375e-07,2.549667432027016e-05
6.838354144035142e-07,5.279514090145897e-07,2.730603659494642e-07,2.531779065532664e-05
6.864541583169629e-07,5.282194787272561e-07,2.72590907565456e-07,2.5126055112273167e-05
6.884358958295735e-07,5.28370084126128e-07,2.723639389438389e-07,2.4921505343307338e-05
6.897721464457306e-07,5.284038453577824e-07,2.7237577669495076e-07,2.470429946036832e-05
6.904566306883264e-07,5.283217313703418e-07,2.7262047028890147e-07,2.4474693460707487e-05
6.904850042779408e-07,5.281230307047695e-07,2.730921901269609e-07,2.4232965485195967e-05
6.898541179144955e-07,5.278080187004785e-07,2.737880599614292e-07,2.397935297164648e-05
6.885624263807899e-07,5.273810161503744e-07,2.7470885022587125e-07,2.3714042915648866e-05
6.866112118433976e-07,5.268502264304103e-07,2.758572119466197e-07,2.343719803658811e-05
