3.453344225407584e-07,1.1637242005554671e-06,5.348691816293979e-07,2.2516557751491988e-05
3.446342688567847e-07,1.1908456012510157e-06,5.326556845747561e-07,2.289993658466036e-05
3.438550184010485e-07,1.2181190842764663e-06,5.308004496970813e-07,2.3272388674245936e-05
3.4299603853754666e-07,1.2454285921491705e-06,5.293566376612832e-07,2.363179026006956e-05
3.4205490621954213e-07,1.2726543041888171e-06,5.283800867856327e-07,2.3976079611209273e-05
3.4102918344489477e-07,1.2996822720647649e-06,5.279250327367851e-07,2.430332958940519e-05
3.399194677687981e-07,1.3264083348271565e-06,5.280376926979692e-07,2.461183473093443e-05
3.387317380570065e-07,1.352732304363917e-06,5.287504860010505e-07,2.490030565037501e-05
3.374764042663333e-07,1.3785501142752295e-06,5.300797209215723e-07,2.5168219361452492e-05
3.361647787942202e-07,1.4037512386624314e-06,5.32026244376029e-07,2.5416100982354425e-05
3.348070710011225e-07,1.428221086001673e-06,5.345780132834508e-07,2.564546553530088e-05
3.334126950307116e-07,1.451845774761352e-06,5.377151497545431e-07,2.58585212958803e-05
3.3198975441528e-07,1.4745151947974903e-06,5.414168122660038e-07,2.605785314431696e-05
3.3054343230622147e-07,1.496122536099939e-06,5.456664973426679e-07,2.624610469119935e-05
3.290759071688159e-07,1.5165650652552496e-06,5.50453447366655e-07,2.6425672252793704e-05
3.275881331808972e-07,1.5357479558321169e-06,5.557701970258617e-07,2.659848847905537e-05
3.260810019535206e-07,1.5535859110161513e-06,5.616079495506614e-07,2.6765923493345152e-05
3.245546773869011e-07,1.5700009887865808e-06,5.67952595743439e-07,2.692879016433659e-05
3.2300789053621e-07,1.5849204397726929e-06,5.74782885632278e-07,2.7087445171674328e-05
3.214383051397616e-07,1.598277352436587e-06,5.820711097690525e-07,2.724194241807249e-05
3.198429890501734e-07,1.6100144074551236e-06,5.89786684068301e-07,2.739213873210345e-05
3.1821892163840773e-07,1.6200873607794768e-06,5.97900231448805e-07,2.753769478574013e-05
3.1656462034757764e-07,1.6284647893325858e-06,6.063830904541374e-07,2.767802714625307e-05
3.148822685257697e-07,1.6351256032518922e-06,6.152021612041643e-07,2.7812330139520696e-05
3.1317813759459873e-07,1.6400570297144986e-06,6.243160348910685e-07,2.7939754390507648e-05
3.1146042560971577e-07,1.6432535045348699e-06,6.336758597121395e-07,2.8059704320989948e-05
3.097360293484314e-07,1.6447164441424695e-06,6.432292513789937e-07,2.8172072331927917e-05
3.080087059398673e-07,1.6444573273079109e-06,6.5292456488815e-07,2.8277265481311384e-05
3.062793269025938e-07,1.6425047188396275e-06,6.627155793962364e-07,2.8376087459409083e-05
3.045472212038078e-07,1.638908392449843e-06,6.725672452749961e-07,2.846960775153261e-05
3.0281183849091424e-07,1.6337355142781872e-06,6.824581080649503e-07,2.8559058743722542e-05
3.010735679483595e-07,1.627063043806896e-06,6.92374861320916e-07,2.8645749403389832e-05
2.993332053717931e-07,1.618972363176893e-06,7.023031369961296e-07,2.873098897777999e-05
2.97591684253202e-07,1.6095471856006139e-06,7.122229582069256e-07,2.8816034012091883e-05
2.958506758435485e-07,1.5988725219190947e-06,7.221107779624951e-07,2.890211565396206e-05
2.941126148057092e-07,1.5870334348423554e-06,7.319425123258077e-07,2.8990592482089186e-05
2.923797914154379e-07,1.574112293347904e-06,7.416937528577405e-07,2.908309946258349e-05
2.906537638693942e-07,1.5601844149614676e-06,7.513384603410724e-07,2.918148023994065e-05
2.8893570624569374e-07,1.5453156284668689e-06,7.608472220536095e-07,2.92875234709178e-05
2.872267765269257e-07,1.5295632560847656e-06,7.701855337457469e-07,2.940269193943443e-05
2.855274435098607e-07,1.5129780284804948e-06,7.793139796121723e-07,2.952794798380908e-05
2.8383635968937286e-07,1.4956055508686462e-06,7.881905804765168e-07,2.966375344947328e-05
2.821507317358227e-07,1.4774883541332545e-06,7.967729741840367e-07,2.981029713152821e-05
2.804689506184709e-07,1.4586703278217604e-06,8.050190248805144e-07,2.9967788578448773e-05
2.7879350621643146e-07,1.4392040361431714e-06,8.128862189438694e-07,3.0136582116376783e-05
2.771319004858551e-07,1.4191585952557656e-06,8.203313877202181e-07,3.031713045634461e-05
2.754954264203098e-07,1.3986240798201537e-06,8.273130931655858e-07,3.0509922084249486e-05
2.7389672767709434e-07,1.3777100230694952e-06,8.337950878874701e-07,3.071545332460243e-05
2.723473764729424e-07,1.3565390796264216e-06,8.397460629499807e-07,3.0934183223635224e-05
2.708567810159348e-07,1.3352372621468471e-06,8.451367675771433e-07,3.1166452523012625e-05
2.694327312628567e-07,1.3139220105070513e-06,8.499398715365379e-07,3.141241074744183e-05
2.680829277425443e-07,1.292693313366582e-06,8.54131880407232e-07,3.167199246001907e-05
2.668161247642814e-07,1.27163356863731e-06,8.576926621180346e-07,3.194492433265951e-05
2.656415407802861e-07,1.2508151166661638e-06,8.606033617395515e-07,3.223069791785862e-05
2.645674235670807e-07,1.2303085864116664e-06,8.628456030579193e-07,3.2528491158210624e-05
2.6360137606652233e-07,1.2101858907728557e-06,8.644023595654494e-07,3.2837096573345564e-05
2.62751781520545e-07,1.1905172792606189e-06,8.652606093835545e-07,3.315489063598055e-05
2.620269238197129e-07,1.1713673964244078e-06,8.654141013467699e-07,3.347987438660546e-05
2.614325073961028e-07,1.1527938839166954e-06,8.648632263045145e-07,3.380983235005711e-05
2.6097117303511725e-07,1.1348456920926244e-06,8.636133812084481e-07,3.4142532728762063e-05
2.606440058013048e-07,1.1175592952847491e-06,8.616752862876e-07,3.447582360114492e-05
2.604516211928142e-07,1.100956804289989e-06,8.590660555070067e-07,3.4807610878392644e-05
2.603949474102305e-07,1.085047771857823e-06,8.558082197130097e-07,3.513578049726217e-05
2.604771022446178e-07,1.069831123935239e-06,8.519277292720506e-07,3.5458102746436405e-05
2.607044386359257e-07,1.0552953858824736e-06,8.474519505699811e-07,3.577217473399105e-05
2.6108436643171577e-07,1.0414202880347984e-06,8.424067971186744e-07,3.607544251344353e-05
2.616224239391189e-07,1.028183070487057e-06,8.368145930582852e-07,3.636527606970097e-05
2.6232161243702284e-07,1.0155670251281582e-06,8.306950163615071e-07,3.663906286495244e-05
2.6318264970765355e-07,1.0035650949786816e-06,8.24067735221701e-07,3.689430986578525e-05
2.642034456177104e-07,9.921755338516504e-07,8.169540669406013e-07,3.712872113595318e-05
2.653788407213048e-07,9.813936479019249e-07,8.093781423232632e-07,3.734019587750976e-05
2.6670191862605936e-07,9.712052781331407e-07,8.013687068268651e-07,3.7526752535089785e-05
2.681668884981857e-07,9.615852890400186e-07,7.929595735547628e-07,3.768646161312219e-05
2.69771547543138e-07,9.525014074794287e-07,7.841876493521313e-07,3.7817442208269847e-05
2.715163874273624e-07,9.439212059773251e-07,7.750906859888975e-07,3.791789240375222e-05
2.7340115458419e-07,9.358166804710839e-07,7.657053326169615e-07,3.79861235419836e-05
2.7542287874856036e-07,9.281631694904181e-07,7.5606499622651e-07,3.802062787813336e-05
2.7757660584316867e-07,9.209365499060358e-07,7.461989899579102e-07,3.802017316914061e-05
2.798569759868774e-07,9.141117901888632e-07,7.361330143784652e-07,3.798386303659425e-05
2.8225942058700855e-07,9.076618646626837e-07,7.258894871453335e-07,3.791116416523612e-05
2.847803386183496e-07,9.015577162259463e-07,7.154876808384885e-07,3.7801964975878086e-05
2.8741579803013703e-07,8.957713779390783e-07,7.049440172540095e-07,3.76566663952606e-05
2.901604793142983e-07,8.902823743384304e-07,6.942727185142187e-07,3.74761829864529e-05
2.930085428824247e-07,8.850842702147644e-07,6.834869531818671e-07,3.726177723336402e-05
2.9595472624520586e-07,8.801855406741874e-07,6.726001091714591e-07,3.701483483047618e-05
2.98993739323855e-07,8.756021055864031e-07,6.616263779575552e-07,3.673672588029431e-05
3.021186932639708e-07,8.71347164151354e-07,6.505803731419031e-07,3.6428778728823745e-05
3.053197418032482e-07,8.674263047834799e-07,6.394770610854564e-07,3.6092305530578105e-05
3.0858360507653745e-07,8.638397157294195e-07,6.28332336680985e-07,3.572862596644369e-05
3.1189428990012504e-07,8.605873851388138e-07,6.171633935493269e-07,3.5339075891277585e-05
3.15233977608751e-07,8.576728244547524e-07,6.059905806829521e-07,3.492504205482077e-05
3.185838158201396e-07,8.551031711442025e-07,5.948414788639941e-07,3.448811974279348e-05
3.2192542424843375e-07,8.528862446492985e-07,5.83752494353534e-07,3.4030339579593216e-05
3.252419390502414e-07,8.51028135214131e-07,5.727651252104879e-07,3.3554224335309915e-05
3.2851790007684996e-07,8.495331864811423e-07,5.619208190723698e-07,3.306261833452661e-05
3.3173955226250805e-07,8.48404874205445e-07,5.512581635532351e-07,3.255844356375869e-05
3.348961307198826e-07,8.476458340473887e-07,5.408128156785738e-07,3.2044524495294845e-05
3.379813576728421e-07,8.472561538107423e-07,5.306187508649053e-07,3.152364187361977e-05
3.409939862885621e-07,8.472335202857657e-07,5.207080461540655e-07,3.099879899606621e-05
3.439370828947547e-07,8.475775362725848e-07,5.111096983020967e-07,3.0473371171103223e-05
3.4681699075708235e-07,8.482908245252198e-07,5.018501275027393e-07,2.9950977336304652e-05
3.4964133120417804e-07,8.493723539390268e-07,4.929538400236209e-07,2.9435262453605217e-05
3.524156222411264e-07,8.508101777448032e-07,4.844430031582883e-07,2.892973899634739e-05
3.5514092112538094e-07,8.525801551716915e-07,4.763380195112957e-07,2.843768012027307e-05
3.5781422650601566e-07,8.54649391190348e-07,4.6865976040742427e-07,2.7962036081183723e-05
3.6043079327099133e-07,8.569813268449231e-07,4.614335306314316e-07,2.750535830963028e-05
3.6298630309949686e-07,8.595404936248457e-07,4.546940810709639e-07,2.7069742634782087e-05
3.6547778555016434e-07,8.622939621214621e-07,4.4848781168800576e-07,2.6656828732735323e-05
3.6790357703381034e-07,8.652080003615636e-07,4.4286915925952673e-07,2.6267855417751066e-05
3.702622861678193e-07,8.682439742696224e-07,4.3789252094816296e-07,2.590370797082888e-05
3.725519650506878e-07,8.713583945081708e-07,4.3360566551675566e-07,2.556491157127237e-05
3.7477124082825524e-07,8.745068203961336e-07,4.3005049166093795e-07,2.525159962852324e-05
3.7692098740470636e-07,8.776483343487284e-07,4.2726862095346365e-07,2.496350749282699e-05
3.7900528458442827e-07,8.807470898501093e-07,4.2530322879880965e-07,2.4700034984354786e-05
3.8103265917655065e-07,8.83771060829087e-07,4.2419339385509095e-07,2.446039200038113e-05
3.8301640543103684e-07,8.866918820700844e-07,4.2396590950842034e-07,2.424376032461214e-05
3.8497179410401224e-07,8.894849472940952e-07,4.246308492045979e-07,2.4049398706402037e-05
3.869123101105147e-07,8.921288795446586e-07,4.261816226481051e-07,2.387669866354258e-05
3.888490866124477e-07,8.946079017335094e-07,4.285967428037053e-07,2.372521548470461e-05
3.9079249599695203e-07,8.969137517031723e-07,4.318415248174553e-07,2.3594656282044e-05
3.927518928988133e-07,8.990429556071615e-07,4.358696548013754e-07,2.348480418244386e-05
3.9473438373189137e-07,9.009952984537529e-07,4.406252774423421e-07,2.339541162537393e-05
3.9674523805580103e-07,9.027765099854516e-07,4.4604706450344456e-07,2.332610869272958e-05
3.9878848325873616e-07,9.043996664825891e-07,4.5207534426263464e-07,2.327633461417178e-05
4.0086632069923243e-07,9.058834206293848e-07,4.586592546460656e-07,2.3245337659937867e-05
4.029788381446065e-07,9.072499611437395e-07,4.657578738689474e-07,2.3232297167316173e-05
4.051243176552366e-07,9.085229625452712e-07,4.7333526315923864e-07,2.32364784494453e-05
4.072993857040282e-07,9.097243486798443e-07,4.813572512791527e-07,2.3257288480349788e-05
4.0949942703273993e-07,9.108711609437185e-07,4.897922764003414e-07,2.329423905484e-05
4.117190875370292e-07,9.119752626538076e-07,4.986097694880946e-07,2.334687343085976e-05
4.139518549817629e-07,9.1304496785712e-07,5.077761600575762e-07,2.341466168192017e-05
4.1618924372496367e-07,9.140837623984569e-07,5.172549656876941e-07,2.349688894121248e-05
4.1842110568247255e-07,9.15086324331246e-07,5.270091553280082e-07,2.3592599828605165e-05
4.206368554668349e-07,9.160378136342476e-07,5.36999725037933e-07,2.3700610941587064e-05
4.228268575383492e-07,9.169183132579e-07,5.471818000069267e-07,2.3819529930290334e-05
4.249838104741814e-07,9.177080067369309e-07,5.575032175660321e-07,2.394774973897741e-05
4.2710247307377994e-07,9.183886544895347e-07,5.679062815040365e-07,2.408347986282545e-05
4.291774125949691e-07,9.189437949277891e-07,5.783298049382925e-07,2.422488927555155e-05
4.3120151961065046e-07,9.193629596091112e-07,5.887096216421828e-07,2.4370314163916143e-05
4.33165969151536e-07,9.196469633002957e-07,5.98979532936368e-07,2.4518371359179032e-05
4.350598749661313e-07,9.198083980530096e-07,6.090759754931818e-07,2.466788436713533e-05
4.368693265158953e-07,9.198679078254171e-07,6.189458573984364e-07,2.481769409199781e-05
4.385771175507615e-07,9.198485189354452e-07,6.285528810377368e-07,2.496650406187201e-05
4.40164231332841e-07,9.197691401178772e-07,6.378771364465192e-07,2.511284177247178e-05
4.4161208957675924e-07,9.196399102111601e-07,6.469078746512746e-07,2.5255099139198568e-05
4.429034288077099e-07,9.194624901438656e-07,6.556366796126528e-07,2.539158615088067e-05
4.4402183022664155e-07,9.192346776362718e-07,6.640554443227369e-07,2.5520623686960943e-05
4.44951349921531e-07,9.189548029580206e-07,6.721567147081031e-07,2.5640768316635528e-05
4.4567635839836645e-07,9.186240452216916e-07,6.799353618344295e-07,2.5751092570310885e-05
4.461813617652568e-07,9.182485819221708e-07,6.873899215802106e-07,2.5851262780448277e-05
4.4645152771816224e-07,9.178400445165771e-07,6.945204071038078e-07,2.5941354751097e-05
4.4647477791988966e-07,9.174108738638521e-07,7.013267448081407e-07,2.6021606277999498e-05
4.462453561187069e-07,9.169673712367993e-07,7.07813432816193e-07,2.6092243730876058e-05
4.4576674503967936e-07,9.16506131796707e-07,7.139953670858274e-07,2.6153429625092506e-05
4.450508853103576e-07,9.160143521461901e-07,7.198967519345945e-07,2.6205410003228682e-05
4.4411350972969093e-07,9.154721125562456e-07,7.255449180383868e-07,2.6248791036662704e-05
4.429690388874336e-07,9.148570391935005e-07,7.309667669416603e-07,2.6284675012509068e-05
4.416280296191165e-07,9.141500110366295e-07,7.361903254629684e-07,2.631454754972097e-05
4.400969176536104e-07,9.1333697305798e-07,7.41248524471312e-07,2.6340063077119745e-05
4.3837867286879633e-07,9.124049197105615e-07,7.46182562459355e-07,2.636285160241483e-05
4.364739944799093e-07,9.113367379762467e-07,7.510418563391631e-07,2.638434940136332e-05
4.343824460880008e-07,9.101097549441452e-07,7.558780879906701e-07,2.640565022007757e-05
4.321030617150482e-07,9.086968812267914e-07,7.607362622303001e-07,2.6427432253129198e-05
4.2963527247141066e-07,9.070673514039585e-07,7.656487289608426e-07,2.644998172677007e-05
4.2697989291918274e-07,9.051872203931923e-07,7.706346756358908e-07,2.647324945765867e-05
4.2413952033500507e-07,9.030219290394381e-07,7.757046583509533e-07,2.649691845114803e-05
4.21119796892356e-07,9.005424023407896e-07,7.808692955709723e-07,2.652051327291197e-05
4.179318335165242e-07,8.977312230683708e-07,7.861484364815104e-07,2.654352367037381e-05
4.145946107836743e-07,8.945825903759066e-07,7.915764284614753e-07,2.6565494558111092e-05
4.111363389635668e-07,8.9109604642045e-07,7.972026375825033e-07,2.6586084675568145e-05
4.0759223119411396e-07,8.872703196069809e-07,8.030873434367927e-07,2.660510472459653e-05
4.0399865078081603e-07,8.831013251970165e-07,8.092933736324645e-07,2.662251305760233e-05
4.003882215661253e-07,8.785833773570753e-07,8.158761716582029e-07,2.663835186923653e-05
3.9678817432530363e-07,8.73712437997405e-07,8.228762229457434e-07,2.665266578285837e-05
3.9322044679666657e-07,8.684910665179699e-07,8.303162388641108e-07,2.66654568859284e-05
3.8970238764727455e-07,8.629310333119287e-07,8.382019795471605e-07,2.6676665377150187e-05
3.862475097753986e-07,8.570508737860769e-07,8.465245093201306e-07,2.668613616499436e-05
3.8286591231453275e-07,8.508747830448749e-07,8.552628462115538e-07,2.669357040116618e-05
3.795643144712118e-07,8.444367570422791e-07,8.643855135952379e-07,2.669850653666095e-05
3.763460223123665e-07,8.37782685962995e-07,8.738516318588812e-07,2.6700390496397006e-05
3.7321161979219925e-07,8.309658795471979e-07,8.836145439515909e-07,2.669875269961013e-05
3.701604180604099e-07,8.240397757043429e-07,8.936274614665003e-07,2.669341532731545e-05
3.671927158611989e-07,8.170513202660408e-07,9.038488675751169e-07,2.668459532482019e-05
3.643128823717826e-07,8.100375654775129e-07,9.14247152591258e-07,2.66728510940305e-05
3.6153120361791467e-07,8.03027188802926e-07,9.248027978234186e-07,2.665896073010105e-05
3.588632129212532e-07,7.960443103633446e-07,9.355064420243568e-07,2.6643840655146696e-05
3.5632736543761786e-07,7.891104207762388e-07,9.463552769937448e-07,2.66285275503171e-05
3.539417075784489e-07,7.822439123762693e-07,9.573510328549294e-07,2.6614157959337884e-05
3.5172090394040056e-07,7.754601524283357e-07,9.684974879532672e-07,2.660185388401689e-05
3.496752576922368e-07,7.687738081470041e-07,9.797935423437988e-07,2.659253546868449e-05
3.478109460069997e-07,7.62200807476108e-07,9.912257080649609e-07,2.658684996843039e-05
3.461298639919641e-07,7.557566329768924e-07,1.0027677586539275e-06,2.6585327054309877e-05
3.446295373367161e-07,7.494526200042979e-07,1.0143854650701778e-06,2.658857807240248e-05
3.4330379732385174e-07,7.432963840023254e-07,1.0260381248275108e-06,2.6597318761621217e-05
3.4214357956351305e-07,7.373003898062231e-07,1.0376761145411363e-06,2.661225079109949e-05
3.411375954254733e-07,7.314934998447109e-07,1.0492402302231028e-06,2.6633951181344118e-05
3.402726759752637e-07,7.259250340205071e-07,1.0606661566639634e-06,2.6662797115116087e-05
3.395333997986218e-07,7.206587375896041e-07,1.0718912730803805e-06,2.669888476559599e-05
3.389018239556685e-07,7.157634378462887e-07,1.0828574956459424e-06,2.6741978964935494e-05
3.383581581977757e-07,7.113058971452537e-07,1.0935087615892136e-06,2.679154682068742e-05
3.378817022095821e-07,7.073462739958451e-07,1.1037885133141574e-06,2.6846842380198968e-05
3.3745133358864487e-07,7.039352803227649e-07,1.1136409931208858e-06,2.6906974870663642e-05
3.3704599031835657e-07,7.011133161095969e-07,1.1230155853639978e-06,2.697094055320172e-05
3.3664519145376647e-07,6.98912778852074e-07,1.131870951573128e-06,2.703771624503081e-05
3.3622902418293984e-07,6.973619076582618e-07,1.1401746305287154e-06,2.7106505292799285e-05
3.357779223346291e-07,6.964858618244212e-07,1.147897205059247e-06,2.717694366804745e-05
3.352732749544813e-07,6.963046796335593e-07,1.1550059163061071e-06,2.7249011669896287e-05
3.346990406405116e-07,6.968306979813085e-07,1.1614629342421322e-06,2.732279752912428e-05
3.3404290647979175e-07,6.980663095046907e-07,1.1672288478077562e-06,2.7398405749730985e-05
3.332968285529788e-07,7.000040948978094e-07,1.1722682251592056e-06,2.7475987154741536e-05
3.324579399924905e-07,7.026294997482018e-07,1.1765533200669846e-06,2.7555740676674822e-05
3.3152793009201357e-07,7.059214661116191e-07,1.1800639726798772e-06,2.7637868321263616e-05
3.30510286284502e-07,7.098511434869143e-07,1.1827843529311062e-06,2.772251632428274e-05
3.294082704079553e-07,7.143815893538258e-07,1.1846990422224505e-06,2.7809720665819336e-05
3.282244880204999e-07,7.194673350933618e-07,1.185791467283604e-06,2.789936681383639e-05
3.269615102345134e-07,7.250545240244263e-07,1.1860457355768158e-06,2.7991172471917292e-05
3.256230571937615e-07,7.310833635699753e-07,1.1854507806218201e-06,2.8084692722105647e-05
3.242142041615068e-07,7.37490931376428e-07,1.1840048495207943e-06,2.8179326141816552e-05
3.227403652755912e-07,7.442117206527681e-07,1.1817190372138838e-06,2.8274312702514104e-05
3.212063740649488e-07,7.511769042524103e-07,1.1786199398555453e-06,2.8368747182473462e-05
3.196161422032258e-07,7.583164841712847e-07,1.1747493684249036e-06,2.846162138407188e-05
3.1797254574815694e-07,7.655646761009395e-07,1.1701575349012705e-06,2.855186399974417e-05
3.162776634658684e-07,7.728633763271652e-07,1.1648925784523942e-06,2.863834006066639e-05
3.145339937454202e-07,7.801609850204571e-07,1.15899538030691e-06,2.8719826440631798e-05
3.127461366947509e-07,7.874094593623416e-07,1.1525037006425269e-06,2.879503410539885e-05
3.109213631940351e-07,7.945643397079349e-07,1.1454592096406756e-06,2.8862712686458147e-05
3.090696613809351e-07,8.015884364723799e-07,1.1379081300067659e-06,2.892178767232866e-05
3.0720470484299394e-07,8.084537350381048e-07,1.12989531636406e-06,2.8971454595904968e-05
3.0534403707739556e-07,8.151380378239727e-07,1.1214590842455631e-06,2.90111968682726e-05
3.035068629921119e-07,8.216204818854821e-07,1.1126299908383349e-06,2.904075796630432e-05
3.0171138685954057e-07,8.278817413745655e-07,1.1034316997751393e-06,2.9060117356136693e-05
2.9997391241878517e-07,8.339080334291958e-07,1.0938829173290263e-06,2.906947263666285e-05
2.983089327015036e-07,8.396929608195305e-07,1.0839997949480169e-06,2.9069206219568212e-05
2.967283695303893e-07,8.452351399626566e-07,1.0737972847720615e-06,2.905985131339021e-05
2.952403247630541e-07,8.505346742193895e-07,1.063289621294377e-06,2.9042069354054906e-05
2.938490432733769e-07,8.555925329585183e-07,1.052491183669818e-06,2.901659385370697e-05
2.9255627446335895e-07,8.604137569163174e-07,1.0414176987921091e-06,2.898411460576181e-05
2.913622831663269e-07,8.650097571032576e-07,1.0300873238096938e-06,2.894516208617898e-05
2.9026590253753285e-07,8.693962445389164e-07,1.0185204934809192e-06,2.890005898106343e-05
2.8926506249276123e-07,8.735893733314613e-07,1.0067378964656977e-06,2.8848924926274956e-05
2.8835766576524765e-07,8.776030611009166e-07,9.94759760572954e-07,2.879168827687185e-05
2.875415215128575e-07,8.814477972668266e-07,9.826083944885583e-07,2.8728104766721723e-05
2.868140132016851e-07,8.851300773300648e-07,9.703099724762458e-07,2.8657807634998853e-05
2.861729150670168e-07,8.886528937327131e-07,9.578931729094476e-07,2.8580400203182708e-05
2.8561806901602694e-07,8.920196667393864e-07,9.453868296782831e-07,2.8495562931784663e-05
2.8515254303885244e-07,8.952397381884884e-07,9.328173459060991e-07,2.8403111345737927e-05
2.847824042724756e-07,8.983283898193073e-07,9.202066297067006e-07,2.8302973403689183e-05
2.8451556950640413e-07,9.013008024345531e-07,9.075733582296957e-07,2.8195105282594678e-05
2.843616765348452e-07,9.041690577420259e-07,8.949367140391245e-07,2.8079404438476466e-05
2.8433333789290385e-07,9.069450417737642e-07,8.823178892240935e-07,2.795571481256107e-05
2.844460804658594e-07,9.096411233739834e-07,8.697378013330528e-07,2.782394570655755e-05
2.847155059247927e-07,9.12267719240177e-07,8.572141376842195e-07,2.76841866467372e-05
2.851537201600843e-07,9.148338897475912e-07,8.447604947649347e-07,2.7536696873259472e-05
2.8576727324383644e-07,9.173482328272232e-07,8.323871187058276e-07,2.7381787695066397e-05
2.865571450796338e-07,9.198152706031422e-07,8.201015469304844e-07,2.721973312018156e-05
2.875214234224376e-07,9.222305215217329e-07,8.079095825636165e-07,2.705079360436826e-05
2.8865902261791344e-07,9.245785445253723e-07,7.958189905432982e-07,2.6875275248178056e-05
2.899698041891006e-07,9.26834356898183e-07,7.838442529426427e-07,2.669351240284703e-05
2.914511291225718e-07,9.289666742857448e-07,7.720063725285315e-07,2.6505794252550808e-05
2.930954193937692e-07,9.30941234830365e-07,7.603271003334493e-07,2.6312368090863665e-05
2.9489023470809346e-07,9.327245658643992e-07,7.488234439710321e-07,2.611358447267292e-05
2.9681956939427235e-07,9.342891620159872e-07,7.375059178794437e-07,2.591004243747752e-05
2.9886507423319685e-07,9.356172611949709e-07,7.263796391857044e-07,2.5702575573865532e-05
3.010068322002917e-07,9.366997633426056e-07,7.154468434556856e-07,2.549212958149443e-05
3.032256257067592e-07,9.375316630865185e-07,7.047093575312013e-07,2.527963549334713e-05
3.0550754055285725e-07,9.381081868377121e-07,6.941697379537513e-07,2.5065932947749482e-05
3.0784703900697786e-07,9.384228629958168e-07,6.838315583329611e-07,2.485186919879293e-05
3.102450135985475e-07,9.384658110125549e-07,6.736991669037807e-07,2.463860145615177e-05
3.1270429275624927e-07,9.382230233298391e-07,6.637760446201754e-07,2.4427843732318616e-05
3.152262791770461e-07,9.376777163580341e-07,6.540626664916168e-07,2.4221846990346617e-05
3.1780884395702483e-07,9.368110741922918e-07,6.445560631844836e-07,2.402321538417729e-05
3.204456038381277e-07,9.356014148825134e-07,6.352523306540081e-07,2.3834711647164184e-05
3.231274526297462e-07,9.3402455545079e-07,6.26152477828089e-07,2.3659059515064418e-05
3.258451456308255e-07,9.320557700406824e-07,6.172693661492908e-07,2.349874208058392e-05
3.285905052690949e-07,9.296708475671148e-07,6.086308041271032e-07,2.3355857789103534e-05
3.3135611152365324e-07,9.268460198032721e-07,6.002760378288947e-07,2.3232066277703595e-05
3.3413549382782675e-07,9.235582696577244e-07,5.92247506832085e-07,2.3128593416292318e-05
3.3692353193433015e-07,9.197860295219416e-07,5.845824728352703e-07,2.304624745294585e-05
3.397163727502426e-07,9.155094260493456e-07,5.773083640389256e-07,2.29854057039716e-05
3.4251186644491354e-07,9.107099440432272e-07,5.704418437271661e-07,2.294597648515629e-05
3.453094788612385e-07,9.053705578603115e-07,5.639896442098814e-07,2.292739497707204e-05
3.481085951823534e-07,8.994772716441129e-07,5.579506359643158e-07,2.29286916981646e-05
3.509065905220079e-07,8.930209743640026e-07,5.523183839942847e-07,2.2948619751958528e-05
3.536979723997435e-07,8.859976576424124e-07,5.470826539603599e-07,2.2985812947839303e-05
3.564750454269595e-07,8.78407851284308e-07,5.42230398879428e-07,2.303894071432432e-05
3.592291459290517e-07,8.702575545838118e-07,5.377476916013051e-07,2.3106825646765765e-05
3.619508328679029e-07,8.615606905010851e-07,5.336230833080631e-07,2.318852318168436e-05
3.6463042616479064e-07,8.52343275464633e-07,5.298522473233854e-07,2.3283376425582613e-05
3.672607771992506e-07,8.4264781390438e-07,5.264411584518514e-07,2.339102578864265e-05
3.698393254482701e-07,8.325319724669809e-07,5.234038874467144e-07,2.351133922058742e-05
3.723667591946617e-07,8.220603858027854e-07,5.207558151671272e-07,2.364426495320711e-05
3.748452463089118e-07,8.112965892902169e-07,5.185075566969818e-07,2.3789647111983467e-05
3.772785060816807e-07,8.003011717045962e-07,5.166631215147322e-07,2.3947069444210724e-05
3.7967150324938604e-07,7.891360809271234e-07,5.152202708685273e-07,2.411580612446808e-05
3.820283704065403e-07,7.7786944518561e-07,5.141697849843066e-07,2.4294885231040226e-05
3.843504238362926e-07,7.66575693184928e-07,5.134946801365514e-07,2.448317287976817e-05
3.8663634371721604e-07,7.553318850033758e-07,5.131717079992144e-07,2.467942957428768e-05
3.888839095083162e-07,7.442130522991974e-07,5.13174427026659e-07,2.488236421931474e-05
3.9109079107129593e-07,7.332878773983741e-07,5.134758343053346e-07,2.5090695795643085e-05
3.9325356888273626e-07,7.226168648534448e-07,5.140501573986775e-07,2.5303182540906474e-05
3.9536674545498144e-07,7.122533612454136e-07,5.148749147747734e-07,2.5518570935021078e-05
3.974231379520098e-07,7.022437617208735e-07,5.159335083195045e-07,2.5735529319616485e-05
3.9941554534767865e-07,6.926253274764785e-07,5.172180912054257e-07,2.595265504429649e-05
4.0133863354499533e-07,6.834248503357475e-07,5.187329148207531e-07,2.616851566062845e-05
4.0318901520024296e-07,6.746602126762779e-07,5.204952137445341e-07,2.6381686336369133e-05
4.0496316634384153e-07,6.663443450079503e-07,5.225300848820535e-07,2.6590774541561443e-05
4.0665536214357576e-07,6.584903696366088e-07,5.248622050895419e-07,2.6794382422468202e-05
4.0825703209074503e-07,6.511147851544728e-07,5.275095780242093e-07,2.699102209950533e-05
4.097572485703986e-07,6.442380599651179e-07,5.304814347360795e-07,2.7179072713721426e-05
4.111435919080514e-07,6.378857653992615e-07,5.33779800117308e-07,2.735682809947763e-05
4.124025759187078e-07,6.320896810684997e-07,5.374013780594029e-07,2.7522606502829094e-05
4.135196569640654e-07,6.268853117338025e-07,5.413377240204356e-07,2.7674843980808038e-05
4.144799680833625e-07,6.223056348885286e-07,5.455771832579519e-07,2.781211898500855e-05
4.152701060676985e-07,6.183749601504765e-07,5.501101451297535e-07,2.7933130926835066e-05
4.1587925608560686e-07,6.151062884583451e-07,5.549317454518912e-07,2.8036676370793768e-05
4.162982053655135e-07,6.125018645809036e-07,5.600391859193268e-07,2.8121681368237897e-05
4.1651770871847073e-07,6.105556012322507e-07,5.654304284281415e-07,2.8187336477594203e-05
4.165287203310219e-07,6.092559163967763e-07,5.711086673640502e-07,2.8233206402842384e-05
4.1632423636154e-07,6.085871023735462e-07,5.770877098057769e-07,2.825915532483057e-05
4.1590016157501897e-07,6.08531645090422e-07,5.833932577855697e-07,2.826517495651372e-05
4.1525423504675847e-07,6.090772907232336e-07,5.900589747601303e-07,2.825126595627113e-05
4.1438496694938396e-07,6.10224383160052e-07,5.97118380859959e-07,2.821737915375531e-05
4.1329267531809346e-07,6.119861612997572e-07,6.04597506499205e-07,2.8163388111509468e-05
4.119818394973039e-07,6.143825344517461e-07,6.125118981100275e-07,2.808911180611587e-05
4.10462023176898e-07,6.174322285449415e-07,6.20866469602076e-07,2.7994402367465698e-05
4.087466741598477e-07,6.211461286507307e-07,6.296580183288655e-07,2.7879248901960137e-05
4.0685175744349156e-07,6.2552251127285e-07,6.388793881013207e-07,2.7743812736300208e-05
4.047951326439107e-07,6.305449998583401e-07,6.485198899204631e-07,2.7588397783708483e-05
4.0259531412866665e-07,6.361846066030766e-07,6.585615688744613e-07,2.741343428518422e-05
4.00269569652259e-07,6.424053078364777e-07,6.689764587175801e-07,2.721948596963808e-05
3.978334971204064e-07,6.491695003263371e-07,6.79725902436272e-07,2.700724241247747e-05
3.953023145176792e-07,6.564401612661852e-07,6.907603748595078e-07,2.6777473276389106e-05
3.9269150505426703e-07,6.641799205016555e-07,7.020209926120259e-07,2.6530954630857283e-05
3.900155132684107e-07,6.72348659066479e-07,7.134442125415521e-07,2.62684265249338e-05
3.8728587616655044e-07,6.809017475617834e-07,7.249680051733762e-07,2.599059238134876e-05
3.8451046345433257e-07,6.897897062006767e-07,7.365358771750529e-07,2.5698108706496743e-05
3.8169393661703747e-07,6.989579572983853e-07,7.480968935178153e-07,2.539157479434343e-05
3.7883889343614667e-07,7.083483226493145e-07,7.596027794575905e-07,2.507158551331837e-05
3.759471738363909e-07,7.179039695970035e-07,7.710043453584653e-07,2.473885475845044e-05
3.7302147664199596e-07,7.275738484693598e-07,7.82249151572145e-07,2.439430244950445e-05
3.700676290753128e-07,7.373132322385005e-07,7.932814860810434e-07,2.403900261477212e-05
3.6709583556512887e-07,7.470816428786779e-07,8.040447679596418e-07,2.367409316325405e-05
3.641191340065828e-07,7.568395278272968e-07,8.144846643495984e-07,2.330078803468985e-05
3.6115095649201476e-07,7.665444518799046e-07,8.245498477135131e-07,2.2920401220850432e-05
3.582043358639532e-07,7.761491667946243e-07,8.341900280792688e-07,2.2534287413292816e-05
3.552923121086729e-07,7.856029218563623e-07,8.43354363247795e-07,2.214378634117765e-05
3.524285304394895e-07,7.948553985055695e-07,8.51992803582921e-07,2.175020780157357e-05
3.4962694625543144e-07,8.038622114067014e-07,8.600598180288374e-07,2.1354805076158397e-05
3.469001661837811e-07,8.125884138609151e-07,8.675165546842214e-07,2.095874392679623e-05
3.442587563850057e-07,8.210075862621919e-07,8.743288000763281e-07,2.0563113967203126e-05
3.4171233227134727e-07,8.291010457286164e-07,8.804641329171091e-07,2.0168964717220003e-05
3.3927027460255905e-07,8.368595395135776e-07,8.858919411630018e-07,1.977729458367069e-05
3.3694192583542854e-07,8.442816810025234e-07,8.905847071416878e-07,1.938899364175137e-05
3.347373773488421e-07,8.513674407999881e-07,8.945180803556797e-07,1.900480911228085e-05
3.3266766173131963e-07,8.581124928419782e-07,8.976698158783957e-07,1.8625363917112006e-05
3.307439724877028e-07,8.645060042927218e-07,9.000187442473872e-07,1.825120855658074e-05
3.289779970626993e-07,8.705305611600122e-07,9.015445659109732e-07,1.7882868636775887e-05
3.273829816640903e-07,8.761644384990137e-07,9.022281408391537e-07,1.7520862810743592e-05
3.259732515189187e-07,8.813849617266693e-07,9.020518158168995e-07,1.7165699659381767e-05
3.247624651464184e-07,8.861695566132537e-07,9.010004881858007e-07,1.6817880677141027e-05
3.237625249575478e-07,8.904944614682113e-07,8.990634649125881e-07,1.6477917599004353e-05
3.229834971255014e-07,8.94334988772712e-07,8.962353747439619e-07,1.6146322204049026e-05
3.2243309988148143e-07,8.976717952754644e-07,8.925154884293634e-07,1.5823540233695666e-05
3.221156229902715e-07,9.005041065547535e-07,8.87907250808334e-07,1.5509883188845422e-05
3.220312066762546e-07,9.028626154260777e-07,8.824189382424149e-07,1.5205509817329733e-05
3.221754380636365e-07,9.048110791166237e-07,8.760637419536132e-07,1.4910464728720804e-05
3.2253927004997566e-07,9.064348266767296e-07,8.68858879433567e-07,1.4624774084390368e-05
3.2310943121577676e-07,9.078243600237002e-07,8.608259612242689e-07,1.4348539619969958e-05
3.238693965595086e-07,9.090629719758743e-07,8.519923789654795e-07,1.4081957699351215e-05
3.2480059652925693e-07,9.102244923561155e-07,8.423910400370957e-07,1.3825274984224033e-05
3.258830253599376e-07,9.113808589330143e-07,8.320582907960196e-07,1.3578722044832198e-05
3.27095309077507e-07,9.126120662877293e-07,8.210317093816932e-07,1.3342473094285136e-05
3.28414968728631e-07,9.140118140617564e-07,8.093489284128249e-07,1.3116671811076095e-05
3.298192834351641e-07,9.156864351350323e-07,7.970479713942537e-07,1.2901482921217484e-05
3.3128611145359247e-07,9.177467992141123e-07,7.841682320683055e-07,1.2697094250617011e-05
3.327936371552329e-07,9.202958195903216e-07,7.70750933522666e-07,1.2503650908911525e-05
3.343197316089551e-07,9.234170249822586e-07,7.568386927249945e-07,1.2321181438011275e-05
3.358419839777759e-07,9.271678677455273e-07,7.424743216811089e-07,1.2149591085826198e-05
3.3733819968526464e-07,9.315776619546692e-07,7.276998436607691e-07,1.1988740308821487e-05
3.3878707707701373e-07,9.366491398708666e-07,7.125566326716794e-07,1.183855628269589e-05
3.401690239428112e-07,9.423624582076097e-07,6.970872126031712e-07,1.169909137850858e-05
3.4146731755016644e-07,9.486794833169064e-07,6.813377565984963e-07,1.1570498681862793e-05
3.426691263926493e-07,9.55547583019027e-07,6.6535781725958e-07,1.1452963910298401e-05
3.437646711606073e-07,9.629045591263323e-07,6.491971630737138e-07,1.134662916818294e-05
3.4474480109716267e-07,9.706853568405134e-07,6.329040202490388e-07,1.1251540460807202e-05
3.4560055788078666e-07,9.788275479969782e-07,6.165252765128589e-07,1.1167661866954184e-05
3.463265476486971e-07,9.872714105136786e-07,6.001059735111497e-07,1.1094933194519397e-05
3.469241328636645e-07,9.959557621100064e-07,5.8368814578957e-07,1.1033284264246769e-05
3.474002764307669e-07,1.004815890810268e-06,5.673107396890331e-07,1.0982589199793609e-05
3.4776388244975357e-07,1.013786365138542e-06,5.510118259803371e-07,1.0942612154909011e-05
3.480230135684673e-07,1.0228054496887917e-06,5.348318447475385e-07,1.0912979614505213e-05
3.481839429270277e-07,1.0318173678685885e-06,5.188147790054121e-07,1.0893206132882933e-05
3.482518425642072e-07,1.0407708403354356e-06,5.030081610319264e-07,1.0882763075606094e-05
3.482321823447849e-07,1.0496142799512014e-06,4.874636541834838e-07,1.0881164287447797e-05
3.4813186502111285e-07,1.0582911865814774e-06,4.7223521696067714e-07,1.0888144885724576e-05
3.479593781234901e-07,1.0667396988853818e-06,4.573745240771935e-07,1.0903953143440468e-05
3.477249330192943e-07,1.0748956196560342e-06,4.429285966099557e-07,1.0929526540694673e-05
3.474423670965359e-07,1.0826962916540594e-06,4.2894130983412206e-07,1.0966375680134807e-05
3.471302901025611e-07,1.0900839958597497e-06,4.154552058662672e-07,1.1016301698250979e-05
3.468091318771162e-07,1.0970070806179572e-06,4.025108174173217e-07,1.1081132349043901e-05
3.464968350544886e-07,1.103417615122456e-06,3.9014441315324466e-07,1.1162556859179058e-05
3.4620769410411345e-07,1.109267409307907e-06,3.783866174959667e-07,1.126215684069328e-05
3.4595409936567174e-07,1.114506079841298e-06,3.6726274981037795e-07,1.138165013732371e-05
3.457477349017701e-07,1.1190825402041716e-06,3.567932351907024e-07,1.1523094616494044e-05
3.455987683212394e-07,1.1229476831232045e-06,3.469933482005876e-07,1.1688833833396765e-05
3.4551528099473e-07,1.1260561644617942e-06,3.3787391265807853e-07,1.1881283276136874e-05
3.455041706237204e-07,1.1283681448617342e-06,3.294434714550972e-07,1.2102717450801573e-05
3.455709777156133e-07,1.1298514123828448e-06,3.217103280067884e-07,1.2355087997412531e-05
3.4571794957738014e-07,1.130481128721928e-06,3.146826266402017e-07,1.2639878678828052e-05
3.45943389407721e-07,1.1302375181832242e-06,3.083665181344334e-07,1.2958030926072293e-05
3.4624286304548145e-07,1.1291054971446396e-06,3.0276534876456017e-07,1.3309938112432096e-05
3.4660973478093827e-07,1.127076176241847e-06,2.978813460259363e-07,1.369545693673172e-05
3.470351821759226e-07,1.1241495794110815e-06,2.9371694629063325e-07,1.4113904787434745e-05
3.475101225051953e-07,1.1203403997685977e-06,2.902754561735855e-07,1.4564051976908493e-05
3.480277583268795e-07,1.1156836440409256e-06,2.8756452904325764e-07,1.504412446744772e-05
3.485835855127883e-07,1.1102338570175972e-06,2.8560057284959197e-07,1.5551844255699185e-05
3.4917411492088897e-07,1.1040571659767356e-06,2.8440818530500214e-07,1.6084527985934626e-05
3.497963078504248e-07,1.0972213404094525e-06,2.840135942503581e-07,1.6639209323560748e-05
3.5044670302711746e-07,1.0897905009943821e-06,2.8443649724052445e-07,1.72127376423644e-05
3.511205179621891e-07,1.0818286040150134e-06,2.856854119786207e-07,1.780185652186488e-05
3.5181182336659604e-07,1.073407798007753e-06,2.877582265060776e-07,1.8403270433019785e-05
3.5251406036757454e-07,1.0646112491769829e-06,2.906461847560774e-07,1.9013677387386982e-05
3.532209354858293e-07,1.0555265970511605e-06,2.9433965183998985e-07,1.9629756660945998e-05
3.5392781525715646e-07,1.0462357441182287e-06,2.9883386003157464e-07,2.0248128136320232e-05
3.546315815395226e-07,1.0368073838757977e-06,3.041309622197516e-07,2.0865323555346504e-05
3.553282696269137e-07,1.0272954065699549e-06,3.102363801607891e-07,2.1477813458235407e-05
3.560118565080155e-07,1.0177428114481177e-06,3.171516599953333e-07,2.2082077380311827e-05
3.5667739549783945e-07,1.0081869841524108e-06,3.248683381672844e-07,2.267467328898668e-05
3.5732533919192937e-07,9.98661362000293e-07,3.333658135680033e-07,2.325231056950969e-05
3.57960996245618e-07,9.891943532475409e-07,3.4261223693522896e-07,2.381191925410935e-05
3.5859027228524884e-07,9.79809226622734e-07,3.525676830087204e-07,2.4350651469358703e-05
3.5921683526843577e-07,9.7052376203516e-07,3.6319039131693247e-07,2.486581728802147e-05
3.5984197071373317e-07,9.613485977917306e-07,3.744424810999557e-07,2.5354836843097e-05
3.6046697478267563e-07,9.522862868509531e-07,3.862894502840061e-07,2.581523602861068e-05
3.6109614023514534e-07,9.433317406885866e-07,3.986938879347753e-07,2.624466737238691e-05
3.617364995126614e-07,9.344737263543922e-07,4.1160958567166033e-07,2.6640976185954685e-05
3.62394306327075e-07,9.256971242303823e-07,4.249805370824621e-07,2.700230606652072e-05
3.6307183324616436e-07,9.169852461716919e-07,4.387436184513008e-07,2.732715763962679e-05
3.6376700535864854e-07,9.083212592822649e-07,4.528315386720896e-07,2.7614359684714918e-05
3.644750432030698e-07,8.996890819611327e-07,4.671752282585797e-07,2.7863029424393603e-05
3.6519005618279426e-07,8.910752431894079e-07,4.817063026597435e-07,2.8072613187951005e-05
3.659059448263109e-07,8.824705523322731e-07,4.963592975619407e-07,2.824300780904413e-05
3.6661658713543966e-07,8.738690137901746e-07,5.11073845061385e-07,2.83746376629604e-05
3.673155749441051e-07,8.652651044984266e-07,5.257966555141465e-07,2.84683480948018e-05
3.6799658442741426e-07,8.566527518532415e-07,5.404814974288509e-07,2.8525167139745026e-05
3.686548092380037e-07,8.480260238321282e-07,5.550865554864085e-07,2.854613094150828e-05
3.6928781355102077e-07,8.39378865460249e-07,5.695709789078144e-07,2.853225297477512e-05
3.6989478662064855e-07,8.307037231522603e-07,5.838923275961175e-07,2.848456128072674e-05
3.704756068740293e-07,8.219910076981564e-07,5.980050772476028e-07,2.8404123682121173e-05
3.7103089496963506e-07,8.132300260259631e-07,6.118604074773146e-07,2.8292054510145525e-05
3.715625175486301e-07,8.044107501281313e-07,6.254078307478839e-07,2.814960281694848e-05
3.7207278417321036e-07,7.955267012353681e-07,6.385975617168565e-07,2.797841219763161e-05
3.725621979397046e-07,7.865797667726027e-07,6.513815371061354e-07,2.7780778822702525e-05
3.7302804951072007e-07,7.775833443577219e-07,6.637124738225028e-07,2.7559646472487408e-05
3.734643871463545e-07,7.685590173814516e-07,6.755424219510347e-07,2.731838100646961e-05
3.738621153513306e-07,7.595300027518298e-07,6.868222994693872e-07,2.706051393641172e-05
3.7420925937057683e-07,7.505170734108585e-07,6.975021757074044e-07,2.678952968738779e-05
3.7449212876138246e-07,7.415373287694994e-07,7.075321359833319e-07,2.6508767080687124e-05
3.746969217326985e-07,7.32605756958593e-07,7.168643544178066e-07,2.622150291104737e-05
3.748106066746997e-07,7.237394805488966e-07,7.254557287628671e-07,2.5931107685059728e-05
3.748213195346054e-07,7.149606897502456e-07,7.332705673695263e-07,2.564111073295344e-05
3.7471894880887904e-07,7.062960384253327e-07,7.402834917511369e-07,2.535518402783709e-05
3.7449510594393294e-07,6.977763962415114e-07,7.464802088136215e-07,2.5077103647878922e-05
3.741427039906664e-07,6.894403178647958e-07,7.518545626346403e-07,2.481067395094524e-05
3.7365706119507095e-07,6.813369638404649e-07,7.564054506812312e-07,2.455961591464236e-05
3.730378677807422e-07,6.735219297902223e-07,7.601366088823488e-07,2.432745123946461e-05
3.722894908499833e-07,6.6604757675152e-07,7.630573108872431e-07,2.411740602621628e-05
3.7141954927667286e-07,6.589552396338324e-07,7.651820689801935e-07,2.3932354984113685e-05
3.704368656353967e-07,6.522735528815675e-07,7.665293099324309e-07,2.3774797796331408e-05
3.6934948160758423e-07,6.460233060466186e-07,7.671192694566084e-07,2.364682059888088e-05
3.6816376143095175e-07,6.402270249012123e-07,7.669726147850553e-07,2.355001782558014e-05
3.6688498099492884e-07,6.34916698043415e-07,7.661102586999313e-07,2.348539983617445e-05
3.655186143617009e-07,6.30133487280328e-07,7.645528613423341e-07,2.345332600020198e-05
3.640712130110501e-07,6.259220315273787e-07,7.623204200152536e-07,2.3453508370710847e-05
3.625509271777642e-07,6.223247290044545e-07,7.594329259270752e-07,2.348511770285668e-05
3.609677764183184e-07,6.193779750614031e-07,7.559107728919834e-07,2.3546942892236715e-05
3.593324472681121e-07,6.171104797404344e-07,7.517753505285656e-07,2.3637520407943105e-05
3.576541802331013e-07,6.155428634507144e-07,7.470526633050551e-07,2.375523062347768e-05
3.5593996652242507e-07,6.14689059386456e-07,7.417783211125178e-07,2.3898383224601765e-05
3.5419541948784305e-07,6.145588112462772e-07,7.359993621707881e-07,2.406526535380387e-05
3.524260485486707e-07,6.151590226989949e-07,7.297721281917787e-07,2.425414503076214e-05
3.506376378327981e-07,6.164948885066996e-07,7.23158466503613e-07,2.4463254321241973e-05
3.488356651732029e-07,6.185705715527691e-07,7.162257501005372e-07,2.4690749545660293e-05
3.4702461039622305e-07,6.213873284631137e-07,7.090537731885966e-07,2.493464290745679e-05
3.452071879502925e-07,6.249397227667742e-07,7.017407138780489e-07,2.519275242665148e-05
3.433836715839747e-07,6.292119795320435e-07,6.944009380420888e-07,2.546271303417817e-05
3.4155258770668345e-07,6.341767762182644e-07,6.871575967721439e-07,2.574202109904556e-05
3.3971260118005557e-07,6.397966697380214e-07,6.801334406431168e-07,2.602808512100799e-05
3.3786345467977535e-07,6.460257226300231e-07,6.734408456018995e-07,2.631828873147229e-05
3.360056026559269e-07,6.528103688801238e-07,6.671754467203521e-07,2.661006039579029e-05
3.341401174011223e-07,6.600900352130763e-07,6.614169512214086e-07,2.6900936964280912e-05
3.3226885880312534e-07,6.677975245213304e-07,6.562333721875975e-07,2.718857633321075e-05
3.3039385448591214e-07,6.758591717730515e-07,6.516829738318677e-07,2.7470686051465586e-05
3.285168125810091e-07,6.841953241962382e-07,6.478128347768958e-07,2.774496767192237e-05
3.266411191198401e-07,6.927224484587511e-07,6.44656123825619e-07,2.8009201020935875e-05
3.2477552768725485e-07,7.01358216680476e-07,6.422309565617909e-07,2.826143889815256e-05
3.2293490729718565e-07,7.100280114315601e-07,6.405412433373968e-07,2.85002096004067e-05
3.2113695982995487e-07,7.186688674566697e-07,6.395775711761594e-07,2.872464780289773e-05
3.193995670845516e-07,7.272291483038681e-07,6.393195772517894e-07,2.893447806077163e-05
3.1774069687274804e-07,7.356646197693323e-07,6.397427024074928e-07,2.91298519318547e-05
3.1617775134135016e-07,7.439335395637304e-07,6.408261071464043e-07,2.931112222801607e-05
3.147252947716991e-07,7.519959890221496e-07,6.425557682832975e-07,2.9478611696479088e-05
3.13393417113143e-07,7.598187624807632e-07,6.449229982857836e-07,2.9632442055484327e-05
3.1218860345480704e-07,7.673797613769366e-07,6.479210094039883e-07,2.9772483399925427e-05
3.111176349189865e-07,7.746664819456483e-07,6.515390239105914e-07,2.9898373022125176e-05
3.101916976131763e-07,7.816698591190241e-07,6.557562999556913e-07,3.0009543992549293e-05
3.094255447642415e-07,7.883783573161079e-07,6.605405003738054e-07,3.0105326130142884e-05
3.0883249324729353e-07,7.94776348426967e-07,6.658509820431195e-07,3.0185185515739093e-05
3.084214764344863e-07,8.008467484757511e-07,6.716453415922472e-07,3.0248967519140203e-05
3.0819735847406567e-07,8.065732811294327e-07,6.778862101066743e-07,3.029692643577412e-05
3.081617580601343e-07,8.119390804025808e-07,6.845443568233636e-07,3.0329548943444453e-05
3.083146178421824e-07,8.16923879957197e-07,6.915974260608764e-07,3.034733958979341e-05
3.086562049188743e-07,8.215032061750934e-07,6.990276773809374e-07,3.0350730111381488e-05
3.0918708624714325e-07,8.256497331700345e-07,7.068206157076643e-07,3.0340249734735662e-05
3.099072912493742e-07,8.293348088622819e-07,7.149629248024656e-07,3.0316849293798096e-05
3.108170129333011e-07,8.325291239346876e-07,7.234385509097058e-07,3.0282055236089173e-05
3.119163039741141e-07,8.352042529033235e-07,7.322239558606428e-07,3.0237870823287627e-05
3.1320209597239827e-07,8.373367393883294e-07,7.412850323077085e-07,3.018658936400937e-05
3.146659661710404e-07,8.389116475624549e-07,7.505777636539765e-07,3.0130613997182844e-05
3.162945254385661e-07,8.39921577588109e-07,7.600513996661165e-07,3.007230669475878e-05
3.180711996686742e-07,8.403628827323137e-07,7.696506181197454e-07,3.0013883275715253e-05
3.1997846894935234e-07,8.402330627662008e-07,7.793159404253717e-07,2.9957336464744732e-05
3.219992824231714e-07,8.395306753658336e-07,7.889849928408945e-07,2.9904358932945147e-05
3.241168594289549e-07,8.382564229985782e-07,7.98595050753565e-07,2.9856266558914258e-05
3.263142335384697e-07,8.364132797820162e-07,8.080847657993973e-07,2.9813938284898505e-05
3.2857415994776865e-07,8.340073817984223e-07,8.173954502933779e-07,2.9777786175755426e-05
3.308785482748437e-07,8.310513512946818e-07,8.264727595445819e-07,2.9747775743436737e-05
3.3320811762008037e-07,8.275652471854937e-07,8.352662728022581e-07,2.972350968553639e-05
3.3554293432952536e-07,8.235741587947907e-07,8.437262593968838e-07,2.970434616641288e-05
3.378627593716896e-07,8.191096085569715e-07,8.518010538688837e-07,2.968950639359572e-05
3.401470605111537e-07,8.142138515928321e-07,8.594371408105325e-07,2.9678156745909773e-05
3.423757372426304e-07,8.089379601946736e-07,8.665817218181811e-07,2.96694557101016e-05
3.445307754873808e-07,8.033349490497322e-07,8.731877071409075e-07,2.9662556392587e-05
3.465973616681112e-07,7.974561476018335e-07,8.792188202601623e-07,2.9656594420040864e-05
3.485626724265601e-07,7.913506482000148e-07,8.846499517474467e-07,2.9650686238824743e-05
3.50413820596237e-07,7.850640385338398e-07,8.894623952614624e-07,2.9643921560744078e-05
3.5213875857651945e-07,7.786371737708315e-07,8.936386748938959e-07,2.9635341486774683e-05
3.5372987015458773e-07,7.721057216474991e-07,8.971600087594255e-07,2.962391568408432e-05
3.55185678259313e-07,7.654993101461501e-07,9.000072682835237e-07,2.9608522758000128e-05
3.565088623704376e-07,7.588405296180533e-07,9.021645920255064e-07,2.9587950139344362e-05
3.577036865960197e-07,7.521447546229595e-07,9.036213917713272e-07,2.956097032540611e-05
3.5877579372564976e-07,7.454217857708884e-07,9.043705763746792e-07,2.95264934876813e-05
3.5973339194961205e-07,7.386802907663597e-07,9.044064399498516e-07,2.9483684409430292e-05
3.6058774676924245e-07,7.319320577104737e-07,9.037246348814741e-07,2.943197318346841e-05
3.6135307751500586e-07,7.251913907127142e-07,9.023234707092762e-07,2.9371002708012366e-05
3.620454370087752e-07,7.184729113231509e-07,9.002054573168068e-07,2.9300556917251892e-05
3.6267992608868727e-07,7.117943243191949e-07,8.973769182160999e-07,2.922047363520821e-05
3.6326889163644705e-07,7.051802796386665e-07,8.938454888234354e-07,2.91305602110572e-05
3.638233106841619e-07,6.986597884234675e-07,8.896189323674769e-07,2.9030559653147035e-05
3.64355604214074e-07,6.922601349981374e-07,8.847059812097721e-07,2.8920194240739027e-05
3.648810131893258e-07,6.8600337623783e-07,8.791180798786595e-07,2.8799258598777337e-05
3.654169185491457e-07,6.799051306961456e-07,8.728727457184454e-07,2.866773121144182e-05
3.6598245480664505e-07,6.739742807190861e-07,8.659968485927349e-07,2.85259079719658e-05
3.6659905471009787e-07,6.682141710172351e-07,8.585264593223156e-07,2.8374550761221728e-05
3.6728916714211566e-07,6.62626435863647e-07,8.50503698472646e-07,2.821498139424271e-05
3.680736330106247e-07,6.572181462493522e-07,8.419748221167535e-07,2.8049021924477667e-05
3.6897081510455573e-07,6.520091286595974e-07,8.329929276214491e-07,2.7878771653810345e-05
3.6999769521764385e-07,6.470343112828844e-07,8.236233437179387e-07,2.7706314628139177e-05
3.711722956597492e-07,6.423395580438058e-07,8.139464981945406e-07,2.7533462341766345e-05
3.725159580628809e-07,6.379741962873382e-07,8.04054679688122e-07,2.736160817869305e-05
3.740518933883199e-07,6.339854492656331e-07,7.940430332860394e-07,2.719171099231494e-05
3.7579995838186566e-07,6.304155448622464e-07,7.840001565138994e-07,2.702435126391895e-05
3.777725974532318e-07,6.272988825882638e-07,7.74004063376709e-07,2.685983774924393e-05
3.799751137263601e-07,6.246605678157295e-07,7.641223356946598e-07,2.6698434811292858e-05
3.824084090312357e-07,6.225178626410385e-07,7.544117935313005e-07,2.654063353502552e-05
3.8507050319573996e-07,6.208817753331067e-07,7.449182697823298e-07,2.6387211520924853e-05
3.879560986816554e-07,6.197561498467339e-07,7.356800072184415e-07,2.623906064101785e-05
3.910569945219587e-07,6.19136424641207e-07,7.267325457358198e-07,2.6096985376518037e-05
3.943640074572693e-07,6.190131811007864e-07,7.18110302310356e-07,2.5961577201638456e-05
3.9786720419654523e-07,6.1937968298304e-07,7.098451606837024e-07,2.583326717189164e-05
4.015541415594623e-07,6.202370072553797e-07,7.019642857803314e-07,2.571263311191925e-05
4.0540989742998227e-07,6.215952460386375e-07,6.94489153587523e-07,2.5600736115388065e-05
4.0941897973226726e-07,6.234720546888147e-07,6.874391007947524e-07,2.54991949184621e-05
4.1356509134290853e-07,6.258876403583764e-07,6.808385887993357e-07,2.541003852567409e-05
4.1782900785198113e-07,6.288587463404964e-07,6.7472170973127e-07,2.533552292245008e-05
4.221887757624956e-07,6.323964405224093e-07,6.691292053059815e-07,2.5277959838013448e-05
4.266223184181192e-07,6.365073698107168e-07,6.641002387353478e-07,2.5239545726601096e-05
4.3110891633714456e-07,6.411939631490247e-07,6.596651492659325e-07,2.5222216045015835e-05
4.3562825555113725e-07,6.464509740628325e-07,6.558419617067039e-07,2.522755998096113e-05
4.4015842053600883e-07,6.522615863844786e-07,6.526356278843536e-07,2.5256805210649012e-05
4.4467475874541856e-07,6.585983332123712e-07,6.500404647388299e-07,2.531083949700065e-05
4.4915044500492713e-07,6.654275254140078e-07,6.480447947640244e-07,2.5390218377481404e-05
4.535576166667954e-07,6.727113075855859e-07,6.466329554679236e-07,2.549514407339065e-05
4.5786809861619645e-07,6.804071324741132e-07,6.457841048316296e-07,2.562542681049936e-05
4.620541187931359e-07,6.884708746963143e-07,6.454728546868822e-07,2.578042179030253e-05
4.6608904782496043e-07,6.968667878136638e-07,6.456726747839465e-07,2.595897142032876e-05
4.6994783678687093e-07,7.05577377597437e-07,6.463579637522282e-07,2.615944878682473e-05
4.736072073380511e-07,7.146041825831169e-07,6.475039198781029e-07,2.6379932075149328e-05
4.770459233189133e-07,7.239609769737994e-07,6.490859011407907e-07,2.661840630838005e-05
4.802453780919416e-07,7.33664913376043e-07,6.510769966457876e-07,2.687289907053319e-05
4.831899465096858e-07,7.437277883642794e-07,6.534443584817447e-07,2.714156004378425e-05
4.858664295844183e-07,7.541515284985875e-07,6.561492769800891e-07,2.742270114405423e-05
4.882626684021658e-07,7.649296493830205e-07,6.591510927039388e-07,2.7714777355626093e-05
4.903661015815769e-07,7.760493707157523e-07,6.624101711755538e-07,2.8016323220477473e-05
4.921634234207402e-07,7.87491829476957e-07,6.65890087726848e-07,2.8325887491057292e-05
4.936422421357431e-07,7.992341945161938e-07,6.695596518526244e-07,2.86419677487724e-05
4.947937087790201e-07,8.112542416710455e-07,6.733908535752013e-07,2.896291932499121e-05
4.956135332517735e-07,8.235327957015551e-07,6.773543770493296e-07,2.9286864671333314e-05
4.961008213058411e-07,8.360524918734235e-07,6.814182245117605e-07,2.9611672034659114e-05
4.962561602271932e-07,8.48795860054217e-07,6.855478594371468e-07,2.9935001365408983e-05
4.960801002201421e-07,8.617435309560946e-07,6.897053272191922e-07,3.0254350347634322e-05
4.95572725973204e-07,8.748702189278807e-07,6.938496652089987e-07,3.0567094412418225e-05
4.947337905469963e-07,8.88139926083086e-07,6.979390893586199e-07,3.087056351323709e-05
4.935628870294861e-07,9.015042724764515e-07,7.019326814999811e-07,3.116213283439476e-05
4.920614795283059e-07,9.149036929209087e-07,7.057903438136822e-07,3.1439261786531195e-05
4.902366110584836e-07,9.282697492858273e-07,7.09472097276215e-07,3.169948125331068e-05
4.881016668833421e-07,9.415280598596687e-07,7.129394043977174e-07,3.1940382383398704e-05
4.856734859289737e-07,9.546007823277944e-07,7.161582568154156e-07,3.215962980059602e-05
4.829703207754655e-07,9.67407633130187e-07,7.191002812427138e-07,3.235500897972665e-05
4.800116005406105e-07,9.798658965803e-07,7.217405081189052e-07,3.252454108893683e-05
4.768181780927703e-07,9.918907400129595e-07,7.240547522320353e-07,3.266662894619417e-05
4.734135706036978e-07,1.0033962260900992e-06,7.260190741222244e-07,3.278010461956002e-05
4.6982494936805563e-07,1.0142969506505051e-06,7.27610070434246e-07,3.286414048509051e-05
4.6608159079450457e-07,1.0245104682929668e-06,7.288046808030433e-07,3.2918156231226095e-05
4.62211772633411e-07,1.0339595084087434e-06,7.295807049695885e-07,3.294183169429585e-05
4.5824026492654923e-07,1.0425732421310969e-06,7.29918676289882e-07,3.2935166536045976e-05
4.541867651497565e-07,1.0502884701459815e-06,7.29802936297342e-07,3.28984844362352e-05
4.5006553833905593e-07,1.0570506785148669e-06,7.292204765545585e-07,3.283236885170412e-05
4.458865006499401e-07,1.0628153904570714e-06,7.281599289681648e-07,3.27375907740086e-05
4.416568215748706e-07,1.0675509218417956e-06,7.266118069972945e-07,3.2615142832959366e-05
4.373823634085808e-07,1.0712399261136157e-06,7.245681596764069e-07,3.246640306633428e-05
4.3306934389166925e-07,1.073879032730142e-06,7.220222160703978e-07,3.2293222540552884e-05
4.287275530096196e-07,1.075480919781341e-06,7.189695955724007e-07,3.2097781032755595e-05
4.2437543244931714e-07,1.0760780423692644e-06,7.154093921915569e-07,3.1882354529975124e-05
4.200440783982713e-07,1.0757223138858619e-06,7.113431303246627e-07,3.164916771977879e-05
4.1577691251250205e-07,1.0744789112393534e-06,7.067731574336194e-07,3.1400335900044817e-05
4.1162467972226527e-07,1.0724169798964442e-06,7.017025551669525e-07,3.113793218031911e-05
4.076379863773621e-07,1.0696041368184526e-06,6.961361557045714e-07,3.0864190261116826e-05
4.0386099574656867e-07,1.0661108233319412e-06,6.900819277544095e-07,3.0581634449245565e-05
4.003287730125728e-07,1.062019769791527e-06,6.835517885020379e-07,3.029299611058965e-05
3.9706768071261003e-07,1.0574303792117864e-06,6.765611700751261e-07,3.0001026362284967e-05
3.9409697892619036e-07,1.052454474612364e-06,6.691292030983592e-07,2.970832704028794e-05
3.9143124956438936e-07,1.04720568661869e-06,6.612798157056462e-07,2.9417223531304384e-05
3.890829790774851e-07,1.041788403564705e-06,6.530413370317433e-07,2.912966974156264e-05
3.8706266284454716e-07,1.0362946291722643e-06,6.444446401381554e-07,2.88471832927139e-05
3.853762438131722e-07,1.0308092916790528e-06,6.355213652471807e-07,2.85708313005622e-05
3.840230886995304e-07,1.0254143981314264e-06,6.26303529836356e-07,2.830127833625692e-05
3.829958921752697e-07,1.0201863007621747e-06,6.16824753836875e-07,2.803885164191911e-05
3.822817879022674e-07,1.0151906142282691e-06,6.071202883699612e-07,2.778358172837994e-05
3.8186445748752826e-07,1.0104823303508785e-06,5.972250131806808e-07,2.7535239850393012e-05
3.817264842086174e-07,1.006114179592202e-06,5.87172062594893e-07,2.729338363907998e-05
3.818509427131072e-07,1.002146340858099e-06,5.769926505724674e-07,2.705740542849961e-05
3.822220242112837e-07,9.986458999799894e-07,5.667164733855626e-07,2.682662147491648e-05
3.8282380634726575e-07,9.95675333339305e-07,5.5637305433832e-07,2.660041543128229e-05
3.836376469616764e-07,9.932810798970438e-07,5.459940562575038e-07,2.6378369034701585e-05
3.846411172544775e-07,9.914899649336162e-07,5.356160168946986e-07,2.6160320578513165e-05
3.858096205227565e-07,9.903116261582184e-07,5.252818425311392e-07,2.59463587817256e-05
3.871188089755964e-07,9.897420838448587e-07,5.150393256521347e-07,2.5736777782777066e-05
3.88545378033845e-07,9.897665802891372e-07,5.049374821680254e-07,2.553199605658315e-05
3.900663274293333e-07,9.90361743762052e-07,4.950235301479982e-07,2.5332442081690825e-05
3.916587798017282e-07,9.914960633978314e-07,4.853432326350986e-07,2.513843164082065e-05
3.9330063724186723e-07,9.931288982645168e-07,4.7594477924042843e-07,2.4950079775941397e-05
3.949707444543589e-07,9.952101338770849e-07,4.668821850771506e-07,2.4767318818898225e-05
3.966487119054482e-07,9.976805749844605e-07,4.582135016161582e-07,2.4590049621548732e-05
3.9831577785884473e-07,1.0004725344769982e-06,4.4999460695198986e-07,2.4418301153386912e-05
3.999558220475138e-07,1.003511802366863e-06,4.4227417797679137e-07,2.425225146943172e-05
4.01554343364861e-07,1.006722219423341e-06,4.3509254568276386e-07,2.4092129647113658e-05
4.030965713360853e-07,1.010033154575773e-06,4.2848244974897843e-07,2.3938115150527507e-05
4.045669488287233e-07,1.0133867701765392e-06,4.224698531727161e-07,2.3790308195023678e-05
4.059492497210231e-07,1.0167390639149795e-06,4.1707423520184586e-07,2.364875444874732e-05
4.0722629522666346e-07,1.0200536879087423e-06,4.123099800285994e-07,2.3513433636697707e-05
4.083799499024255e-07,1.023295188789525e-06,4.081914080316033e-07,2.3384175565625777e-05
4.093917409258922e-07,1.0264288526918812e-06,4.0473868442139937e-07,2.326059845639252e-05
4.102433830420828e-07,1.029426617311742e-06,4.0197982145995476e-07,2.314216233182272e-05
4.109166834632568e-07,1.0322708030252864e-06,3.999486000454956e-07,2.3028308769460446e-05
4.1139338617952507e-07,1.0349500690837481e-06,3.986800365092822e-07,2.291862433935048e-05
4.116560983403569e-07,1.0374524861240391e-06,3.982069221177045e-07,2.2812997957654747e-05
4.116901578745907e-07,1.03976428219346e-06,3.985625053714522e-07,2.2711685397224812e-05
4.114848869513925e-07,1.0418739181760179e-06,3.997872534443838e-07,2.261518178426836e-05
4.110334340745965e-07,1.043774876097263e-06,4.019316448851996e-07,2.252397481467976e-05
4.103316373133247e-07,1.045465454209886e-06,4.0505212482631004e-07,2.2438397418809512e-05
4.093766749105832e-07,1.0469471609128182e-06,4.0920287296585047e-07,2.2358681203893632e-05
4.08166867422409e-07,1.0482210878456202e-06,4.1442575317955885e-07,2.2285081067684352e-05
4.06703164324794e-07,1.0492827063760223e-06,4.207430143520968e-07,2.2217916803783364e-05
4.0499027286619967e-07,1.0501189755598786e-06,4.2815791556275175e-07,2.215751844074163e-05
4.0303617277418385e-07,1.050709794891958e-06,4.3665975965693844e-07,2.210419296551016e-05
4.0085072764079936e-07,1.0510308102664735e-06,4.46225367653586e-07,2.205832878544079e-05
3.9844378501550386e-07,1.0510548015938506e-06,4.56816797772491e-07,2.2020527537468447e-05
3.958248931343561e-07,1.0507523285678776e-06,4.683804574656624e-07,2.1991557717325806e-05
3.930064743425145e-07,1.0500923599341569e-06,4.808488559774963e-07,2.1972166629530434e-05
3.9000659826841307e-07,1.0490427769293772e-06,4.941425965720611e-07,2.196290699323119e-05
3.868474286970187e-07,1.0475729510306202e-06,5.081715679027203e-07,2.1964084956285752e-05
3.8355199324975687e-07,1.0456596795471917e-06,5.22836688746655e-07,2.1975957047795576e-05
3.80142472340613e-07,1.0432904487238554e-06,5.38033088290525e-07,2.199910005151401e-05
3.766393941236552e-07,1.0404591794605776e-06,5.536534825481888e-07,2.203459212931208e-05
3.730610540759384e-07,1.037160852677892e-06,5.69590807886044e-07,2.20838490250168e-05
3.694239419890133e-07,1.033391370001631e-06,5.857410650207592e-07,2.2148324233926927e-05
3.657451942720996e-07,1.029149257174353e-06,6.020065092354025e-07,2.222927287457592e-05
3.6204523562426245e-07,1.0244349506521656e-06,6.182970061080454e-07,2.2327610741323364e-05
3.583466701889805e-07,1.0192489744664269e-06,6.345283292671471e-07,2.244383945137675e-05
3.546706389641009e-07,1.013591996560485e-06,6.506190890572656e-07,2.257802843361781e-05
3.5103625358562033e-07,1.0074666954987043e-06,6.664885804186578e-07,2.272985873110092e-05
3.47463594623336e-07,1.0008796773508274e-06,6.820568122744581e-07,2.289870114420156e-05
3.43974871860203e-07,9.938440194289314e-07,6.97246864307587e-07,2.3083669711911208e-05
3.405917946585871e-07,9.863829048313629e-07,7.119879764147879e-07,2.328361499958956e-05
3.3733298776886763e-07,9.785331464437174e-07,7.262166719684345e-07,2.3497083440661805e-05
3.342136103283818e-07,9.703456575690668e-07,7.398748397249581e-07,2.3722300510981816e-05
3.3124589881060254e-07,9.618786950649005e-07,7.529066232251118e-07,2.3957218629328133e-05
3.2843954451606e-07,9.531887228277981e-07,7.652569429770857e-07,2.419965309240161e-05
3.258012830651912e-07,9.443291081709563e-07,7.768728081457866e-07,2.444748516216163e-05
3.233340792618742e-07,9.353537082099504e-07,7.877060187393505e-07,2.4698835588989334e-05
3.210372424792042e-07,9.263165435573194e-07,7.977154565597736e-07,2.4952136586456688e-05
3.189079363479178e-07,9.172689416368492e-07,8.068685418546476e-07,2.5206140634138933e-05
3.1694372687005673e-07,9.082582733195928e-07,8.151410428455325e-07,2.545992645967632e-05
3.151446462026141e-07,8.993273112085619e-07,8.225149271839563e-07,2.571290324541708e-05
3.135128433622387e-07,8.905126385629476e-07,8.289768361763224e-07,2.5964783119483287e-05
3.120506354911753e-07,8.818436439460859e-07,8.345188015498237e-07,2.621550206370037e-05
3.107591932205075e-07,8.733455492985619e-07,8.391398100127562e-07,2.6465092106352427e-05
3.0963781658427055e-07,8.650461921162052e-07,8.428473623725537e-07,2.671352768481609e-05
3.086829228922209e-07,8.569802191878549e-07,8.456585026298599e-07,2.696060051662292e-05
3.078875283585157e-07,8.491855595874715e-07,8.475997118398069e-07,2.720588587893891e-05
3.0724207131075605e-07,8.416948894719806e-07,8.487069862860881e-07,2.744879074385246e-05
3.067355540392355e-07,8.345291053946576e-07,8.490275435273345e-07,2.768861938074685e-05
3.0635574358421145e-07,8.276963190889841e-07,8.486220853522038e-07,2.792462665699399e-05
3.060891119828226e-07,8.211943311444906e-07,8.475636827004073e-07,2.8156062020508757e-05
3.059218575960017e-07,8.150131447055744e-07,8.459310733288144e-07,2.8382190444865624e-05
3.0584141299078786e-07,8.091361781352088e-07,8.43800838092674e-07,2.8602255334892462e-05
3.058366798534123e-07,8.035406636782359e-07,8.412438743416024e-07,2.8815395238308788e-05
3.0589782599077227e-07,7.981982133789902e-07,8.383256925147138e-07,2.9020595491803265e-05
3.060178548143677e-07,7.930763741320924e-07,8.351061695691575e-07,2.9216743973183284e-05
3.061941393094022e-07,7.88141107351481e-07,8.31636914268099e-07,2.9402782764173602e-05
3.064267486323246e-07,7.833582463899789e-07,8.279592304728745e-07,2.9577841228846576e-05
3.0671511459578444e-07,7.786925145958554e-07,8.24104937242797e-07,2.9741226074401098e-05
3.0705643369948444e-07,7.7410691162788e-07,8.201000280372065e-07,2.9892292112422197e-05
3.074461136888282e-07,7.695653264405149e-07,8.159710621777245e-07,3.0030313447851837e-05
3.078788467957029e-07,7.650356548417761e-07,8.117524612591004e-07,3.015444638870588e-05
3.083496336242478e-07,7.604900152229264e-07,8.07491217673975e-07,3.026380690652381e-05
3.088538101554045e-07,7.559043812050295e-07,8.032463428670877e-07,3.0357590419804492e-05
3.093854046275398e-07,7.512608926721349e-07,7.990836851991645e-07,3.0435133817913757e-05
3.099360029435205e-07,7.465500333441803e-07,7.950693848799196e-07,3.0495894724558208e-05
3.1049645384416535e-07,7.417685525818826e-07,7.912641363173463e-07,3.0539396010545306e-05
3.110603022674699e-07,7.36915763586394e-07,7.877183273447638e-07,3.056524627288651e-05
3.116263501731046e-07,7.319936036637235e-07,7.844684571964027e-07,3.057332607211007e-05
3.1219874779731286e-07,7.270102326120271e-07,7.81536487688058e-07,3.056399929360297e-05
3.127844779131964e-07,7.219823505384206e-07,7.78932793599978e-07,3.0538099141598995e-05
3.13390198404499e-07,7.169340117966273e-07,7.766612614034823e-07,3.0496707864706603e-05
3.1402119371513837e-07,7.118945393364701e-07,7.747236843634975e-07,3.0440981771903222e-05
3.146824427486158e-07,7.068972992262279e-07,7.731215372722191e-07,3.0372163502286214e-05
3.1537899841719546e-07,7.019783015156756e-07,7.718566339155085e-07,3.029166974092237e-05
3.161143669102516e-07,6.971739074445078e-07,7.709326756874319e-07,3.020108236289696e-05
3.168890590647038e-07,6.925171092363972e-07,7.703553718268479e-07,3.0102044534558808e-05
3.1770091090323354e-07,6.880332392997463e-07,7.701285657174002e-07,2.9996150927383586e-05
3.185460670107872e-07,6.837380282670758e-07,7.702502257439833e-07,2.9884866174050386e-05
3.194199483554503e-07,6.796388315561497e-07,7.7071174963221e-07,2.976947022037074e-05
3.2031778745756505e-07,6.757369547705205e-07,7.714974581139543e-07,2.9651017406737843e-05
3.212336722968069e-07,6.720299130389327e-07,7.725832331769083e-07,2.9530300437861103e-05
3.2215911101222e-07,6.685133668075282e-07,7.739373155724094e-07,2.9407827020114478e-05
3.230832605506664e-07,6.651809489020488e-07,7.755224466185552e-07,2.92838309131849e-05
3.239947848994639e-07,6.620220657402322e-07,7.77296765639888e-07,2.9158334480874853e-05
3.248832380574992e-07,6.590215940205886e-07,7.792143189209528e-07,2.9031226033188396e-05
3.2573833803464e-07,6.561640724559951e-07,7.812262961320026e-07,2.89022821865534e-05
3.26548323966783e-07,6.534412843257223e-07,7.832825258690993e-07,2.877112969531112e-05
3.2729957084726207e-07,6.508577002529246e-07,7.853339463396435e-07,2.863721079411526e-05
3.2797755169667725e-07,6.484275202187669e-07,7.873369196490259e-07,2.8499797093149236e-05
3.285681122192628e-07,6.461678745467661e-07,7.892573382048838e-07,2.8358044884605847e-05
3.2905797468677137e-07,6.440984116232471e-07,7.910708901450905e-07,2.8211066509992925e-05
3.294340295639503e-07,6.42246628776708e-07,7.927587195949931e-07,2.8058002655121045e-05
3.2968267524402626e-07,6.406511756196018e-07,7.943031861221907e-07,2.789808599530362e-05
3.297904388124181e-07,6.393589394218955e-07,7.956884116363249e-07,2.773068990540581e-05
3.2974535223310513e-07,6.384166908035024e-07,7.969029181335038e-07,2.7555367064984442e-05
3.2953750912036e-07,6.378620234327733e-07,7.979390581412254e-07,2.737186480242607e-05
3.291582963198047e-07,6.377185012423368e-07,7.987896103476127e-07,2.7180093501886152e-05
3.285998953210241e-07,6.379963219481338e-07,7.994451963947156e-07,2.69800724782328e-05
3.2785655983100183e-07,6.386965017497014e-07,7.998937198437575e-07,2.6771885185253305e-05
3.269269518010202e-07,6.398153289472247e-07,8.00121353842717e-07,2.655564145344966e-05
3.258149247815373e-07,6.413468248006375e-07,8.001144949082181e-07,2.6331486114938856e-05
3.245274667193523e-07,6.4328340643143e-07,7.998608355679592e-07,2.6099689912428407e-05
3.230720602202012e-07,6.456162623440336e-07,7.993493492794649e-07,2.58607331639584e-05
3.214554229666763e-07,6.48336193543376e-07,7.985719141941348e-07,2.5615279392692333e-05
3.1968328421707e-07,6.514342655306115e-07,7.975259956806172e-07,2.5364058739446632e-05
3.177610782521054e-07,6.549016446282654e-07,7.962140149928453e-07,2.510774461193796e-05
3.1569498838593604e-07,6.587313215136086e-07,7.946393480982999e-07,2.484690859630099e-05
3.1349206311243727e-07,6.629239692545527e-07,7.928036967264739e-07,2.4582063375558625e-05
3.1115929380450037e-07,6.674932659234872e-07,7.907074780043373e-07,2.4313711215716226e-05
3.087028570422735e-07,6.724642270472673e-07,7.88350429824358e-07,2.404240850702884e-05
3.0612896168112433e-07,6.778639115888756e-07,7.857313273001221e-07,2.376890953454735e-05
3.034453896744033e-07,6.837103281752207e-07,7.828487914161791e-07,2.3494288611950456e-05
3.0066148502101286e-07,6.900069695224188e-07,7.797034964271229e-07,2.321993129346098e-05
2.977871716073277e-07,6.967448550935186e-07,7.763000490205844e-07,2.2947442113264112e-05
2.9483259009156307e-07,7.039069225713981e-07,7.726476437213684e-07,2.2678529648816618e-05
2.918079784901204e-07,7.114698791212169e-07,7.687585716796087e-07,2.2414874033548864e-05
2.887237184436593e-07,7.194056066943737e-07,7.646450769659322e-07,2.215798633263353e-05
2.855918833091023e-07,7.276841228045671e-07,7.603188031492784e-07,2.1909109663894115e-05
2.824291788910867e-07,7.362739730164912e-07,7.557947344797768e-07,2.1669208027358986e-05
2.7925811141466514e-07,7.451397239599152e-07,7.510943298898585e-07,2.143900469456464e-05
2.761039856170791e-07,7.54240589465092e-07,7.462426657011105e-07,2.121899861127629e-05
2.729903909922364e-07,7.635303921061506e-07,7.412632163209559e-07,2.1009461129200168e-05
2.699371065225063e-07,7.729597993600236e-07,7.361768094608959e-07,2.0810503674763466e-05
2.6696054241703636e-07,7.824824232056772e-07,7.31003011454223e-07,2.062226859430825e-05
2.6407475383239213e-07,7.920598604030508e-07,7.257597508724054e-07,2.04450877962392e-05
2.612915599589381e-07,8.016596124859023e-07,7.204630425360034e-07,2.027945396407337e-05
2.5861985650571136e-07,8.112480484952672e-07,7.151271581114006e-07,2.012597216168963e-05
2.5606578757035425e-07,8.207858898930228e-07,7.097627080770062e-07,1.998544651695849e-05
2.5363434995777825e-07,8.302291169266922e-07,7.043746456312524e-07,1.9858924592810323e-05
2.513306342277732e-07,8.395337376606272e-07,6.98962727109643e-07,1.974757848224332e-05
2.4915939088566607e-07,8.486640694841818e-07,6.93523016816723e-07,1.9652540448462632e-05
2.471244086157963e-07,8.576009647838131e-07,6.880494704876698e-07,1.957478977528324e-05
2.4523049161271384e-07,8.663415678192356e-07,6.825370083632751e-07,1.9515080578906227e-05
2.4348782189956387e-07,8.748891658885914e-07,6.769860143719217e-07,1.9473873386027405e-05
2.419143353136678e-07,8.832421511224919e-07,6.714061059996618e-07,1.945126796421266e-05
2.4053394711616895e-07,8.913892448425846e-07,6.658187250724685e-07,1.944696305630636e-05
2.3937287513247056e-07,8.993105473698645e-07,6.602574238571443e-07,1.9460257494766713e-05
2.384560360309482e-07,9.069810323615885e-07,6.547627776951031e-07,1.949008711842883e-05
2.378044910123701e-07,9.143727163120913e-07,6.493740251606703e-07,1.9535086714305443e-05
2.3743390327931327e-07,9.214545940479608e-07,6.441244175092811e-07,1.959366666493396e-05
2.373533126939622e-07,9.281937047154356e-07,6.390436728227239e-07,1.9664078842682146e-05
2.3756509543276615e-07,9.345583197742665e-07,6.34164084422555e-07,1.9744465146991243e-05
2.3806713311337863e-07,9.405199497309034e-07,6.295229666731371e-07,1.9832920777723778e-05
2.388558844339894e-07,9.460530820773563e-07,6.25157373923692e-07,1.9927577690118782e-05
2.3992774561185587e-07,9.511349055941649e-07,6.210964010780283e-07,2.0026677479268968e-05
2.412783952540276e-07,9.55745612826114e-07,6.173594949066748e-07,2.012860779922665e-05
2.4290209375786717e-07,9.598678458261852e-07,6.139605726657832e-07,2.0231882514306472e-05
2.4479195884588545e-07,9.634869566147067e-07,6.109118517434187e-07,2.0335073448826266e-05
2.4694071302252986e-07,9.665953591257327e-07,6.082263586607176e-07,2.0436744061093584e-05
2.4934093608912284e-07,9.69198898704879e-07,6.059215219273667e-07,2.0535429438767013e-05
2.5198466117499926e-07,9.713201988879623e-07,6.040213505355693e-07,2.0629661706791427e-05
2.548624469056034e-07,9.729966315098207e-07,6.025533127034504e-07,2.0718001780230606e-05
2.5796223958675146e-07,9.742731825577738e-07,6.015417039915544e-07,2.079904549710409e-05
2.6126961890259466e-07,9.75193733365303e-07,6.010022541522033e-07,2.087141858816448e-05
2.647692646838188e-07,9.757958044201799e-07,6.009407612412119e-07,2.093379990702237e-05
2.6844514679538344e-07,9.761089560210114e-07,6.013542074296971e-07,2.098500280742148e-05
2.722793066121903e-07,9.76153828224859e-07,6.022307031166915e-07,2.1024103005898828e-05
2.7625165108804776e-07,9.759420126610929e-07,6.035484307452471e-07,2.1050531834043066e-05
2.803414591972812e-07,9.754777822094906e-07,6.052768329518115e-07,2.106404067380119e-05
2.845283913580183e-07,9.747600884057386e-07,6.073808344394544e-07,2.10645444800242e-05
2.887917014199594e-07,9.737833484837613e-07,6.09825024522741e-07,2.1051969390004573e-05
2.931092707249526e-07,9.72537894269478e-07,6.125748067021736e-07,2.1026209484907856e-05
2.974581602168453e-07,9.710113455882481e-07,6.15595704688656e-07,2.0987172507196866e-05
3.018161814112264e-07,9.69191204058037e-07,6.188527663323067e-07,2.093482901294873e-05
3.0616232967401854e-07,9.670681829597559e-07,6.223097707837478e-07,2.086922609168633e-05
3.1047587577555287e-07,9.646374987885016e-07,6.259294747272238e-07,2.079047509851373e-05
3.1473735291522577e-07,9.618964896327558e-07,6.296755099966073e-07,2.069871748490341e-05
3.189318859816489e-07,9.58842256603248e-07,6.335127728866815e-07,2.0594087722909408e-05
3.230499857743233e-07,9.554723703193407e-07,6.374051731820212e-07,2.047669974940323e-05
3.270844912206342e-07,9.517863789735256e-07,6.413137425407603e-07,2.034664641359892e-05
3.310291184502562e-07,9.477862400468594e-07,6.451971269902675e-07,2.0203994736091704e-05
3.34880666757202e-07,9.434762219890979e-07,6.490141053295935e-07,2.004878719895933e-05
3.3864035338095797e-07,9.388614439717918e-07,6.527280815067558e-07,1.9881078716663814e-05
3.423121163184163e-07,9.339461049906868e-07,6.563117579196518e-07,1.970101497620816e-05
3.459002934653315e-07,9.287339897311585e-07,6.597469571320938e-07,1.9508887669805452e-05
3.494087872213555e-07,9.232289568902763e-07,6.630194851558596e-07,1.9305106091316893e-05
3.528415443116297e-07,9.174337519392721e-07,6.661160654403881e-07,1.9090139314594524e-05
3.5620201142243425e-07,9.113505571141087e-07,6.690263984060643e-07,1.886451669153292e-05
3.594907998066615e-07,9.049834845505726e-07,6.717462093699131e-07,1.86288923175832e-05
3.6270426108689095e-07,8.983386616765846e-07,6.742779475611618e-07,1.838411373471521e-05
3.6583515232011343e-07,8.914215990989729e-07,6.766290788894525e-07,1.813121750985069e-05
3.688742668314429e-07,8.842361720462692e-07,6.7880894006854e-07,1.787136823259998e-05
3.71812506809861e-07,8.767869345442686e-07,6.808252934650478e-07,1.7605809604717338e-05
3.746421090696086e-07,8.690825502307812e-07,6.826813694868372e-07,1.733581967890012e-05
3.773556823386062e-07,8.611372245039316e-07,6.843743431921015e-07,1.7062686355545434e-05
3.799444637776502e-07,8.529690767991072e-07,6.858958541735121e-07,1.6787717306600616e-05
3.8239821123182715e-07,8.445993270984644e-07,6.872345055651043e-07,1.6512222810089308e-05
3.847073959789798e-07,8.360562309320477e-07,6.883804768445177e-07,1.6237456556691115e-05
3.868654995045031e-07,8.273814520906977e-07,6.893304029583828e-07,1.5964581967763227e-05
3.888684727571164e-07,8.186335922631224e-07,6.900885919985175e-07,1.5694725230640382e-05
3.9071212081616796e-07,8.098845712122269e-07,6.906634548908178e-07,1.5429053576385245e-05
3.9239032314894634e-07,8.012086540988142e-07,6.91062511763411e-07,1.5168761091807751e-05
3.9389520921413897e-07,7.926719165568641e-07,6.912895095346211e-07,1.4914977169849002e-05
3.952190194342706e-07,7.843305414001882e-07,6.913442999326483e-07,1.4668680647293408e-05
3.963565817783186e-07,7.762357251790081e-07,6.912256742286437e-07,1.4430657085438822e-05
3.973073674038929e-07,7.684378372211469e-07,6.909371914793601e-07,1.4201539062144076e-05
3.980768449991693e-07,7.609884108143924e-07,6.904928359522507e-07,1.3981922692401993e-05
3.9867685327325673e-07,7.539400056969181e-07,6.899182827161294e-07,1.3772471784513284e-05
3.991250947063621e-07,7.473414272291138e-07,6.892473499366928e-07,1.357396389704118e-05
3.9944389200119365e-07,7.412314056061206e-07,6.885164373260343e-07,1.3387278815520121e-05
3.996579720366046e-07,7.356370787936482e-07,6.877592098251765e-07,1.3213322995068902e-05
3.9979185336098157e-07,7.305765941965195e-07,6.870024567223258e-07,1.3052931260671096e-05
3.998684423458704e-07,7.260617972841002e-07,6.862636575515333e-07,1.2906802805960425e-05
3.9991005306856935e-07,7.221023996578612e-07,6.855504987344095e-07,1.2775480547963937e-05
3.999398503840549e-07,7.18713976740503e-07,6.848621366386182e-07,1.2659404024149445e-05
3.9998023555496907e-07,7.159241476565845e-07,6.841907874685553e-07,1.2559099156073234e-05
4.0004932348775796e-07,7.137697229346856e-07,6.835223604527395e-07,1.247543057945378e-05
4.001598825110386e-07,7.122868551733396e-07,6.828370766331889e-07,1.240967507836593e-05
4.0032243681322106e-07,7.115016852538448e-07,6.821112040424211e-07,1.236330169330366e-05
4.0054956597326985e-07,7.114256419868046e-07,6.813194613675754e-07,1.2337635399209226e-05
4.00856358968812e-07,7.120553902122927e-07,6.804365400442195e-07,1.23336737731193e-05
4.012565348452852e-07,7.133757491448707e-07,6.794374801123796e-07,1.2352208736069839e-05
4.0175920770564425e-07,7.153626542484165e-07,6.78300073300566e-07,1.2394194069529368e-05
4.023690761779099e-07,7.179848807794403e-07,6.770116460483803e-07,1.2461050311148678e-05
4.030873467595709e-07,7.212055615916459e-07,6.755774896354757e-07,1.2554627248599973e-05
4.039115414390078e-07,7.249827643660793e-07,6.740249523801525e-07,1.2676946707628849e-05
4.0483659238753207e-07,7.292696402521491e-07,6.723993527206968e-07,1.2830014706203395e-05
4.0585761824334023e-07,7.340176769206937e-07,6.707541091308446e-07,1.3015738492887754e-05
4.069709666984497e-07,7.391819181005555e-07,6.691406479813579e-07,1.3235839604975645e-05
4.0817243285680635e-07,7.447232311610302e-07,6.676020079832975e-07,1.3491742829926724e-05
4.0945479598551344e-07,7.506069417966322e-07,6.66170672884329e-07,1.3784485439667438e-05
4.108063921074976e-07,7.567999431419996e-07,6.648691378181077e-07,1.4114658258551178e-05
4.122110576193181e-07,7.632669643457584e-07,6.637125902173202e-07,1.4482357149951343e-05
4.1364912952733393e-07,7.699677179806973e-07,6.627123032840996e-07,1.488713070414362e-05
4.1509905102338097e-07,7.768581087159975e-07,6.618770941639636e-07,1.5327930673982515e-05
4.165390982110972e-07,7.838932691685302e-07,6.612121094739276e-07,1.5803093348038352e-05
4.1794919945177737e-07,7.910266487350255e-07,6.607161829928731e-07,1.631036706389042e-05
4.1931242739688547e-07,7.982063415082989e-07,6.603797829748774e-07,1.6846976311035764e-05
4.2061487575635855e-07,8.053735891194527e-07,6.601851347107571e-07,1.7409724869225122e-05
4.2184426632802927e-07,8.124637227541096e-07,6.601093559061451e-07,1.7995142077023848e-05
4.2298858115124937e-07,8.194076302997123e-07,6.601313603571987e-07,1.859964588630989e-05
4.2403505380358845e-07,8.261332124202237e-07,6.602404245201567e-07,1.921968111713127e-05
4.249695706976134e-07,8.325669010328213e-07,6.604401484779092e-07,1.9851798830047158e-05
4.257764887498648e-07,8.386352651252694e-07,6.607445215770393e-07,2.0492671077442384e-05
4.2643901824941635e-07,8.442667862967072e-07,6.611705122308384e-07,2.113907760351984e-05
4.2694025212550503e-07,8.493934779999511e-07,6.617336887865151e-07,2.1787910417482464e-05
4.272653170937685e-07,8.539514840297119e-07,6.624492567673299e-07,2.243621198481072e-05
4.2740449878163156e-07,8.578810996949853e-07,6.63335417997844e-07,2.308121322724364e-05
4.273545473319329e-07,8.611284512380423e-07,6.644142360220132e-07,2.3720294365362374e-05
4.2711650419576827e-07,8.63648595796994e-07,6.657095686599847e-07,2.435085384834729e-05
4.266926102843046e-07,8.654060206262848e-07,6.672456126485215e-07,2.4970203544128604e-05
4.260852055718028e-07,8.663716562633112e-07,6.690469754848991e-07,2.5575580239548166e-05
4.252976464400288e-07,8.665212617797363e-07,6.711372534715044e-07,2.616421771829673e-05
4.243356177958418e-07,8.658388799512003e-07,6.735356150499232e-07,2.6733403868364827e-05
4.232072867160286e-07,8.643225489176346e-07,6.762538399215183e-07,2.728050187646901e-05
4.2192204313556853e-07,8.61985467796454e-07,6.79294360314541e-07,2.78029519841776e-05
4.2048903786716843e-07,8.588505330544583e-07,6.826493595809438e-07,2.8298303145227724e-05
4.189163448465525e-07,8.549444242245608e-07,6.86301565405288e-07,2.87642727700545e-05
4.1721061740295404e-07,8.502971265430745e-07,6.90226293328629e-07,2.9198780378979804e-05
4.1537693984820563e-07,8.449451292432557e-07,6.943932372965427e-07,2.959994703991036e-05
4.1341898999980274e-07,8.389331134067765e-07,6.987665419865642e-07,2.9966088135315497e-05
4.113398110821531e-07,8.323137579932473e-07,7.033045562444178e-07,3.0295749187288176e-05
4.091425986848536e-07,8.251486214114177e-07,7.079619392335578e-07,3.058780615530573e-05
4.0683114638807897e-07,8.175076941115102e-07,7.126933529343038e-07,3.0841528002670826e-05
4.044107426233283e-07,8.094636308341244e-07,7.174556990990043e-07,3.105651105408182e-05
4.0188881440987156e-07,8.010847045935675e-07,7.222077396225316e-07,3.1232545607853367e-05
3.992738948188606e-07,7.924316539390752e-07,7.269098623680863e-07,3.1369506552854686e-05
3.965744218279585e-07,7.835568259320245e-07,7.31526286552247e-07,3.146730884554909e-05
3.937993425687642e-07,7.745038756659043e-07,7.360263648013079e-07,3.152594057077323e-05
3.9095950824150425e-07,7.653091847819528e-07,7.403824002192102e-07,3.154553401172276e-05
3.8806762502446366e-07,7.560041752444443e-07,7.445672748245851e-07,3.1526421621412394e-05
3.8513642668168176e-07,7.466162993156441e-07,7.485545338539844e-07,3.146922120272652e-05
3.821770241110437e-07,7.371691267070848e-07,7.523197087802281e-07,3.1375004076476234e-05
3.791985292103003e-07,7.27682444665674e-07,7.558403667934698e-07,3.124540518884773e-05
3.762079477956567e-07,7.181720204038086e-07,7.590941295053206e-07,3.1082505643211856e-05
3.7320997542265346e-07,7.086498846304619e-07,7.620570785871586e-07,3.0888573399213195e-05
3.7020833561686633e-07,6.991259373925828e-07,7.647044486615602e-07,3.066584975685435e-05
3.672094806817181e-07,6.896118371162796e-07,7.670131722371924e-07,3.041650074699283e-05
3.6422518097177317e-07,6.801279152380979e-07,7.689649562594734e-07,3.014283061150821e-05
3.612705587726758e-07,6.707090086914918e-07,7.70548614724335e-07,2.9847654231747272e-05
3.5836026507876045e-07,6.614040536294186e-07,7.717612430082059e-07,2.953448905063548e-05
3.555066639569301e-07,6.522703009143739e-07,7.726070331569547e-07,2.9207430513509028e-05
3.52720389608757e-07,6.433665996500784e-07,7.73093011951656e-07,2.8870892132683757e-05
3.500125470567996e-07,6.347490341687982e-07,7.732255505575583e-07,2.8529360262805804e-05
3.473962327438798e-07,6.26470934161105e-07,7.730111384377335e-07,2.8187171793258648e-05
3.448852134158393e-07,6.185856173069671e-07,7.72458963723875e-07,2.784830467354732e-05
3.4249171025752285e-07,6.111476829003642e-07,7.715834706326214e-07,2.7516203428302343e-05
3.4022638944116647e-07,6.042125912266824e-07,7.704074110570936e-07,2.719367159061708e-05
3.3810152336653965e-07,5.978348842106348e-07,7.689611750969418e-07,2.6882847905666087e-05
3.361347849179184e-07,5.920640250378576e-07,7.672764861527454e-07,2.6585246720984423e-05
3.343489718857133e-07,5.869400976896653e-07,7.65382787759841e-07,2.630181623659764e-05
3.327673575274599e-07,5.824927995931455e-07,7.63311777152135e-07,2.603299376095675e-05
3.314087032806994e-07,5.787435700520783e-07,7.611044312733514e-07,2.57787691589601e-05
3.302844817517272e-07,5.757070429048018e-07,7.588143901250024e-07,2.553876895846748e-05
3.293987211901074e-07,5.733900659721057e-07,7.565063417299781e-07,2.531237478102377e-05
3.287497149699515e-07,5.717897270187699e-07,7.542496697881011e-07,2.509887862044413e-05
3.283317888327184e-07,5.708915074596504e-07,7.52109415990749e-07,2.4897624330650864e-05
3.281359545879e-07,5.70669556001502e-07,7.501384733079815e-07,2.470806710463497e-05
3.281498651893456e-07,5.710896638049166e-07,7.483743608814494e-07,2.452976765629594e-05
3.283580940708304e-07,5.721132707246254e-07,7.468404847399558e-07,2.436238699471623e-05
3.287431118729513e-07,5.737025136937075e-07,7.455489295974274e-07,2.420567613969301e-05
3.29286188086463e-07,5.758243597288685e-07,7.445030165810988e-07,2.405942569292861e-05
3.2996807511933825e-07,5.784505911576914e-07,7.436990175981486e-07,2.3923403869823003e-05
3.307707703885821e-07,5.815555335977066e-07,7.431264831952696e-07,2.379731291545679e-05
3.3168005440957606e-07,5.851137230102893e-07,7.42768225670372e-07,2.3680745109983357e-05
3.326868684741179e-07,5.890973111107437e-07,7.426009486826312e-07,2.357315406154046e-05
3.337869339823833e-07,5.934757691791221e-07,7.425958767297292e-07,2.347387677368832e-05
3.3497880736765673e-07,5.982194387615647e-07,7.427195227686256e-07,2.338216985247869e-05
3.362614409030752e-07,6.033015523743743e-07,7.429360781659281e-07,2.3297211891755604e-05
3.376331145435929e-07,6.086946119548857e-07,7.432108521871281e-07,2.321808752530901e-05
3.3909139420637897e-07,6.143660443318228e-07,7.43511297650318e-07,2.3143796515581985e-05
3.40633040441346e-07,6.20278045467584e-07,7.438044804780729e-07,2.307329780600038e-05
3.422538215610425e-07,6.263911907665616e-07,7.440543857860952e-07,2.300554380976207e-05
3.4394767276053445e-07,6.326706397571974e-07,7.442214958909277e-07,2.2939475459212656e-05
3.457054443479859e-07,6.39091680033194e-07,7.442636827488716e-07,2.2874005449501762e-05
3.47514303033109e-07,6.456398074062468e-07,7.441373547652657e-07,2.280801440147171e-05
3.493578392624426e-07,6.523051500088578e-07,7.437987208439663e-07,2.2740367299523613e-05
3.512167544886845e-07,6.59075760041718e-07,7.432050177279675e-07,2.26699849440097e-05
3.5307054970435576e-07,6.659333730970995e-07,7.423158115851699e-07,2.2595997381610932e-05
3.549005434117414e-07,6.72852382332022e-07,7.410948306754552e-07,2.25178894301346e-05
3.5669293473950355e-07,6.798020630115039e-07,7.395119485802203e-07,2.2435482884256325e-05
3.5843894729958954e-07,6.867504406002221e-07,7.375436728083891e-07,2.234875967612395e-05
3.601315573676285e-07,6.936669384078548e-07,7.351719000517666e-07,2.225771642167356e-05
3.617624835221504e-07,7.005241435714291e-07,7.323833132255859e-07,2.2162368750804277e-05
3.6332237638928e-07,7.072993191070802e-07,7.291702241226916e-07,2.206281488728902e-05
3.648029828318585e-07,7.139741035301688e-07,7.255315601893891e-07,2.1959230168621092e-05
3.6619795630822246e-07,7.20534439780644e-07,7.214744155187671e-07,2.185180463551744e-05
3.675011224421453e-07,7.269722197349473e-07,7.170153293592306e-07,2.1740773594247172e-05
3.6870464028858853e-07,7.332845574838965e-07,7.121776518517176e-07,2.1626644160223222e-05
3.6979954086635437e-07,7.394695200173894e-07,7.069861399455999e-07,2.1510454399513767e-05
3.707780770483157e-07,7.455219172539674e-07,7.014645037755545e-07,2.1393818620114482e-05
3.7163560498665045e-07,7.514320010776933e-07,6.956362090447749e-07,2.1278780969103496e-05
3.723711189269477e-07,7.571872782794354e-07,6.895241918235463e-07,2.1167627235452626e-05
3.7298694809953034e-07,7.62774442744019e-07,6.831495848597776e-07,2.106269219386937e-05
3.734873944429405e-07,7.681796431762066e-07,6.765326942827357e-07,2.0966239185385272e-05
3.7387657336712644e-07,7.733883044238687e-07,6.696957391028396e-07,2.088053379197644e-05
3.741573331767461e-07,7.783841844941728e-07,6.626654971968126e-07,2.080799752919968e-05
3.743324477628049e-07,7.831482155425939e-07,6.554767941518237e-07,2.0751216898342187e-05
3.7440651975810095e-07,7.876600141530129e-07,6.481751834243848e-07,2.0712815122378345e-05
3.743866321117136e-07,7.919012993972818e-07,6.408138192253854e-07,2.0695314664879654e-05
3.742827728348854e-07,7.958581338347062e-07,6.334452834297847e-07,2.0701024338017635e-05
3.74108343642789e-07,7.99521662966873e-07,6.261146823995557e-07,2.073193983007345e-05
3.738790599259845e-07,8.028877775283303e-07,6.188573985814385e-07,2.0789664581424218e-05
3.736120269126351e-07,8.059548896725752e-07,6.117005032670447e-07,2.0875356954032944e-05
3.73327249947982e-07,8.087206367196384e-07,6.04666116639213e-07,2.098970418270758e-05
3.7304950351936436e-07,8.111796224125571e-07,5.9777427635084e-07,2.1132926444764983e-05
3.728082688354576e-07,8.133222748514643e-07,5.910428078682112e-07,2.1304798131134823e-05
